Data from test_V78500241_1091.txt Node
Date: Fri Mar 25 14:41:18 CST 2022
User: usil
Spectrometer: V785-0024
Trigger mode: 0
Integration Time (sec): 4.000000E-1
Scans to average: 1
Nonlinearity correction enabled: false
Boxcar width: 0
Storing dark spectrum: false
XAxis mode: Wavelengths
Number of Pixels in Spectrum: 1024
>>>>>Begin Spectral Data<<<<<
801.071	22744
801.214	22630
801.356	22394
801.499	22177
801.641	22128
801.783	22055
801.926	22032
802.068	21941
802.211	21922
802.353	21842
802.496	21698
802.638	21485
802.78	21591
802.923	21374
803.065	21359
803.208	21420
803.35	21382
803.492	21507
803.635	21595
803.777	21344
803.919	21557
804.061	21739
804.204	21545
804.346	21374
804.488	21302
804.63	21336
804.773	21252
804.915	21302
805.057	21606
805.199	21211
805.341	21325
805.483	21386
805.626	21382
805.768	21249
805.91	21355
806.052	21317
806.194	21237
806.336	21568
806.478	21401
806.62	21237
806.762	21420
806.904	21511
807.046	21804
807.188	21568
807.33	21709
807.472	21724
807.614	21774
807.756	21595
807.898	21644
808.04	21534
808.182	21599
808.324	21644
808.465	21793
808.607	22013
808.749	22223
808.891	22196
809.033	22314
809.174	22154
809.316	22055
809.458	21964
809.6	21979
809.741	21838
809.883	21964
810.025	22074
810.166	21895
810.308	21945
810.45	22036
810.591	21835
810.733	21743
810.875	21694
811.016	21572
811.158	21534
811.299	21553
811.441	21542
811.582	21614
811.724	21576
811.865	21477
812.007	21595
812.148	21439
812.29	21595
812.431	21713
812.573	21816
812.714	21937
812.855	21941
812.997	22090
813.138	22299
813.279	22090
813.421	22051
813.562	22040
813.703	21732
813.845	21694
813.986	21485
814.127	21268
814.268	21146
814.41	21203
814.551	21096
814.692	21169
814.833	20948
814.974	21043
815.115	21047
815.256	20857
815.397	20864
815.539	20982
815.68	20845
815.821	20765
815.962	20826
816.103	20735
816.244	20606
816.385	20526
816.526	20621
816.666	20377
816.807	20286
816.948	20381
817.089	20442
817.23	20191
817.371	20138
817.512	20248
817.653	20218
817.793	20096
817.934	20187
818.075	20309
818.216	20229
818.356	20210
818.497	20138
818.638	19879
818.778	19883
818.919	19894
819.06	19898
819.2	20126
819.341	20103
819.481	20115
819.622	20278
819.762	20389
819.903	20370
820.043	20290
820.184	20195
820.324	20153
820.465	20282
820.605	20221
820.746	20278
820.886	20024
821.026	20252
821.167	20069
821.307	20278
821.447	20092
821.588	19963
821.728	20035
821.868	19753
822.008	19613
822.149	19499
822.289	19518
822.429	19278
822.569	19365
822.709	19232
822.849	19107
822.99	19179
823.13	19148
823.27	19012
823.41	18951
823.55	18772
823.69	18993
823.83	18863
823.97	18878
824.11	18665
824.25	18566
824.389	18703
824.529	18787
824.669	18642
824.809	18776
824.949	18821
825.089	18707
825.228	18722
825.368	18570
825.508	18445
825.648	18536
825.787	18490
825.927	18566
826.067	18437
826.206	18551
826.346	18464
826.485	18521
826.625	18517
826.765	18578
826.904	18429
827.044	18410
827.183	18239
827.323	18277
827.462	18213
827.601	18171
827.741	18270
827.88	18155
828.02	18034
828.159	18121
828.298	18190
828.437	18254
828.577	18178
828.716	18376
828.855	18174
828.994	17969
829.134	17992
829.273	17958
829.412	17863
829.551	17836
829.69	17958
829.829	17935
829.968	18068
830.107	18007
830.246	17984
830.385	17920
830.524	17843
830.663	17786
830.802	17619
830.941	17516
831.08	17520
831.219	17714
831.357	17600
831.496	17726
831.635	17619
831.774	17512
831.913	17417
832.051	17395
832.19	17311
832.329	17395
832.467	17277
832.606	17117
832.744	17181
832.883	17246
833.022	17269
833.16	17239
833.299	17299
833.437	17223
833.576	17277
833.714	17258
833.852	17315
833.991	17421
834.129	17406
834.267	17280
834.406	17242
834.544	17383
834.682	17444
834.821	17212
834.959	17623
835.097	17318
835.235	17292
835.373	17292
835.511	17299
835.65	17231
835.788	17220
835.926	17079
836.064	16995
836.202	17052
836.34	17315
836.478	17246
836.615	17269
836.753	17208
836.891	17273
837.029	17223
837.167	17159
837.305	17166
837.443	17056
837.58	17041
837.718	17155
837.856	17140
837.993	16957
838.131	17025
838.269	17025
838.406	17003
838.544	17056
838.681	16847
838.819	16801
838.956	16618
839.094	16615
839.231	16672
839.369	16771
839.506	17037
839.643	16759
839.781	16618
839.918	16561
840.055	16634
840.193	16573
840.33	16478
840.467	16645
840.604	16622
840.742	16877
840.879	16462
841.016	16538
841.153	16478
841.29	16641
841.427	16649
841.564	16645
841.701	16542
841.838	16561
841.975	16474
842.112	16497
842.249	16432
842.385	16363
842.522	16500
842.659	16390
842.796	16432
842.933	16356
843.069	16398
843.206	16428
843.343	16402
843.479	16398
843.616	16542
843.752	16192
843.889	16158
844.025	16329
844.162	16158
844.298	16166
844.435	16204
844.571	16185
844.708	16265
844.844	16356
844.98	16451
845.117	16226
845.253	16249
845.389	16181
845.525	16265
845.661	16314
845.798	16428
845.934	16512
846.07	16424
846.206	16504
846.342	16573
846.478	16265
846.614	15968
846.75	15793
846.886	15709
847.022	15895
847.158	15766
847.294	15770
847.429	15770
847.565	15812
847.701	15979
847.837	15595
847.972	15447
848.108	15523
848.244	15485
848.379	15374
848.515	15321
848.65	15359
848.786	15389
848.921	15283
849.057	15370
849.192	15488
849.328	15340
849.463	15355
849.598	15249
849.734	15264
849.869	15211
850.004	15127
850.14	15112
850.275	15188
850.41	15070
850.545	15112
850.68	15043
850.815	15100
850.95	15112
851.085	15245
851.22	15245
851.355	15070
851.49	15097
851.625	15093
851.76	15131
851.895	15017
852.03	14906
852.165	15032
852.299	15093
852.434	15222
852.569	15081
852.703	15150
852.838	15127
852.973	15298
853.107	15222
853.242	15081
853.376	14921
853.511	14864
853.645	14960
853.78	15077
853.914	15024
854.048	14956
854.183	14956
854.317	14975
854.451	15081
854.585	14960
854.72	14883
854.854	15051
854.988	14902
855.122	14891
855.256	14849
855.39	14845
855.524	15043
855.658	15024
855.792	15028
855.926	14952
856.06	14994
856.194	14960
856.327	14963
856.461	14910
856.595	14918
856.729	14914
856.862	15055
856.996	14982
857.13	15093
857.263	14986
857.397	15112
857.53	14937
857.664	14948
857.797	15039
857.931	15100
858.064	15024
858.197	15112
858.331	14956
858.464	14952
858.597	14811
858.731	14944
858.864	14975
858.997	14861
859.13	14887
859.263	14979
859.396	15013
859.529	14948
859.662	14895
859.795	14971
859.928	14895
860.061	15123
860.194	15169
860.327	14956
860.46	14914
860.592	15062
860.725	15070
860.858	15093
860.99	14960
861.123	14861
861.256	14857
861.388	15077
861.521	15545
861.653	14967
861.786	14689
861.918	14746
862.05	14918
862.183	14891
862.315	14910
862.447	14925
862.58	14895
862.712	14739
862.844	14705
862.976	14800
863.108	14758
863.24	15192
863.372	14644
863.504	14697
863.636	14758
863.768	14716
863.9	14762
864.032	14655
864.164	14705
864.296	14716
864.428	14788
864.559	14781
864.691	14773
864.823	14689
864.954	14739
865.086	14811
865.217	14712
865.349	14648
865.48	14701
865.612	14693
865.743	14883
865.875	14640
866.006	14571
866.137	14655
866.269	14693
866.4	14640
866.531	14716
866.662	14617
866.793	14613
866.924	14689
867.055	14697
867.186	14682
867.317	14659
867.448	14583
867.579	14587
867.71	14571
867.841	14610
867.972	14758
868.103	14678
868.233	14689
868.364	14686
868.495	14739
868.625	14963
868.756	15081
868.886	14838
869.017	14895
869.147	15020
869.278	15093
869.408	14918
869.539	14876
869.669	14971
869.799	14975
869.929	15001
870.06	15005
870.19	15260
870.32	15165
870.45	15241
870.58	15340
870.71	15545
870.84	15420
870.97	15416
871.1	15291
871.23	15405
871.36	15561
871.489	15412
871.619	15485
871.749	15511
871.879	15591
872.008	15679
872.138	15542
872.267	15591
872.397	15386
872.526	15386
872.656	15310
872.785	15439
872.915	15511
873.044	15595
873.173	15580
873.303	15561
873.432	15568
873.561	15660
873.69	15660
873.819	15534
873.948	15587
874.077	15530
874.206	15519
874.335	15572
874.464	15709
874.593	15865
874.722	15888
874.851	15854
874.979	15911
875.108	15869
875.237	15846
875.365	15907
875.494	15888
875.623	15945
875.751	15907
875.88	15899
876.008	16097
876.136	16021
876.265	16352
876.393	16375
876.521	16462
876.65	16344
876.778	16173
876.906	16192
877.034	16204
877.162	16268
877.29	16192
877.418	16390
877.546	16318
877.674	16398
877.802	16303
877.93	16337
878.058	16303
878.185	16303
878.313	16367
878.441	16363
878.568	16272
878.696	16303
878.824	16337
878.951	16402
879.079	16546
879.206	16733
879.333	16672
879.461	16561
879.588	16637
879.715	16797
879.842	16721
879.97	16527
880.097	16310
880.224	16219
880.351	16268
880.478	16242
880.605	16211
880.732	16147
880.859	16508
880.986	16249
881.112	16295
881.239	16173
881.366	16021
881.493	15926
881.619	15785
881.746	15857
881.872	15899
881.999	15895
882.125	15789
882.252	15899
882.378	15884
882.505	15998
882.631	15778
882.757	15747
882.883	15778
883.01	15755
883.136	15667
883.262	15610
883.388	15450
883.514	15713
883.64	15679
883.766	15587
883.892	15435
884.018	15614
884.143	15580
884.269	15736
884.395	15393
884.52	15306
884.646	15310
884.772	15408
884.897	15329
885.023	15447
885.148	15428
885.274	15507
885.399	15511
885.524	15393
885.65	15382
885.775	15344
885.9	15389
886.025	15534
886.15	15310
886.275	15321
886.4	15230
886.525	15332
886.65	15252
886.775	15287
886.9	15397
887.025	15564
887.149	15370
887.274	15211
887.399	15146
887.523	15116
887.648	15157
887.773	15001
887.897	15260
888.021	15268
888.146	15131
888.27	15226
888.395	15298
888.519	15306
888.643	15218
888.767	15211
888.891	15123
889.015	15001
889.139	15062
889.263	14910
889.387	15077
889.511	15165
889.635	15062
889.759	14990
889.883	15024
890.006	15028
890.13	15116
890.254	14971
890.377	14948
890.501	14830
890.624	14636
890.748	14910
890.871	14716
890.995	14632
891.118	14636
891.241	14708
891.364	14594
891.488	14830
891.611	14621
891.734	14583
891.857	14636
891.98	14716
892.103	14686
892.226	14708
892.349	14689
892.471	14568
892.594	14606
892.717	14670
892.839	14552
892.962	14651
893.085	14708
893.207	14689
893.33	14602
893.452	14579
893.575	14655
893.697	14571
893.819	14777
893.941	14864
894.064	14777
894.186	14590
894.308	14651
894.43	14720
894.552	14864
894.674	14762
894.796	14644
894.918	14773
895.04	14731
895.161	14830
895.283	14727
895.405	14667
895.526	14724
895.648	14727
895.769	14678
895.891	14910
896.012	14849
896.134	14781
896.255	14735
896.376	14819
896.498	14902
896.619	14853
896.74	14754
896.861	14864
896.982	15127
897.103	15298
897.224	15180
897.345	15116
897.466	15020
897.587	15131
897.708	15214
897.828	14998
897.949	15001
898.07	14952
898.19	15070
898.311	15249
898.431	15039
898.552	15127
898.672	15226
898.792	15195
898.913	15214
899.033	15154
899.153	14960
899.273	14914
899.393	14906
899.513	15020
899.633	15085
899.753	14929
899.873	14975
899.993	15070
900.113	15093
900.232	14990
900.352	14975
900.472	14788
900.591	14788
900.711	14724
900.83	14720
900.95	14849
901.069	14929
901.189	14815
901.308	14541
901.427	14488
901.546	14488
901.665	14564
901.784	14571
901.904	14408
902.023	14355
902.141	14134
902.26	14084
902.379	14180
902.498	14088
902.617	14073
902.735	14130
902.854	14001
902.973	14084
903.091	13818
903.21	13742
903.328	13795
903.446	13731
903.565	13655
903.683	13666
903.801	13601
903.919	13605
904.038	13590
904.156	13358
904.274	13434
904.392	13407
904.51	13430
904.627	13426
904.745	13491
904.863	13483
904.981	13202
905.098	13187
905.216	13107
905.334	13236
905.451	13217
905.569	13088
905.686	13247
905.803	13107
905.921	12939
906.038	13034
906.155	13012
906.272	12772
906.389	12825
906.506	12692
906.623	12753
906.74	12688
906.857	12589
906.974	12665
907.091	12798
907.208	12909
907.324	12806
907.441	12665
907.557	12563
907.674	12467
907.79	12441
907.907	12433
908.023	12521
908.139	12441
908.256	12414
908.372	12388
908.488	12319
908.604	12330
908.72	12171
908.836	12220
908.952	12232
909.068	12258
909.184	12330
909.3	12186
909.415	12300
909.531	12270
909.647	11996
909.762	12007
909.878	11961
909.993	11992
910.108	11969
910.224	11954
910.339	11984
910.454	11798
910.57	11851
910.685	11699
910.8	12121
910.915	11973
911.03	11764
911.145	11619
911.259	11615
911.374	11737
911.489	11665
911.604	11562
911.718	11448
911.833	11474
911.947	11376
912.062	11246
912.176	11436
912.291	11387
912.405	11440
912.519	11619
912.633	11668
912.748	11516
912.862	11463
912.976	11311
913.09	11147
913.204	11242
913.318	11254
913.431	11360
913.545	11322
913.659	11341
913.772	11258
913.886	11159
914	11170
914.113	11299
914.226	11284
914.34	11166
914.453	11071
914.566	11239
914.68	11056
914.793	11037
914.906	10904
915.019	10919
915.132	10824
915.245	10889
915.358	10934
915.47	10953
915.583	10900
915.696	10847
915.809	11102
915.921	11086
916.034	10831
916.146	10869
916.259	10847
916.371	10976
916.483	10854
916.595	10896
916.708	10869
916.82	10828
916.932	10831
917.044	10831
917.156	10801
917.268	10675
917.38	10710
917.491	10630
917.603	10702
917.715	10877
917.826	10725
917.938	10641
918.049	10603
918.161	10702
918.272	10881
918.384	10869
918.495	10744
918.606	10607
918.717	10558
918.828	10565
918.939	10565
919.05	10485
919.161	10512
919.272	10371
919.383	10459
919.494	10679
919.604	10793
919.715	10634
919.826	10550
919.936	10523
920.047	10607
920.157	10630
920.267	10790
920.378	10588
920.488	10550
920.598	10816
920.708	10915
920.818	10793
920.928	10835
921.038	10991
921.148	10923
921.258	10558
921.368	10554
921.477	10447
921.587	10424
921.697	10363
921.806	10451
921.916	10348
922.025	10135
922.134	10181
922.244	10093
922.353	10219
922.462	9975
922.571	9945
922.68	9876
922.789	9835
922.898	9823
923.007	9740
923.116	9797
923.224	9789
923.333	9778
923.442	9652
923.55	9682
923.659	9633
923.767	9705
923.876	9720
923.984	9709
924.092	9633
924.201	9656
924.309	9682
924.417	9720
924.525	9644
924.633	9671
924.741	10500
924.849	9416
924.956	9553
925.064	9420
925.172	9424
925.279	9412
925.387	9473
925.494	9481
925.602	9606
925.709	9549
925.816	9477
925.924	9481
926.031	9564
926.138	9466
926.245	9496
926.352	9389
926.459	9545
926.566	9599
926.673	9393
926.779	9287
926.886	9298
926.993	9154
927.099	9138
927.206	9131
927.312	9097
927.419	9173
927.525	9157
927.631	9268
927.737	9119
927.843	8986
927.95	8986
928.056	9024
928.162	9055
928.267	9135
928.373	9698
928.479	9142
928.585	8929
928.69	9032
928.796	9020
928.901	8979
929.007	8788
929.112	9024
929.218	8914
929.323	8880
929.428	8853
929.533	8952
929.638	8788
929.743	8823
929.848	8902
929.953	8872
930.058	8750
930.163	8651
930.267	8594
930.372	8766
930.477	8549
930.581	8925
930.685	8708
930.79	8564
930.894	8613
930.998	8560
931.103	8590
931.207	8275
931.311	8320
931.415	8229
931.519	8024
931.623	8123
