Data from test_V78500241_1724.txt Node
Date: Fri Mar 25 14:45:43 CST 2022
User: usil
Spectrometer: V785-0024
Trigger mode: 0
Integration Time (sec): 4.000000E-1
Scans to average: 1
Nonlinearity correction enabled: false
Boxcar width: 0
Storing dark spectrum: false
XAxis mode: Wavelengths
Number of Pixels in Spectrum: 1024
>>>>>Begin Spectral Data<<<<<
801.071	22253
801.214	22090
801.356	21930
801.499	21751
801.641	21625
801.783	21610
801.926	21564
802.068	21454
802.211	21603
802.353	21420
802.496	21150
802.638	21009
802.78	21150
802.923	21013
803.065	20876
803.208	20941
803.35	20849
803.492	21001
803.635	20994
803.777	20990
803.919	20982
804.061	21272
804.204	20979
804.346	21009
804.488	20765
804.63	20891
804.773	20819
804.915	20781
805.057	20853
805.199	20815
805.341	20960
805.483	20994
805.626	20941
805.768	20861
805.91	20883
806.052	20925
806.194	20849
806.336	21062
806.478	20944
806.62	20834
806.762	20982
806.904	21039
807.046	21275
807.188	21332
807.33	21108
807.472	21127
807.614	21119
807.756	21108
807.898	20956
808.04	20883
808.182	20937
808.324	20986
808.465	21176
808.607	21344
808.749	21351
808.891	21355
809.033	21466
809.174	21428
809.316	21218
809.458	21298
809.6	21142
809.741	21351
809.883	21351
810.025	21420
810.166	21287
810.308	21420
810.45	21466
810.591	21233
810.733	21146
810.875	21058
811.016	21013
811.158	20937
811.299	21154
811.441	21249
811.582	21283
811.724	21108
811.865	21108
812.007	20948
812.148	21062
812.29	21051
812.431	21245
812.573	21336
812.714	21439
812.855	21526
812.997	21701
813.138	21709
813.279	21705
813.421	21587
813.562	21370
813.703	21272
813.845	21222
813.986	20891
814.127	20849
814.268	20716
814.41	20609
814.551	20564
814.692	20663
814.833	20632
814.974	20514
815.115	20571
815.256	20393
815.397	20469
815.539	20442
815.68	20381
815.821	20275
815.962	20336
816.103	20218
816.244	20199
816.385	20092
816.526	20134
816.666	19734
816.807	19871
816.948	19925
817.089	19932
817.23	19780
817.371	19677
817.512	19712
817.653	19666
817.793	19769
817.934	19704
818.075	19780
818.216	19788
818.356	19727
818.497	19403
818.638	19289
818.778	19358
818.919	19354
819.06	19358
819.2	19468
819.341	19586
819.481	19681
819.622	19731
819.762	19902
819.903	19883
820.043	19894
820.184	19784
820.324	19750
820.465	19693
820.605	19582
820.746	19582
820.886	19552
821.026	19693
821.167	19734
821.307	19795
821.447	19712
821.588	19578
821.728	19377
821.868	19244
822.008	19152
822.149	19141
822.289	19034
822.429	18844
822.569	18825
822.709	18764
822.849	18684
822.99	18722
823.13	18513
823.27	18692
823.41	18452
823.55	18395
823.69	18372
823.83	18467
823.97	18308
824.11	18330
824.25	18117
824.389	18243
824.529	18205
824.669	18129
824.809	18262
824.949	18296
825.089	18224
825.228	18243
825.368	17965
825.508	18041
825.648	17965
825.787	18041
825.927	18076
826.067	17893
826.206	17840
826.346	18045
826.485	17950
826.625	17954
826.765	18068
826.904	17954
827.044	17707
827.183	17745
827.323	17634
827.462	17592
827.601	17608
827.741	17661
827.88	17608
828.02	17528
828.159	17551
828.298	17699
828.437	17687
828.577	17592
828.716	17630
828.855	17634
828.994	17368
829.134	17395
829.273	17448
829.412	17296
829.551	17318
829.69	17376
829.829	17406
829.968	17528
830.107	17501
830.246	17474
830.385	17391
830.524	17311
830.663	17223
830.802	17048
830.941	16927
831.08	16984
831.219	17098
831.357	17117
831.496	17239
831.635	16987
831.774	16881
831.913	16896
832.051	16839
832.19	16748
832.329	16835
832.467	16691
832.606	16664
832.744	16687
832.883	16660
833.022	16603
833.16	16664
833.299	16725
833.437	16698
833.576	16725
833.714	16763
833.852	16805
833.991	16694
834.129	16858
834.267	16820
834.406	16729
834.544	16763
834.682	16767
834.821	16759
834.959	16881
835.097	16679
835.235	16858
835.373	16805
835.511	16771
835.65	16672
835.788	16615
835.926	16550
836.064	16451
836.202	16428
836.34	16713
836.478	16793
836.615	16630
836.753	16713
836.891	16755
837.029	16694
837.167	16668
837.305	16466
837.443	16508
837.58	16428
837.718	16592
837.856	16630
837.993	16508
838.131	16546
838.269	16409
838.406	16417
838.544	16382
838.681	16265
838.819	16177
838.956	16078
839.094	16036
839.231	16230
839.369	16188
839.506	16519
839.643	16272
839.781	16116
839.918	16082
840.055	16040
840.193	16101
840.33	16017
840.467	16017
840.604	16101
840.742	16257
840.879	15960
841.016	15991
841.153	16128
841.29	16150
841.427	16017
841.564	16010
841.701	16131
841.838	16067
841.975	15964
842.112	15949
842.249	15884
842.385	15892
842.522	15964
842.659	15915
842.796	15747
842.933	15857
843.069	15827
843.206	15850
843.343	15979
843.479	15873
843.616	15857
843.752	15572
843.889	15622
844.025	15857
844.162	15599
844.298	15743
844.435	15701
844.571	15587
844.708	15641
844.844	15781
844.98	15819
845.117	15766
845.253	15625
845.389	15477
845.525	15580
845.661	15477
845.798	15481
845.934	15428
846.07	15454
846.206	15439
846.342	15629
846.478	15454
846.614	15211
846.75	15131
846.886	15218
847.022	15264
847.158	15211
847.294	15188
847.429	15131
847.565	15157
847.701	15443
847.837	14960
847.972	14921
848.108	15070
848.244	14929
848.379	14864
848.515	14861
848.65	14777
848.786	14823
848.921	14804
849.057	14929
849.192	14830
849.328	14830
849.463	14815
849.598	14781
849.734	14648
849.869	14750
850.004	14568
850.14	14587
850.275	14575
850.41	14465
850.545	14545
850.68	14473
850.815	14568
850.95	14507
851.085	14731
851.22	14644
851.355	14610
851.49	14613
851.625	14537
851.76	14632
851.895	14434
852.03	14423
852.165	14564
852.299	14613
852.434	14602
852.569	14667
852.703	14693
852.838	14712
852.973	14705
853.107	14697
853.242	14484
853.376	14476
853.511	14324
853.645	14328
853.78	14503
853.914	14476
854.048	14446
854.183	14366
854.317	14446
854.451	14644
854.585	14385
854.72	14343
854.854	14415
854.988	14446
855.122	14370
855.256	14244
855.39	14389
855.524	14552
855.658	14476
855.792	14412
855.926	14469
856.06	14457
856.194	14556
856.327	14518
856.461	14332
856.595	14400
856.729	14427
856.862	14530
856.996	14454
857.13	14473
857.263	14438
857.397	14613
857.53	14317
857.664	14454
857.797	14461
857.931	14552
858.064	14400
858.197	14610
858.331	14396
858.464	14370
858.597	14324
858.731	14362
858.864	14400
858.997	14358
859.13	14450
859.263	14389
859.396	14537
859.529	14400
859.662	14408
859.795	14434
859.928	14362
860.061	14655
860.194	14575
860.327	14465
860.46	14507
860.592	14476
860.725	14476
860.858	14533
860.99	14400
861.123	14377
861.256	14313
861.388	14396
861.521	15062
861.653	14294
861.786	14259
861.918	14301
862.05	14347
862.183	14396
862.315	14412
862.447	14473
862.58	14381
862.712	14168
862.844	14164
862.976	14374
863.108	14233
863.24	14552
863.372	14176
863.504	14199
863.636	14240
863.768	14237
863.9	14221
864.032	14153
864.164	14164
864.296	14153
864.428	14309
864.559	14351
864.691	14286
864.823	14271
864.954	14263
865.086	14176
865.217	14191
865.349	14161
865.48	14233
865.612	14157
865.743	14320
865.875	14202
866.006	14244
866.137	14176
866.269	14206
866.4	14187
866.531	14161
866.662	14134
866.793	14088
866.924	14138
867.055	14210
867.186	14214
867.317	14123
867.448	14088
867.579	14005
867.71	14157
867.841	14138
867.972	14221
868.103	14202
868.233	14123
868.364	14191
868.495	14286
868.625	14431
868.756	14499
868.886	14347
869.017	14492
869.147	14617
869.278	14625
869.408	14530
869.539	14400
869.669	14632
869.799	14454
869.929	14568
870.06	14564
870.19	14697
870.32	14773
870.45	14815
870.58	14826
870.71	14941
870.84	14971
870.97	14811
871.1	14845
871.23	14956
871.36	15020
871.489	14944
871.619	15028
871.749	15089
871.879	15100
872.008	15135
872.138	15077
872.267	15013
872.397	14933
872.526	14838
872.656	14891
872.785	14883
872.915	15089
873.044	15135
873.173	14986
873.303	15142
873.432	15150
873.561	15108
873.69	15142
873.819	15055
873.948	15230
874.077	15074
874.206	14975
874.335	15017
874.464	15173
874.593	15283
874.722	15340
874.851	15355
874.979	15378
875.108	15439
875.237	15443
875.365	15275
875.494	15405
875.623	15386
875.751	15431
875.88	15374
876.008	15564
876.136	15698
876.265	15838
876.393	15838
876.521	15873
876.65	15918
876.778	15823
876.906	15797
877.034	15728
877.162	15762
877.29	15781
877.418	15785
877.546	15846
877.674	15755
877.802	15778
877.93	15861
878.058	15717
878.185	15720
878.313	15804
878.441	15816
878.568	15633
878.696	15686
878.824	15816
878.951	15850
879.079	15949
879.206	16158
879.333	16059
879.461	15842
879.588	15994
879.715	15953
879.842	16025
879.97	15972
880.097	15663
880.224	15667
880.351	15603
880.478	15610
880.605	15629
880.732	15542
880.859	15865
880.986	15660
881.112	15644
881.239	15500
881.366	15488
881.493	15408
881.619	15359
881.746	15370
881.872	15226
881.999	15230
882.125	15279
882.252	15325
882.378	15302
882.505	15469
882.631	15310
882.757	15138
882.883	15154
883.01	15116
883.136	15058
883.262	14994
883.388	14895
883.514	15138
883.64	15089
883.766	15100
883.892	14921
884.018	15028
884.143	15195
884.269	15192
884.395	14883
884.52	14868
884.646	14788
884.772	14876
884.897	14712
885.023	14929
885.148	14990
885.274	15024
885.399	14971
885.524	14838
885.65	14880
885.775	14864
885.9	14750
886.025	14948
886.15	14967
886.275	14739
886.4	14773
886.525	14921
886.65	14819
886.775	14739
886.9	14960
887.025	15058
887.149	14902
887.274	14674
887.399	14621
887.523	14602
887.648	14613
887.773	14492
887.897	14796
888.021	14716
888.146	14610
888.27	14834
888.395	14807
888.519	14651
888.643	14735
888.767	14739
888.891	14598
889.015	14556
889.139	14469
889.263	14396
889.387	14629
889.511	14670
889.635	14644
889.759	14507
889.883	14526
890.006	14514
890.13	14488
890.254	14438
890.377	14469
890.501	14298
890.624	14278
890.748	14343
890.871	14221
890.995	14123
891.118	14180
891.241	14256
891.364	14248
891.488	14309
891.611	14183
891.734	14180
891.857	14275
891.98	14214
892.103	14450
892.226	14256
892.349	14191
892.471	14039
892.594	14176
892.717	14221
892.839	14153
892.962	14225
893.085	14415
893.207	14191
893.33	14119
893.452	14168
893.575	14271
893.697	14214
893.819	14328
893.941	14419
894.064	14423
894.186	14191
894.308	14286
894.43	14377
894.552	14324
894.674	14446
894.796	14206
894.918	14275
895.04	14244
895.161	14320
895.283	14427
895.405	14221
895.526	14313
895.648	14336
895.769	14423
895.891	14290
896.012	14336
896.134	14377
896.255	14450
896.376	14278
896.498	14332
896.619	14457
896.74	14404
896.861	14431
896.982	14750
897.103	14849
897.224	14716
897.345	14648
897.466	14552
897.587	14648
897.708	14765
897.828	14682
897.949	14594
898.07	14488
898.19	14674
898.311	14708
898.431	14632
898.552	14674
898.672	14762
898.792	14819
898.913	14792
899.033	14845
899.153	14571
899.273	14556
899.393	14514
899.513	14568
899.633	14632
899.753	14625
899.873	14533
899.993	14663
900.113	14541
900.232	14571
900.352	14549
900.472	14587
900.591	14377
900.711	14362
900.83	14396
900.95	14556
901.069	14629
901.189	14434
901.308	14153
901.427	14180
901.546	14157
901.665	14214
901.784	14130
901.904	14096
902.023	13906
902.141	13731
902.26	13677
902.379	13883
902.498	13677
902.617	13685
902.735	13761
902.854	13708
902.973	13575
903.091	13373
903.21	13392
903.328	13518
903.446	13327
903.565	13297
903.683	13236
903.801	13126
903.919	13183
904.038	13255
904.156	13095
904.274	13152
904.392	13034
904.51	13038
904.627	12989
904.745	13084
904.863	13065
904.981	12856
905.098	12715
905.216	12776
905.334	12810
905.451	12700
905.569	12726
905.686	12787
905.803	12783
905.921	12612
906.038	12608
906.155	12650
906.272	12555
906.389	12464
906.506	12437
906.623	12357
906.74	12403
906.857	12194
906.974	12209
907.091	12372
907.208	12437
907.324	12441
907.441	12262
907.557	12232
907.674	12194
907.79	12007
907.907	12171
908.023	12140
908.139	12175
908.256	12022
908.372	11969
908.488	11988
908.604	11805
908.72	11897
908.836	11790
908.952	11843
909.068	11908
909.184	11923
909.3	11878
909.415	11946
909.531	11893
909.647	11634
909.762	11665
909.878	11532
909.993	11596
910.108	11657
910.224	11577
910.339	11672
910.454	11528
910.57	11455
910.685	11482
910.8	11733
910.915	11627
911.03	11535
911.145	11341
911.259	11246
911.374	11337
911.489	11353
911.604	11227
911.718	11098
911.833	11132
911.947	10972
912.062	10858
912.176	11018
912.291	11003
912.405	11079
912.519	11296
912.633	11273
912.748	11181
912.862	11090
912.976	10949
913.09	10820
913.204	10946
913.318	10965
913.431	11109
913.545	11048
913.659	11033
913.772	10919
913.886	10835
914	10820
914.113	10957
914.226	10949
914.34	10957
914.453	10767
914.566	10892
914.68	10820
914.793	10805
914.906	10622
915.019	10527
915.132	10500
915.245	10542
915.358	10569
915.47	10622
915.583	10584
915.696	10607
915.809	10714
915.921	10839
916.034	10592
916.146	10558
916.259	10489
916.371	10637
916.483	10516
916.595	10462
916.708	10474
916.82	10497
916.932	10489
917.044	10481
917.156	10489
917.268	10417
917.38	10405
917.491	10398
917.603	10344
917.715	10493
917.826	10413
917.938	10470
918.049	10253
918.161	10436
918.272	10550
918.384	10538
918.495	10470
918.606	10318
918.717	10215
918.828	10341
918.939	10367
919.05	10280
919.161	10238
919.272	10169
919.383	10181
919.494	10295
919.604	10554
919.715	10348
919.826	10227
919.936	10272
920.047	10363
920.157	10276
920.267	10519
920.378	10306
920.488	10322
920.598	10432
920.708	10611
920.818	10500
920.928	10516
921.038	10656
921.148	10630
921.258	10287
921.368	10238
921.477	10147
921.587	10071
921.697	10071
921.806	10173
921.916	10071
922.025	9861
922.134	9869
922.244	9876
922.353	9831
922.462	9774
922.571	9652
922.68	9553
922.789	9549
922.898	9481
923.007	9488
923.116	9671
923.224	9545
923.333	9477
923.442	9477
923.55	9393
923.659	9439
923.767	9473
923.876	9363
923.984	9485
924.092	9378
924.201	9416
924.309	9496
924.417	9481
924.525	9340
924.633	9332
924.741	10363
924.849	9150
924.956	9321
925.064	9169
925.172	9108
925.279	9165
925.387	9165
925.494	9127
925.602	9374
925.709	9298
925.816	9146
925.924	9157
926.031	9310
926.138	9165
926.245	9253
926.352	9184
926.459	9310
926.566	9313
926.673	9146
926.779	9036
926.886	9077
926.993	8891
927.099	8838
927.206	8845
927.312	8876
927.419	8952
927.525	8975
927.631	8979
927.737	8785
927.843	8750
927.95	8648
928.056	8796
928.162	8864
928.267	8842
928.373	9519
928.479	8906
928.585	8739
928.69	8834
928.796	8838
928.901	8746
929.007	8537
929.112	8735
929.218	8610
929.323	8648
929.428	8606
929.533	8758
929.638	8560
929.743	8564
929.848	8655
929.953	8636
930.058	8552
930.163	8362
930.267	8343
930.372	8533
930.477	8328
930.581	8598
930.685	8408
930.79	8313
930.894	8389
930.998	8317
931.103	8484
931.207	8107
931.311	8077
931.415	8050
931.519	7826
931.623	7894
