Data from test_V78500241_2119.txt Node
Date: Fri Mar 25 14:48:28 CST 2022
User: usil
Spectrometer: V785-0024
Trigger mode: 0
Integration Time (sec): 4.000000E-1
Scans to average: 1
Nonlinearity correction enabled: false
Boxcar width: 0
Storing dark spectrum: false
XAxis mode: Wavelengths
Number of Pixels in Spectrum: 1024
>>>>>Begin Spectral Data<<<<<
801.071	22135
801.214	21968
801.356	21865
801.499	21717
801.641	21572
801.783	21572
801.926	21507
802.068	21351
802.211	21302
802.353	21355
802.496	21047
802.638	20979
802.78	20861
802.923	20849
803.065	20792
803.208	20781
803.35	20910
803.492	20998
803.635	20990
803.777	20838
803.919	20739
804.061	21157
804.204	20788
804.346	20689
804.488	20758
804.63	20712
804.773	20659
804.915	20720
805.057	20868
805.199	20716
805.341	20807
805.483	20815
805.626	20963
805.768	20712
805.91	20811
806.052	20796
806.194	20724
806.336	20849
806.478	20739
806.62	20750
806.762	20804
806.904	20948
807.046	21074
807.188	21135
807.33	20979
807.472	21249
807.614	20956
807.756	21051
807.898	20845
808.04	20765
808.182	20678
808.324	20834
808.465	20868
808.607	21096
808.749	21142
808.891	21230
809.033	21279
809.174	21211
809.316	21157
809.458	21131
809.6	21112
809.741	21150
809.883	21203
810.025	21154
810.166	21260
810.308	21279
810.45	21135
810.591	21252
810.733	20910
810.875	20941
811.016	20815
811.158	20720
811.299	20872
811.441	21116
811.582	21036
811.724	20929
811.865	20925
812.007	20952
812.148	20979
812.29	20895
812.431	21028
812.573	21252
812.714	21272
812.855	21469
812.997	21488
813.138	21686
813.279	21534
813.421	21473
813.562	21340
813.703	21165
813.845	21119
813.986	20781
814.127	20731
814.268	20625
814.41	20454
814.551	20537
814.692	20469
814.833	20415
814.974	20408
815.115	20412
815.256	20294
815.397	20339
815.539	20278
815.68	20229
815.821	20058
815.962	20157
816.103	20271
816.244	20058
816.385	19959
816.526	19856
816.666	19624
816.807	19753
816.948	19734
817.089	19833
817.23	19635
817.371	19594
817.512	19708
817.653	19647
817.793	19620
817.934	19533
818.075	19624
818.216	19620
818.356	19597
818.497	19327
818.638	19240
818.778	19171
818.919	19244
819.06	19407
819.2	19365
819.341	19438
819.481	19403
819.622	19544
819.762	19769
819.903	19689
820.043	19670
820.184	19559
820.324	19533
820.465	19700
820.605	19605
820.746	19552
820.886	19419
821.026	19537
821.167	19403
821.307	19670
821.447	19480
821.588	19381
821.728	19335
821.868	19118
822.008	18924
822.149	18890
822.289	18970
822.429	18791
822.569	18661
822.709	18703
822.849	18563
822.99	18460
823.13	18460
823.27	18391
823.41	18243
823.55	18174
823.69	18334
823.83	18232
823.97	18239
824.11	18068
824.25	18034
824.389	18125
824.529	18190
824.669	18015
824.809	18136
824.949	18136
825.089	18106
825.228	18076
825.368	17870
825.508	17760
825.648	17908
825.787	17882
825.927	17901
826.067	17718
826.206	17783
826.346	17939
826.485	17885
826.625	17786
826.765	17969
826.904	17840
827.044	17581
827.183	17581
827.323	17539
827.462	17581
827.601	17539
827.741	17551
827.88	17653
828.02	17391
828.159	17547
828.298	17528
828.437	17703
828.577	17406
828.716	17649
828.855	17417
828.994	17299
829.134	17299
829.273	17208
829.412	17326
829.551	17174
829.69	17216
829.829	17280
829.968	17490
830.107	17307
830.246	17337
830.385	17227
830.524	17083
830.663	17079
830.802	16995
830.941	17022
831.08	16809
831.219	16972
831.357	16930
831.496	17200
831.635	16824
831.774	16812
831.913	16793
832.051	16656
832.19	16672
832.329	16797
832.467	16611
832.606	16573
832.744	16580
832.883	16592
833.022	16462
833.16	16550
833.299	16615
833.437	16611
833.576	16721
833.714	16656
833.852	16596
833.991	16634
834.129	16660
834.267	16744
834.406	16588
834.544	16740
834.682	16645
834.821	16679
834.959	16774
835.097	16485
835.235	16717
835.373	16679
835.511	16687
835.65	16565
835.788	16508
835.926	16519
836.064	16280
836.202	16382
836.34	16607
836.478	16615
836.615	16508
836.753	16577
836.891	16603
837.029	16683
837.167	16596
837.305	16443
837.443	16402
837.58	16356
837.718	16512
837.856	16538
837.993	16424
838.131	16470
838.269	16337
838.406	16337
838.544	16253
838.681	16223
838.819	16147
838.956	15911
839.094	16013
839.231	15994
839.369	16154
839.506	16341
839.643	16230
839.781	16074
839.918	15895
840.055	16029
840.193	15934
840.33	15964
840.467	15998
840.604	15937
840.742	16204
840.879	15876
841.016	15937
841.153	15922
841.29	16177
841.427	15895
841.564	16040
841.701	15926
841.838	15934
841.975	15915
842.112	15926
842.249	15804
842.385	15781
842.522	15907
842.659	15819
842.796	15720
842.933	15778
843.069	15652
843.206	15705
843.343	15800
843.479	15823
843.616	15869
843.752	15591
843.889	15595
844.025	15656
844.162	15576
844.298	15705
844.435	15485
844.571	15447
844.708	15542
844.844	15648
844.98	15797
845.117	15690
845.253	15526
845.389	15450
845.525	15447
845.661	15481
845.798	15298
845.934	15355
846.07	15317
846.206	15344
846.342	15397
846.478	15310
846.614	15207
846.75	15009
846.886	15119
847.022	15230
847.158	15108
847.294	15112
847.429	15169
847.565	15081
847.701	15275
847.837	14819
847.972	14796
848.108	14876
848.244	14918
848.379	14724
848.515	14697
848.65	14674
848.786	14689
848.921	14678
849.057	14765
849.192	14762
849.328	14716
849.463	14724
849.598	14678
849.734	14629
849.869	14648
850.004	14503
850.14	14476
850.275	14446
850.41	14351
850.545	14320
850.68	14442
850.815	14579
850.95	14446
851.085	14503
851.22	14454
851.355	14446
851.49	14541
851.625	14446
851.76	14499
851.895	14278
852.03	14339
852.165	14400
852.299	14454
852.434	14541
852.569	14507
852.703	14518
852.838	14571
852.973	14514
853.107	14659
853.242	14522
853.376	14339
853.511	14199
853.645	14347
853.78	14556
853.914	14385
854.048	14355
854.183	14267
854.317	14313
854.451	14457
854.585	14282
854.72	14263
854.854	14404
854.988	14301
855.122	14278
855.256	14206
855.39	14362
855.524	14427
855.658	14377
855.792	14423
855.926	14358
856.06	14404
856.194	14533
856.327	14271
856.461	14256
856.595	14339
856.729	14259
856.862	14476
856.996	14320
857.13	14541
857.263	14415
857.397	14442
857.53	14393
857.664	14438
857.797	14533
857.931	14537
858.064	14396
858.197	14480
858.331	14313
858.464	14267
858.597	14267
858.731	14309
858.864	14347
858.997	14301
859.13	14347
859.263	14415
859.396	14537
859.529	14305
859.662	14275
859.795	14244
859.928	14351
860.061	14575
860.194	14503
860.327	14332
860.46	14298
860.592	14389
860.725	14484
860.858	14400
860.99	14309
861.123	14237
861.256	14259
861.388	14351
861.521	15062
861.653	14225
861.786	14142
861.918	14199
862.05	14214
862.183	14301
862.315	14339
862.447	14431
862.58	14214
862.712	14111
862.844	14016
862.976	14183
863.108	14123
863.24	14454
863.372	14115
863.504	14149
863.636	14005
863.768	14199
863.9	14180
864.032	14096
864.164	14123
864.296	14134
864.428	14252
864.559	14240
864.691	14199
864.823	14107
864.954	14180
865.086	14145
865.217	14062
865.349	14016
865.48	14103
865.612	14107
865.743	14294
865.875	14050
866.006	14119
866.137	14153
866.269	14058
866.4	14050
866.531	14020
866.662	14005
866.793	13978
866.924	13986
867.055	14081
867.186	14020
867.317	14111
867.448	14016
867.579	13955
867.71	14092
867.841	14043
867.972	13997
868.103	14043
868.233	14069
868.364	14168
868.495	14084
868.625	14259
868.756	14450
868.886	14309
869.017	14225
869.147	14484
869.278	14412
869.408	14313
869.539	14347
869.669	14469
869.799	14336
869.929	14457
870.06	14423
870.19	14598
870.32	14522
870.45	14697
870.58	14804
870.71	14754
870.84	14758
870.97	14686
871.1	14727
871.23	14845
871.36	14887
871.489	14853
871.619	14868
871.749	14941
871.879	14921
872.008	15123
872.138	14868
872.267	14921
872.397	14743
872.526	14731
872.656	14655
872.785	14792
872.915	14921
873.044	15104
873.173	14971
873.303	15005
873.432	15036
873.561	15032
873.69	14960
873.819	15055
873.948	15112
874.077	14990
874.206	14925
874.335	14986
874.464	15169
874.593	15310
874.722	15230
874.851	15306
874.979	15233
875.108	15355
875.237	15283
875.365	15218
875.494	15310
875.623	15329
875.751	15287
875.88	15325
876.008	15530
876.136	15447
876.265	15644
876.393	15922
876.521	15797
876.65	15770
876.778	15656
876.906	15686
877.034	15663
877.162	15713
877.29	15652
877.418	15667
877.546	15766
877.674	15660
877.802	15808
877.93	15679
878.058	15603
878.185	15473
878.313	15675
878.441	15732
878.568	15584
878.696	15633
878.824	15614
878.951	15774
879.079	15850
879.206	16082
879.333	15850
879.461	15713
879.588	15911
879.715	15876
879.842	16017
879.97	15747
880.097	15576
880.224	15469
880.351	15584
880.478	15614
880.605	15496
880.732	15557
880.859	15888
880.986	15580
881.112	15595
881.239	15439
881.366	15359
881.493	15317
881.619	15264
881.746	15325
881.872	15180
881.999	15256
882.125	15222
882.252	15287
882.378	15310
882.505	15310
882.631	15218
882.757	15062
882.883	15100
883.01	15039
883.136	15070
883.262	14971
883.388	14861
883.514	15017
883.64	15081
883.766	15077
883.892	14823
884.018	14921
884.143	14971
884.269	15138
884.395	14693
884.52	14796
884.646	14785
884.772	14636
884.897	14708
885.023	14716
885.148	14815
885.274	14891
885.399	14876
885.524	14830
885.65	14785
885.775	14785
885.9	14804
886.025	14883
886.15	14777
886.275	14689
886.4	14697
886.525	14636
886.65	14640
886.775	14724
886.9	14933
887.025	15017
887.149	14796
887.274	14651
887.399	14651
887.523	14526
887.648	14587
887.773	14461
887.897	14693
888.021	14621
888.146	14545
888.27	14678
888.395	14743
888.519	14674
888.643	14636
888.767	14705
888.891	14568
889.015	14419
889.139	14537
889.263	14393
889.387	14625
889.511	14667
889.635	14541
889.759	14492
889.883	14480
890.006	14476
890.13	14571
890.254	14355
890.377	14366
890.501	14248
890.624	14263
890.748	14294
890.871	14176
890.995	14115
891.118	14012
891.241	14161
891.364	14138
891.488	14248
891.611	14031
891.734	14206
891.857	14229
891.98	14180
892.103	14195
892.226	14252
892.349	14130
892.471	14100
892.594	14157
892.717	14187
892.839	14065
892.962	14065
893.085	14191
893.207	14244
893.33	14031
893.452	14020
893.575	14248
893.697	14119
893.819	14282
893.941	14404
894.064	14282
894.186	14183
894.308	14062
894.43	14229
894.552	14377
894.674	14351
894.796	14092
894.918	14149
895.04	14191
895.161	14271
895.283	14252
895.405	14206
895.526	14317
895.648	14210
895.769	14366
895.891	14336
896.012	14320
896.134	14412
896.255	14263
896.376	14328
896.498	14381
896.619	14389
896.74	14324
896.861	14503
896.982	14727
897.103	14800
897.224	14682
897.345	14571
897.466	14507
897.587	14629
897.708	14629
897.828	14693
897.949	14492
898.07	14408
898.19	14564
898.311	14792
898.431	14625
898.552	14823
898.672	14788
898.792	14731
898.913	14746
899.033	14682
899.153	14568
899.273	14442
899.393	14480
899.513	14587
899.633	14575
899.753	14610
899.873	14503
899.993	14644
900.113	14488
900.232	14590
900.352	14518
900.472	14476
900.591	14374
900.711	14427
900.83	14347
900.95	14412
901.069	14495
901.189	14282
901.308	14103
901.427	14012
901.546	14130
901.665	14111
901.784	14073
901.904	13890
902.023	13902
902.141	13727
902.26	13609
902.379	13780
902.498	13556
902.617	13544
902.735	13639
902.854	13609
902.973	13578
903.091	13415
903.21	13449
903.328	13343
903.446	13377
903.565	13209
903.683	13240
903.801	13091
903.919	13240
904.038	13091
904.156	12989
904.274	13110
904.392	12966
904.51	12970
904.627	13057
904.745	13034
904.863	13015
904.981	12772
905.098	12681
905.216	12734
905.334	12749
905.451	12700
905.569	12726
905.686	12749
905.803	12795
905.921	12597
906.038	12677
906.155	12555
906.272	12399
906.389	12426
906.506	12281
906.623	12350
906.74	12292
906.857	12125
906.974	12228
907.091	12346
907.208	12407
907.324	12395
907.441	12220
907.557	12026
907.674	12045
907.79	11969
907.907	12076
908.023	12019
908.139	12098
908.256	12019
908.372	11984
908.488	11969
908.604	11794
908.72	11748
908.836	11775
908.952	11779
909.068	11855
909.184	11885
909.3	11764
909.415	11840
909.531	11817
909.647	11657
909.762	11623
909.878	11570
909.993	11608
910.108	11585
910.224	11596
910.339	11570
910.454	11486
910.57	11414
910.685	11387
910.8	11665
910.915	11642
911.03	11452
911.145	11334
911.259	11280
911.374	11296
911.489	11208
911.604	11143
911.718	11060
911.833	11090
911.947	10984
912.062	10866
912.176	11029
912.291	11014
912.405	11109
912.519	11220
912.633	11212
912.748	11113
912.862	11083
912.976	10961
913.09	10774
913.204	10862
913.318	10919
913.431	11045
913.545	10980
913.659	11029
913.772	10896
913.886	10733
914	10759
914.113	10790
914.226	10869
914.34	10843
914.453	10702
914.566	10866
914.68	10698
914.793	10744
914.906	10561
915.019	10531
915.132	10409
915.245	10478
915.358	10527
915.47	10500
915.583	10577
915.696	10637
915.809	10687
915.921	10702
916.034	10489
916.146	10481
916.259	10478
916.371	10523
916.483	10500
916.595	10443
916.708	10569
916.82	10504
916.932	10489
917.044	10466
917.156	10341
917.268	10363
917.38	10314
917.491	10318
917.603	10379
917.715	10451
917.826	10443
917.938	10333
918.049	10280
918.161	10303
918.272	10478
918.384	10554
918.495	10432
918.606	10204
918.717	10211
918.828	10276
918.939	10276
919.05	10204
919.161	10192
919.272	10013
919.383	10207
919.494	10303
919.604	10451
919.715	10280
919.826	10242
919.936	10192
920.047	10303
920.157	10276
920.267	10436
920.378	10310
920.488	10295
920.598	10485
920.708	10554
920.818	10466
920.928	10436
921.038	10656
921.148	10607
921.258	10333
921.368	10143
921.477	10143
921.587	10086
921.697	9987
921.806	10166
921.916	10010
922.025	9838
922.134	9732
922.244	9800
922.353	9854
922.462	9652
922.571	9720
922.68	9568
922.789	9473
922.898	9572
923.007	9428
923.116	9526
923.224	9408
923.333	9458
923.442	9431
923.55	9386
923.659	9447
923.767	9386
923.876	9386
923.984	9431
924.092	9397
924.201	9363
924.309	9344
924.417	9355
924.525	9313
924.633	9313
924.741	10272
924.849	9119
924.956	9260
925.064	9180
925.172	9070
925.279	9100
925.387	9165
925.494	9207
925.602	9291
925.709	9249
925.816	9112
925.924	9184
926.031	9230
926.138	9180
926.245	9157
926.352	9036
926.459	9203
926.566	9245
926.673	9131
926.779	9028
926.886	9055
926.993	8861
927.099	8842
927.206	8838
927.312	8750
927.419	8902
927.525	8883
927.631	8933
927.737	8800
927.843	8746
927.95	8621
928.056	8735
928.162	8743
928.267	8868
928.373	9287
928.479	8868
928.585	8663
928.69	8720
928.796	8804
928.901	8724
929.007	8587
929.112	8724
929.218	8682
929.323	8587
929.428	8651
929.533	8743
929.638	8571
929.743	8518
929.848	8590
929.953	8587
930.058	8514
930.163	8290
930.267	8336
930.372	8457
930.477	8309
930.581	8530
930.685	8396
930.79	8248
930.894	8309
930.998	8309
931.103	8488
931.207	8031
931.311	8008
931.415	8043
931.519	7761
931.623	7795
