Data from test_V78500241_2839.txt Node
Date: Fri Mar 25 14:53:28 CST 2022
User: usil
Spectrometer: V785-0024
Trigger mode: 0
Integration Time (sec): 4.000000E-1
Scans to average: 1
Nonlinearity correction enabled: false
Boxcar width: 0
Storing dark spectrum: false
XAxis mode: Wavelengths
Number of Pixels in Spectrum: 1024
>>>>>Begin Spectral Data<<<<<
801.071	22067
801.214	21994
801.356	21842
801.499	21610
801.641	21549
801.783	21462
801.926	21408
802.068	21294
802.211	21340
802.353	21332
802.496	21024
802.638	20944
802.78	20925
802.923	20880
803.065	20807
803.208	20705
803.35	20651
803.492	20868
803.635	20895
803.777	20838
803.919	20899
804.061	21119
804.204	20872
804.346	20701
804.488	20716
804.63	20773
804.773	20590
804.915	20629
805.057	20849
805.199	20564
805.341	20670
805.483	20868
805.626	20800
805.768	20682
805.91	20678
806.052	20705
806.194	20674
806.336	20887
806.478	20663
806.62	20598
806.762	20731
806.904	20910
807.046	21077
807.188	20998
807.33	20998
807.472	21039
807.614	20986
807.756	21036
807.898	20750
808.04	20819
808.182	20769
808.324	20830
808.465	20804
808.607	20914
808.749	20990
808.891	21161
809.033	21176
809.174	21127
809.316	20944
809.458	21036
809.6	20979
809.741	21169
809.883	21070
810.025	21188
810.166	21207
810.308	21237
810.45	21161
810.591	20982
810.733	20895
810.875	20811
811.016	20735
811.158	20530
811.299	20876
811.441	20941
811.582	21093
811.724	20804
811.865	20853
812.007	20773
812.148	20853
812.29	20895
812.431	20960
812.573	21066
812.714	21211
812.855	21317
812.997	21397
813.138	21523
813.279	21439
813.421	21317
813.562	21245
813.703	21081
813.845	21070
813.986	20648
814.127	20655
814.268	20457
814.41	20385
814.551	20275
814.692	20381
814.833	20248
814.974	20358
815.115	20332
815.256	20237
815.397	20210
815.539	20157
815.68	20058
815.821	20043
815.962	20199
816.103	20088
816.244	19864
816.385	19871
816.526	19772
816.666	19666
816.807	19499
816.948	19723
817.089	19620
817.23	19605
817.371	19590
817.512	19396
817.653	19476
817.793	19407
817.934	19480
818.075	19441
818.216	19582
818.356	19457
818.497	19324
818.638	19206
818.778	19225
818.919	19164
819.06	19145
819.2	19301
819.341	19358
819.481	19407
819.622	19491
819.762	19750
819.903	19693
820.043	19514
820.184	19449
820.324	19400
820.465	19480
820.605	19476
820.746	19362
820.886	19274
821.026	19415
821.167	19373
821.307	19491
821.447	19480
821.588	19346
821.728	19221
821.868	19122
822.008	18852
822.149	18878
822.289	18783
822.429	18646
822.569	18574
822.709	18612
822.849	18350
822.99	18323
823.13	18376
823.27	18296
823.41	18308
823.55	18190
823.69	18171
823.83	18163
823.97	18038
824.11	17901
824.25	17984
824.389	17946
824.529	18087
824.669	17923
824.809	18072
824.949	18053
825.089	17958
825.228	17832
825.368	17809
825.508	17771
825.648	17779
825.787	17790
825.927	17718
826.067	17676
826.206	17668
826.346	17767
826.485	17821
826.625	17718
826.765	17802
826.904	17798
827.044	17524
827.183	17467
827.323	17410
827.462	17414
827.601	17493
827.741	17364
827.88	17486
828.02	17368
828.159	17417
828.298	17448
828.437	17452
828.577	17406
828.716	17490
828.855	17330
828.994	17181
829.134	17212
829.273	17178
829.412	17117
829.551	17003
829.69	17235
829.829	17193
829.968	17296
830.107	17284
830.246	17124
830.385	17162
830.524	17056
830.663	16965
830.802	16904
830.941	16752
831.08	16736
831.219	16782
831.357	16816
831.496	17071
831.635	16759
831.774	16694
831.913	16607
832.051	16554
832.19	16596
832.329	16599
832.467	16478
832.606	16436
832.744	16409
832.883	16440
833.022	16428
833.16	16474
833.299	16493
833.437	16417
833.576	16478
833.714	16493
833.852	16466
833.991	16538
834.129	16493
834.267	16588
834.406	16554
834.544	16588
834.682	16584
834.821	16626
834.959	16615
835.097	16489
835.235	16516
835.373	16596
835.511	16478
835.65	16466
835.788	16390
835.926	16276
836.064	16207
836.202	16299
836.34	16356
836.478	16485
836.615	16409
836.753	16398
836.891	16588
837.029	16421
837.167	16299
837.305	16246
837.443	16390
837.58	16181
837.718	16306
837.856	16306
837.993	16276
838.131	16344
838.269	16295
838.406	16284
838.544	16299
838.681	15861
838.819	15915
838.956	15846
839.094	15873
839.231	15926
839.369	16082
839.506	16249
839.643	16124
839.781	15907
839.918	15857
840.055	15865
840.193	15766
840.33	15785
840.467	15736
840.604	15880
840.742	16105
840.879	15728
841.016	15690
841.153	15827
841.29	15972
841.427	15953
841.564	15941
841.701	15953
841.838	15865
841.975	15743
842.112	15637
842.249	15610
842.385	15580
842.522	15857
842.659	15686
842.796	15511
842.933	15637
843.069	15568
843.206	15606
843.343	15667
843.479	15709
843.616	15679
843.752	15523
843.889	15329
844.025	15519
844.162	15355
844.298	15492
844.435	15389
844.571	15298
844.708	15481
844.844	15633
844.98	15618
845.117	15553
845.253	15393
845.389	15302
845.525	15252
845.661	15340
845.798	15176
845.934	15199
846.07	15184
846.206	15264
846.342	15313
846.478	15249
846.614	14986
846.75	14963
846.886	14967
847.022	15013
847.158	14990
847.294	14902
847.429	15116
847.565	15009
847.701	15161
847.837	14785
847.972	14705
848.108	14785
848.244	14788
848.379	14598
848.515	14636
848.65	14583
848.786	14629
848.921	14651
849.057	14636
849.192	14720
849.328	14571
849.463	14594
849.598	14549
849.734	14541
849.869	14419
850.004	14339
850.14	14370
850.275	14336
850.41	14309
850.545	14275
850.68	14427
850.815	14423
850.95	14278
851.085	14537
851.22	14412
851.355	14438
851.49	14355
851.625	14275
851.76	14305
851.895	14244
852.03	14317
852.165	14298
852.299	14362
852.434	14427
852.569	14362
852.703	14385
852.838	14347
852.973	14423
853.107	14541
853.242	14320
853.376	14282
853.511	14084
853.645	14271
853.78	14328
853.914	14324
854.048	14138
854.183	14172
854.317	14180
854.451	14355
854.585	14202
854.72	14229
854.854	14313
854.988	14176
855.122	14103
855.256	14115
855.39	14161
855.524	14259
855.658	14244
855.792	14267
855.926	14191
856.06	14309
856.194	14305
856.327	14263
856.461	14153
856.595	14225
856.729	14191
856.862	14328
856.996	14206
857.13	14336
857.263	14248
857.397	14278
857.53	14248
857.664	14267
857.797	14298
857.931	14294
858.064	14206
858.197	14366
858.331	14195
858.464	14157
858.597	14062
858.731	14115
858.864	14282
858.997	14195
859.13	14180
859.263	14358
859.396	14267
859.529	14214
859.662	14183
859.795	14180
859.928	14164
860.061	14336
860.194	14366
860.327	14233
860.46	14210
860.592	14240
860.725	14366
860.858	14362
860.99	14240
861.123	14065
861.256	14214
861.388	14244
861.521	14864
861.653	14062
861.786	14081
861.918	14069
862.05	14168
862.183	14062
862.315	14145
862.447	14168
862.58	14301
862.712	14005
862.844	13879
862.976	14069
863.108	14020
863.24	14278
863.372	13967
863.504	14050
863.636	14016
863.768	14088
863.9	14012
864.032	13928
864.164	13917
864.296	14115
864.428	14126
864.559	14107
864.691	13982
864.823	14073
864.954	14084
865.086	14016
865.217	13890
865.349	14024
865.48	13974
865.612	13986
865.743	14039
865.875	14016
866.006	13928
866.137	14024
866.269	13955
866.4	13894
866.531	13883
866.662	13849
866.793	13913
866.924	13944
867.055	13940
867.186	13898
867.317	13951
867.448	13860
867.579	13868
867.71	13875
867.841	13883
867.972	13970
868.103	13993
868.233	14024
868.364	14027
868.495	14035
868.625	14187
868.756	14317
868.886	14065
869.017	14237
869.147	14286
869.278	14385
869.408	14259
869.539	14164
869.669	14252
869.799	14233
869.929	14415
870.06	14252
870.19	14503
870.32	14552
870.45	14598
870.58	14613
870.71	14720
870.84	14701
870.97	14492
871.1	14655
871.23	14743
871.36	14811
871.489	14712
871.619	14849
871.749	14826
871.879	14921
872.008	14899
872.138	14906
872.267	14853
872.397	14625
872.526	14571
872.656	14575
872.785	14708
872.915	14842
873.044	14895
873.173	14872
873.303	14883
873.432	14941
873.561	15009
873.69	14872
873.819	14872
873.948	14971
874.077	14910
874.206	14838
874.335	14918
874.464	15028
874.593	15112
874.722	15116
874.851	15184
874.979	15272
875.108	15180
875.237	15192
875.365	15154
875.494	15005
875.623	15264
875.751	15268
875.88	15214
876.008	15348
876.136	15439
876.265	15618
876.393	15736
876.521	15713
876.65	15736
876.778	15652
876.906	15504
877.034	15515
877.162	15610
877.29	15507
877.418	15561
877.546	15530
877.674	15637
877.802	15694
877.93	15625
878.058	15599
878.185	15447
878.313	15606
878.441	15553
878.568	15382
878.696	15492
878.824	15599
878.951	15675
879.079	15778
879.206	15838
879.333	15797
879.461	15698
879.588	15720
879.715	15739
879.842	15873
879.97	15667
880.097	15481
880.224	15386
880.351	15534
880.478	15496
880.605	15378
880.732	15492
880.859	15755
880.986	15321
881.112	15523
881.239	15389
881.366	15165
881.493	15165
881.619	15085
881.746	15176
881.872	15081
881.999	15127
882.125	14990
882.252	15226
882.378	15150
882.505	15272
882.631	15123
882.757	14914
882.883	14960
883.01	14914
883.136	14880
883.262	14883
883.388	14811
883.514	14952
883.64	15036
883.766	14914
883.892	14762
884.018	14731
884.143	15017
884.269	15032
884.395	14655
884.52	14571
884.646	14651
884.772	14533
884.897	14526
885.023	14541
885.148	14667
885.274	14800
885.399	14887
885.524	14708
885.65	14716
885.775	14583
885.9	14686
886.025	14731
886.15	14731
886.275	14636
886.4	14488
886.525	14629
886.65	14613
886.775	14514
886.9	14724
887.025	14921
887.149	14674
887.274	14560
887.399	14358
887.523	14480
887.648	14404
887.773	14374
887.897	14522
888.021	14522
888.146	14374
888.27	14533
888.395	14678
888.519	14514
888.643	14469
888.767	14621
888.891	14370
889.015	14389
889.139	14362
889.263	14282
889.387	14469
889.511	14480
889.635	14446
889.759	14385
889.883	14240
890.006	14415
890.13	14484
890.254	14176
890.377	14298
890.501	14157
890.624	14145
890.748	14301
890.871	14103
890.995	13936
891.118	13989
891.241	14103
891.364	14027
891.488	14157
891.611	14035
891.734	14031
891.857	14126
891.98	14069
892.103	14183
892.226	14065
892.349	14012
892.471	13887
892.594	13993
892.717	14058
892.839	13963
892.962	14088
893.085	14145
893.207	13989
893.33	13921
893.452	14084
893.575	14069
893.697	14035
893.819	14199
893.941	14248
894.064	14119
894.186	14016
894.308	14005
894.43	14256
894.552	14225
894.674	14176
894.796	14050
894.918	14107
895.04	14138
895.161	14221
895.283	14256
895.405	14054
895.526	14145
895.648	14157
895.769	14206
895.891	14256
896.012	14183
896.134	14290
896.255	14317
896.376	14153
896.498	14210
896.619	14229
896.74	14218
896.861	14267
896.982	14552
897.103	14739
897.224	14492
897.345	14518
897.466	14415
897.587	14507
897.708	14598
897.828	14575
897.949	14457
898.07	14294
898.19	14442
898.311	14625
898.431	14412
898.552	14465
898.672	14659
898.792	14629
898.913	14583
899.033	14450
899.153	14355
899.273	14252
899.393	14442
899.513	14434
899.633	14469
899.753	14484
899.873	14358
899.993	14473
900.113	14412
900.232	14480
900.352	14358
900.472	14294
900.591	14195
900.711	14313
900.83	14214
900.95	14298
901.069	14351
901.189	14191
901.308	14024
901.427	13947
901.546	13913
901.665	14005
901.784	14039
901.904	13837
902.023	13841
902.141	13563
902.26	13502
902.379	13586
902.498	13552
902.617	13540
902.735	13601
902.854	13521
902.973	13518
903.091	13259
903.21	13270
903.328	13274
903.446	13171
903.565	13187
903.683	13156
903.801	13019
903.919	13171
904.038	13042
904.156	13012
904.274	13050
904.392	12951
904.51	12924
904.627	12867
904.745	12939
904.863	12989
904.981	12814
905.098	12597
905.216	12623
905.334	12623
905.451	12601
905.569	12631
905.686	12696
905.803	12623
905.921	12452
906.038	12456
906.155	12475
906.272	12353
906.389	12334
906.506	12300
906.623	12289
906.74	12190
906.857	12129
906.974	12114
907.091	12338
907.208	12380
907.324	12224
907.441	12133
907.557	12041
907.674	11904
907.79	11927
907.907	11916
908.023	12022
908.139	12011
908.256	11961
908.372	11969
908.488	11855
908.604	11775
908.72	11726
908.836	11726
908.952	11695
909.068	11775
909.184	11828
909.3	11767
909.415	11802
909.531	11699
909.647	11547
909.762	11471
909.878	11471
909.993	11532
910.108	11482
910.224	11474
910.339	11532
910.454	11417
910.57	11383
910.685	11250
910.8	11570
910.915	11562
911.03	11326
911.145	11235
911.259	11197
911.374	11170
911.489	11170
911.604	11132
911.718	10999
911.833	10965
911.947	10900
912.062	10881
912.176	11041
912.291	10995
912.405	10957
912.519	11185
912.633	11147
912.748	11109
912.862	10999
912.976	10866
913.09	10740
913.204	10854
913.318	10850
913.431	10949
913.545	10972
913.659	11003
913.772	10847
913.886	10809
914	10733
914.113	10752
914.226	10877
914.34	10881
914.453	10611
914.566	10843
914.68	10634
914.793	10584
914.906	10577
915.019	10470
915.132	10341
915.245	10489
915.358	10459
915.47	10485
915.583	10519
915.696	10550
915.809	10641
915.921	10618
916.034	10440
916.146	10531
916.259	10443
916.371	10451
916.483	10459
916.595	10443
916.708	10466
916.82	10455
916.932	10436
917.044	10436
917.156	10398
917.268	10261
917.38	10280
917.491	10329
917.603	10367
917.715	10394
917.826	10508
917.938	10280
918.049	10242
918.161	10291
918.272	10451
918.384	10417
918.495	10371
918.606	10150
918.717	10097
918.828	10169
918.939	10265
919.05	10158
919.161	10029
919.272	9903
919.383	10051
919.494	10333
919.604	10390
919.715	10219
919.826	10074
919.936	10101
920.047	10291
920.157	10223
920.267	10367
920.378	10219
920.488	10181
920.598	10421
920.708	10542
920.818	10333
920.928	10394
921.038	10622
921.148	10519
921.258	10223
921.368	10162
921.477	10051
921.587	10017
921.697	9979
921.806	10051
921.916	9937
922.025	9823
922.134	9743
922.244	9713
922.353	9812
922.462	9663
922.571	9477
922.68	9469
922.789	9405
922.898	9473
923.007	9481
923.116	9507
923.224	9443
923.333	9447
923.442	9348
923.55	9302
923.659	9351
923.767	9420
923.876	9249
923.984	9386
924.092	9294
924.201	9344
924.309	9329
924.417	9359
924.525	9298
924.633	9275
924.741	10185
924.849	9135
924.956	9195
925.064	9104
925.172	9032
925.279	9051
925.387	9104
925.494	9131
925.602	9222
925.709	9237
925.816	9081
925.924	9123
926.031	9214
926.138	9131
926.245	9142
926.352	9036
926.459	9157
926.566	9245
926.673	9093
926.779	8960
926.886	8948
926.993	8895
927.099	8804
927.206	8811
927.312	8800
927.419	8872
927.525	8864
927.631	8823
927.737	8766
927.843	8811
927.95	8571
928.056	8727
928.162	8712
928.267	8811
928.373	9321
928.479	8899
928.585	8598
928.69	8724
928.796	8762
928.901	8606
929.007	8522
929.112	8670
929.218	8674
929.323	8575
929.428	8579
929.533	8686
929.638	8503
929.743	8583
929.848	8579
929.953	8568
930.058	8469
930.163	8267
930.267	8343
930.372	8450
930.477	8290
930.581	8518
930.685	8419
930.79	8317
930.894	8275
930.998	8252
931.103	8381
931.207	8062
931.311	8024
931.415	7963
931.519	7792
931.623	7826
