Data from test_V78500241_3042.txt Node
Date: Fri Mar 25 14:54:53 CST 2022
User: usil
Spectrometer: V785-0024
Trigger mode: 0
Integration Time (sec): 4.000000E-1
Scans to average: 1
Nonlinearity correction enabled: false
Boxcar width: 0
Storing dark spectrum: false
XAxis mode: Wavelengths
Number of Pixels in Spectrum: 1024
>>>>>Begin Spectral Data<<<<<
801.071	22185
801.214	22044
801.356	21838
801.499	21663
801.641	21363
801.783	21507
801.926	21561
802.068	21507
802.211	21317
802.353	21268
802.496	20971
802.638	21085
802.78	20944
802.923	20918
803.065	20838
803.208	20746
803.35	20811
803.492	20861
803.635	20914
803.777	20868
803.919	20857
804.061	21211
804.204	20895
804.346	20743
804.488	20693
804.63	20781
804.773	20720
804.915	20754
805.057	20785
805.199	20724
805.341	20731
805.483	20902
805.626	20781
805.768	20609
805.91	20617
806.052	20792
806.194	20621
806.336	20876
806.478	20629
806.62	20674
806.762	20876
806.904	20910
807.046	21058
807.188	21070
807.33	21085
807.472	21138
807.614	20975
807.756	21070
807.898	20910
808.04	20762
808.182	20667
808.324	20819
808.465	20758
808.607	20975
808.749	21116
808.891	21260
809.033	21401
809.174	21184
809.316	21131
809.458	21055
809.6	21001
809.741	21207
809.883	21116
810.025	21264
810.166	21180
810.308	21268
810.45	21207
810.591	21043
810.733	21020
810.875	21005
811.016	20823
811.158	20682
811.299	20975
811.441	20880
811.582	20979
811.724	20853
811.865	20842
812.007	20743
812.148	20823
812.29	20941
812.431	21108
812.573	21218
812.714	21302
812.855	21393
812.997	21553
813.138	21545
813.279	21435
813.421	21454
813.562	21291
813.703	21230
813.845	21028
813.986	20724
814.127	20556
814.268	20385
814.41	20533
814.551	20476
814.692	20461
814.833	20495
814.974	20362
815.115	20415
815.256	20263
815.397	20305
815.539	20183
815.68	20278
815.821	20195
815.962	20172
816.103	20088
816.244	19868
816.385	19951
816.526	19887
816.666	19601
816.807	19548
816.948	19655
817.089	19651
817.23	19563
817.371	19563
817.512	19514
817.653	19578
817.793	19594
817.934	19582
818.075	19559
818.216	19616
818.356	19422
818.497	19331
818.638	19168
818.778	19164
818.919	19240
819.06	19244
819.2	19365
819.341	19491
819.481	19396
819.622	19571
819.762	19746
819.903	19635
820.043	19514
820.184	19438
820.324	19480
820.465	19632
820.605	19624
820.746	19411
820.886	19350
821.026	19468
821.167	19392
821.307	19624
821.447	19514
821.588	19297
821.728	19206
821.868	19038
822.008	18875
822.149	18817
822.289	18924
822.429	18741
822.569	18623
822.709	18521
822.849	18372
822.99	18384
823.13	18452
823.27	18376
823.41	18323
823.55	18125
823.69	18277
823.83	18171
823.97	18076
824.11	17973
824.25	17927
824.389	17923
824.529	17988
824.669	17965
824.809	18129
824.949	18064
825.089	18030
825.228	17939
825.368	17843
825.508	17843
825.648	17707
825.787	17718
825.927	17798
826.067	17684
826.206	17722
826.346	17798
826.485	17764
826.625	17642
826.765	17897
826.904	17718
827.044	17516
827.183	17383
827.323	17391
827.462	17478
827.601	17368
827.741	17501
827.88	17425
828.02	17311
828.159	17330
828.298	17482
828.437	17516
828.577	17406
828.716	17516
828.855	17334
828.994	17151
829.134	17200
829.273	17128
829.412	17151
829.551	17121
829.69	17140
829.829	17269
829.968	17265
830.107	17258
830.246	17269
830.385	17162
830.524	17128
830.663	16984
830.802	16835
830.941	16786
831.08	16755
831.219	16824
831.357	16835
831.496	16984
831.635	16672
831.774	16790
831.913	16611
832.051	16611
832.19	16573
832.329	16580
832.467	16428
832.606	16371
832.744	16428
832.883	16500
833.022	16386
833.16	16409
833.299	16455
833.437	16542
833.576	16637
833.714	16599
833.852	16402
833.991	16516
834.129	16550
834.267	16428
834.406	16573
834.544	16546
834.682	16485
834.821	16451
834.959	16546
835.097	16470
835.235	16558
835.373	16500
835.511	16573
835.65	16394
835.788	16432
835.926	16192
836.064	16219
836.202	16253
836.34	16386
836.478	16440
836.615	16409
836.753	16394
836.891	16481
837.029	16489
837.167	16352
837.305	16306
837.443	16299
837.58	16280
837.718	16394
837.856	16337
837.993	16226
838.131	16291
838.269	16139
838.406	16249
838.544	16139
838.681	16067
838.819	16006
838.956	15831
839.094	15785
839.231	15827
839.369	16021
839.506	16284
839.643	16116
839.781	15793
839.918	15762
840.055	15850
840.193	15846
840.33	15766
840.467	15823
840.604	15793
840.742	16071
840.879	15652
841.016	15671
841.153	15743
841.29	15869
841.427	15831
841.564	15831
841.701	15797
841.838	15720
841.975	15690
842.112	15747
842.249	15595
842.385	15500
842.522	15755
842.659	15614
842.796	15580
842.933	15534
843.069	15568
843.206	15534
843.343	15606
843.479	15587
843.616	15663
843.752	15367
843.889	15294
844.025	15507
844.162	15287
844.298	15511
844.435	15344
844.571	15298
844.708	15458
844.844	15511
844.98	15545
845.117	15485
845.253	15397
845.389	15138
845.525	15374
845.661	15332
845.798	15165
845.934	15214
846.07	15138
846.206	15192
846.342	15279
846.478	15108
846.614	15028
846.75	14933
846.886	14906
847.022	15039
847.158	14921
847.294	14960
847.429	15051
847.565	14956
847.701	15230
847.837	14667
847.972	14686
848.108	14762
848.244	14655
848.379	14625
848.515	14621
848.65	14514
848.786	14587
848.921	14594
849.057	14636
849.192	14697
849.328	14575
849.463	14594
849.598	14568
849.734	14473
849.869	14385
850.004	14400
850.14	14415
850.275	14278
850.41	14199
850.545	14290
850.68	14282
850.815	14328
850.95	14290
851.085	14473
851.22	14427
851.355	14309
851.49	14206
851.625	14298
851.76	14240
851.895	14058
852.03	14206
852.165	14263
852.299	14320
852.434	14290
852.569	14347
852.703	14313
852.838	14396
852.973	14594
853.107	14530
853.242	14298
853.376	14176
853.511	14050
853.645	14187
853.78	14309
853.914	14229
854.048	14294
854.183	14278
854.317	14244
854.451	14301
854.585	14218
854.72	14088
854.854	14271
854.988	14084
855.122	14240
855.256	14008
855.39	14164
855.524	14221
855.658	14317
855.792	14172
855.926	14244
856.06	14183
856.194	14358
856.327	14187
856.461	14199
856.595	14180
856.729	14142
856.862	14275
856.996	14275
857.13	14294
857.263	14286
857.397	14351
857.53	14195
857.664	14267
857.797	14347
857.931	14290
858.064	14225
858.197	14298
858.331	14123
858.464	14145
858.597	14020
858.731	14248
858.864	14187
858.997	14267
859.13	14256
859.263	14123
859.396	14259
859.529	14149
859.662	14088
859.795	14115
859.928	14168
860.061	14206
860.194	14355
860.327	14130
860.46	14172
860.592	14396
860.725	14408
860.858	14339
860.99	14183
861.123	14084
861.256	14126
861.388	14168
861.521	14845
861.653	14088
861.786	13989
861.918	14092
862.05	14123
862.183	14130
862.315	14183
862.447	14199
862.58	14176
862.712	14001
862.844	13963
862.976	14065
863.108	14043
863.24	14549
863.372	13780
863.504	14024
863.636	13932
863.768	13921
863.9	13944
864.032	13944
864.164	13978
864.296	13970
864.428	14088
864.559	14088
864.691	14020
864.823	14039
864.954	13955
865.086	14008
865.217	13967
865.349	13902
865.48	14008
865.612	13909
865.743	14096
865.875	13974
866.006	13940
866.137	14001
866.269	13906
866.4	14008
866.531	13852
866.662	13887
866.793	13989
866.924	13845
867.055	13906
867.186	13894
867.317	13909
867.448	13837
867.579	13921
867.71	13906
867.841	13986
867.972	13974
868.103	13894
868.233	14012
868.364	13970
868.495	14115
868.625	14157
868.756	14328
868.886	14157
869.017	14119
869.147	14229
869.278	14370
869.408	14149
869.539	14180
869.669	14290
869.799	14301
869.929	14351
870.06	14336
870.19	14549
870.32	14507
870.45	14552
870.58	14549
870.71	14667
870.84	14663
870.97	14484
871.1	14556
871.23	14746
871.36	14963
871.489	14655
871.619	14857
871.749	14769
871.879	14887
872.008	14971
872.138	14868
872.267	14830
872.397	14746
872.526	14579
872.656	14549
872.785	14648
872.915	14769
873.044	14952
873.173	14861
873.303	14849
873.432	14883
873.561	14910
873.69	14941
873.819	14876
873.948	14887
874.077	14880
874.206	14807
874.335	14876
874.464	14982
874.593	15237
874.722	15032
874.851	15241
874.979	15222
875.108	15195
875.237	15116
875.365	15077
875.494	15154
875.623	15184
875.751	15055
875.88	15203
876.008	15294
876.136	15526
876.265	15549
876.393	15671
876.521	15720
876.65	15610
876.778	15584
876.906	15595
877.034	15587
877.162	15606
877.29	15477
877.418	15564
877.546	15667
877.674	15557
877.802	15633
877.93	15622
878.058	15511
878.185	15397
878.313	15488
878.441	15564
878.568	15378
878.696	15580
878.824	15587
878.951	15679
879.079	15759
879.206	15888
879.333	15770
879.461	15599
879.588	15705
879.715	15686
879.842	15854
879.97	15603
880.097	15386
880.224	15363
880.351	15492
880.478	15568
880.605	15496
880.732	15496
880.859	15606
880.986	15428
881.112	15443
881.239	15374
881.366	15294
881.493	15127
881.619	15047
881.746	15104
881.872	15108
881.999	15081
882.125	15131
882.252	15089
882.378	15142
882.505	15211
882.631	15142
882.757	15051
882.883	14902
883.01	14921
883.136	14777
883.262	14697
883.388	14800
883.514	14891
883.64	14952
883.766	14815
883.892	14720
884.018	14697
884.143	14921
884.269	14925
884.395	14731
884.52	14610
884.646	14594
884.772	14602
884.897	14537
885.023	14610
885.148	14807
885.274	14777
885.399	14697
885.524	14724
885.65	14571
885.775	14636
885.9	14610
886.025	14777
886.15	14648
886.275	14537
886.4	14454
886.525	14606
886.65	14480
886.775	14587
886.9	14788
887.025	14826
887.149	14602
887.274	14484
887.399	14404
887.523	14423
887.648	14412
887.773	14275
887.897	14454
888.021	14533
888.146	14423
888.27	14575
888.395	14499
888.519	14484
888.643	14526
888.767	14514
888.891	14320
889.015	14237
889.139	14267
889.263	14199
889.387	14343
889.511	14431
889.635	14351
889.759	14317
889.883	14271
890.006	14366
890.13	14438
890.254	14256
890.377	14313
890.501	14081
890.624	14081
890.748	14187
890.871	14077
890.995	13913
891.118	14001
891.241	14008
891.364	14092
891.488	14130
891.611	13913
891.734	13993
891.857	14115
891.98	13967
892.103	14145
892.226	14016
892.349	13982
892.471	13898
892.594	13970
892.717	13989
892.839	14005
892.962	13997
893.085	14077
893.207	14031
893.33	13818
893.452	13887
893.575	14012
893.697	14046
893.819	14161
893.941	14153
894.064	14092
894.186	13989
894.308	13986
894.43	14115
894.552	14191
894.674	14103
894.796	14081
894.918	14138
895.04	14035
895.161	14183
895.283	14180
895.405	14001
895.526	14134
895.648	14214
895.769	14149
895.891	14157
896.012	14271
896.134	14138
896.255	14195
896.376	14206
896.498	14164
896.619	14206
896.74	14145
896.861	14275
896.982	14518
897.103	14720
897.224	14533
897.345	14450
897.466	14355
897.587	14484
897.708	14552
897.828	14442
897.949	14415
898.07	14301
898.19	14461
898.311	14503
898.431	14495
898.552	14560
898.672	14739
898.792	14533
898.913	14571
899.033	14465
899.153	14328
899.273	14355
899.393	14263
899.513	14434
899.633	14434
899.753	14450
899.873	14442
899.993	14495
900.113	14374
900.232	14545
900.352	14427
900.472	14347
900.591	14107
900.711	14278
900.83	14229
900.95	14294
901.069	14400
901.189	14168
901.308	13967
901.427	13913
901.546	13944
901.665	13890
901.784	14005
901.904	13913
902.023	13753
902.141	13586
902.26	13521
902.379	13605
902.498	13480
902.617	13480
902.735	13582
902.854	13495
902.973	13396
903.091	13263
903.21	13266
903.328	13228
903.446	13095
903.565	13088
903.683	13042
903.801	12996
903.919	13118
904.038	13057
904.156	12875
904.274	12989
904.392	12882
904.51	12897
904.627	12825
904.745	12871
904.863	12943
904.981	12692
905.098	12578
905.216	12536
905.334	12684
905.451	12593
905.569	12498
905.686	12555
905.803	12570
905.921	12433
906.038	12494
906.155	12509
906.272	12273
906.389	12376
906.506	12216
906.623	12220
906.74	12148
906.857	11996
906.974	12117
907.091	12194
907.208	12311
907.324	12186
907.441	12144
907.557	12053
907.674	11908
907.79	11836
907.907	11813
908.023	12007
908.139	11870
908.256	11916
908.372	11882
908.488	11805
908.604	11722
908.72	11691
908.836	11680
908.952	11684
909.068	11703
909.184	11764
909.3	11661
909.415	11748
909.531	11771
909.647	11448
909.762	11482
909.878	11402
909.993	11391
910.108	11440
910.224	11341
910.339	11490
910.454	11364
910.57	11318
910.685	11223
910.8	11493
910.915	11505
911.03	11280
911.145	11174
911.259	11098
911.374	11117
911.489	11075
911.604	11083
911.718	10965
911.833	10980
911.947	10774
912.062	10805
912.176	10866
912.291	10930
912.405	10831
912.519	11048
912.633	11143
912.748	10919
912.862	10965
912.976	10771
913.09	10717
913.204	10740
913.318	10797
913.431	10908
913.545	10839
913.659	10900
913.772	10786
913.886	10748
914	10618
914.113	10786
914.226	10820
914.34	10778
914.453	10630
914.566	10771
914.68	10618
914.793	10538
914.906	10466
915.019	10417
915.132	10310
915.245	10402
915.358	10424
915.47	10459
915.583	10497
915.696	10443
915.809	10546
915.921	10550
916.034	10402
916.146	10409
916.259	10299
916.371	10500
916.483	10470
916.595	10375
916.708	10421
916.82	10314
916.932	10413
917.044	10322
917.156	10322
917.268	10188
917.38	10344
917.491	10257
917.603	10306
917.715	10337
917.826	10386
917.938	10223
918.049	10207
918.161	10276
918.272	10440
918.384	10459
918.495	10287
918.606	10272
918.717	10059
918.828	10166
918.939	10257
919.05	10135
919.161	10150
919.272	9979
919.383	10055
919.494	10181
919.604	10413
919.715	10181
919.826	10139
919.936	10147
920.047	10276
920.157	10230
920.267	10409
920.378	10249
920.488	10177
920.598	10333
920.708	10577
920.818	10348
920.928	10379
921.038	10535
921.148	10607
921.258	10253
921.368	10147
921.477	10032
921.587	10071
921.697	9934
921.806	10090
921.916	9960
922.025	9831
922.134	9713
922.244	9747
922.353	9766
922.462	9705
922.571	9599
922.68	9504
922.789	9405
922.898	9439
923.007	9462
923.116	9515
923.224	9450
923.333	9477
923.442	9439
923.55	9336
923.659	9382
923.767	9454
923.876	9291
923.984	9367
924.092	9302
924.201	9332
924.309	9340
924.417	9359
924.525	9253
924.633	9214
924.741	10196
924.849	9093
924.956	9245
925.064	9081
925.172	9001
925.279	9055
925.387	9051
925.494	9180
925.602	9195
925.709	9142
925.816	9066
925.924	9089
926.031	9184
926.138	9154
926.245	9157
926.352	9009
926.459	9176
926.566	9245
926.673	9020
926.779	8963
926.886	8952
926.993	8815
927.099	8823
927.206	8842
927.312	8720
927.419	8876
927.525	8773
927.631	8895
927.737	8720
927.843	8712
927.95	8587
928.056	8686
928.162	8724
928.267	8804
928.373	9253
928.479	8811
928.585	8610
928.69	8667
928.796	8735
928.901	8678
929.007	8526
929.112	8617
929.218	8545
929.323	8545
929.428	8526
929.533	8594
929.638	8457
929.743	8545
929.848	8590
929.953	8511
930.058	8412
930.163	8282
930.267	8282
930.372	8442
930.477	8301
930.581	8492
930.685	8362
930.79	8176
930.894	8259
930.998	8259
931.103	8389
931.207	8081
931.311	7974
931.415	7898
931.519	7757
931.623	7757
