Data from test_V78500241_2538.txt Node
Date: Fri Mar 25 14:51:23 CST 2022
User: usil
Spectrometer: V785-0024
Trigger mode: 0
Integration Time (sec): 4.000000E-1
Scans to average: 1
Nonlinearity correction enabled: false
Boxcar width: 0
Storing dark spectrum: false
XAxis mode: Wavelengths
Number of Pixels in Spectrum: 1024
>>>>>Begin Spectral Data<<<<<
801.071	22188
801.214	21945
801.356	21804
801.499	21572
801.641	21530
801.783	21416
801.926	21477
802.068	21348
802.211	21317
802.353	21222
802.496	20986
802.638	20918
802.78	20834
802.923	20773
803.065	20716
803.208	20758
803.35	20800
803.492	20929
803.635	20842
803.777	20819
803.919	20781
804.061	21154
804.204	20838
804.346	20720
804.488	20648
804.63	20648
804.773	20663
804.915	20629
805.057	20804
805.199	20663
805.341	20697
805.483	20769
805.626	20792
805.768	20598
805.91	20769
806.052	20659
806.194	20533
806.336	20750
806.478	20678
806.62	20549
806.762	20655
806.904	20834
807.046	21093
807.188	20971
807.33	21135
807.472	21051
807.614	20883
807.756	20899
807.898	20769
808.04	20689
808.182	20743
808.324	20571
808.465	20807
808.607	21028
808.749	21077
808.891	21116
809.033	21150
809.174	21089
809.316	20937
809.458	21028
809.6	20982
809.741	21169
809.883	21116
810.025	21207
810.166	21222
810.308	21199
810.45	21009
810.591	21005
810.733	20948
810.875	20872
811.016	20739
811.158	20670
811.299	20895
811.441	20937
811.582	20944
811.724	20815
811.865	20765
812.007	20785
812.148	20788
812.29	20773
812.431	20982
812.573	21005
812.714	21157
812.855	21329
812.997	21275
813.138	21561
813.279	21405
813.421	21252
813.562	21150
813.703	21081
813.845	20902
813.986	20503
814.127	20514
814.268	20454
814.41	20320
814.551	20305
814.692	20347
814.833	20343
814.974	20237
815.115	20385
815.256	20252
815.397	20221
815.539	20195
815.68	20115
815.821	20084
815.962	20157
816.103	20054
816.244	19932
816.385	19906
816.526	19917
816.666	19578
816.807	19483
816.948	19586
817.089	19556
817.23	19628
817.371	19483
817.512	19556
817.653	19434
817.793	19407
817.934	19377
818.075	19514
818.216	19453
818.356	19422
818.497	19343
818.638	19209
818.778	19175
818.919	19129
819.06	19198
819.2	19316
819.341	19297
819.481	19430
819.622	19514
819.762	19681
819.903	19647
820.043	19552
820.184	19468
820.324	19457
820.465	19544
820.605	19506
820.746	19445
820.886	19274
821.026	19445
821.167	19422
821.307	19495
821.447	19301
821.588	19354
821.728	19145
821.868	18993
822.008	18894
822.149	18905
822.289	18894
822.429	18563
822.569	18544
822.709	18612
822.849	18391
822.99	18380
823.13	18235
823.27	18273
823.41	18277
823.55	18068
823.69	18235
823.83	18114
823.97	18163
824.11	17939
824.25	17828
824.389	17969
824.529	18140
824.669	17863
824.809	17980
824.949	18015
825.089	18076
825.228	17984
825.368	17779
825.508	17767
825.648	17737
825.787	17767
825.927	17710
826.067	17672
826.206	17691
826.346	17687
826.485	17779
826.625	17767
826.765	17764
826.904	17752
827.044	17497
827.183	17535
827.323	17425
827.462	17490
827.601	17395
827.741	17334
827.88	17417
828.02	17303
828.159	17376
828.298	17341
828.437	17570
828.577	17364
828.716	17592
828.855	17421
828.994	17284
829.134	17060
829.273	17147
829.412	17102
829.551	17083
829.69	17052
829.829	17105
829.968	17242
830.107	17250
830.246	17128
830.385	17071
830.524	17029
830.663	17079
830.802	16980
830.941	16698
831.08	16683
831.219	16885
831.357	16831
831.496	16953
831.635	16786
831.774	16721
831.913	16687
832.051	16622
832.19	16554
832.329	16622
832.467	16474
832.606	16394
832.744	16443
832.883	16413
833.022	16394
833.16	16527
833.299	16489
833.437	16519
833.576	16519
833.714	16535
833.852	16504
833.991	16599
834.129	16653
834.267	16481
834.406	16527
834.544	16596
834.682	16519
834.821	16523
834.959	16698
835.097	16462
835.235	16558
835.373	16573
835.511	16573
835.65	16485
835.788	16394
835.926	16291
836.064	16341
836.202	16238
836.34	16440
836.478	16459
836.615	16459
836.753	16413
836.891	16497
837.029	16519
837.167	16234
837.305	16386
837.443	16280
837.58	16306
837.718	16432
837.856	16341
837.993	16314
838.131	16284
838.269	16147
838.406	16268
838.544	16219
838.681	15945
838.819	16010
838.956	15804
839.094	15766
839.231	15934
839.369	16006
839.506	16268
839.643	16090
839.781	15846
839.918	15835
840.055	15922
840.193	15922
840.33	15880
840.467	15797
840.604	15953
840.742	16150
840.879	15808
841.016	15766
841.153	15770
841.29	16010
841.427	15983
841.564	15937
841.701	15781
841.838	15808
841.975	15717
842.112	15679
842.249	15675
842.385	15526
842.522	15762
842.659	15622
842.796	15618
842.933	15644
843.069	15504
843.206	15587
843.343	15724
843.479	15724
843.616	15720
843.752	15500
843.889	15469
844.025	15660
844.162	15283
844.298	15488
844.435	15435
844.571	15469
844.708	15504
844.844	15606
844.98	15458
845.117	15542
845.253	15363
845.389	15249
845.525	15348
845.661	15279
845.798	15188
845.934	15249
846.07	15169
846.206	15233
846.342	15275
846.478	15226
846.614	15077
846.75	14853
846.886	14941
847.022	15028
847.158	15123
847.294	14990
847.429	15013
847.565	14979
847.701	15214
847.837	14868
847.972	14765
848.108	14807
848.244	14811
848.379	14632
848.515	14746
848.65	14602
848.786	14655
848.921	14606
849.057	14678
849.192	14731
849.328	14667
849.463	14716
849.598	14606
849.734	14575
849.869	14431
850.004	14454
850.14	14419
850.275	14434
850.41	14324
850.545	14332
850.68	14385
850.815	14442
850.95	14366
851.085	14495
851.22	14476
851.355	14393
851.49	14286
851.625	14252
851.76	14385
851.895	14237
852.03	14286
852.165	14244
852.299	14419
852.434	14476
852.569	14423
852.703	14454
852.838	14423
852.973	14530
853.107	14552
853.242	14282
853.376	14370
853.511	14062
853.645	14199
853.78	14370
853.914	14336
854.048	14218
854.183	14225
854.317	14237
854.451	14374
854.585	14286
854.72	14214
854.854	14355
854.988	14164
855.122	14229
855.256	14043
855.39	14161
855.524	14271
855.658	14271
855.792	14168
855.926	14275
856.06	14309
856.194	14366
856.327	14248
856.461	14187
856.595	14282
856.729	14252
856.862	14309
856.996	14225
857.13	14229
857.263	14355
857.397	14328
857.53	14218
857.664	14256
857.797	14271
857.931	14278
858.064	14332
858.197	14305
858.331	14263
858.464	14164
858.597	14206
858.731	14168
858.864	14248
858.997	14229
859.13	14286
859.263	14199
859.396	14320
859.529	14271
859.662	14317
859.795	14218
859.928	14286
860.061	14377
860.194	14492
860.327	14320
860.46	14332
860.592	14404
860.725	14358
860.858	14336
860.99	14202
861.123	14069
861.256	14077
861.388	14202
861.521	14792
861.653	14153
861.786	14092
861.918	14138
862.05	14149
862.183	14149
862.315	14267
862.447	14263
862.58	14134
862.712	14024
862.844	13921
862.976	14065
863.108	13982
863.24	14313
863.372	13928
863.504	14077
863.636	14142
863.768	14126
863.9	14020
864.032	13989
864.164	14001
864.296	14123
864.428	14142
864.559	14092
864.691	14111
864.823	14126
864.954	14008
865.086	14046
865.217	13967
865.349	13944
865.48	13989
865.612	14039
865.743	14248
865.875	14027
866.006	13944
866.137	14043
866.269	14024
866.4	13932
866.531	14043
866.662	13887
866.793	13974
866.924	13982
867.055	14046
867.186	14092
867.317	13951
867.448	13830
867.579	13963
867.71	13951
867.841	13932
867.972	14043
868.103	13986
868.233	14073
868.364	14046
868.495	14065
868.625	14134
868.756	14351
868.886	14103
869.017	14282
869.147	14423
869.278	14385
869.408	14282
869.539	14278
869.669	14415
869.799	14309
869.929	14358
870.06	14336
870.19	14598
870.32	14480
870.45	14598
870.58	14636
870.71	14845
870.84	14796
870.97	14602
871.1	14663
871.23	14899
871.36	14838
871.489	14792
871.619	14823
871.749	14880
871.879	14956
872.008	14971
872.138	14857
872.267	14720
872.397	14667
872.526	14705
872.656	14689
872.785	14743
872.915	14952
873.044	14948
873.173	14887
873.303	14891
873.432	14933
873.561	15005
873.69	14910
873.819	14880
873.948	14963
874.077	14986
874.206	14906
874.335	14857
874.464	15039
874.593	15154
874.722	15108
874.851	15241
874.979	15207
875.108	15233
875.237	15188
875.365	15192
875.494	15123
875.623	15241
875.751	15169
875.88	15192
876.008	15386
876.136	15336
876.265	15717
876.393	15816
876.521	15728
876.65	15743
876.778	15717
876.906	15648
877.034	15637
877.162	15652
877.29	15637
877.418	15694
877.546	15584
877.674	15686
877.802	15599
877.93	15572
878.058	15637
878.185	15545
878.313	15584
878.441	15656
878.568	15534
878.696	15545
878.824	15667
878.951	15713
879.079	15785
879.206	15937
879.333	15884
879.461	15804
879.588	15781
879.715	15698
879.842	15926
879.97	15732
880.097	15443
880.224	15488
880.351	15534
880.478	15435
880.605	15439
880.732	15511
880.859	15667
880.986	15496
881.112	15568
881.239	15393
881.366	15317
881.493	15260
881.619	15211
881.746	15211
881.872	15169
881.999	15135
882.125	15077
882.252	15150
882.378	15142
882.505	15218
882.631	15077
882.757	14960
882.883	14986
883.01	15058
883.136	14941
883.262	14864
883.388	14819
883.514	14921
883.64	14982
883.766	14941
883.892	14800
884.018	14804
884.143	14872
884.269	15081
884.395	14758
884.52	14731
884.646	14682
884.772	14560
884.897	14606
885.023	14674
885.148	14735
885.274	14731
885.399	14773
885.524	14632
885.65	14773
885.775	14686
885.9	14636
886.025	14842
886.15	14705
886.275	14583
886.4	14575
886.525	14507
886.65	14610
886.775	14632
886.9	14773
887.025	14883
887.149	14701
887.274	14469
887.399	14488
887.523	14488
887.648	14442
887.773	14442
887.897	14598
888.021	14518
888.146	14465
888.27	14602
888.395	14674
888.519	14632
888.643	14499
888.767	14674
888.891	14381
889.015	14305
889.139	14377
889.263	14377
889.387	14473
889.511	14571
889.635	14522
889.759	14278
889.883	14412
890.006	14339
890.13	14514
890.254	14298
890.377	14362
890.501	14214
890.624	14282
890.748	14244
890.871	14046
890.995	13951
891.118	13974
891.241	14058
891.364	14168
891.488	14149
891.611	14020
891.734	14035
891.857	14058
891.98	14088
892.103	14115
892.226	14126
892.349	13993
892.471	13989
892.594	13982
892.717	14103
892.839	14001
892.962	14107
893.085	14107
893.207	14035
893.33	14046
893.452	13978
893.575	14172
893.697	14001
893.819	14267
893.941	14252
894.064	14259
894.186	14119
894.308	14077
894.43	14130
894.552	14271
894.674	14225
894.796	13967
894.918	14081
895.04	14130
895.161	14214
895.283	14237
895.405	14126
895.526	14248
895.648	14077
895.769	14195
895.891	14225
896.012	14290
896.134	14298
896.255	14328
896.376	14256
896.498	14278
896.619	14278
896.74	14275
896.861	14324
896.982	14541
897.103	14655
897.224	14560
897.345	14423
897.466	14492
897.587	14434
897.708	14587
897.828	14610
897.949	14473
898.07	14278
898.19	14522
898.311	14617
898.431	14530
898.552	14590
898.672	14686
898.792	14689
898.913	14670
899.033	14526
899.153	14473
899.273	14366
899.393	14362
899.513	14507
899.633	14408
899.753	14396
899.873	14446
899.993	14476
900.113	14488
900.232	14412
900.352	14404
900.472	14317
900.591	14374
900.711	14294
900.83	14324
900.95	14381
901.069	14385
901.189	14298
901.308	13970
901.427	13978
901.546	13986
901.665	14096
901.784	14012
901.904	13849
902.023	13803
902.141	13616
902.26	13632
902.379	13571
902.498	13586
902.617	13510
902.735	13468
902.854	13575
902.973	13407
903.091	13293
903.21	13179
903.328	13312
903.446	13274
903.565	13076
903.683	13156
903.801	13107
903.919	13160
904.038	12985
904.156	12981
904.274	13008
904.392	12905
904.51	12939
904.627	12863
904.745	12916
904.863	12932
904.981	12715
905.098	12631
905.216	12593
905.334	12654
905.451	12608
905.569	12631
905.686	12677
905.803	12646
905.921	12391
906.038	12574
906.155	12376
906.272	12388
906.389	12334
906.506	12167
906.623	12270
906.74	12190
906.857	12136
906.974	12186
907.091	12300
907.208	12323
907.324	12292
907.441	12194
907.557	11923
907.674	11855
907.79	11851
907.907	11855
908.023	12019
908.139	11999
908.256	11931
908.372	11916
908.488	11866
908.604	11714
908.72	11718
908.836	11695
908.952	11695
909.068	11733
909.184	11832
909.3	11775
909.415	11843
909.531	11741
909.647	11501
909.762	11455
909.878	11429
909.993	11459
910.108	11467
910.224	11471
910.339	11463
910.454	11376
910.57	11379
910.685	11322
910.8	11608
910.915	11520
911.03	11379
911.145	11162
911.259	11254
911.374	11162
911.489	11113
911.604	11147
911.718	11033
911.833	10987
911.947	10866
912.062	10877
912.176	10949
912.291	10953
912.405	10908
912.519	11128
912.633	11075
912.748	11033
912.862	10987
912.976	10847
913.09	10763
913.204	10725
913.318	10869
913.431	10908
913.545	10934
913.659	10930
913.772	10786
913.886	10729
914	10714
914.113	10820
914.226	10911
914.34	10782
914.453	10660
914.566	10793
914.68	10725
914.793	10645
914.906	10519
915.019	10489
915.132	10356
915.245	10447
915.358	10527
915.47	10466
915.583	10470
915.696	10466
915.809	10653
915.921	10641
916.034	10371
916.146	10398
916.259	10386
916.371	10489
916.483	10481
916.595	10337
916.708	10417
916.82	10455
916.932	10352
917.044	10329
917.156	10451
917.268	10352
917.38	10261
917.491	10227
917.603	10329
917.715	10402
917.826	10421
917.938	10261
918.049	10234
918.161	10303
918.272	10478
918.384	10394
918.495	10265
918.606	10177
918.717	10059
918.828	10128
918.939	10188
919.05	10120
919.161	10204
919.272	9972
919.383	10051
919.494	10196
919.604	10417
919.715	10173
919.826	10131
919.936	10154
920.047	10253
920.157	10306
920.267	10352
920.378	10246
920.488	10181
920.598	10417
920.708	10561
920.818	10398
920.928	10493
921.038	10531
921.148	10447
921.258	10253
921.368	10120
921.477	10105
921.587	10029
921.697	9865
921.806	10090
921.916	9945
922.025	9747
922.134	9698
922.244	9644
922.353	9751
922.462	9671
922.571	9603
922.68	9500
922.789	9416
922.898	9462
923.007	9351
923.116	9504
923.224	9485
923.333	9447
923.442	9355
923.55	9367
923.659	9298
923.767	9435
923.876	9287
923.984	9325
924.092	9256
924.201	9253
924.309	9291
924.417	9363
924.525	9226
924.633	9359
924.741	10181
924.849	9093
924.956	9302
925.064	9116
925.172	8975
925.279	9093
925.387	9173
925.494	9176
925.602	9298
925.709	9165
925.816	9062
925.924	9074
926.031	9203
926.138	9127
926.245	9176
926.352	9032
926.459	9192
926.566	9256
926.673	9058
926.779	9028
926.886	8998
926.993	8880
927.099	8849
927.206	8766
927.312	8788
927.419	8933
927.525	8819
927.631	8834
927.737	8716
927.843	8739
927.95	8651
928.056	8727
928.162	8724
928.267	8735
928.373	9386
928.479	8788
928.585	8556
928.69	8769
928.796	8712
928.901	8632
929.007	8518
929.112	8648
929.218	8610
929.323	8568
929.428	8526
929.533	8632
929.638	8473
929.743	8480
929.848	8571
929.953	8507
930.058	8400
930.163	8214
930.267	8298
930.372	8457
930.477	8206
930.581	8499
930.685	8362
930.79	8218
930.894	8275
930.998	8195
931.103	8393
931.207	8043
931.311	8016
931.415	7928
931.519	7742
931.623	7750
