Data from test_V78500241_3232.txt Node
Date: Fri Mar 25 14:56:13 CST 2022
User: usil
Spectrometer: V785-0024
Trigger mode: 0
Integration Time (sec): 4.000000E-1
Scans to average: 1
Nonlinearity correction enabled: false
Boxcar width: 0
Storing dark spectrum: false
XAxis mode: Wavelengths
Number of Pixels in Spectrum: 1024
>>>>>Begin Spectral Data<<<<<
801.071	22090
801.214	21835
801.356	21641
801.499	21553
801.641	21481
801.783	21302
801.926	21428
802.068	21264
802.211	21287
802.353	21112
802.496	20963
802.638	20834
802.78	20941
802.923	20750
803.065	20686
803.208	20716
803.35	20777
803.492	20826
803.635	20731
803.777	20689
803.919	20769
804.061	21131
804.204	20750
804.346	20632
804.488	20689
804.63	20640
804.773	20670
804.915	20708
805.057	20811
805.199	20594
805.341	20587
805.483	20769
805.626	20743
805.768	20617
805.91	20636
806.052	20617
806.194	20484
806.336	20758
806.478	20511
806.62	20480
806.762	20735
806.904	20758
807.046	20948
807.188	20906
807.33	20925
807.472	20895
807.614	20876
807.756	20754
807.898	20788
808.04	20651
808.182	20594
808.324	20720
808.465	20670
808.607	20944
808.749	21001
808.891	21039
809.033	21112
809.174	21077
809.316	20925
809.458	21013
809.6	20933
809.741	21070
809.883	21028
810.025	21180
810.166	21017
810.308	21256
810.45	21131
810.591	20960
810.733	20868
810.875	20708
811.016	20659
811.158	20629
811.299	20735
811.441	20842
811.582	20891
811.724	20800
811.865	20724
812.007	20731
812.148	20727
812.29	20750
812.431	20853
812.573	21001
812.714	21020
812.855	21351
812.997	21313
813.138	21507
813.279	21351
813.421	21351
813.562	21096
813.703	21024
813.845	20849
813.986	20613
814.127	20507
814.268	20317
814.41	20290
814.551	20275
814.692	20370
814.833	20271
814.974	20301
815.115	20309
815.256	20107
815.397	20077
815.539	20096
815.68	20046
815.821	19963
815.962	20035
816.103	19997
816.244	19864
816.385	19795
816.526	19712
816.666	19578
816.807	19483
816.948	19480
817.089	19586
817.23	19464
817.371	19422
817.512	19377
817.653	19373
817.793	19339
817.934	19499
818.075	19480
818.216	19419
818.356	19377
818.497	19251
818.638	18935
818.778	19034
818.919	19114
819.06	19065
819.2	19327
819.341	19266
819.481	19282
819.622	19548
819.762	19609
819.903	19575
820.043	19400
820.184	19441
820.324	19316
820.465	19426
820.605	19396
820.746	19350
820.886	19228
821.026	19381
821.167	19339
821.307	19312
821.447	19343
821.588	19148
821.728	19194
821.868	18894
822.008	18741
822.149	18787
822.289	18757
822.429	18528
822.569	18502
822.709	18452
822.849	18353
822.99	18273
823.13	18281
823.27	18220
823.41	18133
823.55	18060
823.69	18186
823.83	18163
823.97	18155
824.11	17821
824.25	17786
824.389	17843
824.529	17946
824.669	17863
824.809	18049
824.949	17965
825.089	17942
825.228	17802
825.368	17592
825.508	17680
825.648	17680
825.787	17630
825.927	17722
826.067	17634
826.206	17516
826.346	17653
826.485	17589
826.625	17623
826.765	17741
826.904	17577
827.044	17368
827.183	17216
827.323	17265
827.462	17444
827.601	17398
827.741	17398
827.88	17368
828.02	17258
828.159	17345
828.298	17376
828.437	17524
828.577	17334
828.716	17414
828.855	17208
828.994	17212
829.134	17079
829.273	17060
829.412	17098
829.551	17075
829.69	17045
829.829	17060
829.968	17166
830.107	17143
830.246	17098
830.385	16995
830.524	17006
830.663	16828
830.802	16850
830.941	16675
831.08	16656
831.219	16706
831.357	16736
831.496	16908
831.635	16660
831.774	16523
831.913	16630
832.051	16580
832.19	16561
832.329	16527
832.467	16405
832.606	16409
832.744	16382
832.883	16272
833.022	16348
833.16	16523
833.299	16516
833.437	16363
833.576	16500
833.714	16428
833.852	16500
833.991	16508
834.129	16428
834.267	16478
834.406	16550
834.544	16440
834.682	16474
834.821	16459
834.959	16649
835.097	16363
835.235	16641
835.373	16500
835.511	16417
835.65	16424
835.788	16466
835.926	16253
836.064	16131
836.202	16177
836.34	16246
836.478	16303
836.615	16375
836.753	16352
836.891	16565
837.029	16432
837.167	16329
837.305	16360
837.443	16188
837.58	16234
837.718	16299
837.856	16280
837.993	16207
838.131	16303
838.269	16207
838.406	16219
838.544	16090
838.681	15953
838.819	15838
838.956	15838
839.094	15774
839.231	15991
839.369	15979
839.506	16219
839.643	15960
839.781	15724
839.918	15679
840.055	15781
840.193	15759
840.33	15778
840.467	15857
840.604	15819
840.742	16093
840.879	15675
841.016	15625
841.153	15709
841.29	15937
841.427	15797
841.564	15736
841.701	15633
841.838	15656
841.975	15759
842.112	15682
842.249	15667
842.385	15492
842.522	15736
842.659	15549
842.796	15515
842.933	15576
843.069	15580
843.206	15549
843.343	15732
843.479	15557
843.616	15603
843.752	15374
843.889	15279
844.025	15462
844.162	15306
844.298	15374
844.435	15340
844.571	15351
844.708	15481
844.844	15492
844.98	15462
845.117	15435
845.253	15355
845.389	15116
845.525	15397
845.661	15195
845.798	15119
845.934	15146
846.07	15138
846.206	15180
846.342	15287
846.478	15252
846.614	15013
846.75	14925
846.886	14849
847.022	14982
847.158	14914
847.294	14975
847.429	14941
847.565	14941
847.701	15116
847.837	14716
847.972	14697
848.108	14674
848.244	14708
848.379	14530
848.515	14522
848.65	14514
848.786	14450
848.921	14511
849.057	14648
849.192	14613
849.328	14537
849.463	14533
849.598	14526
849.734	14404
849.869	14396
850.004	14328
850.14	14309
850.275	14305
850.41	14248
850.545	14256
850.68	14271
850.815	14298
850.95	14252
851.085	14396
851.22	14400
851.355	14309
851.49	14317
851.625	14286
851.76	14305
851.895	14225
852.03	14126
852.165	14278
852.299	14271
852.434	14393
852.569	14358
852.703	14301
852.838	14317
852.973	14526
853.107	14396
853.242	14180
853.376	14168
853.511	14027
853.645	14183
853.78	14317
853.914	14172
854.048	14138
854.183	14164
854.317	14202
854.451	14381
854.585	14138
854.72	14084
854.854	14271
854.988	14157
855.122	14161
855.256	14084
855.39	14157
855.524	14275
855.658	14130
855.792	14145
855.926	14183
856.06	14191
856.194	14271
856.327	14187
856.461	14126
856.595	14103
856.729	14138
856.862	14225
856.996	14149
857.13	14218
857.263	14275
857.397	14305
857.53	14039
857.664	14134
857.797	14225
857.931	14248
858.064	14168
858.197	14168
858.331	14237
858.464	14161
858.597	13993
858.731	14237
858.864	14096
858.997	14161
859.13	14199
859.263	14187
859.396	14252
859.529	14123
859.662	14115
859.795	14123
859.928	14210
860.061	14301
860.194	14305
860.327	14149
860.46	14134
860.592	14271
860.725	14278
860.858	14343
860.99	14199
861.123	14069
861.256	14107
861.388	14153
861.521	15039
861.653	14050
861.786	13967
861.918	14096
862.05	13997
862.183	14183
862.315	14115
862.447	14176
862.58	14115
862.712	13925
862.844	13928
862.976	14138
863.108	14043
863.24	14412
863.372	13887
863.504	13970
863.636	13955
863.768	14062
863.9	13951
864.032	13887
864.164	13909
864.296	13963
864.428	14069
864.559	14092
864.691	13944
864.823	13986
864.954	13978
865.086	13986
865.217	13955
865.349	13894
865.48	13963
865.612	13917
865.743	14134
865.875	13959
866.006	13852
866.137	13902
866.269	14012
866.4	13852
866.531	13959
866.662	13856
866.793	14058
866.924	13936
867.055	13906
867.186	13890
867.317	13925
867.448	13837
867.579	13936
867.71	13894
867.841	13814
867.972	13856
868.103	14005
868.233	13936
868.364	13871
868.495	14035
868.625	14172
868.756	14301
868.886	14054
869.017	14157
869.147	14294
869.278	14324
869.408	14218
869.539	14107
869.669	14210
869.799	14153
869.929	14290
870.06	14301
870.19	14583
870.32	14408
870.45	14469
870.58	14511
870.71	14754
870.84	14663
870.97	14560
871.1	14511
871.23	14872
871.36	14887
871.489	14629
871.619	14674
871.749	14758
871.879	14777
872.008	14967
872.138	14727
872.267	14868
872.397	14655
872.526	14488
872.656	14499
872.785	14693
872.915	14712
873.044	14887
873.173	14788
873.303	14853
873.432	14887
873.561	14891
873.69	14876
873.819	14777
873.948	14941
874.077	14838
874.206	14781
874.335	14864
874.464	14921
874.593	15036
874.722	15020
874.851	15260
874.979	15222
875.108	15195
875.237	15066
875.365	15123
875.494	15081
875.623	15146
875.751	15192
875.88	15188
876.008	15157
876.136	15386
876.265	15633
876.393	15675
876.521	15648
876.65	15591
876.778	15564
876.906	15481
877.034	15561
877.162	15542
877.29	15450
877.418	15481
877.546	15564
877.674	15576
877.802	15610
877.93	15614
878.058	15557
878.185	15500
878.313	15458
878.441	15500
878.568	15393
878.696	15450
878.824	15633
878.951	15625
879.079	15778
879.206	15956
879.333	15736
879.461	15660
879.588	15698
879.715	15838
879.842	15797
879.97	15698
880.097	15458
880.224	15447
880.351	15504
880.478	15466
880.605	15454
880.732	15348
880.859	15641
880.986	15382
881.112	15428
881.239	15355
881.366	15272
881.493	15146
881.619	15097
881.746	15116
881.872	15058
881.999	15055
882.125	15020
882.252	15100
882.378	15032
882.505	15176
882.631	15005
882.757	14914
882.883	14941
883.01	14857
883.136	14796
883.262	14765
883.388	14602
883.514	14982
883.64	14902
883.766	14876
883.892	14712
884.018	14613
884.143	14868
884.269	14952
884.395	14655
884.52	14484
884.646	14602
884.772	14560
884.897	14545
885.023	14674
885.148	14648
885.274	14727
885.399	14720
885.524	14590
885.65	14648
885.775	14545
885.9	14659
886.025	14682
886.15	14678
886.275	14568
886.4	14518
886.525	14556
886.65	14488
886.775	14587
886.9	14716
887.025	14914
887.149	14606
887.274	14389
887.399	14377
887.523	14320
887.648	14370
887.773	14366
887.897	14492
888.021	14446
888.146	14347
888.27	14545
888.395	14560
888.519	14488
888.643	14488
888.767	14511
888.891	14256
889.015	14248
889.139	14339
889.263	14301
889.387	14366
889.511	14438
889.635	14438
889.759	14301
889.883	14233
890.006	14400
890.13	14370
890.254	14267
890.377	14229
890.501	14123
890.624	14043
890.748	14161
890.871	14031
890.995	14016
891.118	13993
891.241	13982
891.364	13974
891.488	14172
891.611	14065
891.734	13974
891.857	13978
891.98	14001
892.103	14062
892.226	14039
892.349	14020
892.471	13894
892.594	14043
892.717	14065
892.839	13978
892.962	13974
893.085	14050
893.207	14024
893.33	13909
893.452	13909
893.575	14081
893.697	13936
893.819	14115
893.941	14221
894.064	14130
894.186	13978
894.308	13909
894.43	14081
894.552	14305
894.674	14221
894.796	14058
894.918	14111
895.04	14031
895.161	14199
895.283	14142
895.405	14031
895.526	14084
895.648	14058
895.769	14145
895.891	14168
896.012	14237
896.134	14142
896.255	14183
896.376	14138
896.498	14244
896.619	14343
896.74	14202
896.861	14351
896.982	14594
897.103	14583
897.224	14507
897.345	14408
897.466	14351
897.587	14461
897.708	14537
897.828	14503
897.949	14381
898.07	14320
898.19	14461
898.311	14495
898.431	14438
898.552	14575
898.672	14579
898.792	14590
898.913	14594
899.033	14594
899.153	14374
899.273	14298
899.393	14351
899.513	14393
899.633	14450
899.753	14385
899.873	14313
899.993	14400
900.113	14400
900.232	14374
900.352	14427
900.472	14324
900.591	14176
900.711	14237
900.83	14088
900.95	14290
901.069	14298
901.189	14187
901.308	14096
901.427	13879
901.546	13959
901.665	13925
901.784	13856
901.904	13830
902.023	13693
902.141	13586
902.26	13445
902.379	13548
902.498	13388
902.617	13422
902.735	13518
902.854	13468
902.973	13419
903.091	13228
903.21	13141
903.328	13285
903.446	13129
903.565	13053
903.683	13061
903.801	12973
903.919	13118
904.038	13061
904.156	12859
904.274	12951
904.392	12920
904.51	12909
904.627	12958
904.745	12962
904.863	12901
904.981	12646
905.098	12509
905.216	12540
905.334	12563
905.451	12551
905.569	12559
905.686	12616
905.803	12673
905.921	12399
906.038	12437
906.155	12502
906.272	12216
906.389	12350
906.506	12125
906.623	12163
906.74	12182
906.857	12026
906.974	12045
907.091	12243
907.208	12281
907.324	12095
907.441	12034
907.557	11897
907.674	11992
907.79	11878
907.907	11882
908.023	11874
908.139	11927
908.256	11832
908.372	11901
908.488	11843
908.604	11718
908.72	11600
908.836	11657
908.952	11592
909.068	11707
909.184	11817
909.3	11737
909.415	11665
909.531	11642
909.647	11448
909.762	11368
909.878	11482
909.993	11471
910.108	11414
910.224	11429
910.339	11455
910.454	11284
910.57	11288
910.685	11303
910.8	11543
910.915	11528
911.03	11303
911.145	11189
911.259	11098
911.374	11143
911.489	11056
911.604	11022
911.718	10946
911.833	10942
911.947	10835
912.062	10687
912.176	10866
912.291	10904
912.405	10930
912.519	11109
912.633	11109
912.748	10946
912.862	10869
912.976	10805
913.09	10618
913.204	10774
913.318	10809
913.431	10961
913.545	10896
913.659	10915
913.772	10790
913.886	10656
914	10542
914.113	10778
914.226	10839
914.34	10786
914.453	10558
914.566	10694
914.68	10656
914.793	10546
914.906	10417
915.019	10398
915.132	10299
915.245	10413
915.358	10402
915.47	10424
915.583	10405
915.696	10428
915.809	10592
915.921	10542
916.034	10466
916.146	10386
916.259	10284
916.371	10443
916.483	10432
916.595	10325
916.708	10337
916.82	10337
916.932	10299
917.044	10356
917.156	10310
917.268	10253
917.38	10219
917.491	10299
917.603	10268
917.715	10398
917.826	10363
917.938	10211
918.049	10192
918.161	10234
918.272	10428
918.384	10421
918.495	10352
918.606	10158
918.717	10082
918.828	10135
918.939	10147
919.05	10082
919.161	10177
919.272	9941
919.383	9922
919.494	10185
919.604	10291
919.715	10192
919.826	10067
919.936	10147
920.047	10234
920.157	10112
920.267	10398
920.378	10223
920.488	10166
920.598	10379
920.708	10500
920.818	10291
920.928	10295
921.038	10489
921.148	10481
921.258	10181
921.368	10196
921.477	9922
921.587	9934
921.697	9861
921.806	10048
921.916	9899
922.025	9713
922.134	9736
922.244	9679
922.353	9720
922.462	9625
922.571	9599
922.68	9424
922.789	9355
922.898	9412
923.007	9332
923.116	9401
923.224	9382
923.333	9367
923.442	9241
923.55	9313
923.659	9344
923.767	9382
923.876	9256
923.984	9310
924.092	9226
924.201	9241
924.309	9279
924.417	9241
924.525	9165
924.633	9249
924.741	10135
924.849	9062
924.956	9195
925.064	9097
925.172	9036
925.279	9005
925.387	9089
925.494	9077
925.602	9142
925.709	9119
925.816	8929
925.924	9093
926.031	9062
926.138	9070
926.245	9112
926.352	8960
926.459	9100
926.566	9146
926.673	9005
926.779	8925
926.886	8883
926.993	8792
927.099	8720
927.206	8720
927.312	8743
927.419	8781
927.525	8804
927.631	8819
927.737	8682
927.843	8716
927.95	8594
928.056	8644
928.162	8670
928.267	8743
928.373	9313
928.479	8823
928.585	8568
928.69	8686
928.796	8686
928.901	8602
929.007	8499
929.112	8625
929.218	8640
929.323	8556
929.428	8514
929.533	8530
929.638	8355
929.743	8400
929.848	8537
929.953	8438
930.058	8347
930.163	8256
930.267	8294
930.372	8400
930.477	8229
930.581	8514
930.685	8324
930.79	8206
930.894	8271
930.998	8271
931.103	8324
931.207	8027
931.311	7936
931.415	7925
931.519	7696
931.623	7746
