Data from test_V78500241_2754.txt Node
Date: Fri Mar 25 14:52:53 CST 2022
User: usil
Spectrometer: V785-0024
Trigger mode: 0
Integration Time (sec): 4.000000E-1
Scans to average: 1
Nonlinearity correction enabled: false
Boxcar width: 0
Storing dark spectrum: false
XAxis mode: Wavelengths
Number of Pixels in Spectrum: 1024
>>>>>Begin Spectral Data<<<<<
801.071	22002
801.214	21941
801.356	21679
801.499	21637
801.641	21450
801.783	21386
801.926	21526
802.068	21348
802.211	21325
802.353	21161
802.496	20998
802.638	20891
802.78	20880
802.923	20644
803.065	20708
803.208	20701
803.35	20701
803.492	20906
803.635	20849
803.777	20754
803.919	20697
804.061	21062
804.204	20868
804.346	20678
804.488	20579
804.63	20716
804.773	20476
804.915	20693
805.057	20689
805.199	20533
805.341	20663
805.483	20773
805.626	20659
805.768	20549
805.91	20587
806.052	20663
806.194	20594
806.336	20754
806.478	20625
806.62	20507
806.762	20674
806.904	20861
807.046	21100
807.188	20906
807.33	21039
807.472	20967
807.614	20910
807.756	20861
807.898	20701
808.04	20697
808.182	20804
808.324	20739
808.465	20807
808.607	20880
808.749	21146
808.891	21058
809.033	21081
809.174	21100
809.316	20918
809.458	21009
809.6	20933
809.741	20971
809.883	21195
810.025	21218
810.166	21005
810.308	21146
810.45	21127
810.591	21062
810.733	20853
810.875	20838
811.016	20705
811.158	20640
811.299	20826
811.441	20735
811.582	20921
811.724	20625
811.865	20705
812.007	20724
812.148	20788
812.29	20853
812.431	20929
812.573	21074
812.714	21192
812.855	21332
812.997	21317
813.138	21447
813.279	21370
813.421	21287
813.562	21176
813.703	21165
813.845	20895
813.986	20617
814.127	20404
814.268	20427
814.41	20336
814.551	20248
814.692	20332
814.833	20206
814.974	20400
815.115	20214
815.256	20107
815.397	20176
815.539	20069
815.68	20058
815.821	20103
815.962	20046
816.103	19989
816.244	19883
816.385	19757
816.526	19738
816.666	19559
816.807	19384
816.948	19578
817.089	19571
817.23	19438
817.371	19384
817.512	19518
817.653	19457
817.793	19358
817.934	19419
818.075	19514
818.216	19419
818.356	19339
818.497	19190
818.638	19103
818.778	19148
818.919	19221
819.06	19228
819.2	19179
819.341	19247
819.481	19244
819.622	19415
819.762	19548
819.903	19571
820.043	19499
820.184	19422
820.324	19324
820.465	19403
820.605	19365
820.746	19213
820.886	19244
821.026	19320
821.167	19487
821.307	19422
821.447	19377
821.588	19282
821.728	19118
821.868	19069
822.008	18779
822.149	18882
822.289	18768
822.429	18574
822.569	18490
822.709	18578
822.849	18273
822.99	18270
823.13	18220
823.27	18262
823.41	18235
823.55	18049
823.69	18003
823.83	18087
823.97	17969
824.11	17923
824.25	17870
824.389	18019
824.529	17866
824.669	17874
824.809	18015
824.949	17935
825.089	17954
825.228	17912
825.368	17668
825.508	17592
825.648	17649
825.787	17745
825.927	17786
826.067	17691
826.206	17520
826.346	17714
826.485	17695
826.625	17672
826.765	17794
826.904	17809
827.044	17474
827.183	17436
827.323	17311
827.462	17368
827.601	17391
827.741	17261
827.88	17433
828.02	17197
828.159	17315
828.298	17425
828.437	17448
828.577	17322
828.716	17383
828.855	17341
828.994	17064
829.134	17189
829.273	17159
829.412	17037
829.551	17060
829.69	17079
829.829	17136
829.968	17261
830.107	17174
830.246	17189
830.385	17052
830.524	17018
830.663	16984
830.802	16900
830.941	16733
831.08	16752
831.219	16767
831.357	16801
831.496	16946
831.635	16729
831.774	16607
831.913	16679
832.051	16519
832.19	16508
832.329	16607
832.467	16432
832.606	16428
832.744	16371
832.883	16367
833.022	16367
833.16	16367
833.299	16405
833.437	16470
833.576	16508
833.714	16432
833.852	16550
833.991	16535
834.129	16687
834.267	16531
834.406	16523
834.544	16596
834.682	16493
834.821	16478
834.959	16691
835.097	16493
835.235	16596
835.373	16523
835.511	16462
835.65	16440
835.788	16424
835.926	16223
836.064	16147
836.202	16158
836.34	16440
836.478	16504
836.615	16421
836.753	16360
836.891	16474
837.029	16497
837.167	16352
837.305	16341
837.443	16265
837.58	16105
837.718	16238
837.856	16192
837.993	16207
838.131	16291
838.269	16211
838.406	16166
838.544	16219
838.681	15953
838.819	15941
838.956	15785
839.094	15827
839.231	15899
839.369	16051
839.506	16154
839.643	16063
839.781	15850
839.918	15709
840.055	15892
840.193	15823
840.33	15808
840.467	15816
840.604	15926
840.742	16048
840.879	15690
841.016	15747
841.153	15690
841.29	15869
841.427	15812
841.564	15865
841.701	15846
841.838	15713
841.975	15637
842.112	15690
842.249	15610
842.385	15667
842.522	15823
842.659	15610
842.796	15599
842.933	15625
843.069	15580
843.206	15526
843.343	15625
843.479	15511
843.616	15500
843.752	15382
843.889	15382
844.025	15538
844.162	15329
844.298	15591
844.435	15435
844.571	15287
844.708	15466
844.844	15572
844.98	15572
845.117	15545
845.253	15435
845.389	15245
845.525	15355
845.661	15226
845.798	15142
845.934	15313
846.07	15169
846.206	15211
846.342	15321
846.478	15203
846.614	15085
846.75	14921
846.886	14880
847.022	15070
847.158	15074
847.294	15081
847.429	14956
847.565	14967
847.701	15195
847.837	14777
847.972	14724
848.108	14868
848.244	14678
848.379	14708
848.515	14541
848.65	14537
848.786	14648
848.921	14610
849.057	14659
849.192	14708
849.328	14663
849.463	14640
849.598	14522
849.734	14431
849.869	14476
850.004	14381
850.14	14419
850.275	14317
850.41	14267
850.545	14275
850.68	14248
850.815	14286
850.95	14355
851.085	14461
851.22	14393
851.355	14404
851.49	14256
851.625	14237
851.76	14362
851.895	14218
852.03	14138
852.165	14343
852.299	14320
852.434	14434
852.569	14336
852.703	14385
852.838	14408
852.973	14518
853.107	14488
853.242	14324
853.376	14229
853.511	14183
853.645	14149
853.78	14256
853.914	14176
854.048	14202
854.183	14183
854.317	14298
854.451	14278
854.585	14195
854.72	14187
854.854	14256
854.988	14145
855.122	14164
855.256	14050
855.39	14176
855.524	14286
855.658	14263
855.792	14199
855.926	14278
856.06	14256
856.194	14286
856.327	14172
856.461	14195
856.595	14161
856.729	14199
856.862	14286
856.996	14237
857.13	14252
857.263	14385
857.397	14267
857.53	14202
857.664	14317
857.797	14271
857.931	14305
858.064	14240
858.197	14286
858.331	14259
858.464	14145
858.597	14103
858.731	14263
858.864	14145
858.997	14172
859.13	14153
859.263	14301
859.396	14381
859.529	14172
859.662	14214
859.795	14183
859.928	14248
860.061	14355
860.194	14442
860.327	14301
860.46	14142
860.592	14385
860.725	14461
860.858	14309
860.99	14229
861.123	14149
861.256	14214
861.388	14161
861.521	14944
861.653	14176
861.786	14058
861.918	14138
862.05	14225
862.183	14161
862.315	14199
862.447	14252
862.58	14161
862.712	14012
862.844	14008
862.976	14138
863.108	14096
863.24	14457
863.372	13917
863.504	14069
863.636	14065
863.768	14065
863.9	14012
864.032	13959
864.164	14027
864.296	14031
864.428	14111
864.559	14123
864.691	14115
864.823	14092
864.954	14065
865.086	14050
865.217	14077
865.349	13932
865.48	13986
865.612	13993
865.743	14145
865.875	13970
866.006	13909
866.137	14107
866.269	13970
866.4	13978
866.531	14012
866.662	13986
866.793	13989
866.924	13898
867.055	13982
867.186	14062
867.317	13959
867.448	13947
867.579	13951
867.71	13906
867.841	13936
867.972	13974
868.103	14035
868.233	13970
868.364	14054
868.495	14149
868.625	14176
868.756	14343
868.886	14191
869.017	14149
869.147	14393
869.278	14412
869.408	14210
869.539	14229
869.669	14381
869.799	14248
869.929	14286
870.06	14389
870.19	14537
870.32	14484
870.45	14613
870.58	14693
870.71	14781
870.84	14838
870.97	14602
871.1	14663
871.23	14925
871.36	14868
871.489	14754
871.619	14857
871.749	14960
871.879	14857
872.008	14975
872.138	14861
872.267	14819
872.397	14754
872.526	14686
872.656	14575
872.785	14625
872.915	14868
873.044	14929
873.173	14861
873.303	15009
873.432	14895
873.561	15009
873.69	14857
873.819	14899
873.948	15047
874.077	14914
874.206	14868
874.335	14861
874.464	15058
874.593	15252
874.722	15150
874.851	15268
874.979	15321
875.108	15272
875.237	15241
875.365	15233
875.494	15241
875.623	15241
875.751	15066
875.88	15329
876.008	15393
876.136	15412
876.265	15679
876.393	15739
876.521	15713
876.65	15785
876.778	15549
876.906	15648
877.034	15618
877.162	15633
877.29	15633
877.418	15694
877.546	15694
877.674	15591
877.802	15618
877.93	15633
878.058	15568
878.185	15507
878.313	15614
878.441	15614
878.568	15515
878.696	15553
878.824	15660
878.951	15713
879.079	15812
879.206	15941
879.333	15766
879.461	15671
879.588	15857
879.715	15766
879.842	15915
879.97	15743
880.097	15530
880.224	15367
880.351	15530
880.478	15557
880.605	15443
880.732	15534
880.859	15724
880.986	15534
881.112	15500
881.239	15435
881.366	15298
881.493	15222
881.619	15116
881.746	15112
881.872	15150
881.999	15169
882.125	15020
882.252	15241
882.378	15199
882.505	15279
882.631	15112
882.757	14952
882.883	15032
883.01	14914
883.136	14891
883.262	14834
883.388	14823
883.514	14952
883.64	15032
883.766	15020
883.892	14743
884.018	14823
884.143	14948
884.269	15058
884.395	14686
884.52	14670
884.646	14655
884.772	14564
884.897	14617
885.023	14663
885.148	14739
885.274	14804
885.399	14781
885.524	14686
885.65	14636
885.775	14720
885.9	14689
886.025	14788
886.15	14800
886.275	14575
886.4	14533
886.525	14590
886.65	14564
886.775	14579
886.9	14876
887.025	14807
887.149	14602
887.274	14511
887.399	14431
887.523	14488
887.648	14480
887.773	14473
887.897	14617
888.021	14621
888.146	14465
888.27	14606
888.395	14644
888.519	14571
888.643	14568
888.767	14613
888.891	14469
889.015	14301
889.139	14366
889.263	14278
889.387	14511
889.511	14530
889.635	14454
889.759	14427
889.883	14225
890.006	14454
890.13	14465
890.254	14298
890.377	14355
890.501	14115
890.624	14058
890.748	14343
890.871	14183
890.995	14027
891.118	14039
891.241	14035
891.364	14005
891.488	14252
891.611	14065
891.734	13955
891.857	14096
891.98	14107
892.103	14191
892.226	14050
892.349	13963
892.471	13909
892.594	13974
892.717	14046
892.839	14043
892.962	14126
893.085	14164
893.207	13986
893.33	13940
893.452	13970
893.575	14183
893.697	13982
893.819	14103
893.941	14328
894.064	14168
894.186	14062
894.308	14062
894.43	14301
894.552	14263
894.674	14298
894.796	14035
894.918	14202
895.04	14119
895.161	14214
895.283	14233
895.405	14149
895.526	14119
895.648	14286
895.769	14081
895.891	14252
896.012	14191
896.134	14301
896.255	14256
896.376	14157
896.498	14244
896.619	14168
896.74	14267
896.861	14252
896.982	14564
897.103	14712
897.224	14579
897.345	14556
897.466	14366
897.587	14480
897.708	14621
897.828	14533
897.949	14522
898.07	14301
898.19	14473
898.311	14712
898.431	14587
898.552	14610
898.672	14594
898.792	14678
898.913	14625
899.033	14537
899.153	14408
899.273	14366
899.393	14438
899.513	14400
899.633	14400
899.753	14473
899.873	14461
899.993	14427
900.113	14480
900.232	14309
900.352	14396
900.472	14400
900.591	14358
900.711	14294
900.83	14362
900.95	14396
901.069	14396
901.189	14286
901.308	14005
901.427	14050
901.546	13989
901.665	13925
901.784	14008
901.904	13837
902.023	13807
902.141	13628
902.26	13590
902.379	13628
902.498	13491
902.617	13537
902.735	13559
902.854	13460
902.973	13540
903.091	13350
903.21	13320
903.328	13335
903.446	13278
903.565	13168
903.683	13164
903.801	13046
903.919	13046
904.038	13179
904.156	12954
904.274	12947
904.392	12943
904.51	12973
904.627	12909
904.745	12977
904.863	13019
904.981	12787
905.098	12711
905.216	12559
905.334	12821
905.451	12597
905.569	12673
905.686	12696
905.803	12707
905.921	12525
906.038	12578
906.155	12445
906.272	12334
906.389	12418
906.506	12182
906.623	12239
906.74	12136
906.857	12083
906.974	12155
907.091	12243
907.208	12319
907.324	12296
907.441	12072
907.557	12068
907.674	11954
907.79	11977
907.907	11965
908.023	12079
908.139	11992
908.256	11927
908.372	11901
908.488	11878
908.604	11798
908.72	11802
908.836	11733
908.952	11649
909.068	11691
909.184	11821
909.3	11668
909.415	11775
909.531	11699
909.647	11539
909.762	11516
909.878	11433
909.993	11524
910.108	11463
910.224	11459
910.339	11535
910.454	11391
910.57	11429
910.685	11258
910.8	11589
910.915	11459
911.03	11410
911.145	11212
911.259	11166
911.374	11181
911.489	11090
911.604	11079
911.718	10961
911.833	10862
911.947	10850
912.062	10820
912.176	10976
912.291	10934
912.405	10984
912.519	11185
912.633	11204
912.748	10972
912.862	11033
912.976	10786
913.09	10691
913.204	10831
913.318	10801
913.431	10961
913.545	10938
913.659	10949
913.772	10793
913.886	10653
914	10679
914.113	10744
914.226	10873
914.34	10839
914.453	10592
914.566	10782
914.68	10630
914.793	10698
914.906	10523
915.019	10432
915.132	10424
915.245	10542
915.358	10500
915.47	10459
915.583	10470
915.696	10516
915.809	10599
915.921	10607
916.034	10451
916.146	10436
916.259	10424
916.371	10512
916.483	10474
916.595	10459
916.708	10424
916.82	10348
916.932	10436
917.044	10352
917.156	10352
917.268	10284
917.38	10306
917.491	10246
917.603	10238
917.715	10398
917.826	10363
917.938	10253
918.049	10284
918.161	10352
918.272	10481
918.384	10447
918.495	10344
918.606	10215
918.717	10116
918.828	10169
918.939	10181
919.05	10074
919.161	10120
919.272	9953
919.383	10112
919.494	10105
919.604	10394
919.715	10207
919.826	10139
919.936	10135
920.047	10291
920.157	10242
920.267	10432
920.378	10230
920.488	10131
920.598	10341
920.708	10493
920.818	10382
920.928	10375
921.038	10504
921.148	10485
921.258	10166
921.368	10204
921.477	10044
921.587	10021
921.697	9903
921.806	10143
921.916	9941
922.025	9835
922.134	9762
922.244	9629
922.353	9759
922.462	9606
922.571	9584
922.68	9481
922.789	9424
922.898	9412
923.007	9370
923.116	9477
923.224	9473
923.333	9431
923.442	9321
923.55	9256
923.659	9351
923.767	9374
923.876	9306
923.984	9359
924.092	9226
924.201	9344
924.309	9310
924.417	9294
924.525	9199
924.633	9302
924.741	10051
924.849	9074
924.956	9256
925.064	9066
925.172	9001
925.279	9066
925.387	9138
925.494	9165
925.602	9230
925.709	9188
925.816	9108
925.924	9123
926.031	9207
926.138	9146
926.245	9119
926.352	9066
926.459	9131
926.566	9169
926.673	9081
926.779	8948
926.886	8967
926.993	8853
927.099	8845
927.206	8811
927.312	8769
927.419	8906
927.525	8785
927.631	8929
927.737	8754
927.843	8659
927.95	8689
928.056	8731
928.162	8708
928.267	8746
928.373	9378
928.479	8804
928.585	8651
928.69	8655
928.796	8777
928.901	8617
929.007	8518
929.112	8727
929.218	8667
929.323	8587
929.428	8590
929.533	8644
929.638	8484
929.743	8594
929.848	8571
929.953	8556
930.058	8423
930.163	8374
930.267	8339
930.372	8522
930.477	8374
930.581	8571
930.685	8427
930.79	8237
930.894	8275
930.998	8267
931.103	8438
931.207	8130
931.311	7982
931.415	7989
931.519	7772
931.623	7822
