Data from test_V78500241_1701.txt Node
Date: Fri Mar 25 14:45:33 CST 2022
User: usil
Spectrometer: V785-0024
Trigger mode: 0
Integration Time (sec): 4.000000E-1
Scans to average: 1
Nonlinearity correction enabled: false
Boxcar width: 0
Storing dark spectrum: false
XAxis mode: Wavelengths
Number of Pixels in Spectrum: 1024
>>>>>Begin Spectral Data<<<<<
801.071	22299
801.214	22055
801.356	21850
801.499	21762
801.641	21686
801.783	21629
801.926	21576
802.068	21469
802.211	21500
802.353	21393
802.496	21233
802.638	21112
802.78	21081
802.923	21047
803.065	20883
803.208	20952
803.35	20872
803.492	21226
803.635	21020
803.777	21043
803.919	21055
804.061	21367
804.204	20963
804.346	20956
804.488	20902
804.63	21005
804.773	20769
804.915	21009
805.057	21119
805.199	20830
805.341	20990
805.483	21024
805.626	20963
805.768	20876
805.91	20941
806.052	20823
806.194	20823
806.336	21135
806.478	20990
806.62	20838
806.762	21005
806.904	20998
807.046	21313
807.188	21249
807.33	21313
807.472	21268
807.614	21256
807.756	21169
807.898	20952
808.04	20921
808.182	20994
808.324	20994
808.465	21024
808.607	21241
808.749	21321
808.891	21473
809.033	21477
809.174	21374
809.316	21226
809.458	21317
809.6	21260
809.741	21359
809.883	21374
810.025	21447
810.166	21378
810.308	21515
810.45	21393
810.591	21325
810.733	21192
810.875	21192
811.016	20960
811.158	20880
811.299	21157
811.441	21226
811.582	21096
811.724	21195
811.865	20982
812.007	21009
812.148	21116
812.29	21112
812.431	21332
812.573	21310
812.714	21359
812.855	21694
812.997	21595
813.138	21808
813.279	21625
813.421	21614
813.562	21580
813.703	21336
813.845	21211
813.986	20929
814.127	20800
814.268	20621
814.41	20667
814.551	20621
814.692	20743
814.833	20560
814.974	20465
815.115	20640
815.256	20347
815.397	20484
815.539	20419
815.68	20275
815.821	20309
815.962	20362
816.103	20259
816.244	20309
816.385	20081
816.526	20054
816.666	19967
816.807	19830
816.948	19769
817.089	19883
817.23	19700
817.371	19715
817.512	19643
817.653	19723
817.793	19662
817.934	19715
818.075	19693
818.216	19788
818.356	19643
818.497	19533
818.638	19350
818.778	19453
818.919	19301
819.06	19434
819.2	19597
819.341	19548
819.481	19613
819.622	19708
819.762	19856
819.903	19875
820.043	19795
820.184	19685
820.324	19677
820.465	19807
820.605	19845
820.746	19628
820.886	19651
821.026	19807
821.167	19723
821.307	19719
821.447	19670
821.588	19468
821.728	19392
821.868	19225
822.008	19088
822.149	19164
822.289	19107
822.429	18856
822.569	18787
822.709	18772
822.849	18681
822.99	18661
823.13	18570
823.27	18551
823.41	18403
823.55	18342
823.69	18407
823.83	18429
823.97	18346
824.11	18213
824.25	18091
824.389	18140
824.529	18251
824.669	18270
824.809	18407
824.949	18258
825.089	18201
825.228	18232
825.368	18095
825.508	18038
825.648	18030
825.787	17908
825.927	18076
826.067	17927
826.206	17908
826.346	18011
826.485	18015
826.625	17897
826.765	18057
826.904	18060
827.044	17775
827.183	17634
827.323	17570
827.462	17703
827.601	17539
827.741	17623
827.88	17649
828.02	17649
828.159	17611
828.298	17714
828.437	17722
828.577	17554
828.716	17733
828.855	17672
828.994	17318
829.134	17429
829.273	17433
829.412	17277
829.551	17474
829.69	17436
829.829	17280
829.968	17566
830.107	17482
830.246	17326
830.385	17440
830.524	17292
830.663	17197
830.802	17170
830.941	16987
831.08	16968
831.219	17090
831.357	17117
831.496	17162
831.635	16957
831.774	16850
831.913	16911
832.051	16923
832.19	16744
832.329	16991
832.467	16710
832.606	16702
832.744	16725
832.883	16717
833.022	16702
833.16	16721
833.299	16820
833.437	16729
833.576	16645
833.714	16824
833.852	16774
833.991	16740
834.129	17006
834.267	16858
834.406	16752
834.544	16740
834.682	16744
834.821	16729
834.959	16927
835.097	16706
835.235	16938
835.373	16843
835.511	16729
835.65	16607
835.788	16592
835.926	16519
836.064	16561
836.202	16493
836.34	16660
836.478	16694
836.615	16660
836.753	16618
836.891	16717
837.029	16717
837.167	16725
837.305	16622
837.443	16527
837.58	16527
837.718	16626
837.856	16462
837.993	16440
838.131	16497
838.269	16531
838.406	16531
838.544	16363
838.681	16280
838.819	16181
838.956	16044
839.094	15975
839.231	16162
839.369	16211
839.506	16394
839.643	16360
839.781	16006
839.918	15972
840.055	16097
840.193	16097
840.33	16150
840.467	16025
840.604	16078
840.742	16363
840.879	15831
841.016	15941
841.153	15991
841.29	16173
841.427	16063
841.564	16097
841.701	16071
841.838	16044
841.975	15903
842.112	15953
842.249	15827
842.385	15888
842.522	16059
842.659	15857
842.796	15789
842.933	15869
843.069	15823
843.206	15838
843.343	15934
843.479	15888
843.616	15941
843.752	15819
843.889	15682
844.025	15827
844.162	15568
844.298	15774
844.435	15564
844.571	15564
844.708	15648
844.844	15789
844.98	15717
845.117	15774
845.253	15595
845.389	15462
845.525	15576
845.661	15629
845.798	15530
845.934	15500
846.07	15416
846.206	15549
846.342	15568
846.478	15428
846.614	15348
846.75	15226
846.886	15188
847.022	15169
847.158	15123
847.294	15192
847.429	15264
847.565	15131
847.701	15401
847.837	14887
847.972	14975
848.108	14994
848.244	15028
848.379	14830
848.515	14876
848.65	14838
848.786	14731
848.921	14769
849.057	14876
849.192	14899
849.328	14918
849.463	14811
849.598	14804
849.734	14651
849.869	14708
850.004	14644
850.14	14663
850.275	14579
850.41	14560
850.545	14568
850.68	14541
850.815	14541
850.95	14530
851.085	14807
851.22	14667
851.355	14545
851.49	14484
851.625	14484
851.76	14495
851.895	14396
852.03	14473
852.165	14526
852.299	14610
852.434	14659
852.569	14575
852.703	14556
852.838	14655
852.973	14674
853.107	14670
853.242	14568
853.376	14370
853.511	14286
853.645	14389
853.78	14583
853.914	14499
854.048	14442
854.183	14362
854.317	14473
854.451	14712
854.585	14499
854.72	14385
854.854	14526
854.988	14355
855.122	14454
855.256	14294
855.39	14454
855.524	14495
855.658	14495
855.792	14473
855.926	14533
856.06	14533
856.194	14606
856.327	14431
856.461	14385
856.595	14355
856.729	14347
856.862	14590
856.996	14446
857.13	14526
857.263	14526
857.397	14602
857.53	14526
857.664	14476
857.797	14415
857.931	14514
858.064	14465
858.197	14511
858.331	14419
858.464	14438
858.597	14320
858.731	14431
858.864	14442
858.997	14389
859.13	14454
859.263	14469
859.396	14476
859.529	14381
859.662	14454
859.795	14328
859.928	14480
860.061	14636
860.194	14629
860.327	14389
860.46	14438
860.592	14564
860.725	14640
860.858	14579
860.99	14473
861.123	14339
861.256	14370
861.388	14503
861.521	14937
861.653	14248
861.786	14252
861.918	14328
862.05	14450
862.183	14450
862.315	14412
862.447	14473
862.58	14366
862.712	14123
862.844	13997
862.976	14278
863.108	14202
863.24	14594
863.372	14149
863.504	14180
863.636	14221
863.768	14248
863.9	14248
864.032	14168
864.164	14157
864.296	14214
864.428	14267
864.559	14229
864.691	14252
864.823	14263
864.954	14229
865.086	14275
865.217	14263
865.349	14050
865.48	14191
865.612	14100
865.743	14328
865.875	14256
866.006	14237
866.137	14229
866.269	14294
866.4	14233
866.531	14161
866.662	14168
866.793	14092
866.924	14157
867.055	14176
867.186	14202
867.317	14123
867.448	14096
867.579	14138
867.71	14161
867.841	14161
867.972	14180
868.103	14157
868.233	14145
868.364	14164
868.495	14237
868.625	14442
868.756	14636
868.886	14294
869.017	14488
869.147	14590
869.278	14556
869.408	14484
869.539	14488
869.669	14476
869.799	14415
869.929	14526
870.06	14434
870.19	14739
870.32	14693
870.45	14815
870.58	14861
870.71	15024
870.84	14994
870.97	14830
871.1	14807
871.23	15009
871.36	15043
871.489	14910
871.619	14990
871.749	15047
871.879	15005
872.008	15192
872.138	15047
872.267	15039
872.397	14876
872.526	14845
872.656	14872
872.785	14925
872.915	15081
873.044	15241
873.173	15157
873.303	15024
873.432	15116
873.561	15237
873.69	15081
873.819	15051
873.948	15184
874.077	15138
874.206	15074
874.335	15116
874.464	15256
874.593	15435
874.722	15355
874.851	15439
874.979	15447
875.108	15435
875.237	15439
875.365	15298
875.494	15389
875.623	15405
875.751	15435
875.88	15393
876.008	15500
876.136	15606
876.265	15778
876.393	15808
876.521	15941
876.65	15857
876.778	15838
876.906	15701
877.034	15652
877.162	15835
877.29	15648
877.418	15857
877.546	15842
877.674	15816
877.802	15724
877.93	15892
878.058	15732
878.185	15770
878.313	15686
878.441	15835
878.568	15705
878.696	15720
878.824	15941
878.951	15873
879.079	15975
879.206	16105
879.333	15953
879.461	15953
879.588	15934
879.715	16040
879.842	16101
879.97	15884
880.097	15713
880.224	15595
880.351	15717
880.478	15698
880.605	15736
880.732	15641
880.859	15983
880.986	15717
881.112	15819
881.239	15496
881.366	15401
881.493	15439
881.619	15268
881.746	15268
881.872	15302
881.999	15359
882.125	15272
882.252	15405
882.378	15492
882.505	15466
882.631	15188
882.757	15089
882.883	15169
883.01	15119
883.136	15173
883.262	15009
883.388	15036
883.514	15146
883.64	15169
883.766	15047
883.892	14994
884.018	15017
884.143	15157
884.269	15150
884.395	14864
884.52	14864
884.646	14887
884.772	14777
884.897	14785
885.023	14830
885.148	14998
885.274	14925
885.399	14899
885.524	14819
885.65	14849
885.775	14944
885.9	14792
886.025	15070
886.15	14899
886.275	14891
886.4	14640
886.525	14727
886.65	14826
886.775	14807
886.9	14956
887.025	14937
887.149	14712
887.274	14708
887.399	14712
887.523	14682
887.648	14693
887.773	14568
887.897	14834
888.021	14705
888.146	14625
888.27	14705
888.395	14792
888.519	14758
888.643	14796
888.767	14788
888.891	14575
889.015	14503
889.139	14541
889.263	14492
889.387	14602
889.511	14720
889.635	14579
889.759	14473
889.883	14514
890.006	14606
890.13	14610
890.254	14499
890.377	14522
890.501	14271
890.624	14317
890.748	14396
890.871	14248
890.995	14111
891.118	14100
891.241	14199
891.364	14282
891.488	14290
891.611	14229
891.734	14206
891.857	14221
891.98	14259
892.103	14271
892.226	14218
892.349	14183
892.471	14183
892.594	14111
892.717	14248
892.839	14176
892.962	14149
893.085	14332
893.207	14237
893.33	14111
893.452	14153
893.575	14210
893.697	14119
893.819	14419
893.941	14427
894.064	14370
894.186	14229
894.308	14221
894.43	14317
894.552	14423
894.674	14492
894.796	14176
894.918	14290
895.04	14225
895.161	14347
895.283	14328
895.405	14313
895.526	14381
895.648	14256
895.769	14461
895.891	14541
896.012	14476
896.134	14522
896.255	14385
896.376	14343
896.498	14404
896.619	14370
896.74	14431
896.861	14412
896.982	14720
897.103	14887
897.224	14701
897.345	14587
897.466	14613
897.587	14659
897.708	14762
897.828	14785
897.949	14606
898.07	14499
898.19	14598
898.311	14727
898.431	14716
898.552	14754
898.672	14826
898.792	14895
898.913	14773
899.033	14705
899.153	14617
899.273	14507
899.393	14606
899.513	14610
899.633	14564
899.753	14610
899.873	14663
899.993	14636
900.113	14568
900.232	14590
900.352	14560
900.472	14594
900.591	14377
900.711	14564
900.83	14385
900.95	14446
901.069	14575
901.189	14400
901.308	14084
901.427	14092
901.546	14157
901.665	14126
901.784	14145
901.904	13906
902.023	13940
902.141	13746
902.26	13700
902.379	13769
902.498	13734
902.617	13776
902.735	13731
902.854	13708
902.973	13556
903.091	13480
903.21	13403
903.328	13525
903.446	13426
903.565	13274
903.683	13304
903.801	13137
903.919	13206
904.038	13228
904.156	13072
904.274	13149
904.392	13088
904.51	13076
904.627	13175
904.745	13114
904.863	13156
904.981	12943
905.098	12776
905.216	12848
905.334	12844
905.451	12787
905.569	12757
905.686	12768
905.803	12764
905.921	12620
906.038	12631
906.155	12582
906.272	12467
906.389	12509
906.506	12361
906.623	12452
906.74	12281
906.857	12311
906.974	12330
907.091	12410
907.208	12475
907.324	12410
907.441	12224
907.557	12152
907.674	12121
907.79	12083
907.907	12049
908.023	12091
908.139	12038
908.256	12015
908.372	12007
908.488	12053
908.604	11904
908.72	11832
908.836	11828
908.952	11813
909.068	11897
909.184	11882
909.3	11897
909.415	11977
909.531	11821
909.647	11672
909.762	11672
909.878	11627
909.993	11543
910.108	11604
910.224	11634
910.339	11653
910.454	11516
910.57	11539
910.685	11387
910.8	11646
910.915	11653
911.03	11463
911.145	11341
911.259	11356
911.374	11311
911.489	11273
911.604	11254
911.718	11105
911.833	11174
911.947	10904
912.062	10877
912.176	11018
912.291	11033
912.405	11060
912.519	11204
912.633	11239
912.748	11151
912.862	11098
912.976	10911
913.09	10847
913.204	10896
913.318	10961
913.431	11064
913.545	11056
913.659	11052
913.772	10987
913.886	10774
914	10812
914.113	10961
914.226	10915
914.34	10885
914.453	10698
914.566	10987
914.68	10763
914.793	10714
914.906	10634
915.019	10656
915.132	10497
915.245	10550
915.358	10565
915.47	10577
915.583	10573
915.696	10675
915.809	10710
915.921	10729
916.034	10561
916.146	10527
916.259	10584
916.371	10691
916.483	10592
916.595	10538
916.708	10500
916.82	10561
916.932	10512
917.044	10481
917.156	10542
917.268	10344
917.38	10409
917.491	10352
917.603	10459
917.715	10474
917.826	10588
917.938	10394
918.049	10348
918.161	10447
918.272	10546
918.384	10561
918.495	10459
918.606	10276
918.717	10280
918.828	10268
918.939	10238
919.05	10173
919.161	10158
919.272	10074
919.383	10192
919.494	10322
919.604	10546
919.715	10402
919.826	10227
919.936	10261
920.047	10436
920.157	10314
920.267	10497
920.378	10390
920.488	10325
920.598	10489
920.708	10786
920.818	10527
920.928	10519
921.038	10660
921.148	10630
921.258	10402
921.368	10291
921.477	10162
921.587	10139
921.697	10025
921.806	10162
921.916	10097
922.025	9819
922.134	9857
922.244	9838
922.353	9922
922.462	9717
922.571	9728
922.68	9538
922.789	9561
922.898	9519
923.007	9568
923.116	9587
923.224	9545
923.333	9595
923.442	9393
923.55	9401
923.659	9469
923.767	9534
923.876	9382
923.984	9557
924.092	9332
924.201	9408
924.309	9408
924.417	9382
924.525	9344
924.633	9348
924.741	10291
924.849	9146
924.956	9348
925.064	9222
925.172	9077
925.279	9165
925.387	9203
925.494	9245
925.602	9325
925.709	9321
925.816	9112
925.924	9245
926.031	9325
926.138	9340
926.245	9275
926.352	9165
926.459	9332
926.566	9317
926.673	9146
926.779	9036
926.886	9032
926.993	8975
927.099	8944
927.206	8880
927.312	8861
927.419	8952
927.525	8971
927.631	8914
927.737	8864
927.843	8788
927.95	8651
928.056	8815
928.162	8804
928.267	8849
928.373	9424
928.479	8914
928.585	8613
928.69	8849
928.796	8815
928.901	8731
929.007	8549
929.112	8754
929.218	8807
929.323	8621
929.428	8594
929.533	8819
929.638	8518
929.743	8575
929.848	8640
929.953	8541
930.058	8629
930.163	8362
930.267	8313
930.372	8583
930.477	8366
930.581	8659
930.685	8427
930.79	8374
930.894	8301
930.998	8332
931.103	8454
931.207	8100
931.311	8016
931.415	8062
931.519	7799
931.623	7811
