Data from test_V78500241_3269.txt Node
Date: Fri Mar 25 14:56:28 CST 2022
User: usil
Spectrometer: V785-0024
Trigger mode: 0
Integration Time (sec): 4.000000E-1
Scans to average: 1
Nonlinearity correction enabled: false
Boxcar width: 0
Storing dark spectrum: false
XAxis mode: Wavelengths
Number of Pixels in Spectrum: 1024
>>>>>Begin Spectral Data<<<<<
801.071	21960
801.214	21880
801.356	21500
801.499	21511
801.641	21454
801.783	21298
801.926	21367
802.068	21367
802.211	21199
802.353	21192
802.496	20887
802.638	20777
802.78	20788
802.923	20891
803.065	20632
803.208	20636
803.35	20708
803.492	20811
803.635	20838
803.777	20636
803.919	20777
804.061	21055
804.204	20697
804.346	20629
804.488	20556
804.63	20552
804.773	20617
804.915	20606
805.057	20686
805.199	20552
805.341	20651
805.483	20625
805.626	20655
805.768	20423
805.91	20480
806.052	20564
806.194	20545
806.336	20758
806.478	20514
806.62	20575
806.762	20549
806.904	20796
807.046	21013
807.188	20914
807.33	20872
807.472	20971
807.614	20845
807.756	20807
807.898	20705
808.04	20682
808.182	20727
808.324	20617
808.465	20758
808.607	20800
808.749	20899
808.891	21085
809.033	21119
809.174	20948
809.316	20906
809.458	20941
809.6	20823
809.741	21028
809.883	21009
810.025	21043
810.166	21119
810.308	21104
810.45	21112
810.591	20887
810.733	20910
810.875	20849
811.016	20727
811.158	20530
811.299	20705
811.441	20834
811.582	20944
811.724	20731
811.865	20701
812.007	20598
812.148	20663
812.29	20731
812.431	20986
812.573	20971
812.714	21070
812.855	21127
812.997	21264
813.138	21355
813.279	21344
813.421	21214
813.562	21192
813.703	20990
813.845	20861
813.986	20552
814.127	20408
814.268	20248
814.41	20282
814.551	20206
814.692	20362
814.833	20195
814.974	20153
815.115	20172
815.256	20043
815.397	20073
815.539	19982
815.68	19970
815.821	20012
815.962	19955
816.103	20065
816.244	19700
816.385	19670
816.526	19727
816.666	19559
816.807	19358
816.948	19499
817.089	19464
817.23	19384
817.371	19289
817.512	19362
817.653	19301
817.793	19343
817.934	19343
818.075	19491
818.216	19403
818.356	19426
818.497	19194
818.638	18977
818.778	19183
818.919	19103
819.06	19061
819.2	19202
819.341	19156
819.481	19148
819.622	19354
819.762	19639
819.903	19548
820.043	19373
820.184	19441
820.324	19396
820.465	19441
820.605	19358
820.746	19327
820.886	19190
821.026	19251
821.167	19320
821.307	19358
821.447	19301
821.588	19320
821.728	19091
821.868	18871
822.008	18787
822.149	18738
822.289	18734
822.429	18506
822.569	18551
822.709	18502
822.849	18277
822.99	18258
823.13	18171
823.27	18045
823.41	18041
823.55	17897
823.69	18049
823.83	18019
823.97	18026
824.11	17893
824.25	17794
824.389	17783
824.529	17904
824.669	17771
824.809	17889
824.949	17904
825.089	17840
825.228	17824
825.368	17691
825.508	17642
825.648	17604
825.787	17676
825.927	17619
826.067	17532
826.206	17535
826.346	17695
826.485	17604
826.625	17623
826.765	17707
826.904	17604
827.044	17459
827.183	17429
827.323	17280
827.462	17383
827.601	17204
827.741	17261
827.88	17269
828.02	17208
828.159	17273
828.298	17200
828.437	17334
828.577	17261
828.716	17478
828.855	17147
828.994	17166
829.134	16957
829.273	17075
829.412	17083
829.551	17025
829.69	17048
829.829	17041
829.968	17083
830.107	17083
830.246	17105
830.385	17048
830.524	17003
830.663	16911
830.802	16786
830.941	16740
831.08	16752
831.219	16763
831.357	16622
831.496	16900
831.635	16691
831.774	16615
831.913	16637
832.051	16432
832.19	16573
832.329	16466
832.467	16352
832.606	16382
832.744	16394
832.883	16306
833.022	16329
833.16	16497
833.299	16478
833.437	16390
833.576	16459
833.714	16386
833.852	16531
833.991	16504
834.129	16478
834.267	16516
834.406	16356
834.544	16402
834.682	16356
834.821	16402
834.959	16565
835.097	16371
835.235	16592
835.373	16470
835.511	16405
835.65	16371
835.788	16310
835.926	16147
836.064	16185
836.202	16253
836.34	16375
836.478	16421
836.615	16333
836.753	16375
836.891	16424
837.029	16386
837.167	16360
837.305	16344
837.443	16181
837.58	16154
837.718	16272
837.856	16173
837.993	16093
838.131	16093
838.269	16185
838.406	16120
838.544	16063
838.681	15960
838.819	15781
838.956	15804
839.094	15816
839.231	15774
839.369	15903
839.506	16234
839.643	16025
839.781	15747
839.918	15785
840.055	15762
840.193	15827
840.33	15728
840.467	15770
840.604	15816
840.742	15945
840.879	15698
841.016	15755
841.153	15663
841.29	15922
841.427	15823
841.564	15766
841.701	15739
841.838	15736
841.975	15656
842.112	15778
842.249	15568
842.385	15481
842.522	15686
842.659	15587
842.796	15610
842.933	15496
843.069	15488
843.206	15523
843.343	15637
843.479	15504
843.616	15523
843.752	15401
843.889	15416
844.025	15454
844.162	15294
844.298	15420
844.435	15336
844.571	15374
844.708	15355
844.844	15458
844.98	15587
845.117	15420
845.253	15245
845.389	15100
845.525	15275
845.661	15173
845.798	15116
845.934	15161
846.07	15131
846.206	15104
846.342	15272
846.478	15119
846.614	14929
846.75	14933
846.886	14883
847.022	15013
847.158	14963
847.294	14925
847.429	14918
847.565	14979
847.701	15104
847.837	14571
847.972	14568
848.108	14727
848.244	14697
848.379	14552
848.515	14545
848.65	14552
848.786	14450
848.921	14454
849.057	14511
849.192	14541
849.328	14499
849.463	14526
849.598	14431
849.734	14476
849.869	14370
850.004	14332
850.14	14377
850.275	14381
850.41	14263
850.545	14237
850.68	14187
850.815	14339
850.95	14286
851.085	14473
851.22	14438
851.355	14282
851.49	14317
851.625	14332
851.76	14214
851.895	14134
852.03	14210
852.165	14267
852.299	14355
852.434	14396
852.569	14301
852.703	14278
852.838	14434
852.973	14374
853.107	14427
853.242	14317
853.376	14218
853.511	13986
853.645	14153
853.78	14210
853.914	14134
854.048	14092
854.183	14123
854.317	14161
854.451	14237
854.585	14134
854.72	14149
854.854	14202
854.988	14027
855.122	14096
855.256	14020
855.39	14183
855.524	14191
855.658	14278
855.792	14126
855.926	14073
856.06	14278
856.194	14271
856.327	14077
856.461	14142
856.595	14073
856.729	14233
856.862	14172
856.996	14142
857.13	14157
857.263	14229
857.397	14248
857.53	14054
857.664	14206
857.797	14229
857.931	14229
858.064	14225
858.197	14237
858.331	14081
858.464	14115
858.597	13982
858.731	14111
858.864	14115
858.997	14149
859.13	14092
859.263	14168
859.396	14221
859.529	14107
859.662	14111
859.795	14100
859.928	14164
860.061	14267
860.194	14309
860.327	14191
860.46	14138
860.592	14218
860.725	14286
860.858	14313
860.99	14123
861.123	14077
861.256	14035
861.388	14195
861.521	14800
861.653	14054
861.786	13986
861.918	14005
862.05	14035
862.183	14119
862.315	14142
862.447	14138
862.58	14027
862.712	13978
862.844	13890
862.976	13928
863.108	14058
863.24	14187
863.372	13871
863.504	14001
863.636	13947
863.768	13849
863.9	13974
864.032	13947
864.164	13951
864.296	13997
864.428	14050
864.559	13944
864.691	14043
864.823	13974
864.954	13967
865.086	14043
865.217	13925
865.349	13921
865.48	13814
865.612	13955
865.743	14084
865.875	13906
866.006	13818
866.137	13982
866.269	13921
866.4	13917
866.531	13879
866.662	13837
866.793	13868
866.924	13879
867.055	14012
867.186	13955
867.317	13951
867.448	13852
867.579	13860
867.71	13845
867.841	13780
867.972	13917
868.103	13879
868.233	13928
868.364	13849
868.495	14016
868.625	14073
868.756	14305
868.886	14073
869.017	14138
869.147	14282
869.278	14271
869.408	14248
869.539	14180
869.669	14244
869.799	14119
869.929	14183
870.06	14294
870.19	14396
870.32	14457
870.45	14533
870.58	14575
870.71	14667
870.84	14644
870.97	14689
871.1	14552
871.23	14800
871.36	14815
871.489	14670
871.619	14746
871.749	14777
871.879	14735
872.008	14918
872.138	14765
872.267	14769
872.397	14674
872.526	14522
872.656	14606
872.785	14689
872.915	14906
873.044	14910
873.173	14777
873.303	14868
873.432	14918
873.561	14883
873.69	14807
873.819	14758
873.948	14918
874.077	14815
874.206	14762
874.335	14830
874.464	14899
874.593	15066
874.722	14994
874.851	15154
874.979	15245
875.108	15173
875.237	15093
875.365	15104
875.494	15032
875.623	15203
875.751	15028
875.88	15142
876.008	15348
876.136	15245
876.265	15549
876.393	15713
876.521	15675
876.65	15709
876.778	15587
876.906	15466
877.034	15477
877.162	15572
877.29	15431
877.418	15534
877.546	15603
877.674	15553
877.802	15595
877.93	15580
878.058	15504
878.185	15408
878.313	15469
878.441	15606
878.568	15405
878.696	15515
878.824	15663
878.951	15663
879.079	15797
879.206	15797
879.333	15724
879.461	15549
879.588	15675
879.715	15770
879.842	15812
879.97	15633
880.097	15424
880.224	15359
880.351	15507
880.478	15431
880.605	15374
880.732	15416
880.859	15743
880.986	15370
881.112	15439
881.239	15252
881.366	15161
881.493	14971
881.619	15055
881.746	15051
881.872	15070
881.999	15051
882.125	14990
882.252	15127
882.378	15138
882.505	15195
882.631	15085
882.757	14876
882.883	14948
883.01	14941
883.136	14807
883.262	14807
883.388	14670
883.514	14921
883.64	14933
883.766	14834
883.892	14594
884.018	14739
884.143	14906
884.269	14975
884.395	14705
884.52	14594
884.646	14560
884.772	14484
884.897	14499
885.023	14632
885.148	14648
885.274	14712
885.399	14712
885.524	14632
885.65	14556
885.775	14613
885.9	14537
886.025	14762
886.15	14655
886.275	14629
886.4	14541
886.525	14488
886.65	14545
886.775	14507
886.9	14697
887.025	14796
887.149	14613
887.274	14423
887.399	14404
887.523	14256
887.648	14343
887.773	14415
887.897	14454
888.021	14461
888.146	14419
888.27	14473
888.395	14514
888.519	14381
888.643	14423
888.767	14423
888.891	14347
889.015	14305
889.139	14400
889.263	14278
889.387	14298
889.511	14499
889.635	14412
889.759	14278
889.883	14199
890.006	14427
890.13	14476
890.254	14218
890.377	14271
890.501	14103
890.624	14130
890.748	14100
890.871	14077
890.995	13894
891.118	13826
891.241	14001
891.364	14001
891.488	14123
891.611	14016
891.734	14012
891.857	14054
891.98	14058
892.103	14081
892.226	14062
892.349	14012
892.471	13780
892.594	13925
892.717	13993
892.839	13974
892.962	13967
893.085	14107
893.207	13997
893.33	13864
893.452	13894
893.575	14084
893.697	14016
893.819	14164
893.941	14195
894.064	14199
894.186	14016
894.308	14065
894.43	14164
894.552	14248
894.674	14096
894.796	13967
894.918	14024
895.04	14035
895.161	14168
895.283	14153
895.405	14119
895.526	14050
895.648	14168
895.769	14123
895.891	14153
896.012	14252
896.134	14084
896.255	14126
896.376	14130
896.498	14180
896.619	14172
896.74	14138
896.861	14240
896.982	14480
897.103	14644
897.224	14362
897.345	14476
897.466	14370
897.587	14434
897.708	14545
897.828	14488
897.949	14381
898.07	14347
898.19	14351
898.311	14575
898.431	14526
898.552	14564
898.672	14708
898.792	14587
898.913	14522
899.033	14355
899.153	14313
899.273	14256
899.393	14396
899.513	14370
899.633	14355
899.753	14469
899.873	14370
899.993	14419
900.113	14366
900.232	14469
900.352	14259
900.472	14286
900.591	14221
900.711	14294
900.83	14130
900.95	14271
901.069	14362
901.189	14225
901.308	13932
901.427	13807
901.546	13967
901.665	13845
901.784	13936
901.904	13837
902.023	13662
902.141	13483
902.26	13556
902.379	13426
902.498	13460
902.617	13369
902.735	13491
902.854	13529
902.973	13403
903.091	13278
903.21	13240
903.328	13240
903.446	13152
903.565	12977
903.683	13050
903.801	12951
903.919	13019
904.038	12977
904.156	12817
904.274	12897
904.392	12913
904.51	12875
904.627	12932
904.745	12932
904.863	12890
904.981	12719
905.098	12555
905.216	12574
905.334	12555
905.451	12593
905.569	12479
905.686	12585
905.803	12700
905.921	12365
906.038	12525
906.155	12372
906.272	12289
906.389	12254
906.506	12102
906.623	12152
906.74	12155
906.857	12053
906.974	11984
907.091	12205
907.208	12273
907.324	12114
907.441	12079
907.557	11870
907.674	11939
907.79	11878
907.907	11889
908.023	11946
908.139	11977
908.256	11859
908.372	11866
908.488	11802
908.604	11771
908.72	11642
908.836	11653
908.952	11642
909.068	11676
909.184	11722
909.3	11668
909.415	11794
909.531	11718
909.647	11516
909.762	11440
909.878	11429
909.993	11395
910.108	11334
910.224	11398
910.339	11402
910.454	11345
910.57	11201
910.685	11220
910.8	11493
910.915	11368
911.03	11250
911.145	11178
911.259	11071
911.374	11113
911.489	11094
911.604	11060
911.718	10930
911.833	10877
911.947	10812
912.062	10653
912.176	10866
912.291	10866
912.405	10858
912.519	11064
912.633	11121
912.748	10911
912.862	10919
912.976	10755
913.09	10634
913.204	10706
913.318	10725
913.431	10854
913.545	10831
913.659	10896
913.772	10771
913.886	10634
914	10592
914.113	10714
914.226	10755
914.34	10675
914.453	10622
914.566	10752
914.68	10641
914.793	10542
914.906	10542
915.019	10318
915.132	10284
915.245	10417
915.358	10485
915.47	10341
915.583	10436
915.696	10318
915.809	10508
915.921	10550
916.034	10382
916.146	10379
916.259	10398
916.371	10417
916.483	10485
916.595	10272
916.708	10348
916.82	10344
916.932	10314
917.044	10291
917.156	10268
917.268	10261
917.38	10215
917.491	10173
917.603	10299
917.715	10333
917.826	10329
917.938	10215
918.049	10112
918.161	10185
918.272	10375
918.384	10363
918.495	10246
918.606	10185
918.717	10063
918.828	10067
918.939	10139
919.05	10032
919.161	10097
919.272	9816
919.383	9991
919.494	10181
919.604	10325
919.715	10124
919.826	10074
919.936	10185
920.047	10188
920.157	10120
920.267	10344
920.378	10158
920.488	10177
920.598	10409
920.708	10489
920.818	10398
920.928	10341
921.038	10558
921.148	10508
921.258	10185
921.368	10131
921.477	10067
921.587	9960
921.697	9846
921.806	9983
921.916	9918
922.025	9895
922.134	9755
922.244	9648
922.353	9709
922.462	9633
922.571	9545
922.68	9496
922.789	9348
922.898	9420
923.007	9378
923.116	9447
923.224	9466
923.333	9431
923.442	9306
923.55	9329
923.659	9317
923.767	9359
923.876	9298
923.984	9332
924.092	9264
924.201	9325
924.309	9325
924.417	9313
924.525	9279
924.633	9222
924.741	10185
924.849	8994
924.956	9253
925.064	9051
925.172	9058
925.279	9036
925.387	9093
925.494	9100
925.602	9268
925.709	9176
925.816	9051
925.924	9142
926.031	9127
926.138	9154
926.245	9161
926.352	9047
926.459	9138
926.566	9203
926.673	9032
926.779	8914
926.886	8944
926.993	8910
927.099	8686
927.206	8785
927.312	8758
927.419	8929
927.525	8857
927.631	8918
927.737	8746
927.843	8720
927.95	8568
928.056	8705
928.162	8667
928.267	8705
928.373	9283
928.479	8804
928.585	8571
928.69	8682
928.796	8705
928.901	8667
929.007	8507
929.112	8670
929.218	8594
929.323	8568
929.428	8560
929.533	8636
929.638	8492
929.743	8495
929.848	8571
929.953	8530
930.058	8469
930.163	8305
930.267	8290
930.372	8385
930.477	8267
930.581	8488
930.685	8408
930.79	8313
930.894	8256
930.998	8233
931.103	8396
931.207	8031
931.311	7856
931.415	7936
931.519	7753
931.623	7765
