Data from test_V78500241_2571.txt Node
Date: Fri Mar 25 14:51:36 CST 2022
User: usil
Spectrometer: V785-0024
Trigger mode: 0
Integration Time (sec): 4.000000E-1
Scans to average: 1
Nonlinearity correction enabled: false
Boxcar width: 0
Storing dark spectrum: false
XAxis mode: Wavelengths
Number of Pixels in Spectrum: 1024
>>>>>Begin Spectral Data<<<<<
801.071	22017
801.214	21850
801.356	21739
801.499	21534
801.641	21458
801.783	21481
801.926	21485
802.068	21325
802.211	21279
802.353	21169
802.496	20887
802.638	20937
802.78	20971
802.923	20781
803.065	20693
803.208	20686
803.35	20731
803.492	20811
803.635	20834
803.777	20689
803.919	20823
804.061	21116
804.204	20678
804.346	20746
804.488	20663
804.63	20743
804.773	20712
804.915	20613
805.057	20644
805.199	20663
805.341	20754
805.483	20785
805.626	20720
805.768	20663
805.91	20541
806.052	20705
806.194	20648
806.336	20712
806.478	20765
806.62	20693
806.762	20807
806.904	20899
807.046	21001
807.188	21017
807.33	20914
807.472	20963
807.614	20800
807.756	20849
807.898	20845
808.04	20682
808.182	20727
808.324	20792
808.465	20796
808.607	20842
808.749	21123
808.891	21150
809.033	21264
809.174	21028
809.316	21013
809.458	21085
809.6	20910
809.741	21043
809.883	21043
810.025	21100
810.166	21119
810.308	21199
810.45	21199
810.591	21047
810.733	20937
810.875	20876
811.016	20701
811.158	20693
811.299	20910
811.441	20872
811.582	20853
811.724	20727
811.865	20689
812.007	20777
812.148	20762
812.29	20663
812.431	20937
812.573	21077
812.714	21218
812.855	21291
812.997	21332
813.138	21412
813.279	21405
813.421	21222
813.562	21207
813.703	21043
813.845	21036
813.986	20587
814.127	20396
814.268	20427
814.41	20389
814.551	20423
814.692	20385
814.833	20267
814.974	20290
815.115	20309
815.256	20138
815.397	20039
815.539	20202
815.68	20039
815.821	20031
815.962	20073
816.103	20077
816.244	19849
816.385	19845
816.526	19757
816.666	19700
816.807	19464
816.948	19434
817.089	19590
817.23	19544
817.371	19460
817.512	19430
817.653	19510
817.793	19369
817.934	19453
818.075	19518
818.216	19476
818.356	19400
818.497	19266
818.638	19240
818.778	19088
818.919	19122
819.06	19126
819.2	19327
819.341	19304
819.481	19354
819.622	19525
819.762	19575
819.903	19616
820.043	19506
820.184	19430
820.324	19457
820.465	19476
820.605	19441
820.746	19324
820.886	19175
821.026	19354
821.167	19411
821.307	19445
821.447	19339
821.588	19183
821.728	19141
821.868	18905
822.008	18871
822.149	18840
822.289	18856
822.429	18547
822.569	18509
822.709	18654
822.849	18292
822.99	18353
823.13	18330
823.27	18209
823.41	18266
823.55	18038
823.69	18186
823.83	18171
823.97	18121
824.11	17893
824.25	17901
824.389	17923
824.529	17946
824.669	17916
824.809	18041
824.949	18034
825.089	17950
825.228	17874
825.368	17828
825.508	17661
825.648	17714
825.787	17813
825.927	17855
826.067	17653
826.206	17608
826.346	17756
826.485	17805
826.625	17684
826.765	17828
826.904	17748
827.044	17570
827.183	17570
827.323	17463
827.462	17505
827.601	17493
827.741	17474
827.88	17417
828.02	17364
828.159	17330
828.298	17455
828.437	17509
828.577	17455
828.716	17505
828.855	17398
828.994	17216
829.134	17261
829.273	17208
829.412	17105
829.551	17208
829.69	17121
829.829	17318
829.968	17349
830.107	17231
830.246	17212
830.385	17166
830.524	17083
830.663	16984
830.802	16946
830.941	16816
831.08	16733
831.219	16790
831.357	16839
831.496	17079
831.635	16828
831.774	16672
831.913	16702
832.051	16649
832.19	16584
832.329	16626
832.467	16493
832.606	16371
832.744	16531
832.883	16542
833.022	16424
833.16	16596
833.299	16542
833.437	16584
833.576	16519
833.714	16618
833.852	16615
833.991	16519
834.129	16565
834.267	16668
834.406	16561
834.544	16481
834.682	16573
834.821	16603
834.959	16713
835.097	16493
835.235	16664
835.373	16592
835.511	16561
835.65	16443
835.788	16569
835.926	16276
836.064	16379
836.202	16352
836.34	16508
836.478	16626
836.615	16424
836.753	16527
836.891	16679
837.029	16535
837.167	16447
837.305	16398
837.443	16287
837.58	16348
837.718	16466
837.856	16459
837.993	16287
838.131	16287
838.269	16287
838.406	16268
838.544	16135
838.681	16071
838.819	16112
838.956	15903
839.094	15975
839.231	15953
839.369	15983
839.506	16280
839.643	16120
839.781	15926
839.918	15918
840.055	15888
840.193	15850
840.33	15903
840.467	15781
840.604	15819
840.742	16082
840.879	15690
841.016	15793
841.153	15751
841.29	15972
841.427	15956
841.564	16029
841.701	15873
841.838	15694
841.975	15812
842.112	15835
842.249	15671
842.385	15682
842.522	15819
842.659	15781
842.796	15720
842.933	15652
843.069	15736
843.206	15618
843.343	15705
843.479	15641
843.616	15713
843.752	15511
843.889	15534
844.025	15553
844.162	15485
844.298	15469
844.435	15492
844.571	15416
844.708	15443
844.844	15743
844.98	15705
845.117	15663
845.253	15439
845.389	15378
845.525	15462
845.661	15466
845.798	15188
845.934	15363
846.07	15150
846.206	15359
846.342	15302
846.478	15325
846.614	15028
846.75	14994
846.886	14960
847.022	15055
847.158	15074
847.294	15028
847.429	15028
847.565	14994
847.701	15256
847.837	14788
847.972	14804
848.108	14849
848.244	14838
848.379	14617
848.515	14655
848.65	14602
848.786	14617
848.921	14606
849.057	14758
849.192	14590
849.328	14693
849.463	14674
849.598	14587
849.734	14503
849.869	14484
850.004	14336
850.14	14427
850.275	14423
850.41	14381
850.545	14347
850.68	14351
850.815	14495
850.95	14366
851.085	14526
851.22	14530
851.355	14400
851.49	14347
851.625	14328
851.76	14362
851.895	14301
852.03	14275
852.165	14320
852.299	14408
852.434	14518
852.569	14442
852.703	14446
852.838	14450
852.973	14530
853.107	14552
853.242	14385
853.376	14202
853.511	14157
853.645	14305
853.78	14366
853.914	14282
854.048	14126
854.183	14259
854.317	14309
854.451	14533
854.585	14298
854.72	14214
854.854	14309
854.988	14191
855.122	14210
855.256	14050
855.39	14206
855.524	14263
855.658	14248
855.792	14214
855.926	14256
856.06	14339
856.194	14396
856.327	14290
856.461	14088
856.595	14263
856.729	14313
856.862	14393
856.996	14256
857.13	14301
857.263	14396
857.397	14381
857.53	14286
857.664	14317
857.797	14362
857.931	14396
858.064	14377
858.197	14396
858.331	14294
858.464	14199
858.597	14123
858.731	14164
858.864	14195
858.997	14301
859.13	14248
859.263	14347
859.396	14385
859.529	14225
859.662	14240
859.795	14191
859.928	14355
860.061	14419
860.194	14461
860.327	14252
860.46	14252
860.592	14343
860.725	14396
860.858	14400
860.99	14225
861.123	14153
861.256	14123
861.388	14301
861.521	15032
861.653	14199
861.786	14103
861.918	14088
862.05	14130
862.183	14218
862.315	14298
862.447	14294
862.58	14145
862.712	13982
862.844	13879
862.976	14103
863.108	14077
863.24	14522
863.372	13959
863.504	13997
863.636	14069
863.768	14046
863.9	14027
864.032	14012
864.164	14020
864.296	14024
864.428	14138
864.559	14145
864.691	14103
864.823	14054
864.954	14062
865.086	14111
865.217	14001
865.349	13940
865.48	13993
865.612	14035
865.743	14157
865.875	14046
866.006	14069
866.137	14012
866.269	14058
866.4	13947
866.531	13970
866.662	13955
866.793	14043
866.924	13986
867.055	14084
867.186	14020
867.317	13982
867.448	13982
867.579	13982
867.71	13944
867.841	13868
867.972	14005
868.103	13951
868.233	13989
868.364	14027
868.495	14069
868.625	14271
868.756	14332
868.886	14256
869.017	14267
869.147	14404
869.278	14431
869.408	14240
869.539	14263
869.669	14396
869.799	14259
869.929	14282
870.06	14415
870.19	14594
870.32	14621
870.45	14625
870.58	14708
870.71	14743
870.84	14754
870.97	14731
871.1	14564
871.23	14883
871.36	14971
871.489	14743
871.619	14811
871.749	14918
871.879	14891
872.008	15001
872.138	14857
872.267	14819
872.397	14663
872.526	14727
872.656	14705
872.785	14712
872.915	14921
873.044	14994
873.173	14921
873.303	15001
873.432	14986
873.561	14941
873.69	14952
873.819	14975
873.948	14967
874.077	14861
874.206	14902
874.335	14944
874.464	15127
874.593	15207
874.722	15188
874.851	15214
874.979	15313
875.108	15310
875.237	15180
875.365	15116
875.494	15218
875.623	15374
875.751	15188
875.88	15310
876.008	15378
876.136	15485
876.265	15614
876.393	15739
876.521	15789
876.65	15667
876.778	15709
876.906	15591
877.034	15728
877.162	15644
877.29	15507
877.418	15641
877.546	15648
877.674	15694
877.802	15545
877.93	15679
878.058	15549
878.185	15625
878.313	15595
878.441	15743
878.568	15507
878.696	15500
878.824	15698
878.951	15728
879.079	15705
879.206	15918
879.333	15808
879.461	15667
879.588	15770
879.715	15850
879.842	15994
879.97	15690
880.097	15488
880.224	15424
880.351	15584
880.478	15572
880.605	15428
880.732	15473
880.859	15690
880.986	15614
881.112	15526
881.239	15367
881.366	15279
881.493	15241
881.619	15173
881.746	15104
881.872	15199
881.999	15112
882.125	15195
882.252	15173
882.378	15237
882.505	15268
882.631	15218
882.757	15070
882.883	15039
883.01	14960
883.136	14933
883.262	14815
883.388	14838
883.514	14979
883.64	14986
883.766	14929
883.892	14678
884.018	14788
884.143	14963
884.269	15112
884.395	14750
884.52	14701
884.646	14705
884.772	14689
884.897	14613
885.023	14686
885.148	14838
885.274	14796
885.399	14792
885.524	14762
885.65	14682
885.775	14773
885.9	14632
886.025	14830
886.15	14796
886.275	14689
886.4	14678
886.525	14644
886.65	14682
886.775	14610
886.9	14796
887.025	14864
887.149	14625
887.274	14610
887.399	14457
887.523	14431
887.648	14381
887.773	14339
887.897	14632
888.021	14575
888.146	14480
888.27	14564
888.395	14686
888.519	14583
888.643	14594
888.767	14522
888.891	14450
889.015	14374
889.139	14389
889.263	14332
889.387	14362
889.511	14583
889.635	14511
889.759	14434
889.883	14370
890.006	14446
890.13	14473
890.254	14248
890.377	14294
890.501	14206
890.624	14077
890.748	14248
890.871	14119
890.995	13993
891.118	14043
891.241	14100
891.364	14092
891.488	14206
891.611	14115
891.734	13982
891.857	14153
891.98	14115
892.103	14278
892.226	14119
892.349	14100
892.471	13974
892.594	13982
892.717	14081
892.839	14096
892.962	14054
893.085	14218
893.207	14062
893.33	14069
893.452	14039
893.575	14115
893.697	14027
893.819	14214
893.941	14351
894.064	14244
894.186	14012
894.308	14153
894.43	14263
894.552	14271
894.674	14229
894.796	13997
894.918	14084
895.04	14157
895.161	14229
895.283	14263
895.405	14130
895.526	14153
895.648	14157
895.769	14202
895.891	14218
896.012	14290
896.134	14267
896.255	14339
896.376	14225
896.498	14313
896.619	14294
896.74	14282
896.861	14381
896.982	14583
897.103	14689
897.224	14590
897.345	14442
897.466	14419
897.587	14495
897.708	14632
897.828	14537
897.949	14461
898.07	14389
898.19	14457
898.311	14632
898.431	14492
898.552	14560
898.672	14606
898.792	14651
898.913	14617
899.033	14541
899.153	14343
899.273	14374
899.393	14408
899.513	14518
899.633	14461
899.753	14545
899.873	14434
899.993	14476
900.113	14423
900.232	14507
900.352	14427
900.472	14301
900.591	14301
900.711	14396
900.83	14237
900.95	14336
901.069	14358
901.189	14168
901.308	14054
901.427	13898
901.546	14035
901.665	14020
901.784	13944
901.904	13887
902.023	13856
902.141	13571
902.26	13586
902.379	13597
902.498	13540
902.617	13381
902.735	13563
902.854	13521
902.973	13453
903.091	13312
903.21	13289
903.328	13282
903.446	13217
903.565	13152
903.683	13149
903.801	13027
903.919	13099
904.038	13080
904.156	12909
904.274	13114
904.392	12840
904.51	12901
904.627	12977
904.745	12966
904.863	13031
904.981	12760
905.098	12650
905.216	12612
905.334	12677
905.451	12642
905.569	12608
905.686	12692
905.803	12692
905.921	12414
906.038	12601
906.155	12475
906.272	12342
906.389	12418
906.506	12266
906.623	12251
906.74	12327
906.857	12167
906.974	12155
907.091	12327
907.208	12369
907.324	12228
907.441	12152
907.557	12026
907.674	11946
907.79	11980
907.907	11912
908.023	11969
908.139	11973
908.256	11927
908.372	11965
908.488	11901
908.604	11794
908.72	11748
908.836	11821
908.952	11745
909.068	11802
909.184	11855
909.3	11836
909.415	11916
909.531	11760
909.647	11619
909.762	11520
909.878	11608
909.993	11535
910.108	11600
910.224	11532
910.339	11497
910.454	11490
910.57	11448
910.685	11368
910.8	11509
910.915	11566
911.03	11501
911.145	11227
911.259	11208
911.374	11296
911.489	11166
911.604	11178
911.718	10976
911.833	11014
911.947	10847
912.062	10831
912.176	10911
912.291	10999
912.405	10938
912.519	11113
912.633	11204
912.748	11151
912.862	10892
912.976	10946
913.09	10755
913.204	10774
913.318	10896
913.431	11006
913.545	10987
913.659	10961
913.772	10881
913.886	10786
914	10736
914.113	10911
914.226	10866
914.34	10831
914.453	10668
914.566	10839
914.68	10710
914.793	10668
914.906	10596
915.019	10523
915.132	10413
915.245	10558
915.358	10519
915.47	10512
915.583	10538
915.696	10546
915.809	10550
915.921	10668
916.034	10504
916.146	10481
916.259	10352
916.371	10523
916.483	10428
916.595	10447
916.708	10462
916.82	10390
916.932	10417
917.044	10421
917.156	10382
917.268	10242
917.38	10440
917.491	10299
917.603	10310
917.715	10394
917.826	10409
917.938	10329
918.049	10234
918.161	10367
918.272	10432
918.384	10424
918.495	10295
918.606	10242
918.717	10139
918.828	10219
918.939	10287
919.05	10116
919.161	10204
919.272	10006
919.383	10082
919.494	10246
919.604	10428
919.715	10177
919.826	10143
919.936	10242
920.047	10303
920.157	10261
920.267	10409
920.378	10242
920.488	10299
920.598	10462
920.708	10596
920.818	10402
920.928	10432
921.038	10580
921.148	10519
921.258	10200
921.368	10223
921.477	10040
921.587	10051
921.697	9956
921.806	10109
921.916	9937
922.025	9869
922.134	9797
922.244	9720
922.353	9793
922.462	9656
922.571	9580
922.68	9443
922.789	9492
922.898	9496
923.007	9397
923.116	9553
923.224	9515
923.333	9408
923.442	9348
923.55	9401
923.659	9332
923.767	9401
923.876	9329
923.984	9389
924.092	9264
924.201	9412
924.309	9336
924.417	9279
924.525	9279
924.633	9348
924.741	10093
924.849	9165
924.956	9287
925.064	9108
925.172	9066
925.279	9131
925.387	9188
925.494	9058
925.602	9195
925.709	9237
925.816	9028
925.924	9127
926.031	9241
926.138	9131
926.245	9207
926.352	9077
926.459	9150
926.566	9245
926.673	9173
926.779	9036
926.886	8979
926.993	8853
927.099	8876
927.206	8857
927.312	8876
927.419	8891
927.525	8849
927.631	8944
927.737	8697
927.843	8754
927.95	8663
928.056	8754
928.162	8766
928.267	8838
928.373	9405
928.479	8845
928.585	8568
928.69	8705
928.796	8785
928.901	8686
929.007	8549
929.112	8670
929.218	8663
929.323	8556
929.428	8560
929.533	8674
929.638	8511
929.743	8465
929.848	8549
929.953	8583
930.058	8480
930.163	8271
930.267	8313
930.372	8446
930.477	8332
930.581	8564
930.685	8465
930.79	8275
930.894	8336
930.998	8244
931.103	8442
931.207	8126
931.311	8035
931.415	7959
931.519	7788
931.623	7772
