Data from test_V78500241_3202.txt Node
Date: Fri Mar 25 14:56:00 CST 2022
User: usil
Spectrometer: V785-0024
Trigger mode: 0
Integration Time (sec): 4.000000E-1
Scans to average: 1
Nonlinearity correction enabled: false
Boxcar width: 0
Storing dark spectrum: false
XAxis mode: Wavelengths
Number of Pixels in Spectrum: 1024
>>>>>Begin Spectral Data<<<<<
801.071	22044
801.214	21690
801.356	21705
801.499	21599
801.641	21397
801.783	21294
801.926	21469
802.068	21370
802.211	21321
802.353	21199
802.496	20895
802.638	20785
802.78	20941
802.923	20750
803.065	20655
803.208	20621
803.35	20727
803.492	20769
803.635	20804
803.777	20762
803.919	20720
804.061	20982
804.204	20800
804.346	20708
804.488	20518
804.63	20727
804.773	20556
804.915	20598
805.057	20758
805.199	20659
805.341	20670
805.483	20670
805.626	20682
805.768	20469
805.91	20746
806.052	20743
806.194	20526
806.336	20838
806.478	20598
806.62	20655
806.762	20724
806.904	20758
807.046	21081
807.188	20876
807.33	20880
807.472	21032
807.614	20918
807.756	20823
807.898	20849
808.04	20522
808.182	20644
808.324	20617
808.465	20720
808.607	20838
808.749	20967
808.891	21096
809.033	21070
809.174	21058
809.316	20914
809.458	20914
809.6	20937
809.741	21020
809.883	20956
810.025	21176
810.166	21081
810.308	21055
810.45	20937
810.591	21058
810.733	20765
810.875	20857
811.016	20552
811.158	20636
811.299	20727
811.441	20849
811.582	20872
811.724	20739
811.865	20678
812.007	20693
812.148	20735
812.29	20872
812.431	20796
812.573	21032
812.714	21123
812.855	21222
812.997	21268
813.138	21405
813.279	21256
813.421	21291
813.562	21173
813.703	20994
813.845	20956
813.986	20629
814.127	20473
814.268	20336
814.41	20396
814.551	20248
814.692	20366
814.833	20301
814.974	20195
815.115	20301
815.256	20252
815.397	20039
815.539	20225
815.68	19982
815.821	19925
815.962	19974
816.103	19940
816.244	19944
816.385	19719
816.526	19693
816.666	19556
816.807	19468
816.948	19464
817.089	19597
817.23	19495
817.371	19483
817.512	19377
817.653	19426
817.793	19335
817.934	19491
818.075	19499
818.216	19312
818.356	19297
818.497	19221
818.638	19057
818.778	19072
818.919	19015
819.06	19038
819.2	19251
819.341	19255
819.481	19301
819.622	19400
819.762	19597
819.903	19518
820.043	19434
820.184	19308
820.324	19384
820.465	19407
820.605	19354
820.746	19350
820.886	19145
821.026	19358
821.167	19369
821.307	19384
821.447	19343
821.588	19183
821.728	18905
821.868	18905
822.008	18821
822.149	18821
822.289	18863
822.429	18620
822.569	18551
822.709	18475
822.849	18254
822.99	18251
823.13	18239
823.27	18296
823.41	18205
823.55	17961
823.69	18171
823.83	18144
823.97	17999
824.11	17847
824.25	17805
824.389	17798
824.529	17901
824.669	17714
824.809	17931
824.949	17939
825.089	17939
825.228	17897
825.368	17687
825.508	17703
825.648	17581
825.787	17627
825.927	17687
826.067	17528
826.206	17604
826.346	17661
826.485	17653
826.625	17653
826.765	17771
826.904	17642
827.044	17455
827.183	17353
827.323	17307
827.462	17379
827.601	17368
827.741	17330
827.88	17410
828.02	17200
828.159	17429
828.298	17406
828.437	17379
828.577	17277
828.716	17478
828.855	17143
828.994	17090
829.134	17033
829.273	17105
829.412	16953
829.551	17025
829.69	16995
829.829	17064
829.968	17254
830.107	17174
830.246	17151
830.385	17003
830.524	16980
830.663	16915
830.802	16869
830.941	16725
831.08	16698
831.219	16790
831.357	16687
831.496	16942
831.635	16679
831.774	16622
831.913	16523
832.051	16394
832.19	16462
832.329	16436
832.467	16424
832.606	16344
832.744	16428
832.883	16447
833.022	16329
833.16	16390
833.299	16421
833.437	16459
833.576	16371
833.714	16432
833.852	16443
833.991	16489
834.129	16573
834.267	16512
834.406	16424
834.544	16409
834.682	16451
834.821	16462
834.959	16630
835.097	16421
835.235	16478
835.373	16474
835.511	16455
835.65	16284
835.788	16489
835.926	16230
836.064	16226
836.202	16181
836.34	16322
836.478	16390
836.615	16360
836.753	16474
836.891	16405
837.029	16402
837.167	16291
837.305	16341
837.443	16280
837.58	16181
837.718	16268
837.856	16261
837.993	16173
838.131	16166
838.269	16188
838.406	16150
838.544	16124
838.681	15964
838.819	15915
838.956	15751
839.094	15759
839.231	15819
839.369	16029
839.506	16109
839.643	16074
839.781	15880
839.918	15709
840.055	15876
840.193	15770
840.33	15743
840.467	15728
840.604	15781
840.742	16006
840.879	15648
841.016	15675
841.153	15652
841.29	15953
841.427	15717
841.564	15728
841.701	15713
841.838	15793
841.975	15694
842.112	15686
842.249	15679
842.385	15606
842.522	15743
842.659	15656
842.796	15561
842.933	15507
843.069	15519
843.206	15500
843.343	15724
843.479	15584
843.616	15591
843.752	15348
843.889	15397
844.025	15450
844.162	15367
844.298	15439
844.435	15249
844.571	15218
844.708	15443
844.844	15454
844.98	15488
845.117	15416
845.253	15298
845.389	15256
845.525	15298
845.661	15207
845.798	15093
845.934	15135
846.07	15066
846.206	15135
846.342	15260
846.478	15150
846.614	14994
846.75	14746
846.886	14933
847.022	15001
847.158	14906
847.294	14910
847.429	15017
847.565	14975
847.701	15093
847.837	14701
847.972	14590
848.108	14746
848.244	14754
848.379	14629
848.515	14571
848.65	14469
848.786	14549
848.921	14541
849.057	14697
849.192	14651
849.328	14549
849.463	14594
849.598	14461
849.734	14507
849.869	14484
850.004	14282
850.14	14309
850.275	14229
850.41	14164
850.545	14259
850.68	14263
850.815	14210
850.95	14301
851.085	14484
851.22	14419
851.355	14320
851.49	14157
851.625	14199
851.76	14343
851.895	14168
852.03	14218
852.165	14275
852.299	14324
852.434	14332
852.569	14328
852.703	14233
852.838	14408
852.973	14507
853.107	14377
853.242	14286
853.376	14119
853.511	14058
853.645	14024
853.78	14252
853.914	14161
854.048	14084
854.183	14145
854.317	14176
854.451	14259
854.585	14180
854.72	14035
854.854	14202
854.988	13963
855.122	14183
855.256	13951
855.39	14111
855.524	14237
855.658	14298
855.792	14103
855.926	14206
856.06	14263
856.194	14237
856.327	14161
856.461	14024
856.595	14088
856.729	14134
856.862	14320
856.996	14180
857.13	14183
857.263	14324
857.397	14214
857.53	14111
857.664	14183
857.797	14263
857.931	14332
858.064	14240
858.197	14263
858.331	14115
858.464	14126
858.597	14035
858.731	14180
858.864	14138
858.997	14088
859.13	14199
859.263	14191
859.396	14237
859.529	14126
859.662	14126
859.795	14115
859.928	14237
860.061	14286
860.194	14343
860.327	14195
860.46	14187
860.592	14252
860.725	14191
860.858	14282
860.99	14134
861.123	14031
861.256	14039
861.388	14206
861.521	14876
861.653	14058
861.786	13982
861.918	13917
862.05	14005
862.183	14214
862.315	14126
862.447	14195
862.58	14054
862.712	13989
862.844	13940
862.976	13978
863.108	13970
863.24	14248
863.372	14001
863.504	13982
863.636	13921
863.768	13989
863.9	13993
864.032	13852
864.164	13879
864.296	13898
864.428	14062
864.559	14100
864.691	14073
864.823	13997
864.954	13906
865.086	14020
865.217	13974
865.349	13852
865.48	13940
865.612	14005
865.743	14096
865.875	13909
866.006	13852
866.137	13864
866.269	13868
866.4	13860
866.531	13871
866.662	13822
866.793	13833
866.924	13871
867.055	13902
867.186	13986
867.317	13982
867.448	13780
867.579	13868
867.71	13852
867.841	13845
867.972	13944
868.103	13849
868.233	13890
868.364	13879
868.495	14065
868.625	14164
868.756	14252
868.886	14134
869.017	14218
869.147	14320
869.278	14259
869.408	14164
869.539	14130
869.669	14256
869.799	14210
869.929	14305
870.06	14271
870.19	14556
870.32	14427
870.45	14522
870.58	14583
870.71	14693
870.84	14693
870.97	14598
871.1	14640
871.23	14800
871.36	14796
871.489	14712
871.619	14712
871.749	14765
871.879	14785
872.008	14785
872.138	14815
872.267	14811
872.397	14712
872.526	14507
872.656	14625
872.785	14602
872.915	14861
873.044	14838
873.173	14674
873.303	14830
873.432	14971
873.561	14895
873.69	14876
873.819	14857
873.948	14876
874.077	14819
874.206	14765
874.335	14914
874.464	14880
874.593	15142
874.722	15074
874.851	15154
874.979	15176
875.108	15176
875.237	15135
875.365	15013
875.494	15192
875.623	15256
875.751	15123
875.88	15245
876.008	15249
876.136	15310
876.265	15485
876.393	15717
876.521	15572
876.65	15679
876.778	15564
876.906	15538
877.034	15530
877.162	15564
877.29	15572
877.418	15595
877.546	15557
877.674	15534
877.802	15526
877.93	15557
878.058	15496
878.185	15450
878.313	15477
878.441	15561
878.568	15443
878.696	15466
878.824	15553
878.951	15732
879.079	15747
879.206	15930
879.333	15705
879.461	15663
879.588	15572
879.715	15812
879.842	15835
879.97	15625
880.097	15439
880.224	15443
880.351	15329
880.478	15454
880.605	15340
880.732	15317
880.859	15587
880.986	15317
881.112	15363
881.239	15367
881.366	15211
881.493	15135
881.619	15108
881.746	15024
881.872	15074
881.999	15043
882.125	15047
882.252	15097
882.378	15043
882.505	15222
882.631	14963
882.757	14986
882.883	14899
883.01	14902
883.136	14796
883.262	14746
883.388	14686
883.514	14967
883.64	14876
883.766	14811
883.892	14667
884.018	14746
884.143	14960
884.269	15024
884.395	14651
884.52	14659
884.646	14648
884.772	14568
884.897	14507
885.023	14556
885.148	14735
885.274	14781
885.399	14754
885.524	14583
885.65	14530
885.775	14499
885.9	14533
886.025	14663
886.15	14686
886.275	14564
886.4	14560
886.525	14560
886.65	14499
886.775	14484
886.9	14693
887.025	14826
887.149	14571
887.274	14522
887.399	14366
887.523	14419
887.648	14393
887.773	14408
887.897	14434
888.021	14484
888.146	14381
888.27	14499
888.395	14480
888.519	14480
888.643	14469
888.767	14461
888.891	14438
889.015	14202
889.139	14282
889.263	14343
889.387	14393
889.511	14431
889.635	14495
889.759	14298
889.883	14286
890.006	14259
890.13	14396
890.254	14252
890.377	14267
890.501	14054
890.624	14005
890.748	14142
890.871	14020
890.995	14031
891.118	13902
891.241	14012
891.364	14005
891.488	14054
891.611	13955
891.734	13940
891.857	14054
891.98	14069
892.103	14062
892.226	13989
892.349	13940
892.471	13772
892.594	13909
892.717	13936
892.839	13986
892.962	13978
893.085	14046
893.207	14008
893.33	13883
893.452	13898
893.575	14088
893.697	13909
893.819	14138
893.941	14168
894.064	14138
894.186	14008
894.308	13913
894.43	14096
894.552	14168
894.674	14145
894.796	13963
894.918	14054
895.04	14027
895.161	14142
895.283	14081
895.405	14012
895.526	14024
895.648	14043
895.769	14107
895.891	14218
896.012	14218
896.134	14225
896.255	14225
896.376	14172
896.498	14115
896.619	14229
896.74	14142
896.861	14256
896.982	14408
897.103	14617
897.224	14514
897.345	14374
897.466	14351
897.587	14389
897.708	14556
897.828	14492
897.949	14347
898.07	14294
898.19	14370
898.311	14503
898.431	14575
898.552	14480
898.672	14594
898.792	14606
898.913	14549
899.033	14423
899.153	14434
899.273	14202
899.393	14385
899.513	14408
899.633	14461
899.753	14454
899.873	14377
899.993	14343
900.113	14355
900.232	14404
900.352	14343
900.472	14263
900.591	14267
900.711	14282
900.83	14240
900.95	14317
901.069	14320
901.189	14157
901.308	14020
901.427	13879
901.546	13947
901.665	13913
901.784	13917
901.904	13799
902.023	13693
902.141	13582
902.26	13453
902.379	13563
902.498	13556
902.617	13472
902.735	13499
902.854	13483
902.973	13396
903.091	13213
903.21	13164
903.328	13202
903.446	13038
903.565	13046
903.683	12996
903.801	12985
903.919	12996
904.038	12989
904.156	12878
904.274	13008
904.392	12886
904.51	12890
904.627	12901
904.745	12875
904.863	12985
904.981	12696
905.098	12544
905.216	12623
905.334	12555
905.451	12627
905.569	12536
905.686	12578
905.803	12616
905.921	12437
906.038	12578
906.155	12319
906.272	12311
906.389	12334
906.506	12155
906.623	12182
906.74	12171
906.857	12125
906.974	12175
907.091	12159
907.208	12213
907.324	12171
907.441	12106
907.557	11893
907.674	11901
907.79	11813
907.907	11904
908.023	11893
908.139	11885
908.256	11824
908.372	11817
908.488	11843
908.604	11665
908.72	11680
908.836	11638
908.952	11661
909.068	11668
909.184	11767
909.3	11710
909.415	11707
909.531	11668
909.647	11398
909.762	11433
909.878	11402
909.993	11528
910.108	11463
910.224	11417
910.339	11402
910.454	11311
910.57	11307
910.685	11223
910.8	11440
910.915	11402
911.03	11326
911.145	11143
911.259	11121
911.374	11117
911.489	11041
911.604	10984
911.718	10889
911.833	10923
911.947	10835
912.062	10710
912.176	10892
912.291	10923
912.405	10957
912.519	11045
912.633	11102
912.748	10961
912.862	10885
912.976	10778
913.09	10675
913.204	10717
913.318	10812
913.431	10938
913.545	10904
913.659	10892
913.772	10820
913.886	10630
914	10546
914.113	10763
914.226	10759
914.34	10755
914.453	10641
914.566	10710
914.68	10607
914.793	10584
914.906	10432
915.019	10424
915.132	10322
915.245	10402
915.358	10386
915.47	10333
915.583	10462
915.696	10478
915.809	10607
915.921	10630
916.034	10382
916.146	10318
916.259	10272
916.371	10466
916.483	10440
916.595	10272
916.708	10287
916.82	10329
916.932	10234
917.044	10295
917.156	10333
917.268	10169
917.38	10238
917.491	10219
917.603	10242
917.715	10341
917.826	10379
917.938	10211
918.049	10162
918.161	10192
918.272	10379
918.384	10398
918.495	10207
918.606	10124
918.717	10006
918.828	10139
918.939	10162
919.05	10017
919.161	10150
919.272	9975
919.383	10032
919.494	10185
919.604	10352
919.715	10215
919.826	10055
919.936	10116
920.047	10169
920.157	10086
920.267	10379
920.378	10223
920.488	10131
920.598	10280
920.708	10481
920.818	10306
920.928	10344
921.038	10413
921.148	10462
921.258	10249
921.368	10120
921.477	9991
921.587	9998
921.697	9884
921.806	10036
921.916	9918
922.025	9675
922.134	9660
922.244	9603
922.353	9724
922.462	9595
922.571	9603
922.68	9397
922.789	9336
922.898	9355
923.007	9344
923.116	9408
923.224	9386
923.333	9462
923.442	9268
923.55	9268
923.659	9306
923.767	9306
923.876	9226
923.984	9405
924.092	9211
924.201	9260
924.309	9233
924.417	9268
924.525	9176
924.633	9291
924.741	10154
924.849	8998
924.956	9241
925.064	9055
925.172	8975
925.279	9017
925.387	9051
925.494	9066
925.602	9218
925.709	9131
925.816	9005
925.924	9005
926.031	9150
926.138	8982
926.245	9077
926.352	9020
926.459	9184
926.566	9192
926.673	8960
926.779	8944
926.886	8921
926.993	8849
927.099	8819
927.206	8758
927.312	8766
927.419	8781
927.525	8773
927.631	8769
927.737	8731
927.843	8663
927.95	8545
928.056	8636
928.162	8678
928.267	8746
928.373	9336
928.479	8746
928.585	8541
928.69	8663
928.796	8743
928.901	8587
929.007	8518
929.112	8613
929.218	8590
929.323	8518
929.428	8465
929.533	8613
929.638	8454
929.743	8461
929.848	8537
929.953	8503
930.058	8450
930.163	8313
930.267	8279
930.372	8377
930.477	8301
930.581	8408
930.685	8298
930.79	8267
930.894	8279
930.998	8164
931.103	8313
931.207	7982
931.311	8012
931.415	7868
931.519	7723
931.623	7685
