Data from test_V78500241_915.txt Node
Date: Fri Mar 25 14:40:05 CST 2022
User: usil
Spectrometer: V785-0024
Trigger mode: 0
Integration Time (sec): 4.000000E-1
Scans to average: 1
Nonlinearity correction enabled: false
Boxcar width: 0
Storing dark spectrum: false
XAxis mode: Wavelengths
Number of Pixels in Spectrum: 1024
>>>>>Begin Spectral Data<<<<<
801.071	24768
801.214	24684
801.356	24350
801.499	24365
801.641	24277
801.783	24186
801.926	24072
802.068	24197
802.211	24026
802.353	23882
802.496	23714
802.638	23661
802.78	23589
802.923	23642
803.065	23558
803.208	23528
803.35	23592
803.492	23752
803.635	23722
803.777	23524
803.919	23558
804.061	23699
804.204	23687
804.346	23444
804.488	23402
804.63	23448
804.773	23463
804.915	23520
805.057	23657
805.199	23505
805.341	23585
805.483	23630
805.626	23672
805.768	23581
805.91	23589
806.052	23573
806.194	23505
806.336	23764
806.478	23699
806.62	23714
806.762	23904
806.904	24057
807.046	24384
807.188	24342
807.33	24353
807.472	24559
807.614	24498
807.756	24749
807.898	24871
808.04	25004
808.182	25354
808.324	25674
808.465	26320
808.607	26994
808.749	27542
808.891	27945
809.033	27964
809.174	27511
809.316	26971
809.458	26533
809.6	25811
809.741	25556
809.883	25008
810.025	24962
810.166	24897
810.308	24738
810.45	24719
810.591	24528
810.733	24235
810.875	24060
811.016	24053
811.158	23935
811.299	24041
811.441	24083
811.582	23977
811.724	23855
811.865	23745
812.007	23828
812.148	23832
812.29	23828
812.431	23958
812.573	24174
812.714	24232
812.855	24369
812.997	24410
813.138	24559
813.279	24403
813.421	24258
813.562	24129
813.703	24171
813.845	23961
813.986	23638
814.127	23410
814.268	23406
814.41	23239
814.551	23353
814.692	23212
814.833	23315
814.974	23349
815.115	23193
815.256	23162
815.397	23174
815.539	23140
815.68	23109
815.821	22995
815.962	22965
816.103	22824
816.244	22885
816.385	22748
816.526	22698
816.666	22516
816.807	22325
816.948	22592
817.089	22405
817.23	22447
817.371	22318
817.512	22421
817.653	22451
817.793	22329
817.934	22459
818.075	22287
818.216	22318
818.356	22405
818.497	22177
818.638	21903
818.778	22029
818.919	21991
819.06	22101
819.2	22188
819.341	22173
819.481	22207
819.622	22371
819.762	22592
819.903	22356
820.043	22432
820.184	22337
820.324	22173
820.465	22348
820.605	22268
820.746	22226
820.886	22105
821.026	22284
821.167	22306
821.307	22284
821.447	22280
821.588	22055
821.728	21953
821.868	21599
822.008	21701
822.149	21660
822.289	21542
822.429	21439
822.569	21348
822.709	21279
822.849	21135
822.99	21161
823.13	21017
823.27	20990
823.41	20960
823.55	20864
823.69	20891
823.83	20864
823.97	20735
824.11	20705
824.25	20727
824.389	20602
824.529	20621
824.669	20583
824.809	20750
824.949	20693
825.089	20716
825.228	20598
825.368	20549
825.508	20602
825.648	20408
825.787	20415
825.927	20526
826.067	20484
826.206	20541
826.346	20476
826.485	20530
826.625	20434
826.765	20461
826.904	20442
827.044	20240
827.183	20199
827.323	20115
827.462	20286
827.601	20122
827.741	20050
827.88	20248
828.02	19967
828.159	20024
828.298	20187
828.437	20248
828.577	20084
828.716	20237
828.855	20065
828.994	19860
829.134	19894
829.273	19883
829.412	19856
829.551	19784
829.69	19887
829.829	19833
829.968	19925
830.107	19936
830.246	19791
830.385	19814
830.524	19765
830.663	19628
830.802	19563
830.941	19415
831.08	19460
831.219	19460
831.357	19460
831.496	19746
831.635	19358
831.774	19384
831.913	19365
832.051	19297
832.19	19263
832.329	19236
832.467	19137
832.606	19084
832.744	19171
832.883	19122
833.022	19072
833.16	19171
833.299	19221
833.437	19339
833.576	19339
833.714	19285
833.852	19365
833.991	19297
834.129	19400
834.267	19384
834.406	19266
834.544	19430
834.682	19354
834.821	19217
834.959	19365
835.097	19221
835.235	19304
835.373	19190
835.511	19190
835.65	19038
835.788	19118
835.926	18962
836.064	18878
836.202	18829
836.34	19019
836.478	19183
836.615	18981
836.753	19069
836.891	19057
837.029	18985
837.167	19008
837.305	18935
837.443	18837
837.58	18829
837.718	18981
837.856	18943
837.993	18776
838.131	18810
838.269	18791
838.406	18734
838.544	18673
838.681	18483
838.819	18536
838.956	18300
839.094	18235
839.231	18350
839.369	18479
839.506	18601
839.643	18574
839.781	18353
839.918	18273
840.055	18369
840.193	18391
840.33	18319
840.467	18258
840.604	18251
840.742	18536
840.879	18144
841.016	18266
841.153	18057
841.29	18384
841.427	18273
841.564	18350
841.701	18251
841.838	18216
841.975	18140
842.112	18102
842.249	17984
842.385	18003
842.522	18258
842.659	18053
842.796	18030
842.933	18041
843.069	17992
843.206	17916
843.343	18129
843.479	18003
843.616	18019
843.752	17927
843.889	17908
844.025	18026
844.162	17904
844.298	18022
844.435	17824
844.571	17931
844.708	18030
844.844	18064
844.98	18182
845.117	18258
845.253	18300
845.389	18433
845.525	19099
845.661	19936
845.798	20971
845.934	21972
846.07	22325
846.206	22192
846.342	21622
846.478	20419
846.614	19228
846.75	18407
846.886	18072
847.022	17908
847.158	17665
847.294	17474
847.429	17577
847.565	17414
847.701	17707
847.837	17212
847.972	17136
848.108	17159
848.244	17155
848.379	17033
848.515	16869
848.65	16896
848.786	16862
848.921	16957
849.057	16961
849.192	17033
849.328	16995
849.463	16877
849.598	16892
849.734	16824
849.869	16786
850.004	16694
850.14	16702
850.275	16611
850.41	16615
850.545	16641
850.68	16588
850.815	16729
850.95	16634
851.085	16824
851.22	16733
851.355	16694
851.49	16569
851.625	16630
851.76	16596
851.895	16508
852.03	16497
852.165	16558
852.299	16675
852.434	16641
852.569	16710
852.703	16668
852.838	16748
852.973	16812
853.107	16774
853.242	16626
853.376	16466
853.511	16447
853.645	16481
853.78	16630
853.914	16497
854.048	16523
854.183	16485
854.317	16504
854.451	16752
854.585	16596
854.72	16565
854.854	16569
854.988	16386
855.122	16497
855.256	16413
855.39	16577
855.524	16546
855.658	16478
855.792	16451
855.926	16565
856.06	16573
856.194	16653
856.327	16573
856.461	16516
856.595	16371
856.729	16542
856.862	16573
856.996	16630
857.13	16538
857.263	16554
857.397	16527
857.53	16470
857.664	16580
857.797	16561
857.931	16558
858.064	16447
858.197	16481
858.331	16436
858.464	16386
858.597	16398
858.731	16508
858.864	16428
858.997	16348
859.13	16485
859.263	16497
859.396	16481
859.529	16280
859.662	16409
859.795	16367
859.928	16394
860.061	16577
860.194	16611
860.327	16474
860.46	16569
860.592	16516
860.725	16466
860.858	16516
860.99	16344
861.123	16348
861.256	16325
861.388	16375
861.521	17083
861.653	16394
861.786	16230
861.918	16356
862.05	16314
862.183	16348
862.315	16371
862.447	16459
862.58	16413
862.712	16169
862.844	16253
862.976	16272
863.108	16272
863.24	16565
863.372	16097
863.504	16090
863.636	16177
863.768	16200
863.9	16112
864.032	16192
864.164	16017
864.296	16101
864.428	16325
864.559	16200
864.691	16204
864.823	16158
864.954	16162
865.086	16112
865.217	16173
865.349	16097
865.48	16211
865.612	16139
865.743	16249
865.875	16078
866.006	16063
866.137	16101
866.269	16169
866.4	16139
866.531	16124
866.662	15987
866.793	16112
866.924	16071
867.055	16074
867.186	16074
867.317	16071
867.448	16010
867.579	15949
867.71	16032
867.841	16010
867.972	16135
868.103	16013
868.233	16120
868.364	16090
868.495	16147
868.625	16280
868.756	16558
868.886	16291
869.017	16303
869.147	16398
869.278	16440
869.408	16314
869.539	16226
869.669	16398
869.799	16413
869.929	16466
870.06	16474
870.19	16736
870.32	16637
870.45	16694
870.58	16687
870.71	16839
870.84	16790
870.97	16797
871.1	16774
871.23	16835
871.36	16942
871.489	16782
871.619	16904
871.749	16953
871.879	17079
872.008	16968
872.138	16961
872.267	16828
872.397	16820
872.526	16793
872.656	16774
872.785	16778
872.915	16881
873.044	17029
873.173	16923
873.303	17048
873.432	17033
873.561	17197
873.69	16946
873.819	16980
873.948	17098
874.077	17094
874.206	16984
874.335	17086
874.464	17200
874.593	17372
874.722	17326
874.851	17379
874.979	17444
875.108	17288
875.237	17235
875.365	17315
875.494	17356
875.623	17398
875.751	17337
875.88	17372
876.008	17573
876.136	17619
876.265	17790
876.393	17992
876.521	17882
876.65	17817
876.778	17939
876.906	17885
877.034	17824
877.162	17863
877.29	17714
877.418	17939
877.546	17923
877.674	17980
877.802	17893
877.93	17939
878.058	17992
878.185	17927
878.313	18114
878.441	18106
878.568	18072
878.696	18216
878.824	18471
878.951	18570
879.079	19015
879.206	19506
879.333	19674
879.461	19879
879.588	20153
879.715	20050
879.842	20134
879.97	19674
880.097	19012
880.224	18734
880.351	18563
880.478	18498
880.605	18353
880.732	18418
880.859	18407
880.986	18292
881.112	18205
881.239	17942
881.366	17999
881.493	17893
881.619	17847
881.746	17836
881.872	17931
881.999	17851
882.125	17805
882.252	17878
882.378	17843
882.505	17961
882.631	17767
882.757	17737
882.883	17764
883.01	17745
883.136	17684
883.262	17520
883.388	17554
883.514	17627
883.64	17638
883.766	17505
883.892	17459
884.018	17490
884.143	17691
884.269	17630
884.395	17368
884.52	17318
884.646	17349
884.772	17223
884.897	17231
885.023	17311
885.148	17372
885.274	17455
885.399	17330
885.524	17242
885.65	17204
885.775	17273
885.9	17174
886.025	17277
886.15	17330
886.275	17143
886.4	17105
886.525	17090
886.65	17018
886.775	16995
886.9	17193
887.025	17258
887.149	17060
887.274	16847
887.399	16820
887.523	16847
887.648	16729
887.773	16668
887.897	16809
888.021	16812
888.146	16622
888.27	16759
888.395	16900
888.519	16809
888.643	16774
888.767	16885
888.891	16691
889.015	16558
889.139	16538
889.263	16558
889.387	16618
889.511	16706
889.635	16584
889.759	16451
889.883	16535
890.006	16428
890.13	16577
890.254	16398
890.377	16432
890.501	16230
890.624	16215
890.748	16215
890.871	16169
890.995	16131
891.118	16002
891.241	16059
891.364	16154
891.488	16246
891.611	16055
891.734	16067
891.857	16158
891.98	16090
892.103	16188
892.226	16097
892.349	16074
892.471	16051
892.594	16021
892.717	16105
892.839	15991
892.962	16032
893.085	16158
893.207	15994
893.33	15899
893.452	15979
893.575	16185
893.697	15979
893.819	16128
893.941	16291
894.064	16071
894.186	15960
894.308	15949
894.43	16078
894.552	16097
894.674	16150
894.796	16040
894.918	15983
895.04	15953
895.161	16040
895.283	16048
895.405	16036
895.526	16036
895.648	16013
895.769	16071
895.891	16120
896.012	16086
896.134	16097
896.255	16048
896.376	16112
896.498	16082
896.619	16207
896.74	16124
896.861	16173
896.982	16493
897.103	16698
897.224	16337
897.345	16325
897.466	16268
897.587	16306
897.708	16493
897.828	16428
897.949	16360
898.07	16246
898.19	16413
898.311	16466
898.431	16348
898.552	16398
898.672	16523
898.792	16440
898.913	16440
899.033	16341
899.153	16253
899.273	16185
899.393	16265
899.513	16223
899.633	16333
899.753	16276
899.873	16207
899.993	16352
900.113	16192
900.232	16333
900.352	16128
900.472	16135
900.591	16044
900.711	16082
900.83	16067
900.95	16188
901.069	16246
901.189	16017
901.308	15759
901.427	15736
901.546	15751
901.665	15789
901.784	15755
901.904	15667
902.023	15572
902.141	15344
902.26	15325
902.379	15355
902.498	15245
902.617	15188
902.735	15291
902.854	15272
902.973	15203
903.091	14994
903.21	14887
903.328	14887
903.446	14880
903.565	14823
903.683	14724
903.801	14689
903.919	14743
904.038	14777
904.156	14526
904.274	14712
904.392	14560
904.51	14518
904.627	14644
904.745	14617
904.863	14564
904.981	14419
905.098	14183
905.216	14248
905.334	14286
905.451	14237
905.569	14183
905.686	14256
905.803	14294
905.921	14073
906.038	14172
906.155	13978
906.272	13932
906.389	13978
906.506	13814
906.623	13776
906.74	13837
906.857	13742
906.974	13662
907.091	13845
907.208	13887
907.324	13780
907.441	13727
907.557	13571
907.674	13381
907.79	13430
907.907	13476
908.023	13457
908.139	13529
908.256	13464
908.372	13426
908.488	13293
908.604	13350
908.72	13244
908.836	13221
908.952	13255
909.068	13270
909.184	13327
909.3	13293
909.415	13232
909.531	13339
909.647	12989
909.762	12985
909.878	12954
909.993	12989
910.108	12939
910.224	12966
910.339	12920
910.454	12806
910.57	12760
910.685	12768
910.8	13076
910.915	12958
911.03	12779
911.145	12623
911.259	12570
911.374	12578
911.489	12540
911.604	12509
911.718	12380
911.833	12327
911.947	12270
912.062	12254
912.176	12346
912.291	12376
912.405	12376
912.519	12536
912.633	12578
912.748	12418
912.862	12407
912.976	12251
913.09	12182
913.204	12140
913.318	12232
913.431	12323
913.545	12330
913.659	12384
913.772	12190
913.886	12087
914	12079
914.113	12159
914.226	12186
914.34	12175
914.453	12019
914.566	12152
914.68	12133
914.793	11984
914.906	11771
915.019	11752
915.132	11760
915.245	11847
915.358	11893
915.47	11821
915.583	11771
915.696	11840
915.809	11828
915.921	11950
916.034	11790
916.146	11783
916.259	11672
916.371	11821
916.483	11775
916.595	11737
916.708	11775
916.82	11680
916.932	11691
917.044	11707
917.156	11627
917.268	11539
917.38	11562
917.491	11547
917.603	11516
917.715	11726
917.826	11695
917.938	11627
918.049	11486
918.161	11535
918.272	11722
918.384	11688
918.495	11554
918.606	11402
918.717	11315
918.828	11433
918.939	11463
919.05	11311
919.161	11402
919.272	11105
919.383	11235
919.494	11543
919.604	11581
919.715	11372
919.826	11387
919.936	11292
920.047	11501
920.157	11471
920.267	11649
920.378	11391
920.488	11421
920.598	11589
920.708	11809
920.818	11585
920.928	11562
921.038	11771
921.148	11691
921.258	11360
921.368	11337
921.477	11292
921.587	11178
921.697	11151
921.806	11341
921.916	11090
922.025	10965
922.134	10858
922.244	10923
922.353	10930
922.462	10767
922.571	10778
922.68	10618
922.789	10569
922.898	10584
923.007	10592
923.116	10630
923.224	10592
923.333	10641
923.442	10466
923.55	10413
923.659	10474
923.767	10565
923.876	10428
923.984	10519
924.092	10363
924.201	10474
924.309	10474
924.417	10398
924.525	10337
924.633	10386
924.741	11143
924.849	10196
924.956	10291
925.064	10272
925.172	10112
925.279	10158
925.387	10177
925.494	10166
925.602	10409
925.709	10284
925.816	10063
925.924	10158
926.031	10223
926.138	10154
926.245	10249
926.352	10055
926.459	10219
926.566	10318
926.673	10101
926.779	10017
926.886	9968
926.993	9804
927.099	9915
927.206	9838
927.312	9869
927.419	9869
927.525	9911
927.631	9907
927.737	9755
927.843	9637
927.95	9610
928.056	9724
928.162	9671
928.267	9705
928.373	10409
928.479	9808
928.585	9557
928.69	9679
928.796	9679
928.901	9682
929.007	9473
929.112	9648
929.218	9587
929.323	9595
929.428	9523
929.533	9618
929.638	9439
929.743	9542
929.848	9622
929.953	9507
930.058	9439
930.163	9207
930.267	9317
930.372	9428
930.477	9294
930.581	9511
930.685	9317
930.79	9214
930.894	9222
930.998	9188
931.103	9367
931.207	8963
931.311	8971
931.415	8811
931.519	8651
931.623	8689
