Data from test_V78500241_2888.txt Node
Date: Fri Mar 25 14:53:49 CST 2022
User: usil
Spectrometer: V785-0024
Trigger mode: 0
Integration Time (sec): 4.000000E-1
Scans to average: 1
Nonlinearity correction enabled: false
Boxcar width: 0
Storing dark spectrum: false
XAxis mode: Wavelengths
Number of Pixels in Spectrum: 1024
>>>>>Begin Spectral Data<<<<<
801.071	22147
801.214	22029
801.356	21713
801.499	21720
801.641	21545
801.783	21469
801.926	21530
802.068	21355
802.211	21298
802.353	21237
802.496	21070
802.638	20944
802.78	20838
802.923	20746
803.065	20804
803.208	20724
803.35	20834
803.492	20868
803.635	20857
803.777	20720
803.919	20796
804.061	21066
804.204	20830
804.346	20754
804.488	20693
804.63	20670
804.773	20765
804.915	20724
805.057	20788
805.199	20568
805.341	20750
805.483	20746
805.626	20754
805.768	20617
805.91	20777
806.052	20796
806.194	20705
806.336	20773
806.478	20819
806.62	20659
806.762	20880
806.904	20929
807.046	20967
807.188	20834
807.33	21032
807.472	21096
807.614	20849
807.756	20963
807.898	20781
808.04	20895
808.182	20712
808.324	20773
808.465	20883
808.607	21020
808.749	21024
808.891	21203
809.033	21287
809.174	21093
809.316	20876
809.458	21077
809.6	20948
809.741	21184
809.883	21161
810.025	21222
810.166	21176
810.308	21214
810.45	21192
810.591	21279
810.733	20982
810.875	20834
811.016	20792
811.158	20712
811.299	20910
811.441	20998
811.582	21020
811.724	20781
811.865	20819
812.007	20781
812.148	20750
812.29	20807
812.431	21032
812.573	21131
812.714	21374
812.855	21252
812.997	21496
813.138	21701
813.279	21393
813.421	21230
813.562	21294
813.703	21199
813.845	20910
813.986	20750
814.127	20507
814.268	20339
814.41	20355
814.551	20415
814.692	20404
814.833	20298
814.974	20320
815.115	20336
815.256	20286
815.397	20286
815.539	20202
815.68	20134
815.821	20081
815.962	20024
816.103	20157
816.244	19986
816.385	19852
816.526	19811
816.666	19632
816.807	19487
816.948	19639
817.089	19685
817.23	19525
817.371	19559
817.512	19396
817.653	19582
817.793	19445
817.934	19552
818.075	19567
818.216	19575
818.356	19491
818.497	19373
818.638	19171
818.778	19148
818.919	19244
819.06	19209
819.2	19304
819.341	19472
819.481	19377
819.622	19548
819.762	19731
819.903	19544
820.043	19616
820.184	19518
820.324	19419
820.465	19487
820.605	19521
820.746	19392
820.886	19335
821.026	19449
821.167	19537
821.307	19358
821.447	19460
821.588	19259
821.728	19114
821.868	19084
822.008	18939
822.149	19027
822.289	18886
822.429	18646
822.569	18692
822.709	18547
822.849	18338
822.99	18346
823.13	18399
823.27	18330
823.41	18155
823.55	18102
823.69	18053
823.83	18182
823.97	18102
824.11	17988
824.25	17996
824.389	17999
824.529	18034
824.669	17996
824.809	17977
824.949	17961
825.089	18026
825.228	18011
825.368	17733
825.508	17737
825.648	17741
825.787	17802
825.927	17752
826.067	17634
826.206	17691
826.346	17805
826.485	17794
826.625	17767
826.765	17824
826.904	17756
827.044	17577
827.183	17474
827.323	17337
827.462	17573
827.601	17471
827.741	17463
827.88	17463
828.02	17334
828.159	17417
828.298	17505
828.437	17433
828.577	17444
828.716	17600
828.855	17341
828.994	17227
829.134	17181
829.273	17193
829.412	17143
829.551	17189
829.69	17227
829.829	17269
829.968	17185
830.107	17280
830.246	17231
830.385	17235
830.524	17250
830.663	17060
830.802	16934
830.941	16828
831.08	16843
831.219	16881
831.357	16995
831.496	17109
831.635	16934
831.774	16759
831.913	16691
832.051	16691
832.19	16550
832.329	16626
832.467	16394
832.606	16500
832.744	16527
832.883	16428
833.022	16504
833.16	16535
833.299	16535
833.437	16516
833.576	16485
833.714	16500
833.852	16550
833.991	16596
834.129	16691
834.267	16626
834.406	16584
834.544	16580
834.682	16561
834.821	16493
834.959	16721
835.097	16508
835.235	16626
835.373	16596
835.511	16577
835.65	16504
835.788	16451
835.926	16329
836.064	16280
836.202	16280
836.34	16497
836.478	16493
836.615	16356
836.753	16394
836.891	16630
837.029	16497
837.167	16337
837.305	16462
837.443	16421
837.58	16363
837.718	16459
837.856	16303
837.993	16284
838.131	16382
838.269	16265
838.406	16268
838.544	16185
838.681	15979
838.819	15937
838.956	15892
839.094	15972
839.231	16017
839.369	16093
839.506	16318
839.643	16112
839.781	15880
839.918	15819
840.055	15922
840.193	15930
840.33	15808
840.467	15922
840.604	15804
840.742	16036
840.879	15850
841.016	15759
841.153	15778
841.29	15998
841.427	15816
841.564	15892
841.701	15922
841.838	15812
841.975	15717
842.112	15762
842.249	15747
842.385	15660
842.522	15728
842.659	15648
842.796	15618
842.933	15580
843.069	15648
843.206	15618
843.343	15698
843.479	15644
843.616	15644
843.752	15477
843.889	15443
844.025	15591
844.162	15458
844.298	15584
844.435	15458
844.571	15351
844.708	15504
844.844	15584
844.98	15519
845.117	15584
845.253	15458
845.389	15298
845.525	15363
845.661	15294
845.798	15203
845.934	15272
846.07	15279
846.206	15256
846.342	15329
846.478	15245
846.614	15009
846.75	15074
846.886	15062
847.022	15058
847.158	15028
847.294	15116
847.429	15051
847.565	14994
847.701	15249
847.837	14785
847.972	14659
848.108	14765
848.244	14754
848.379	14716
848.515	14568
848.65	14651
848.786	14640
848.921	14670
849.057	14735
849.192	14636
849.328	14549
849.463	14549
849.598	14556
849.734	14511
849.869	14469
850.004	14377
850.14	14415
850.275	14393
850.41	14267
850.545	14385
850.68	14282
850.815	14332
850.95	14313
851.085	14571
851.22	14476
851.355	14450
851.49	14355
851.625	14328
851.76	14385
851.895	14298
852.03	14244
852.165	14298
852.299	14408
852.434	14412
852.569	14374
852.703	14320
852.838	14404
852.973	14522
853.107	14533
853.242	14161
853.376	14301
853.511	14134
853.645	14145
853.78	14351
853.914	14309
854.048	14195
854.183	14145
854.317	14195
854.451	14446
854.585	14267
854.72	14145
854.854	14305
854.988	14233
855.122	14187
855.256	14073
855.39	14161
855.524	14374
855.658	14237
855.792	14305
855.926	14244
856.06	14332
856.194	14351
856.327	14240
856.461	14164
856.595	14237
856.729	14176
856.862	14252
856.996	14339
857.13	14294
857.263	14469
857.397	14385
857.53	14176
857.664	14237
857.797	14415
857.931	14313
858.064	14278
858.197	14385
858.331	14256
858.464	14210
858.597	14107
858.731	14298
858.864	14237
858.997	14221
859.13	14161
859.263	14317
859.396	14278
859.529	14221
859.662	14237
859.795	14168
859.928	14256
860.061	14393
860.194	14408
860.327	14202
860.46	14298
860.592	14347
860.725	14415
860.858	14396
860.99	14298
861.123	14195
861.256	14210
861.388	14275
861.521	14861
861.653	14100
861.786	14054
861.918	14145
862.05	14153
862.183	14240
862.315	14206
862.447	14214
862.58	14214
862.712	13906
862.844	13982
862.976	14065
863.108	14126
863.24	14389
863.372	13993
863.504	14001
863.636	14142
863.768	14153
863.9	13917
864.032	14035
864.164	13986
864.296	13959
864.428	14138
864.559	14183
864.691	14001
864.823	13993
864.954	14084
865.086	14081
865.217	14084
865.349	14058
865.48	14031
865.612	14001
865.743	14107
865.875	13959
866.006	13967
866.137	13986
866.269	13963
866.4	14084
866.531	13970
866.662	13909
866.793	13917
866.924	13898
867.055	14096
867.186	14005
867.317	13947
867.448	13913
867.579	13944
867.71	13845
867.841	13936
867.972	14069
868.103	13967
868.233	13974
868.364	14062
868.495	14065
868.625	14225
868.756	14343
868.886	14237
869.017	14183
869.147	14343
869.278	14366
869.408	14313
869.539	14282
869.669	14351
869.799	14256
869.929	14347
870.06	14396
870.19	14587
870.32	14511
870.45	14617
870.58	14682
870.71	14773
870.84	14731
870.97	14621
871.1	14651
871.23	14792
871.36	14811
871.489	14727
871.619	14845
871.749	14727
871.879	14910
872.008	14861
872.138	14845
872.267	14765
872.397	14697
872.526	14644
872.656	14610
872.785	14651
872.915	14765
873.044	14952
873.173	14971
873.303	14918
873.432	14925
873.561	15066
873.69	14986
873.819	14868
873.948	14929
874.077	14842
874.206	14853
874.335	15043
874.464	15009
874.593	15131
874.722	15154
874.851	15161
874.979	15188
875.108	15241
875.237	15150
875.365	15089
875.494	15077
875.623	15233
875.751	15154
875.88	15081
876.008	15408
876.136	15359
876.265	15549
876.393	15667
876.521	15644
876.65	15671
876.778	15622
876.906	15515
877.034	15576
877.162	15671
877.29	15603
877.418	15618
877.546	15618
877.674	15667
877.802	15614
877.93	15568
878.058	15606
878.185	15538
878.313	15618
878.441	15561
878.568	15458
878.696	15568
878.824	15618
878.951	15698
879.079	15747
879.206	15903
879.333	15774
879.461	15686
879.588	15759
879.715	15892
879.842	15876
879.97	15641
880.097	15466
880.224	15405
880.351	15564
880.478	15473
880.605	15367
880.732	15485
880.859	15713
880.986	15500
881.112	15439
881.239	15336
881.366	15313
881.493	15233
881.619	15085
881.746	15070
881.872	15055
881.999	15154
882.125	15116
882.252	15116
882.378	15169
882.505	15275
882.631	15032
882.757	14994
882.883	15020
883.01	14887
883.136	14883
883.262	14842
883.388	14746
883.514	14929
883.64	15001
883.766	14937
883.892	14781
884.018	14838
884.143	14967
884.269	14967
884.395	14788
884.52	14686
884.646	14629
884.772	14648
884.897	14575
885.023	14678
885.148	14670
885.274	14838
885.399	14705
885.524	14552
885.65	14727
885.775	14750
885.9	14686
886.025	14785
886.15	14629
886.275	14587
886.4	14514
886.525	14594
886.65	14473
886.775	14514
886.9	14651
887.025	14921
887.149	14583
887.274	14412
887.399	14511
887.523	14377
887.648	14438
887.773	14393
887.897	14507
888.021	14564
888.146	14412
888.27	14594
888.395	14617
888.519	14587
888.643	14587
888.767	14598
888.891	14427
889.015	14343
889.139	14317
889.263	14362
889.387	14484
889.511	14583
889.635	14419
889.759	14282
889.883	14347
890.006	14358
890.13	14450
890.254	14290
890.377	14339
890.501	14081
890.624	14157
890.748	14271
890.871	14100
890.995	14035
891.118	13974
891.241	13997
891.364	14077
891.488	14183
891.611	14111
891.734	14035
891.857	14123
891.98	14164
892.103	14111
892.226	14035
892.349	13982
892.471	13830
892.594	14035
892.717	14016
892.839	14039
892.962	13974
893.085	14123
893.207	14020
893.33	13974
893.452	13936
893.575	14084
893.697	13989
893.819	14062
893.941	14187
894.064	14252
894.186	14084
894.308	14001
894.43	14218
894.552	14206
894.674	14218
894.796	14100
894.918	14092
895.04	14084
895.161	14248
895.283	14153
895.405	14062
895.526	14161
895.648	14221
895.769	14240
895.891	14180
896.012	14263
896.134	14119
896.255	14176
896.376	14100
896.498	14195
896.619	14294
896.74	14221
896.861	14347
896.982	14541
897.103	14670
897.224	14587
897.345	14423
897.466	14545
897.587	14545
897.708	14613
897.828	14526
897.949	14434
898.07	14396
898.19	14457
898.311	14587
898.431	14583
898.552	14530
898.672	14743
898.792	14632
898.913	14575
899.033	14537
899.153	14389
899.273	14377
899.393	14427
899.513	14389
899.633	14419
899.753	14434
899.873	14423
899.993	14537
900.113	14256
900.232	14446
900.352	14412
900.472	14377
900.591	14275
900.711	14294
900.83	14240
900.95	14457
901.069	14408
901.189	14252
901.308	14039
901.427	13879
901.546	14054
901.665	13974
901.784	14084
901.904	13871
902.023	13807
902.141	13556
902.26	13544
902.379	13620
902.498	13666
902.617	13487
902.735	13651
902.854	13636
902.973	13548
903.091	13354
903.21	13232
903.328	13354
903.446	13209
903.565	13263
903.683	13114
903.801	13110
903.919	13076
904.038	13084
904.156	13069
904.274	13080
904.392	12973
904.51	12924
904.627	12962
904.745	12985
904.863	13012
904.981	12833
905.098	12639
905.216	12582
905.334	12722
905.451	12612
905.569	12639
905.686	12597
905.803	12623
905.921	12422
906.038	12601
906.155	12471
906.272	12384
906.389	12330
906.506	12292
906.623	12251
906.74	12239
906.857	12129
906.974	12182
907.091	12285
907.208	12311
907.324	12300
907.441	12171
907.557	11969
907.674	11904
907.79	11950
907.907	11939
908.023	11965
908.139	12034
908.256	11874
908.372	11965
908.488	11847
908.604	11802
908.72	11691
908.836	11741
908.952	11733
909.068	11726
909.184	11828
909.3	11786
909.415	11882
909.531	11786
909.647	11570
909.762	11486
909.878	11417
909.993	11573
910.108	11482
910.224	11554
910.339	11478
910.454	11459
910.57	11436
910.685	11303
910.8	11532
910.915	11573
911.03	11349
911.145	11303
911.259	11223
911.374	11197
911.489	11166
911.604	11105
911.718	10991
911.833	10968
911.947	10869
912.062	10828
912.176	10930
912.291	10984
912.405	11010
912.519	11193
912.633	11235
912.748	11029
912.862	10995
912.976	10881
913.09	10649
913.204	10763
913.318	10820
913.431	10949
913.545	10965
913.659	10930
913.772	10877
913.886	10774
914	10733
914.113	10801
914.226	10968
914.34	10866
914.453	10656
914.566	10847
914.68	10687
914.793	10683
914.906	10485
915.019	10504
915.132	10417
915.245	10466
915.358	10489
915.47	10481
915.583	10546
915.696	10565
915.809	10596
915.921	10626
916.034	10459
916.146	10413
916.259	10405
916.371	10462
916.483	10535
916.595	10379
916.708	10386
916.82	10405
916.932	10443
917.044	10443
917.156	10382
917.268	10333
917.38	10299
917.491	10238
917.603	10348
917.715	10382
917.826	10428
917.938	10337
918.049	10143
918.161	10341
918.272	10493
918.384	10390
918.495	10284
918.606	10181
918.717	10109
918.828	10169
918.939	10257
919.05	10063
919.161	10154
919.272	10010
919.383	10025
919.494	10185
919.604	10352
919.715	10158
919.826	10074
919.936	10135
920.047	10230
920.157	10276
920.267	10375
920.378	10200
920.488	10257
920.598	10394
920.708	10592
920.818	10402
920.928	10470
921.038	10493
921.148	10519
921.258	10215
921.368	10162
921.477	10078
921.587	10055
921.697	9918
921.806	10124
921.916	9983
922.025	9770
922.134	9766
922.244	9682
922.353	9804
922.462	9625
922.571	9648
922.68	9466
922.789	9435
922.898	9538
923.007	9469
923.116	9492
923.224	9397
923.333	9420
923.442	9329
923.55	9374
923.659	9424
923.767	9313
923.876	9367
923.984	9359
924.092	9222
924.201	9325
924.309	9283
924.417	9317
924.525	9237
924.633	9275
924.741	10200
924.849	9058
924.956	9275
925.064	9097
925.172	9001
925.279	9058
925.387	9116
925.494	9150
925.602	9249
925.709	9192
925.816	9058
925.924	9097
926.031	9146
926.138	9112
926.245	9116
926.352	9051
926.459	9127
926.566	9195
926.673	9119
926.779	9017
926.886	8967
926.993	8891
927.099	8838
927.206	8788
927.312	8746
927.419	8868
927.525	8792
927.631	8891
927.737	8735
927.843	8807
927.95	8613
928.056	8632
928.162	8743
928.267	8807
928.373	9408
928.479	8861
928.585	8613
928.69	8716
928.796	8811
928.901	8629
929.007	8465
929.112	8636
929.218	8625
929.323	8644
929.428	8579
929.533	8651
929.638	8533
929.743	8530
929.848	8552
929.953	8526
930.058	8442
930.163	8298
930.267	8309
930.372	8503
930.477	8313
930.581	8583
930.685	8404
930.79	8332
930.894	8324
930.998	8218
931.103	8385
931.207	8092
931.311	8050
931.415	7940
931.519	7719
931.623	7807
