Data from test_V78500241_2020.txt Node
Date: Fri Mar 25 14:47:46 CST 2022
User: usil
Spectrometer: V785-0024
Trigger mode: 0
Integration Time (sec): 4.000000E-1
Scans to average: 1
Nonlinearity correction enabled: false
Boxcar width: 0
Storing dark spectrum: false
XAxis mode: Wavelengths
Number of Pixels in Spectrum: 1024
>>>>>Begin Spectral Data<<<<<
801.071	22188
801.214	22040
801.356	21762
801.499	21679
801.641	21603
801.783	21435
801.926	21564
802.068	21393
802.211	21397
802.353	21279
802.496	21119
802.638	20952
802.78	21009
802.923	20857
803.065	20765
803.208	20773
803.35	20792
803.492	20853
803.635	20979
803.777	20811
803.919	20963
804.061	21188
804.204	20906
804.346	20720
804.488	20625
804.63	20811
804.773	20678
804.915	20819
805.057	20883
805.199	20648
805.341	20663
805.483	20811
805.626	20689
805.768	20788
805.91	20682
806.052	20731
806.194	20655
806.336	20823
806.478	20651
806.62	20602
806.762	20785
806.904	21039
807.046	21268
807.188	21058
807.33	21070
807.472	21051
807.614	21032
807.756	21077
807.898	20895
808.04	20902
808.182	20845
808.324	20876
808.465	20861
808.607	21036
808.749	21112
808.891	21195
809.033	21325
809.174	21142
809.316	21055
809.458	21047
809.6	21043
809.741	21154
809.883	21275
810.025	21279
810.166	21230
810.308	21291
810.45	21218
810.591	21146
810.733	21074
810.875	20906
811.016	20823
811.158	20754
811.299	20944
811.441	21036
811.582	21017
811.724	20842
811.865	20834
812.007	20819
812.148	20929
812.29	20895
812.431	21104
812.573	21272
812.714	21104
812.855	21420
812.997	21443
813.138	21641
813.279	21561
813.421	21397
813.562	21283
813.703	21310
813.845	21112
813.986	20826
814.127	20419
814.268	20476
814.41	20450
814.551	20415
814.692	20450
814.833	20400
814.974	20362
815.115	20431
815.256	20271
815.397	20263
815.539	20252
815.68	20199
815.821	20122
815.962	20096
816.103	20161
816.244	19974
816.385	19811
816.526	19826
816.666	19769
816.807	19616
816.948	19537
817.089	19628
817.23	19537
817.371	19544
817.512	19613
817.653	19544
817.793	19521
817.934	19559
818.075	19746
818.216	19521
818.356	19487
818.497	19449
818.638	19114
818.778	19164
818.919	19259
819.06	19384
819.2	19434
819.341	19419
819.481	19369
819.622	19635
819.762	19712
819.903	19708
820.043	19609
820.184	19601
820.324	19453
820.465	19552
820.605	19605
820.746	19422
820.886	19350
821.026	19506
821.167	19426
821.307	19426
821.447	19502
821.588	19316
821.728	19225
821.868	19031
822.008	18924
822.149	18966
822.289	18837
822.429	18623
822.569	18677
822.709	18745
822.849	18441
822.99	18490
823.13	18597
823.27	18365
823.41	18224
823.55	18171
823.69	18235
823.83	18357
823.97	18110
824.11	17935
824.25	17851
824.389	18026
824.529	18155
824.669	17916
824.809	18038
824.949	18079
825.089	18057
825.228	18098
825.368	17802
825.508	17756
825.648	17771
825.787	17786
825.927	17901
826.067	17813
826.206	17821
826.346	17668
826.485	17691
826.625	17729
826.765	17904
826.904	17969
827.044	17524
827.183	17436
827.323	17478
827.462	17516
827.601	17486
827.741	17391
827.88	17471
828.02	17383
828.159	17455
828.298	17467
828.437	17543
828.577	17414
828.716	17608
828.855	17501
828.994	17208
829.134	17174
829.273	17277
829.412	17178
829.551	17170
829.69	17322
829.829	17261
829.968	17421
830.107	17277
830.246	17299
830.385	17124
830.524	17121
830.663	17018
830.802	16965
830.941	16850
831.08	16850
831.219	16889
831.357	16915
831.496	17098
831.635	16866
831.774	16816
831.913	16698
832.051	16558
832.19	16626
832.329	16710
832.467	16542
832.606	16470
832.744	16485
832.883	16584
833.022	16436
833.16	16519
833.299	16611
833.437	16504
833.576	16580
833.714	16538
833.852	16592
833.991	16649
834.129	16664
834.267	16710
834.406	16664
834.544	16660
834.682	16573
834.821	16558
834.959	16824
835.097	16668
835.235	16622
835.373	16630
835.511	16675
835.65	16481
835.788	16443
835.926	16356
836.064	16314
836.202	16291
836.34	16466
836.478	16489
836.615	16455
836.753	16504
836.891	16573
837.029	16573
837.167	16474
837.305	16405
837.443	16432
837.58	16382
837.718	16443
837.856	16485
837.993	16344
838.131	16481
838.269	16322
838.406	16325
838.544	16242
838.681	16010
838.819	15994
838.956	16032
839.094	15953
839.231	15964
839.369	16147
839.506	16253
839.643	16120
839.781	15915
839.918	15854
840.055	15911
840.193	15941
840.33	15918
840.467	16032
840.604	16040
840.742	16226
840.879	15800
841.016	15800
841.153	15808
841.29	16131
841.427	16013
841.564	15934
841.701	15907
841.838	15949
841.975	15808
842.112	15823
842.249	15808
842.385	15667
842.522	15884
842.659	15804
842.796	15553
842.933	15644
843.069	15736
843.206	15717
843.343	15709
843.479	15724
843.616	15759
843.752	15515
843.889	15587
844.025	15641
844.162	15492
844.298	15675
844.435	15511
844.571	15481
844.708	15564
844.844	15736
844.98	15622
845.117	15656
845.253	15443
845.389	15367
845.525	15492
845.661	15389
845.798	15241
845.934	15416
846.07	15176
846.206	15344
846.342	15473
846.478	15310
846.614	15112
846.75	15169
846.886	14998
847.022	15161
847.158	15131
847.294	15070
847.429	15070
847.565	14967
847.701	15294
847.837	14788
847.972	14815
848.108	14982
848.244	14971
848.379	14716
848.515	14686
848.65	14644
848.786	14613
848.921	14754
849.057	14788
849.192	14750
849.328	14705
849.463	14632
849.598	14552
849.734	14625
849.869	14526
850.004	14499
850.14	14427
850.275	14446
850.41	14374
850.545	14431
850.68	14419
850.815	14480
850.95	14461
851.085	14602
851.22	14533
851.355	14381
851.49	14370
851.625	14431
851.76	14328
851.895	14320
852.03	14278
852.165	14408
852.299	14396
852.434	14507
852.569	14362
852.703	14492
852.838	14541
852.973	14556
853.107	14530
853.242	14446
853.376	14240
853.511	14214
853.645	14282
853.78	14423
853.914	14446
854.048	14343
854.183	14240
854.317	14339
854.451	14495
854.585	14301
854.72	14259
854.854	14408
854.988	14256
855.122	14252
855.256	14161
855.39	14328
855.524	14366
855.658	14370
855.792	14324
855.926	14309
856.06	14339
856.194	14412
856.327	14286
856.461	14301
856.595	14263
856.729	14263
856.862	14377
856.996	14324
857.13	14233
857.263	14454
857.397	14465
857.53	14370
857.664	14278
857.797	14412
857.931	14514
858.064	14290
858.197	14415
858.331	14339
858.464	14294
858.597	14278
858.731	14278
858.864	14400
858.997	14332
859.13	14309
859.263	14290
859.396	14423
859.529	14282
859.662	14237
859.795	14278
859.928	14271
860.061	14438
860.194	14461
860.327	14351
860.46	14332
860.592	14339
860.725	14408
860.858	14396
860.99	14294
861.123	14214
861.256	14199
861.388	14381
861.521	14921
861.653	14206
861.786	14138
861.918	14214
862.05	14259
862.183	14202
862.315	14256
862.447	14320
862.58	14187
862.712	14058
862.844	14005
862.976	14202
863.108	14134
863.24	14419
863.372	13986
863.504	14092
863.636	14058
863.768	14145
863.9	14084
864.032	14077
864.164	14092
864.296	14218
864.428	14077
864.559	14183
864.691	14142
864.823	14183
864.954	14111
865.086	14100
865.217	14103
865.349	14016
865.48	14077
865.612	14054
865.743	14153
865.875	14096
866.006	14062
866.137	14081
866.269	14088
866.4	14153
866.531	14142
866.662	14012
866.793	14043
866.924	14100
867.055	14065
867.186	14031
867.317	14107
867.448	13986
867.579	14054
867.71	14020
867.841	13875
867.972	14092
868.103	13978
868.233	14092
868.364	14096
868.495	14130
868.625	14252
868.756	14476
868.886	14214
869.017	14263
869.147	14419
869.278	14298
869.408	14328
869.539	14301
869.669	14358
869.799	14301
869.929	14427
870.06	14465
870.19	14602
870.32	14648
870.45	14693
870.58	14724
870.71	14823
870.84	14857
870.97	14815
871.1	14686
871.23	14861
871.36	15032
871.489	14807
871.619	14895
871.749	15005
871.879	14868
872.008	15085
872.138	14902
872.267	14918
872.397	14857
872.526	14762
872.656	14804
872.785	14849
872.915	14963
873.044	15028
873.173	15009
873.303	14937
873.432	14960
873.561	14982
873.69	15005
873.819	14963
873.948	15173
874.077	15009
874.206	14918
874.335	14986
874.464	15104
874.593	15237
874.722	15127
874.851	15363
874.979	15355
875.108	15393
875.237	15370
875.365	15131
875.494	15249
875.623	15405
875.751	15241
875.88	15272
876.008	15325
876.136	15526
876.265	15679
876.393	15774
876.521	15835
876.65	15816
876.778	15739
876.906	15732
877.034	15614
877.162	15637
877.29	15595
877.418	15823
877.546	15838
877.674	15599
877.802	15644
877.93	15690
878.058	15679
878.185	15629
878.313	15682
878.441	15648
878.568	15625
878.696	15641
878.824	15717
878.951	15812
879.079	15819
879.206	16059
879.333	15922
879.461	15743
879.588	15816
879.715	15774
879.842	15956
879.97	15800
880.097	15557
880.224	15587
880.351	15591
880.478	15557
880.605	15405
880.732	15469
880.859	15671
880.986	15523
881.112	15587
881.239	15466
881.366	15340
881.493	15298
881.619	15165
881.746	15195
881.872	15180
881.999	15123
882.125	15218
882.252	15241
882.378	15344
882.505	15340
882.631	15146
882.757	15070
882.883	15070
883.01	15043
883.136	14960
883.262	14960
883.388	14853
883.514	15047
883.64	15089
883.766	14899
883.892	14887
884.018	14906
884.143	15005
884.269	15157
884.395	14731
884.52	14727
884.646	14750
884.772	14617
884.897	14636
885.023	14689
885.148	14838
885.274	14845
885.399	14883
885.524	14731
885.65	14777
885.775	14765
885.9	14705
886.025	14918
886.15	14727
886.275	14632
886.4	14560
886.525	14629
886.65	14686
886.775	14598
886.9	14891
887.025	14948
887.149	14705
887.274	14514
887.399	14518
887.523	14545
887.648	14415
887.773	14514
887.897	14731
888.021	14568
888.146	14541
888.27	14644
888.395	14583
888.519	14655
888.643	14663
888.767	14606
888.891	14530
889.015	14427
889.139	14415
889.263	14374
889.387	14514
889.511	14606
889.635	14446
889.759	14362
889.883	14412
890.006	14461
890.13	14693
890.254	14381
890.377	14358
890.501	14240
890.624	14214
890.748	14317
890.871	14119
890.995	14065
891.118	14161
891.241	14081
891.364	14130
891.488	14206
891.611	14164
891.734	14157
891.857	14240
891.98	14096
892.103	14168
892.226	14172
892.349	14218
892.471	13947
892.594	14062
892.717	14145
892.839	14126
892.962	14138
893.085	14195
893.207	14115
893.33	14050
893.452	14016
893.575	14210
893.697	14153
893.819	14248
893.941	14294
894.064	14294
894.186	14119
894.308	14001
894.43	14218
894.552	14320
894.674	14225
894.796	14077
894.918	14172
895.04	14149
895.161	14237
895.283	14282
895.405	14237
895.526	14168
895.648	14252
895.769	14301
895.891	14355
896.012	14328
896.134	14278
896.255	14168
896.376	14218
896.498	14267
896.619	14305
896.74	14305
896.861	14301
896.982	14526
897.103	14746
897.224	14583
897.345	14530
897.466	14545
897.587	14560
897.708	14670
897.828	14568
897.949	14549
898.07	14434
898.19	14514
898.311	14708
898.431	14712
898.552	14610
898.672	14716
898.792	14663
898.913	14743
899.033	14667
899.153	14488
899.273	14404
899.393	14518
899.513	14522
899.633	14473
899.753	14465
899.873	14503
899.993	14530
900.113	14499
900.232	14438
900.352	14511
900.472	14522
900.591	14377
900.711	14309
900.83	14366
900.95	14549
901.069	14377
901.189	14267
901.308	13982
901.427	14084
901.546	14100
901.665	14084
901.784	14100
901.904	13875
902.023	13719
902.141	13613
902.26	13636
902.379	13715
902.498	13578
902.617	13533
902.735	13548
902.854	13556
902.973	13563
903.091	13324
903.21	13297
903.328	13316
903.446	13217
903.565	13126
903.683	13145
903.801	13053
903.919	13244
904.038	13164
904.156	13046
904.274	13076
904.392	13008
904.51	12966
904.627	12928
904.745	13038
904.863	13080
904.981	12753
905.098	12749
905.216	12574
905.334	12738
905.451	12776
905.569	12734
905.686	12711
905.803	12757
905.921	12551
906.038	12597
906.155	12509
906.272	12445
906.389	12479
906.506	12300
906.623	12273
906.74	12232
906.857	12216
906.974	12144
907.091	12369
907.208	12407
907.324	12361
907.441	12239
907.557	12129
907.674	12030
907.79	11885
907.907	11942
908.023	12091
908.139	12034
908.256	11923
908.372	11904
908.488	11942
908.604	11786
908.72	11691
908.836	11824
908.952	11638
909.068	11729
909.184	11878
909.3	11817
909.415	11878
909.531	11786
909.647	11623
909.762	11543
909.878	11474
909.993	11532
910.108	11547
910.224	11512
910.339	11566
910.454	11463
910.57	11459
910.685	11372
910.8	11592
910.915	11608
911.03	11467
911.145	11311
911.259	11201
911.374	11201
911.489	11178
911.604	11140
911.718	10900
911.833	11014
911.947	10839
912.062	10881
912.176	11003
912.291	11029
912.405	10957
912.519	11170
912.633	11174
912.748	10984
912.862	11067
912.976	10942
913.09	10748
913.204	10862
913.318	10984
913.431	11003
913.545	10911
913.659	10946
913.772	10961
913.886	10778
914	10767
914.113	10854
914.226	10873
914.34	10786
914.453	10634
914.566	10835
914.68	10679
914.793	10759
914.906	10527
915.019	10367
915.132	10405
915.245	10569
915.358	10447
915.47	10481
915.583	10500
915.696	10523
915.809	10573
915.921	10641
916.034	10478
916.146	10447
916.259	10405
916.371	10599
916.483	10573
916.595	10447
916.708	10455
916.82	10481
916.932	10371
917.044	10466
917.156	10402
917.268	10272
917.38	10398
917.491	10356
917.603	10382
917.715	10360
917.826	10489
917.938	10318
918.049	10299
918.161	10329
918.272	10519
918.384	10440
918.495	10409
918.606	10211
918.717	10169
918.828	10150
918.939	10238
919.05	10112
919.161	10223
919.272	9998
919.383	10071
919.494	10287
919.604	10542
919.715	10215
919.826	10093
919.936	10200
920.047	10207
920.157	10246
920.267	10462
920.378	10352
920.488	10147
920.598	10428
920.708	10542
920.818	10405
920.928	10398
921.038	10603
921.148	10516
921.258	10196
921.368	10177
921.477	10173
921.587	10086
921.697	10055
921.806	10112
921.916	9915
922.025	9724
922.134	9747
922.244	9743
922.353	9857
922.462	9690
922.571	9671
922.68	9469
922.789	9469
922.898	9462
923.007	9462
923.116	9534
923.224	9420
923.333	9500
923.442	9424
923.55	9332
923.659	9389
923.767	9435
923.876	9386
923.984	9420
924.092	9359
924.201	9397
924.309	9340
924.417	9416
924.525	9291
924.633	9348
924.741	10291
924.849	9135
924.956	9302
925.064	9097
925.172	9169
925.279	9093
925.387	9188
925.494	9116
925.602	9287
925.709	9195
925.816	9138
925.924	9119
926.031	9195
926.138	9184
926.245	9165
926.352	9047
926.459	9211
926.566	9211
926.673	9138
926.779	8948
926.886	8956
926.993	8864
927.099	8864
927.206	8815
927.312	8834
927.419	8868
927.525	8811
927.631	8842
927.737	8754
927.843	8750
927.95	8587
928.056	8785
928.162	8746
928.267	8777
928.373	9420
928.479	8819
928.585	8617
928.69	8758
928.796	8811
928.901	8640
929.007	8480
929.112	8705
929.218	8629
929.323	8590
929.428	8560
929.533	8731
929.638	8514
929.743	8556
929.848	8632
929.953	8617
930.058	8499
930.163	8309
930.267	8400
930.372	8488
930.477	8347
930.581	8571
930.685	8446
930.79	8336
930.894	8294
930.998	8328
931.103	8408
931.207	8119
931.311	8054
931.415	7986
931.519	7849
931.623	7693
