Data from test_V78500241_2941.txt Node
Date: Fri Mar 25 14:54:11 CST 2022
User: usil
Spectrometer: V785-0024
Trigger mode: 0
Integration Time (sec): 4.000000E-1
Scans to average: 1
Nonlinearity correction enabled: false
Boxcar width: 0
Storing dark spectrum: false
XAxis mode: Wavelengths
Number of Pixels in Spectrum: 1024
>>>>>Begin Spectral Data<<<<<
801.071	22051
801.214	21911
801.356	21800
801.499	21671
801.641	21515
801.783	21370
801.926	21382
802.068	21363
802.211	21355
802.353	21260
802.496	21066
802.638	21024
802.78	20906
802.923	20880
803.065	20765
803.208	20682
803.35	20765
803.492	20876
803.635	20918
803.777	20788
803.919	20823
804.061	21131
804.204	20937
804.346	20746
804.488	20705
804.63	20781
804.773	20689
804.915	20689
805.057	20743
805.199	20621
805.341	20746
805.483	20705
805.626	20838
805.768	20632
805.91	20674
806.052	20705
806.194	20613
806.336	20845
806.478	20617
806.62	20689
806.762	20777
806.904	20849
807.046	21142
807.188	21112
807.33	20998
807.472	21096
807.614	20990
807.756	21020
807.898	20819
808.04	20712
808.182	20834
808.324	20735
808.465	20887
808.607	21062
808.749	21180
808.891	21195
809.033	21268
809.174	21131
809.316	21070
809.458	20971
809.6	21009
809.741	21108
809.883	21176
810.025	21233
810.166	21260
810.308	21176
810.45	21230
810.591	21039
810.733	20990
810.875	20845
811.016	20731
811.158	20781
811.299	20864
811.441	20876
811.582	21116
811.724	20811
811.865	20800
812.007	20758
812.148	20807
812.29	20815
812.431	21051
812.573	21214
812.714	21279
812.855	21180
812.997	21454
813.138	21507
813.279	21443
813.421	21325
813.562	21176
813.703	21226
813.845	21039
813.986	20716
814.127	20473
814.268	20492
814.41	20446
814.551	20301
814.692	20469
814.833	20244
814.974	20339
815.115	20446
815.256	20294
815.397	20267
815.539	20298
815.68	20176
815.821	20107
815.962	20183
816.103	20122
816.244	19974
816.385	19803
816.526	19826
816.666	19734
816.807	19582
816.948	19597
817.089	19632
817.23	19563
817.371	19468
817.512	19529
817.653	19616
817.793	19472
817.934	19556
818.075	19521
818.216	19438
818.356	19483
818.497	19274
818.638	19206
818.778	19141
818.919	19145
819.06	19118
819.2	19232
819.341	19468
819.481	19354
819.622	19533
819.762	19776
819.903	19620
820.043	19563
820.184	19453
820.324	19441
820.465	19533
820.605	19540
820.746	19411
820.886	19217
821.026	19472
821.167	19430
821.307	19563
821.447	19358
821.588	19377
821.728	19232
821.868	19103
822.008	18863
822.149	18909
822.289	19000
822.429	18646
822.569	18620
822.709	18677
822.849	18399
822.99	18471
823.13	18353
823.27	18334
823.41	18155
823.55	18129
823.69	18228
823.83	18220
823.97	18098
824.11	17973
824.25	17764
824.389	17859
824.529	18087
824.669	18053
824.809	18087
824.949	18114
825.089	17973
825.228	17958
825.368	17756
825.508	17847
825.648	17855
825.787	17855
825.927	17855
826.067	17703
826.206	17737
826.346	17699
826.485	17767
826.625	17600
826.765	17904
826.904	17847
827.044	17398
827.183	17440
827.323	17467
827.462	17417
827.601	17402
827.741	17429
827.88	17410
828.02	17334
828.159	17337
828.298	17448
828.437	17471
828.577	17402
828.716	17596
828.855	17497
828.994	17208
829.134	17216
829.273	17246
829.412	17090
829.551	17083
829.69	17132
829.829	17174
829.968	17288
830.107	17242
830.246	17124
830.385	17067
830.524	17098
830.663	16957
830.802	16847
830.941	16839
831.08	16805
831.219	16839
831.357	16877
831.496	17029
831.635	16744
831.774	16653
831.913	16790
832.051	16653
832.19	16504
832.329	16634
832.467	16546
832.606	16527
832.744	16516
832.883	16512
833.022	16478
833.16	16527
833.299	16523
833.437	16542
833.576	16584
833.714	16535
833.852	16573
833.991	16580
834.129	16554
834.267	16497
834.406	16603
834.544	16535
834.682	16607
834.821	16500
834.959	16721
835.097	16504
835.235	16641
835.373	16580
835.511	16569
835.65	16352
835.788	16390
835.926	16287
836.064	16261
836.202	16226
836.34	16470
836.478	16504
836.615	16447
836.753	16421
836.891	16500
837.029	16409
837.167	16398
837.305	16402
837.443	16322
837.58	16238
837.718	16409
837.856	16280
837.993	16284
838.131	16329
838.269	16230
838.406	16158
838.544	16128
838.681	16013
838.819	16006
838.956	15713
839.094	15831
839.231	15793
839.369	15979
839.506	16200
839.643	16139
839.781	15812
839.918	15724
840.055	15937
840.193	15831
840.33	15701
840.467	15785
840.604	15812
840.742	16105
840.879	15743
841.016	15736
841.153	15701
841.29	15998
841.427	15812
841.564	15865
841.701	15854
841.838	15827
841.975	15736
842.112	15774
842.249	15660
842.385	15595
842.522	15690
842.659	15660
842.796	15473
842.933	15679
843.069	15488
843.206	15545
843.343	15625
843.479	15561
843.616	15557
843.752	15401
843.889	15496
844.025	15488
844.162	15367
844.298	15511
844.435	15431
844.571	15378
844.708	15462
844.844	15580
844.98	15603
845.117	15523
845.253	15302
845.389	15222
845.525	15302
845.661	15287
845.798	15074
845.934	15195
846.07	15150
846.206	15237
846.342	15291
846.478	15192
846.614	15085
846.75	14906
846.886	14956
847.022	15085
847.158	14971
847.294	14872
847.429	14998
847.565	14982
847.701	15233
847.837	14785
847.972	14629
848.108	14804
848.244	14769
848.379	14571
848.515	14560
848.65	14545
848.786	14552
848.921	14602
849.057	14724
849.192	14712
849.328	14625
849.463	14571
849.598	14480
849.734	14495
849.869	14415
850.004	14317
850.14	14442
850.275	14336
850.41	14278
850.545	14301
850.68	14328
850.815	14328
850.95	14343
851.085	14549
851.22	14385
851.355	14347
851.49	14263
851.625	14328
851.76	14385
851.895	14278
852.03	14199
852.165	14313
852.299	14393
852.434	14427
852.569	14438
852.703	14286
852.838	14431
852.973	14545
853.107	14423
853.242	14278
853.376	14218
853.511	14050
853.645	14081
853.78	14229
853.914	14240
854.048	14084
854.183	14164
854.317	14244
854.451	14351
854.585	14145
854.72	14149
854.854	14328
854.988	14119
855.122	14199
855.256	14031
855.39	14263
855.524	14320
855.658	14168
855.792	14145
855.926	14199
856.06	14176
856.194	14267
856.327	14210
856.461	14168
856.595	14259
856.729	14161
856.862	14294
856.996	14256
857.13	14355
857.263	14393
857.397	14290
857.53	14176
857.664	14248
857.797	14301
857.931	14370
858.064	14244
858.197	14275
858.331	14214
858.464	14195
858.597	14119
858.731	14206
858.864	14088
858.997	14153
859.13	14271
859.263	14282
859.396	14248
859.529	14237
859.662	14172
859.795	14271
859.928	14286
860.061	14298
860.194	14366
860.327	14164
860.46	14157
860.592	14259
860.725	14248
860.858	14328
860.99	14199
861.123	14126
861.256	14248
861.388	14153
861.521	14842
861.653	14046
861.786	13978
861.918	14043
862.05	13970
862.183	14092
862.315	14187
862.447	14180
862.58	14149
862.712	13974
862.844	13902
862.976	14005
863.108	13986
863.24	14267
863.372	13921
863.504	13989
863.636	13986
863.768	14008
863.9	13982
864.032	13906
864.164	14016
864.296	13951
864.428	14119
864.559	14073
864.691	14100
864.823	14107
864.954	13993
865.086	14046
865.217	13989
865.349	13890
865.48	13955
865.612	13963
865.743	14031
865.875	13982
866.006	13944
866.137	13967
866.269	13902
866.4	13993
866.531	13818
866.662	13909
866.793	13849
866.924	13883
867.055	14020
867.186	14035
867.317	14012
867.448	13871
867.579	13917
867.71	13947
867.841	13799
867.972	14035
868.103	14016
868.233	13955
868.364	13955
868.495	14016
868.625	14210
868.756	14294
868.886	14168
869.017	14180
869.147	14290
869.278	14343
869.408	14309
869.539	14149
869.669	14195
869.799	14210
869.929	14370
870.06	14317
870.19	14454
870.32	14488
870.45	14568
870.58	14522
870.71	14663
870.84	14750
870.97	14598
871.1	14564
871.23	14644
871.36	14853
871.489	14769
871.619	14758
871.749	14838
871.879	14804
872.008	14887
872.138	14838
872.267	14792
872.397	14670
872.526	14583
872.656	14568
872.785	14648
872.915	14861
873.044	14933
873.173	14960
873.303	14834
873.432	14830
873.561	14861
873.69	14902
873.819	14883
873.948	14975
874.077	14887
874.206	14762
874.335	14864
874.464	14921
874.593	15119
874.722	15135
874.851	15237
874.979	15241
875.108	15260
875.237	15074
875.365	15085
875.494	15131
875.623	15176
875.751	15104
875.88	15138
876.008	15351
876.136	15374
876.265	15656
876.393	15682
876.521	15614
876.65	15622
876.778	15641
876.906	15473
877.034	15481
877.162	15587
877.29	15511
877.418	15614
877.546	15595
877.674	15648
877.802	15561
877.93	15580
878.058	15618
878.185	15515
878.313	15618
878.441	15561
878.568	15466
878.696	15557
878.824	15603
878.951	15637
879.079	15705
879.206	15823
879.333	15759
879.461	15500
879.588	15755
879.715	15762
879.842	15789
879.97	15606
880.097	15408
880.224	15488
880.351	15473
880.478	15458
880.605	15408
880.732	15313
880.859	15663
880.986	15447
881.112	15431
881.239	15264
881.366	15226
881.493	15192
881.619	14986
881.746	15211
881.872	15135
881.999	15104
882.125	15116
882.252	15207
882.378	15146
882.505	15138
882.631	14963
882.757	14929
882.883	14933
883.01	14937
883.136	14872
883.262	14758
883.388	14708
883.514	14861
883.64	14956
883.766	14918
883.892	14811
884.018	14796
884.143	14941
884.269	15001
884.395	14777
884.52	14583
884.646	14568
884.772	14545
884.897	14530
885.023	14625
885.148	14777
885.274	14765
885.399	14743
885.524	14644
885.65	14613
885.775	14682
885.9	14594
886.025	14769
886.15	14674
886.275	14522
886.4	14480
886.525	14537
886.65	14518
886.775	14556
886.9	14750
887.025	14788
887.149	14579
887.274	14503
887.399	14533
887.523	14499
887.648	14469
887.773	14278
887.897	14465
888.021	14450
888.146	14488
888.27	14617
888.395	14514
888.519	14571
888.643	14511
888.767	14560
888.891	14366
889.015	14324
889.139	14434
889.263	14282
889.387	14457
889.511	14560
889.635	14457
889.759	14305
889.883	14298
890.006	14320
890.13	14393
890.254	14244
890.377	14256
890.501	14138
890.624	14123
890.748	14259
890.871	14035
890.995	13944
891.118	13947
891.241	14050
891.364	14096
891.488	14168
891.611	13944
891.734	14058
891.857	14027
891.98	14065
892.103	14145
892.226	14077
892.349	14005
892.471	13856
892.594	13959
892.717	13967
892.839	14062
892.962	14039
893.085	14058
893.207	14043
893.33	13822
893.452	13963
893.575	14039
893.697	14016
893.819	14248
893.941	14088
894.064	14202
894.186	13879
894.308	13997
894.43	14202
894.552	14214
894.674	14123
894.796	13913
894.918	14062
895.04	14008
895.161	14187
895.283	14088
895.405	14054
895.526	14107
895.648	14096
895.769	14168
895.891	14218
896.012	14180
896.134	14187
896.255	14111
896.376	14111
896.498	14142
896.619	14282
896.74	14199
896.861	14259
896.982	14552
897.103	14693
897.224	14450
897.345	14419
897.466	14317
897.587	14511
897.708	14606
897.828	14469
897.949	14473
898.07	14476
898.19	14492
898.311	14587
898.431	14434
898.552	14507
898.672	14670
898.792	14598
898.913	14541
899.033	14530
899.153	14499
899.273	14332
899.393	14385
899.513	14511
899.633	14309
899.753	14465
899.873	14343
899.993	14507
900.113	14374
900.232	14450
900.352	14362
900.472	14237
900.591	14206
900.711	14381
900.83	14248
900.95	14393
901.069	14332
901.189	14240
901.308	13944
901.427	13951
901.546	13955
901.665	13837
901.784	14008
901.904	13871
902.023	13597
902.141	13521
902.26	13575
902.379	13609
902.498	13476
902.617	13491
902.735	13506
902.854	13430
902.973	13525
903.091	13202
903.21	13202
903.328	13213
903.446	13206
903.565	13084
903.683	13099
903.801	12882
903.919	13126
904.038	13012
904.156	12894
904.274	12970
904.392	12920
904.51	12875
904.627	12943
904.745	12993
904.863	12901
904.981	12688
905.098	12597
905.216	12616
905.334	12700
905.451	12601
905.569	12589
905.686	12604
905.803	12506
905.921	12346
906.038	12532
906.155	12498
906.272	12296
906.389	12407
906.506	12197
906.623	12163
906.74	12175
906.857	12068
906.974	12133
907.091	12289
907.208	12220
907.324	12167
907.441	12121
907.557	11977
907.674	11874
907.79	11821
907.907	11901
908.023	12007
908.139	12038
908.256	11828
908.372	11923
908.488	11942
908.604	11710
908.72	11581
908.836	11733
908.952	11634
909.068	11729
909.184	11805
909.3	11668
909.415	11737
909.531	11737
909.647	11421
909.762	11436
909.878	11474
909.993	11532
910.108	11501
910.224	11376
910.339	11482
910.454	11341
910.57	11261
910.685	11201
910.8	11577
910.915	11581
911.03	11269
911.145	11147
911.259	11166
911.374	11227
911.489	11094
911.604	11079
911.718	10953
911.833	10915
911.947	10706
912.062	10824
912.176	10858
912.291	10987
912.405	10858
912.519	10999
912.633	11124
912.748	10953
912.862	10949
912.976	10831
913.09	10721
913.204	10706
913.318	10835
913.431	10900
913.545	10889
913.659	10847
913.772	10809
913.886	10725
914	10656
914.113	10839
914.226	10759
914.34	10736
914.453	10500
914.566	10744
914.68	10694
914.793	10607
914.906	10512
915.019	10413
915.132	10417
915.245	10451
915.358	10497
915.47	10363
915.583	10481
915.696	10455
915.809	10618
915.921	10504
916.034	10360
916.146	10367
916.259	10371
916.371	10405
916.483	10405
916.595	10409
916.708	10409
916.82	10379
916.932	10367
917.044	10284
917.156	10314
917.268	10276
917.38	10230
917.491	10215
917.603	10272
917.715	10341
917.826	10409
917.938	10268
918.049	10135
918.161	10238
918.272	10379
918.384	10348
918.495	10253
918.606	10166
918.717	9994
918.828	10147
918.939	10131
919.05	10086
919.161	10105
919.272	9937
919.383	10010
919.494	10227
919.604	10394
919.715	10246
919.826	10120
919.936	10055
920.047	10230
920.157	10242
920.267	10375
920.378	10204
920.488	10147
920.598	10386
920.708	10516
920.818	10322
920.928	10409
921.038	10523
921.148	10466
921.258	10238
921.368	10135
921.477	9994
921.587	10010
921.697	9869
921.806	10082
921.916	9915
922.025	9709
922.134	9720
922.244	9656
922.353	9732
922.462	9629
922.571	9564
922.68	9431
922.789	9344
922.898	9435
923.007	9351
923.116	9405
923.224	9378
923.333	9412
923.442	9332
923.55	9302
923.659	9348
923.767	9408
923.876	9233
923.984	9382
924.092	9233
924.201	9268
924.309	9272
924.417	9378
924.525	9203
924.633	9275
924.741	10207
924.849	9077
924.956	9230
925.064	9108
925.172	9028
925.279	9039
925.387	9089
925.494	9017
925.602	9237
925.709	9188
925.816	8956
925.924	9077
926.031	9135
926.138	9100
926.245	9097
926.352	9024
926.459	9165
926.566	9119
926.673	9070
926.779	8975
926.886	8853
926.993	8769
927.099	8777
927.206	8727
927.312	8762
927.419	8823
927.525	8750
927.631	8819
927.737	8788
927.843	8659
927.95	8587
928.056	8697
928.162	8758
928.267	8701
928.373	9325
928.479	8785
928.585	8610
928.69	8697
928.796	8689
928.901	8663
929.007	8503
929.112	8621
929.218	8537
929.323	8530
929.428	8457
929.533	8670
929.638	8446
929.743	8442
929.848	8602
929.953	8564
930.058	8446
930.163	8294
930.267	8294
930.372	8358
930.477	8252
930.581	8419
930.685	8374
930.79	8210
930.894	8237
930.998	8244
931.103	8400
931.207	8012
931.311	7951
931.415	7936
931.519	7750
931.623	7753
