Data from test_V78500241_1549.txt Node
Date: Fri Mar 25 14:44:30 CST 2022
User: usil
Spectrometer: V785-0024
Trigger mode: 0
Integration Time (sec): 4.000000E-1
Scans to average: 1
Nonlinearity correction enabled: false
Boxcar width: 0
Storing dark spectrum: false
XAxis mode: Wavelengths
Number of Pixels in Spectrum: 1024
>>>>>Begin Spectral Data<<<<<
801.071	22360
801.214	22234
801.356	22013
801.499	21899
801.641	21785
801.783	21728
801.926	21743
802.068	21454
802.211	21656
802.353	21526
802.496	21469
802.638	21287
802.78	21264
802.923	21195
803.065	21074
803.208	21058
803.35	21119
803.492	21184
803.635	21116
803.777	21138
803.919	21142
804.061	21450
804.204	21203
804.346	21066
804.488	20990
804.63	20895
804.773	20891
804.915	20925
805.057	21146
805.199	21100
805.341	21070
805.483	21135
805.626	21123
805.768	20986
805.91	21055
806.052	21036
806.194	21058
806.336	21074
806.478	20994
806.62	21009
806.762	21116
806.904	21218
807.046	21496
807.188	21424
807.33	21416
807.472	21424
807.614	21298
807.756	21302
807.898	21226
808.04	21173
808.182	21173
808.324	21264
808.465	21321
808.607	21526
808.749	21587
808.891	21671
809.033	21800
809.174	21561
809.316	21481
809.458	21595
809.6	21519
809.741	21614
809.883	21523
810.025	21679
810.166	21610
810.308	21679
810.45	21580
810.591	21500
810.733	21397
810.875	21313
811.016	21195
811.158	21039
811.299	21252
811.441	21412
811.582	21469
811.724	21218
811.865	21184
812.007	21180
812.148	21184
812.29	21294
812.431	21401
812.573	21576
812.714	21595
812.855	21667
812.997	21770
813.138	21861
813.279	21713
813.421	21679
813.562	21595
813.703	21557
813.845	21466
813.986	21192
814.127	21001
814.268	20815
814.41	20868
814.551	20861
814.692	20750
814.833	20739
814.974	20674
815.115	20697
815.256	20640
815.397	20598
815.539	20594
815.68	20480
815.821	20358
815.962	20541
816.103	20446
816.244	20389
816.385	20317
816.526	20256
816.666	20035
816.807	19970
816.948	19959
817.089	20046
817.23	19883
817.371	19936
817.512	19875
817.653	19906
817.793	19856
817.934	19921
818.075	19921
818.216	19940
818.356	19898
818.497	19753
818.638	19578
818.778	19521
818.919	19525
819.06	19643
819.2	19689
819.341	19852
819.481	19753
819.622	19833
819.762	20225
819.903	20119
820.043	19913
820.184	19947
820.324	19963
820.465	19963
820.605	19791
820.746	19852
820.886	19693
821.026	19940
821.167	19723
821.307	19917
821.447	19913
821.588	19624
821.728	19571
821.868	19472
822.008	19304
822.149	19312
822.289	19187
822.429	19019
822.569	18989
822.709	18989
822.849	18722
822.99	18776
823.13	18722
823.27	18719
823.41	18559
823.55	18555
823.69	18570
823.83	18570
823.97	18517
824.11	18285
824.25	18372
824.389	18342
824.529	18407
824.669	18414
824.809	18395
824.949	18467
825.089	18464
825.228	18346
825.368	18148
825.508	18182
825.648	18266
825.787	18129
825.927	18178
826.067	18121
826.206	18064
826.346	18079
826.485	18224
826.625	18133
826.765	18083
826.904	18140
827.044	17988
827.183	17893
827.323	17779
827.462	17874
827.601	17767
827.741	17840
827.88	17783
828.02	17729
828.159	17824
828.298	17714
828.437	17786
828.577	17764
828.716	17916
828.855	17832
828.994	17524
829.134	17581
829.273	17562
829.412	17543
829.551	17448
829.69	17505
829.829	17596
829.968	17615
830.107	17646
830.246	17699
830.385	17486
830.524	17520
830.663	17311
830.802	17318
830.941	17136
831.08	17200
831.219	17223
831.357	17140
831.496	17452
831.635	17307
831.774	17037
831.913	17025
832.051	16949
832.19	17090
832.329	16972
832.467	16843
832.606	16839
832.744	16965
832.883	16889
833.022	16797
833.16	16911
833.299	16828
833.437	16896
833.576	16980
833.714	16915
833.852	16900
833.991	16927
834.129	16987
834.267	16938
834.406	16896
834.544	16854
834.682	16866
834.821	16946
834.959	16987
835.097	16835
835.235	16953
835.373	16949
835.511	16968
835.65	16828
835.788	16786
835.926	16622
836.064	16569
836.202	16542
836.34	16831
836.478	16839
836.615	16805
836.753	16847
836.891	16831
837.029	16828
837.167	16687
837.305	16752
837.443	16675
837.58	16615
837.718	16634
837.856	16710
837.993	16649
838.131	16717
838.269	16516
838.406	16599
838.544	16508
838.681	16386
838.819	16257
838.956	16219
839.094	16265
839.231	16291
839.369	16394
839.506	16573
839.643	16413
839.781	16173
839.918	16207
840.055	16200
840.193	16188
840.33	16173
840.467	16173
840.604	16207
840.742	16421
840.879	15937
841.016	16200
841.153	16116
841.29	16238
841.427	16200
841.564	16268
841.701	16360
841.838	16200
841.975	16067
842.112	16074
842.249	16029
842.385	15998
842.522	16158
842.659	16032
842.796	15956
842.933	16074
843.069	15888
843.206	15873
843.343	16112
843.479	15960
843.616	16044
843.752	15789
843.889	15694
844.025	16013
844.162	15698
844.298	15857
844.435	15781
844.571	15865
844.708	15736
844.844	15987
844.98	15903
845.117	15812
845.253	15770
845.389	15599
845.525	15759
845.661	15778
845.798	15694
845.934	15751
846.07	15720
846.206	15698
846.342	15778
846.478	15625
846.614	15443
846.75	15355
846.886	15325
847.022	15450
847.158	15336
847.294	15317
847.429	15256
847.565	15279
847.701	15576
847.837	15081
847.972	15085
848.108	15138
848.244	15093
848.379	14967
848.515	15020
848.65	14918
848.786	14918
848.921	14921
849.057	15028
849.192	14979
849.328	14876
849.463	14948
849.598	14990
849.734	14830
849.869	14724
850.004	14720
850.14	14663
850.275	14727
850.41	14655
850.545	14716
850.68	14625
850.815	14621
850.95	14583
851.085	14853
851.22	14800
851.355	14682
851.49	14686
851.625	14632
851.76	14648
851.895	14549
852.03	14598
852.165	14610
852.299	14610
852.434	14716
852.569	14750
852.703	14716
852.838	14720
852.973	14823
853.107	14792
853.242	14644
853.376	14522
853.511	14480
853.645	14518
853.78	14750
853.914	14625
854.048	14473
854.183	14484
854.317	14587
854.451	14678
854.585	14488
854.72	14488
854.854	14659
854.988	14461
855.122	14461
855.256	14412
855.39	14457
855.524	14594
855.658	14606
855.792	14594
855.926	14625
856.06	14564
856.194	14720
856.327	14492
856.461	14556
856.595	14431
856.729	14575
856.862	14549
856.996	14575
857.13	14560
857.263	14667
857.397	14606
857.53	14545
857.664	14533
857.797	14701
857.931	14701
858.064	14556
858.197	14640
858.331	14556
858.464	14587
858.597	14400
858.731	14530
858.864	14514
858.997	14511
859.13	14594
859.263	14545
859.396	14613
859.529	14461
859.662	14446
859.795	14431
859.928	14590
860.061	14670
860.194	14678
860.327	14610
860.46	14541
860.592	14617
860.725	14701
860.858	14545
860.99	14617
861.123	14431
861.256	14457
861.388	14575
861.521	15154
861.653	14381
861.786	14358
861.918	14328
862.05	14415
862.183	14461
862.315	14499
862.447	14552
862.58	14571
862.712	14229
862.844	14218
862.976	14355
863.108	14309
863.24	14830
863.372	14195
863.504	14396
863.636	14263
863.768	14351
863.9	14336
864.032	14282
864.164	14374
864.296	14278
864.428	14530
864.559	14454
864.691	14465
864.823	14499
864.954	14309
865.086	14404
865.217	14400
865.349	14275
865.48	14332
865.612	14290
865.743	14526
865.875	14298
866.006	14256
866.137	14317
866.269	14317
866.4	14332
866.531	14176
866.662	14153
866.793	14309
866.924	14267
867.055	14248
867.186	14259
867.317	14248
867.448	14142
867.579	14172
867.71	14183
867.841	14119
867.972	14240
868.103	14252
868.233	14366
868.364	14263
868.495	14328
868.625	14552
868.756	14598
868.886	14522
869.017	14484
869.147	14632
869.278	14632
869.408	14583
869.539	14560
869.669	14488
869.799	14537
869.929	14530
870.06	14701
870.19	14937
870.32	14792
870.45	14880
870.58	14982
870.71	14982
870.84	15032
870.97	14956
871.1	14857
871.23	15116
871.36	15184
871.489	15036
871.619	15039
871.749	15119
871.879	15123
872.008	15154
872.138	15184
872.267	15173
872.397	15017
872.526	14994
872.656	14880
872.785	15032
872.915	15169
873.044	15199
873.173	15245
873.303	15249
873.432	15230
873.561	15287
873.69	15256
873.819	15180
873.948	15241
874.077	15184
874.206	15207
874.335	15093
874.464	15367
874.593	15405
874.722	15458
874.851	15614
874.979	15386
875.108	15420
875.237	15488
875.365	15477
875.494	15504
875.623	15606
875.751	15496
875.88	15523
876.008	15698
876.136	15720
876.265	15892
876.393	16063
876.521	15964
876.65	15979
876.778	15884
876.906	15846
877.034	15781
877.162	15800
877.29	15770
877.418	15918
877.546	15918
877.674	15880
877.802	15861
877.93	15983
878.058	15831
878.185	15736
878.313	15846
878.441	15812
878.568	15816
878.696	15930
878.824	15960
878.951	15991
879.079	16120
879.206	16352
879.333	16112
879.461	16074
879.588	16223
879.715	16097
879.842	16276
879.97	16029
880.097	15861
880.224	15732
880.351	15690
880.478	15785
880.605	15667
880.732	15797
880.859	16032
880.986	15861
881.112	15800
881.239	15679
881.366	15576
881.493	15447
881.619	15526
881.746	15412
881.872	15397
881.999	15386
882.125	15374
882.252	15538
882.378	15405
882.505	15545
882.631	15416
882.757	15195
882.883	15211
883.01	15237
883.136	15161
883.262	15123
883.388	15028
883.514	15237
883.64	15291
883.766	15119
883.892	15009
884.018	15180
884.143	15188
884.269	15256
884.395	14979
884.52	14845
884.646	14971
884.772	14906
884.897	14804
885.023	14857
885.148	15097
885.274	15165
885.399	15017
885.524	14933
885.65	15043
885.775	14880
885.9	14941
886.025	15043
886.15	15062
886.275	14887
886.4	14845
886.525	14876
886.65	14902
886.775	14891
886.9	15013
887.025	15112
887.149	14982
887.274	14777
887.399	14727
887.523	14765
887.648	14720
887.773	14568
887.897	14857
888.021	14861
888.146	14765
888.27	14880
888.395	14861
888.519	14788
888.643	14800
888.767	14804
888.891	14644
889.015	14625
889.139	14712
889.263	14594
889.387	14617
889.511	14861
889.635	14781
889.759	14625
889.883	14530
890.006	14735
890.13	14667
890.254	14590
890.377	14564
890.501	14400
890.624	14404
890.748	14537
890.871	14389
890.995	14252
891.118	14202
891.241	14298
891.364	14358
891.488	14343
891.611	14377
891.734	14339
891.857	14358
891.98	14461
892.103	14336
892.226	14336
892.349	14290
892.471	14084
892.594	14275
892.717	14320
892.839	14290
892.962	14278
893.085	14389
893.207	14221
893.33	14233
893.452	14221
893.575	14320
893.697	14263
893.819	14473
893.941	14450
894.064	14427
894.186	14332
894.308	14206
894.43	14393
894.552	14393
894.674	14438
894.796	14381
894.918	14290
895.04	14282
895.161	14385
895.283	14465
895.405	14347
895.526	14377
895.648	14431
895.769	14377
895.891	14533
896.012	14511
896.134	14537
896.255	14434
896.376	14476
896.498	14400
896.619	14438
896.74	14587
896.861	14560
896.982	14758
897.103	14967
897.224	14815
897.345	14708
897.466	14644
897.587	14769
897.708	14826
897.828	14716
897.949	14804
898.07	14636
898.19	14819
898.311	14925
898.431	14845
898.552	14804
898.672	14963
898.792	14887
898.913	14876
899.033	14781
899.153	14693
899.273	14499
899.393	14621
899.513	14689
899.633	14651
899.753	14724
899.873	14678
899.993	14746
900.113	14617
900.232	14678
900.352	14644
900.472	14590
900.591	14476
900.711	14499
900.83	14526
900.95	14636
901.069	14610
901.189	14495
901.308	14252
901.427	14214
901.546	14153
901.665	14252
901.784	14233
901.904	14168
902.023	13997
902.141	13868
902.26	13780
902.379	13864
902.498	13776
902.617	13811
902.735	13860
902.854	13841
902.973	13647
903.091	13548
903.21	13495
903.328	13483
903.446	13495
903.565	13381
903.683	13377
903.801	13217
903.919	13365
904.038	13316
904.156	13152
904.274	13156
904.392	13141
904.51	13194
904.627	13285
904.745	13247
904.863	13228
904.981	12935
905.098	12825
905.216	12757
905.334	12989
905.451	12962
905.569	12772
905.686	12833
905.803	12848
905.921	12658
906.038	12741
906.155	12757
906.272	12506
906.389	12585
906.506	12418
906.623	12467
906.74	12433
906.857	12369
906.974	12350
907.091	12471
907.208	12578
907.324	12528
907.441	12445
907.557	12209
907.674	12175
907.79	12152
907.907	12106
908.023	12190
908.139	12186
908.256	12019
908.372	12057
908.488	12011
908.604	11901
908.72	11916
908.836	11954
908.952	11958
909.068	12030
909.184	12022
909.3	11931
909.415	12045
909.531	11889
909.647	11638
909.762	11707
909.878	11688
909.993	11756
910.108	11680
910.224	11615
910.339	11707
910.454	11665
910.57	11482
910.685	11532
910.8	11741
910.915	11668
911.03	11577
911.145	11467
911.259	11440
911.374	11395
911.489	11337
911.604	11288
911.718	11117
911.833	11223
911.947	11132
912.062	11014
912.176	11079
912.291	11204
912.405	11132
912.519	11220
912.633	11406
912.748	11170
912.862	11121
912.976	11102
913.09	10809
913.204	11010
913.318	11067
913.431	11162
913.545	11109
913.659	11045
913.772	11075
913.886	10908
914	10869
914.113	11029
914.226	11113
914.34	10927
914.453	10809
914.566	10984
914.68	10835
914.793	10862
914.906	10782
915.019	10596
915.132	10596
915.245	10603
915.358	10675
915.47	10622
915.583	10653
915.696	10717
915.809	10790
915.921	10774
916.034	10641
916.146	10538
916.259	10558
916.371	10634
916.483	10649
916.595	10546
916.708	10683
916.82	10607
916.932	10558
917.044	10538
917.156	10607
917.268	10379
917.38	10478
917.491	10421
917.603	10497
917.715	10588
917.826	10630
917.938	10466
918.049	10356
918.161	10504
918.272	10668
918.384	10691
918.495	10470
918.606	10352
918.717	10268
918.828	10409
918.939	10360
919.05	10295
919.161	10325
919.272	10112
919.383	10207
919.494	10367
919.604	10546
919.715	10413
919.826	10314
919.936	10367
920.047	10402
920.157	10363
920.267	10641
920.378	10466
920.488	10390
920.598	10603
920.708	10748
920.818	10550
920.928	10500
921.038	10740
921.148	10675
921.258	10402
921.368	10341
921.477	10295
921.587	10204
921.697	10192
921.806	10265
921.916	10112
922.025	9972
922.134	9846
922.244	9846
922.353	10032
922.462	9755
922.571	9819
922.68	9614
922.789	9656
922.898	9599
923.007	9523
923.116	9656
923.224	9633
923.333	9580
923.442	9458
923.55	9504
923.659	9488
923.767	9587
923.876	9481
923.984	9511
924.092	9458
924.201	9435
924.309	9496
924.417	9545
924.525	9344
924.633	9450
924.741	10371
924.849	9283
924.956	9363
925.064	9253
925.172	9180
925.279	9131
925.387	9241
925.494	9253
925.602	9389
925.709	9351
925.816	9169
925.924	9264
926.031	9313
926.138	9287
926.245	9321
926.352	9207
926.459	9317
926.566	9298
926.673	9241
926.779	9062
926.886	9100
926.993	8979
927.099	8952
927.206	8918
927.312	8921
927.419	9017
927.525	8994
927.631	8967
927.737	8906
927.843	8895
927.95	8739
928.056	8842
928.162	8857
928.267	8948
928.373	9473
928.479	8979
928.585	8727
928.69	8849
928.796	8883
928.901	8754
929.007	8720
929.112	8720
929.218	8731
929.323	8632
929.428	8670
929.533	8830
929.638	8617
929.743	8651
929.848	8727
929.953	8648
930.058	8598
930.163	8404
930.267	8438
930.372	8583
930.477	8381
930.581	8629
930.685	8492
930.79	8374
930.894	8412
930.998	8374
931.103	8488
931.207	8202
931.311	8111
931.415	8058
931.519	7890
931.623	7864
