Data from test_V78500241_1394.txt Node
Date: Fri Mar 25 14:43:25 CST 2022
User: usil
Spectrometer: V785-0024
Trigger mode: 0
Integration Time (sec): 4.000000E-1
Scans to average: 1
Nonlinearity correction enabled: false
Boxcar width: 0
Storing dark spectrum: false
XAxis mode: Wavelengths
Number of Pixels in Spectrum: 1024
>>>>>Begin Spectral Data<<<<<
801.071	22569
801.214	22409
801.356	22116
801.499	21987
801.641	21823
801.783	21804
801.926	21812
802.068	21838
802.211	21770
802.353	21667
802.496	21340
802.638	21302
802.78	21249
802.923	21199
803.065	21077
803.208	21146
803.35	21165
803.492	21306
803.635	21302
803.777	21032
803.919	21283
804.061	21488
804.204	21203
804.346	21058
804.488	21009
804.63	21131
804.773	20899
804.915	21108
805.057	21336
805.199	21081
805.341	21157
805.483	21237
805.626	21127
805.768	21024
805.91	21192
806.052	21024
806.194	21005
806.336	21199
806.478	21077
806.62	21066
806.762	21077
806.904	21306
807.046	21469
807.188	21466
807.33	21500
807.472	21644
807.614	21401
807.756	21466
807.898	21336
808.04	21241
808.182	21260
808.324	21397
808.465	21389
808.607	21587
808.749	21717
808.891	21755
809.033	21804
809.174	21728
809.316	21648
809.458	21720
809.6	21530
809.741	21538
809.883	21717
810.025	21823
810.166	21648
810.308	21755
810.45	21675
810.591	21408
810.733	21397
810.875	21294
811.016	21230
811.158	21161
811.299	21374
811.441	21416
811.582	21405
811.724	21294
811.865	21207
812.007	21332
812.148	21199
812.29	21336
812.431	21382
812.573	21652
812.714	21641
812.855	21804
812.997	21850
813.138	21907
813.279	21793
813.421	21698
813.562	21724
813.703	21477
813.845	21374
813.986	21039
814.127	20982
814.268	20887
814.41	20895
814.551	20682
814.692	20807
814.833	20697
814.974	20712
815.115	20807
815.256	20663
815.397	20708
815.539	20769
815.68	20488
815.821	20488
815.962	20587
816.103	20454
816.244	20393
816.385	20366
816.526	20263
816.666	20062
816.807	20058
816.948	20096
817.089	20069
817.23	20012
817.371	19970
817.512	19856
817.653	19963
817.793	19898
817.934	19936
818.075	20001
818.216	20008
818.356	20012
818.497	19757
818.638	19582
818.778	19575
818.919	19639
819.06	19689
819.2	19788
819.341	19769
819.481	19750
819.622	19963
819.762	20202
819.903	20050
820.043	19982
820.184	19974
820.324	19856
820.465	20027
820.605	19944
820.746	19883
820.886	19772
821.026	19868
821.167	19909
821.307	19799
821.447	19856
821.588	19780
821.728	19590
821.868	19445
822.008	19324
822.149	19350
822.289	19225
822.429	19084
822.569	18943
822.709	19046
822.849	18772
822.99	18791
823.13	18734
823.27	18711
823.41	18532
823.55	18547
823.69	18540
823.83	18669
823.97	18608
824.11	18330
824.25	18300
824.389	18407
824.529	18464
824.669	18467
824.809	18433
824.949	18502
825.089	18338
825.228	18361
825.368	18201
825.508	18209
825.648	18239
825.787	18300
825.927	18273
826.067	18102
826.206	18136
826.346	18254
826.485	18228
826.625	18144
826.765	18388
826.904	18171
827.044	17931
827.183	17973
827.323	17855
827.462	17904
827.601	17840
827.741	17927
827.88	17882
828.02	17691
828.159	17874
828.298	17980
828.437	17999
828.577	17840
828.716	17965
828.855	17748
828.994	17611
829.134	17623
829.273	17684
829.412	17566
829.551	17429
829.69	17532
829.829	17695
829.968	17707
830.107	17570
830.246	17638
830.385	17562
830.524	17501
830.663	17452
830.802	17242
830.941	17178
831.08	17246
831.219	17307
831.357	17288
831.496	17379
831.635	17185
831.774	17132
831.913	17064
832.051	16953
832.19	17037
832.329	17109
832.467	16927
832.606	16843
832.744	16812
832.883	16942
833.022	16908
833.16	16793
833.299	16949
833.437	16987
833.576	16976
833.714	16908
833.852	17048
833.991	16961
834.129	17117
834.267	17022
834.406	16953
834.544	16991
834.682	17041
834.821	16938
834.959	17242
835.097	17010
835.235	17086
835.373	17018
835.511	17014
835.65	16854
835.788	16938
835.926	16786
836.064	16721
836.202	16660
836.34	16915
836.478	17105
836.615	16862
836.753	16957
836.891	16984
837.029	16847
837.167	16805
837.305	16805
837.443	16828
837.58	16755
837.718	16778
837.856	16805
837.993	16683
838.131	16721
838.269	16634
838.406	16645
838.544	16752
838.681	16447
838.819	16394
838.956	16249
839.094	16291
839.231	16375
839.369	16459
839.506	16584
839.643	16500
839.781	16322
839.918	16306
840.055	16341
840.193	16398
840.33	16306
840.467	16348
840.604	16432
840.742	16512
840.879	16268
841.016	16181
841.153	16173
841.29	16333
841.427	16329
841.564	16295
841.701	16196
841.838	16268
841.975	16105
842.112	16280
842.249	16051
842.385	15937
842.522	16219
842.659	16173
842.796	16029
842.933	16029
843.069	15994
843.206	16109
843.343	16082
843.479	16097
843.616	16109
843.752	15876
843.889	15930
844.025	15975
844.162	15747
844.298	16051
844.435	15854
844.571	15656
844.708	15972
844.844	16002
844.98	16002
845.117	15979
845.253	15842
845.389	15762
845.525	15907
845.661	15873
845.798	15869
845.934	15979
846.07	15861
846.206	15953
846.342	16097
846.478	15873
846.614	15557
846.75	15431
846.886	15359
847.022	15530
847.158	15450
847.294	15401
847.429	15485
847.565	15264
847.701	15591
847.837	15184
847.972	15070
848.108	15214
848.244	15283
848.379	15001
848.515	14979
848.65	15051
848.786	14998
848.921	15032
849.057	15116
849.192	15116
849.328	15062
849.463	15058
849.598	15036
849.734	14921
849.869	14883
850.004	14811
850.14	14807
850.275	14777
850.41	14670
850.545	14781
850.68	14727
850.815	14845
850.95	14830
851.085	14906
851.22	14819
851.355	14769
851.49	14739
851.625	14705
851.76	14610
851.895	14670
852.03	14610
852.165	14739
852.299	14834
852.434	14849
852.569	14739
852.703	14849
852.838	14807
852.973	14902
853.107	14960
853.242	14762
853.376	14617
853.511	14571
853.645	14606
853.78	14670
853.914	14663
854.048	14682
854.183	14575
854.317	14636
854.451	14796
854.585	14636
854.72	14541
854.854	14720
854.988	14575
855.122	14602
855.256	14545
855.39	14583
855.524	14724
855.658	14629
855.792	14762
855.926	14632
856.06	14716
856.194	14720
856.327	14526
856.461	14705
856.595	14594
856.729	14621
856.862	14659
856.996	14727
857.13	14674
857.263	14739
857.397	14769
857.53	14693
857.664	14701
857.797	14781
857.931	14754
858.064	14727
858.197	14689
858.331	14629
858.464	14632
858.597	14454
858.731	14610
858.864	14636
858.997	14617
859.13	14762
859.263	14716
859.396	14769
859.529	14587
859.662	14530
859.795	14678
859.928	14511
860.061	14785
860.194	14735
860.327	14682
860.46	14697
860.592	14731
860.725	14705
860.858	14648
860.99	14655
861.123	14541
861.256	14541
861.388	14526
861.521	15348
861.653	14522
861.786	14438
861.918	14488
862.05	14522
862.183	14594
862.315	14617
862.447	14720
862.58	14636
862.712	14423
862.844	14400
862.976	14522
863.108	14408
863.24	14883
863.372	14347
863.504	14412
863.636	14385
863.768	14480
863.9	14355
864.032	14343
864.164	14362
864.296	14499
864.428	14461
864.559	14480
864.691	14488
864.823	14495
864.954	14423
865.086	14408
865.217	14370
865.349	14244
865.48	14476
865.612	14381
865.743	14571
865.875	14404
866.006	14412
866.137	14362
866.269	14317
866.4	14377
866.531	14278
866.662	14324
866.793	14320
866.924	14286
867.055	14419
867.186	14366
867.317	14377
867.448	14313
867.579	14317
867.71	14309
867.841	14218
867.972	14473
868.103	14446
868.233	14377
868.364	14381
868.495	14385
868.625	14571
868.756	14564
868.886	14522
869.017	14610
869.147	14727
869.278	14708
869.408	14659
869.539	14655
869.669	14724
869.799	14648
869.929	14750
870.06	14693
870.19	14944
870.32	14864
870.45	15036
870.58	15024
870.71	15135
870.84	15161
870.97	15024
871.1	14963
871.23	15249
871.36	15192
871.489	15127
871.619	15108
871.749	15192
871.879	15279
872.008	15355
872.138	15298
872.267	15192
872.397	15112
872.526	15116
872.656	15039
872.785	15020
872.915	15184
873.044	15325
873.173	15329
873.303	15264
873.432	15374
873.561	15389
873.69	15317
873.819	15298
873.948	15355
874.077	15249
874.206	15188
874.335	15306
874.464	15435
874.593	15492
874.722	15591
874.851	15663
874.979	15705
875.108	15652
875.237	15576
875.365	15496
875.494	15542
875.623	15610
875.751	15538
875.88	15641
876.008	15682
876.136	15854
876.265	16051
876.393	16162
876.521	16002
876.65	16101
876.778	16029
876.906	15968
877.034	16048
877.162	16017
877.29	15987
877.418	16029
877.546	16093
877.674	16109
877.802	16067
877.93	16036
878.058	15964
878.185	15926
878.313	16010
878.441	16002
878.568	15949
878.696	15975
878.824	16002
878.951	16150
879.079	16287
879.206	16421
879.333	16265
879.461	16181
879.588	16185
879.715	16405
879.842	16424
879.97	16280
880.097	15876
880.224	15869
880.351	15983
880.478	15994
880.605	15827
880.732	15861
880.859	16059
880.986	15979
881.112	15793
881.239	15789
881.366	15629
881.493	15652
881.619	15542
881.746	15542
881.872	15538
881.999	15568
882.125	15523
882.252	15587
882.378	15553
882.505	15671
882.631	15568
882.757	15336
882.883	15416
883.01	15351
883.136	15310
883.262	15294
883.388	15245
883.514	15283
883.64	15450
883.766	15302
883.892	15207
884.018	15192
884.143	15370
884.269	15439
884.395	15184
884.52	15039
884.646	15074
884.772	14990
884.897	14963
885.023	15100
885.148	15275
885.274	15214
885.399	15241
885.524	15024
885.65	15081
885.775	15055
885.9	15108
886.025	15195
886.15	15138
886.275	14967
886.4	14956
886.525	14998
886.65	14990
886.775	14952
886.9	15146
887.025	15279
887.149	15013
887.274	14857
887.399	14773
887.523	14815
887.648	14777
887.773	14754
887.897	14944
888.021	14994
888.146	14811
888.27	14979
888.395	15036
888.519	14982
888.643	14826
888.767	14998
888.891	14906
889.015	14720
889.139	14906
889.263	14727
889.387	14834
889.511	14918
889.635	14880
889.759	14731
889.883	14663
890.006	14708
890.13	14857
890.254	14746
890.377	14610
890.501	14499
890.624	14511
890.748	14590
890.871	14469
890.995	14469
891.118	14362
891.241	14492
891.364	14438
891.488	14514
891.611	14393
891.734	14412
891.857	14427
891.98	14427
892.103	14450
892.226	14473
892.349	14370
892.471	14229
892.594	14396
892.717	14427
892.839	14381
892.962	14431
893.085	14431
893.207	14370
893.33	14229
893.452	14343
893.575	14431
893.697	14351
893.819	14579
893.941	14530
894.064	14488
894.186	14347
894.308	14286
894.43	14556
894.552	14629
894.674	14537
894.796	14419
894.918	14514
895.04	14366
895.161	14537
895.283	14560
895.405	14374
895.526	14507
895.648	14507
895.769	14575
895.891	14514
896.012	14625
896.134	14552
896.255	14480
896.376	14450
896.498	14499
896.619	14617
896.74	14613
896.861	14533
896.982	14960
897.103	14967
897.224	14910
897.345	14769
897.466	14773
897.587	14746
897.708	14975
897.828	14880
897.949	14731
898.07	14743
898.19	14830
898.311	14975
898.431	14788
898.552	14807
898.672	14979
898.792	15058
898.913	15020
899.033	14864
899.153	14781
899.273	14720
899.393	14720
899.513	14792
899.633	14823
899.753	14758
899.873	14807
899.993	14804
900.113	14674
900.232	14712
900.352	14670
900.472	14712
900.591	14598
900.711	14712
900.83	14610
900.95	14705
901.069	14796
901.189	14564
901.308	14317
901.427	14328
901.546	14214
901.665	14343
901.784	14336
901.904	14225
902.023	14084
902.141	13959
902.26	13887
902.379	14005
902.498	13856
902.617	13757
902.735	13959
902.854	13852
902.973	13803
903.091	13620
903.21	13480
903.328	13575
903.446	13567
903.565	13438
903.683	13384
903.801	13335
903.919	13483
904.038	13369
904.156	13285
904.274	13453
904.392	13278
904.51	13107
904.627	13141
904.745	13266
904.863	13266
904.981	13000
905.098	12947
905.216	12916
905.334	12901
905.451	12943
905.569	13012
905.686	13004
905.803	12867
905.921	12684
906.038	12924
906.155	12920
906.272	12696
906.389	12673
906.506	12521
906.623	12483
906.74	12486
906.857	12399
906.974	12372
907.091	12528
907.208	12696
907.324	12604
907.441	12426
907.557	12205
907.674	12224
907.79	12197
907.907	12239
908.023	12243
908.139	12289
908.256	12186
908.372	12125
908.488	12091
908.604	12041
908.72	12026
908.836	11946
908.952	11954
909.068	12011
909.184	12110
909.3	11965
909.415	11992
909.531	12064
909.647	11817
909.762	11805
909.878	11726
909.993	11790
910.108	11710
910.224	11779
910.339	11756
910.454	11665
910.57	11665
910.685	11551
910.8	11760
910.915	11802
911.03	11630
911.145	11429
911.259	11455
911.374	11452
911.489	11444
911.604	11414
911.718	11212
911.833	11246
911.947	11086
912.062	11086
912.176	11201
912.291	11235
912.405	11166
912.519	11402
912.633	11425
912.748	11250
912.862	11235
912.976	11140
913.09	11006
913.204	11037
913.318	11143
913.431	11178
913.545	11181
913.659	11227
913.772	11094
913.886	10927
914	11025
914.113	11086
914.226	11022
914.34	10991
914.453	10847
914.566	10991
914.68	10953
914.793	10927
914.906	10637
915.019	10752
915.132	10592
915.245	10630
915.358	10774
915.47	10771
915.583	10744
915.696	10645
915.809	10801
915.921	10911
916.034	10694
916.146	10660
916.259	10580
916.371	10694
916.483	10812
916.595	10611
916.708	10588
916.82	10679
916.932	10584
917.044	10607
917.156	10710
917.268	10554
917.38	10603
917.491	10485
917.603	10504
917.715	10516
917.826	10634
917.938	10523
918.049	10371
918.161	10512
918.272	10607
918.384	10675
918.495	10558
918.606	10436
918.717	10272
918.828	10386
918.939	10375
919.05	10367
919.161	10421
919.272	10261
919.383	10303
919.494	10466
919.604	10622
919.715	10462
919.826	10303
919.936	10314
920.047	10523
920.157	10440
920.267	10618
920.378	10504
920.488	10398
920.598	10611
920.708	10748
920.818	10729
920.928	10603
921.038	10820
921.148	10862
921.258	10436
921.368	10344
921.477	10253
921.587	10265
921.697	10158
921.806	10204
921.916	10128
922.025	9975
922.134	10010
922.244	9926
922.353	9998
922.462	9819
922.571	9770
922.68	9622
922.789	9648
922.898	9663
923.007	9534
923.116	9728
923.224	9648
923.333	9644
923.442	9519
923.55	9515
923.659	9564
923.767	9629
923.876	9496
923.984	9595
924.092	9435
924.201	9519
924.309	9538
924.417	9538
924.525	9507
924.633	9534
924.741	10360
924.849	9260
924.956	9488
925.064	9268
925.172	9283
925.279	9245
925.387	9374
925.494	9298
925.602	9405
925.709	9374
925.816	9264
925.924	9272
926.031	9313
926.138	9256
926.245	9344
926.352	9211
926.459	9408
926.566	9401
926.673	9264
926.779	9211
926.886	9142
926.993	9051
927.099	9013
927.206	8982
927.312	8910
927.419	9039
927.525	9017
927.631	8982
927.737	8998
927.843	8838
927.95	8815
928.056	8887
928.162	8918
928.267	8960
928.373	9603
928.479	9017
928.585	8758
928.69	8883
928.796	8921
928.901	8842
929.007	8659
929.112	8804
929.218	8769
929.323	8727
929.428	8670
929.533	8899
929.638	8636
929.743	8686
929.848	8766
929.953	8693
930.058	8560
930.163	8564
930.267	8526
930.372	8613
930.477	8514
930.581	8697
930.685	8518
930.79	8404
930.894	8476
930.998	8374
931.103	8522
931.207	8172
931.311	8100
931.415	8130
931.519	7993
931.623	7898
