Data from test_V78500241_2978.txt Node
Date: Fri Mar 25 14:54:27 CST 2022
User: usil
Spectrometer: V785-0024
Trigger mode: 0
Integration Time (sec): 4.000000E-1
Scans to average: 1
Nonlinearity correction enabled: false
Boxcar width: 0
Storing dark spectrum: false
XAxis mode: Wavelengths
Number of Pixels in Spectrum: 1024
>>>>>Begin Spectral Data<<<<<
801.071	22143
801.214	21911
801.356	21804
801.499	21545
801.641	21469
801.783	21389
801.926	21443
802.068	21435
802.211	21287
802.353	21165
802.496	21009
802.638	20921
802.78	20990
802.923	20868
803.065	20804
803.208	20800
803.35	20815
803.492	20960
803.635	20960
803.777	20807
803.919	20899
804.061	21127
804.204	20857
804.346	20682
804.488	20617
804.63	20765
804.773	20686
804.915	20845
805.057	20777
805.199	20667
805.341	20762
805.483	20830
805.626	20716
805.768	20648
805.91	20727
806.052	20727
806.194	20621
806.336	20883
806.478	20701
806.62	20640
806.762	20868
806.904	20921
807.046	21161
807.188	21089
807.33	21127
807.472	21100
807.614	20963
807.756	20891
807.898	20826
808.04	20811
808.182	20648
808.324	20804
808.465	20773
808.607	20918
808.749	21074
808.891	21154
809.033	21230
809.174	21264
809.316	21108
809.458	21081
809.6	20998
809.741	21096
809.883	21173
810.025	21294
810.166	21249
810.308	21184
810.45	21260
810.591	21199
810.733	20937
810.875	20804
811.016	20678
811.158	20762
811.299	20883
811.441	20941
811.582	21036
811.724	20792
811.865	20800
812.007	20830
812.148	20880
812.29	20975
812.431	21058
812.573	21237
812.714	21249
812.855	21306
812.997	21485
813.138	21599
813.279	21515
813.421	21230
813.562	21332
813.703	21150
813.845	20937
813.986	20781
814.127	20469
814.268	20564
814.41	20419
814.551	20377
814.692	20412
814.833	20438
814.974	20355
815.115	20263
815.256	20377
815.397	20286
815.539	20225
815.68	20161
815.821	20115
815.962	20187
816.103	20088
816.244	19989
816.385	19936
816.526	19837
816.666	19628
816.807	19567
816.948	19540
817.089	19597
817.23	19556
817.371	19537
817.512	19582
817.653	19529
817.793	19422
817.934	19533
818.075	19597
818.216	19525
818.356	19426
818.497	19377
818.638	19133
818.778	19255
818.919	19129
819.06	19236
819.2	19354
819.341	19476
819.481	19346
819.622	19586
819.762	19689
819.903	19544
820.043	19597
820.184	19453
820.324	19415
820.465	19635
820.605	19445
820.746	19518
820.886	19343
821.026	19480
821.167	19308
821.307	19438
821.447	19407
821.588	19179
821.728	19133
821.868	19008
822.008	19004
822.149	18928
822.289	18947
822.429	18601
822.569	18612
822.709	18563
822.849	18353
822.99	18376
823.13	18372
823.27	18338
823.41	18186
823.55	18087
823.69	18186
823.83	18258
823.97	18155
824.11	17939
824.25	17908
824.389	17992
824.529	18003
824.669	18038
824.809	18057
824.949	18072
825.089	18026
825.228	17980
825.368	17745
825.508	17691
825.648	17790
825.787	17703
825.927	17870
826.067	17813
826.206	17707
826.346	17710
826.485	17802
826.625	17642
826.765	17764
826.904	17695
827.044	17486
827.183	17512
827.323	17410
827.462	17463
827.601	17436
827.741	17356
827.88	17395
828.02	17364
828.159	17463
828.298	17402
828.437	17406
828.577	17425
828.716	17528
828.855	17410
828.994	17113
829.134	17204
829.273	17216
829.412	16987
829.551	17071
829.69	17098
829.829	17269
829.968	17299
830.107	17337
830.246	17181
830.385	17102
830.524	17045
830.663	16961
830.802	16923
830.941	16653
831.08	16675
831.219	16877
831.357	16881
831.496	17010
831.635	16694
831.774	16736
831.913	16683
832.051	16580
832.19	16519
832.329	16656
832.467	16519
832.606	16379
832.744	16436
832.883	16588
833.022	16428
833.16	16584
833.299	16588
833.437	16508
833.576	16428
833.714	16554
833.852	16592
833.991	16531
834.129	16618
834.267	16546
834.406	16424
834.544	16459
834.682	16516
834.821	16470
834.959	16797
835.097	16516
835.235	16538
835.373	16634
835.511	16519
835.65	16417
835.788	16432
835.926	16238
836.064	16226
836.202	16249
836.34	16371
836.478	16519
836.615	16413
836.753	16443
836.891	16516
837.029	16516
837.167	16424
837.305	16405
837.443	16299
837.58	16394
837.718	16352
837.856	16371
837.993	16265
838.131	16226
838.269	16234
838.406	16234
838.544	16211
838.681	16002
838.819	15899
838.956	15907
839.094	15766
839.231	15816
839.369	15972
839.506	16234
839.643	16078
839.781	15846
839.918	15641
840.055	15823
840.193	15736
840.33	15819
840.467	15922
840.604	15899
840.742	16158
840.879	15751
841.016	15747
841.153	15717
841.29	15854
841.427	15911
841.564	15884
841.701	15762
841.838	15804
841.975	15720
842.112	15747
842.249	15641
842.385	15614
842.522	15838
842.659	15603
842.796	15584
842.933	15648
843.069	15523
843.206	15466
843.343	15633
843.479	15618
843.616	15637
843.752	15370
843.889	15382
844.025	15553
844.162	15336
844.298	15545
844.435	15424
844.571	15386
844.708	15454
844.844	15519
844.98	15561
845.117	15302
845.253	15351
845.389	15165
845.525	15313
845.661	15264
845.798	15188
845.934	15173
846.07	15131
846.206	15241
846.342	15283
846.478	15093
846.614	15001
846.75	14998
846.886	14952
847.022	15100
847.158	14990
847.294	14960
847.429	15039
847.565	14845
847.701	15154
847.837	14689
847.972	14590
848.108	14853
848.244	14746
848.379	14629
848.515	14480
848.65	14602
848.786	14564
848.921	14587
849.057	14629
849.192	14655
849.328	14716
849.463	14587
849.598	14549
849.734	14507
849.869	14423
850.004	14336
850.14	14381
850.275	14412
850.41	14229
850.545	14172
850.68	14210
850.815	14317
850.95	14248
851.085	14465
851.22	14396
851.355	14343
851.49	14332
851.625	14244
851.76	14237
851.895	14252
852.03	14084
852.165	14317
852.299	14358
852.434	14355
852.569	14320
852.703	14275
852.838	14358
852.973	14503
853.107	14412
853.242	14298
853.376	14214
853.511	14050
853.645	14172
853.78	14252
853.914	14172
854.048	14248
854.183	14088
854.317	14126
854.451	14415
854.585	14187
854.72	14103
854.854	14229
854.988	14153
855.122	14199
855.256	13986
855.39	14073
855.524	14271
855.658	14161
855.792	14187
855.926	14176
856.06	14263
856.194	14362
856.327	14073
856.461	14168
856.595	14187
856.729	14130
856.862	14282
856.996	14210
857.13	14290
857.263	14370
857.397	14290
857.53	14172
857.664	14191
857.797	14275
857.931	14358
858.064	14221
858.197	14271
858.331	14142
858.464	14172
858.597	13989
858.731	14134
858.864	14180
858.997	14256
859.13	14180
859.263	14073
859.396	14358
859.529	14214
859.662	14180
859.795	14130
859.928	14271
860.061	14366
860.194	14358
860.327	14157
860.46	14145
860.592	14332
860.725	14320
860.858	14309
860.99	14153
861.123	14077
861.256	14062
861.388	14210
861.521	14765
861.653	14153
861.786	14035
861.918	14100
862.05	14115
862.183	14176
862.315	14164
862.447	14214
862.58	14130
862.712	13906
862.844	13894
862.976	13986
863.108	14065
863.24	14366
863.372	13875
863.504	13936
863.636	13932
863.768	14031
863.9	14001
864.032	13906
864.164	13913
864.296	13989
864.428	14050
864.559	14043
864.691	14081
864.823	14012
864.954	14069
865.086	14008
865.217	13970
865.349	13898
865.48	13917
865.612	14020
865.743	14050
865.875	13887
866.006	13868
866.137	13993
866.269	13997
866.4	13955
866.531	13871
866.662	13921
866.793	13936
866.924	13871
867.055	13967
867.186	13921
867.317	13890
867.448	13826
867.579	13871
867.71	13887
867.841	13841
867.972	13928
868.103	13940
868.233	13917
868.364	13830
868.495	14031
868.625	14126
868.756	14301
868.886	13936
869.017	14221
869.147	14339
869.278	14256
869.408	14210
869.539	14172
869.669	14275
869.799	14157
869.929	14381
870.06	14320
870.19	14571
870.32	14503
870.45	14457
870.58	14541
870.71	14659
870.84	14689
870.97	14617
871.1	14564
871.23	14819
871.36	14746
871.489	14632
871.619	14705
871.749	14689
871.879	14834
872.008	14887
872.138	14724
872.267	14743
872.397	14659
872.526	14632
872.656	14632
872.785	14629
872.915	14868
873.044	14834
873.173	14857
873.303	14853
873.432	14815
873.561	14861
873.69	14823
873.819	14929
873.948	14887
874.077	14880
874.206	14853
874.335	14754
874.464	14986
874.593	15108
874.722	15017
874.851	15135
874.979	15135
875.108	15135
875.237	15070
875.365	14998
875.494	15218
875.623	15173
875.751	15135
875.88	15169
876.008	15279
876.136	15443
876.265	15603
876.393	15667
876.521	15682
876.65	15587
876.778	15572
876.906	15709
877.034	15603
877.162	15534
877.29	15477
877.418	15606
877.546	15538
877.674	15610
877.802	15633
877.93	15603
878.058	15485
878.185	15504
878.313	15614
878.441	15622
878.568	15401
878.696	15534
878.824	15530
878.951	15587
879.079	15876
879.206	15945
879.333	15755
879.461	15610
879.588	15728
879.715	15854
879.842	15934
879.97	15698
880.097	15393
880.224	15325
880.351	15496
880.478	15458
880.605	15351
880.732	15408
880.859	15728
880.986	15424
881.112	15454
881.239	15367
881.366	15211
881.493	15195
881.619	15116
881.746	15169
881.872	14971
881.999	15005
882.125	15024
882.252	15195
882.378	15058
882.505	15211
882.631	15001
882.757	14868
882.883	14914
883.01	14906
883.136	14811
883.262	14678
883.388	14804
883.514	14914
883.64	15055
883.766	14941
883.892	14674
884.018	14693
884.143	14918
884.269	15013
884.395	14587
884.52	14564
884.646	14499
884.772	14571
884.897	14556
885.023	14594
885.148	14663
885.274	14697
885.399	14777
885.524	14625
885.65	14575
885.775	14644
885.9	14579
886.025	14777
886.15	14648
886.275	14674
886.4	14442
886.525	14461
886.65	14484
886.775	14526
886.9	14758
887.025	14864
887.149	14682
887.274	14522
887.399	14389
887.523	14366
887.648	14381
887.773	14324
887.897	14473
888.021	14415
888.146	14415
888.27	14454
888.395	14484
888.519	14511
888.643	14469
888.767	14511
888.891	14415
889.015	14298
889.139	14415
889.263	14263
889.387	14393
889.511	14473
889.635	14396
889.759	14191
889.883	14157
890.006	14294
890.13	14415
890.254	14145
890.377	14168
890.501	14157
890.624	14065
890.748	14164
890.871	14142
890.995	13944
891.118	13887
891.241	14008
891.364	14031
891.488	14081
891.611	13959
891.734	14043
891.857	14046
891.98	14024
892.103	14054
892.226	14062
892.349	13940
892.471	13765
892.594	13909
892.717	14043
892.839	14039
892.962	14005
893.085	14016
893.207	14050
893.33	13849
893.452	13967
893.575	14115
893.697	14027
893.819	14233
893.941	14229
894.064	14180
894.186	13993
894.308	13989
894.43	14134
894.552	14210
894.674	14069
894.796	14016
894.918	13986
895.04	14012
895.161	14172
895.283	14081
895.405	14081
895.526	14164
895.648	14145
895.769	14107
895.891	14229
896.012	14206
896.134	14164
896.255	14202
896.376	14123
896.498	14218
896.619	14206
896.74	14301
896.861	14256
896.982	14522
897.103	14610
897.224	14579
897.345	14446
897.466	14370
897.587	14431
897.708	14610
897.828	14598
897.949	14419
898.07	14355
898.19	14427
898.311	14598
898.431	14511
898.552	14541
898.672	14625
898.792	14659
898.913	14575
899.033	14423
899.153	14389
899.273	14358
899.393	14332
899.513	14362
899.633	14328
899.753	14374
899.873	14351
899.993	14355
900.113	14336
900.232	14446
900.352	14351
900.472	14370
900.591	14096
900.711	14263
900.83	14237
900.95	14381
901.069	14324
901.189	14240
901.308	13986
901.427	13898
901.546	13883
901.665	13982
901.784	13928
901.904	13883
902.023	13750
902.141	13582
902.26	13510
902.379	13552
902.498	13514
902.617	13426
902.735	13559
902.854	13548
902.973	13388
903.091	13251
903.21	13126
903.328	13149
903.446	13221
903.565	13152
903.683	13187
903.801	13015
903.919	12996
904.038	13080
904.156	12871
904.274	13015
904.392	12916
904.51	12817
904.627	12886
904.745	12916
904.863	12867
904.981	12658
905.098	12646
905.216	12582
905.334	12635
905.451	12578
905.569	12486
905.686	12700
905.803	12582
905.921	12388
906.038	12544
906.155	12426
906.272	12311
906.389	12365
906.506	12213
906.623	12182
906.74	12178
906.857	12076
906.974	12076
907.091	12308
907.208	12350
907.324	12106
907.441	12125
907.557	11870
907.674	11973
907.79	12011
907.907	11775
908.023	11977
908.139	11946
908.256	11935
908.372	11863
908.488	11813
908.604	11733
908.72	11581
908.836	11779
908.952	11680
909.068	11707
909.184	11824
909.3	11653
909.415	11714
909.531	11688
909.647	11364
909.762	11433
909.878	11440
909.993	11547
910.108	11425
910.224	11299
910.339	11543
910.454	11341
910.57	11277
910.685	11231
910.8	11551
910.915	11452
911.03	11406
911.145	11071
911.259	11246
911.374	11189
911.489	11033
911.604	11041
911.718	10892
911.833	10904
911.947	10820
912.062	10702
912.176	10889
912.291	10877
912.405	11067
912.519	11083
912.633	11117
912.748	10965
912.862	10987
912.976	10782
913.09	10702
913.204	10683
913.318	10828
913.431	10835
913.545	10858
913.659	10869
913.772	10782
913.886	10656
914	10687
914.113	10694
914.226	10733
914.34	10805
914.453	10626
914.566	10714
914.68	10664
914.793	10607
914.906	10462
915.019	10443
915.132	10371
915.245	10421
915.358	10493
915.47	10386
915.583	10432
915.696	10451
915.809	10504
915.921	10626
916.034	10421
916.146	10405
916.259	10337
916.371	10398
916.483	10417
916.595	10367
916.708	10333
916.82	10405
916.932	10382
917.044	10375
917.156	10272
917.268	10169
917.38	10287
917.491	10211
917.603	10219
917.715	10432
917.826	10287
917.938	10154
918.049	10173
918.161	10253
918.272	10363
918.384	10382
918.495	10249
918.606	10139
918.717	10055
918.828	10162
918.939	10219
919.05	10044
919.161	10131
919.272	9941
919.383	10036
919.494	10124
919.604	10390
919.715	10158
919.826	10086
919.936	10112
920.047	10120
920.157	10242
920.267	10402
920.378	10211
920.488	10177
920.598	10284
920.708	10607
920.818	10356
920.928	10386
921.038	10508
921.148	10470
921.258	10253
921.368	10143
921.477	10063
921.587	9915
921.697	9922
921.806	10071
921.916	9903
922.025	9793
922.134	9717
922.244	9648
922.353	9789
922.462	9641
922.571	9545
922.68	9466
922.789	9329
922.898	9428
923.007	9397
923.116	9488
923.224	9355
923.333	9351
923.442	9329
923.55	9237
923.659	9313
923.767	9291
923.876	9275
923.984	9355
924.092	9256
924.201	9233
924.309	9378
924.417	9313
924.525	9188
924.633	9199
924.741	10173
924.849	8994
924.956	9325
925.064	9047
925.172	8963
925.279	8963
925.387	9112
925.494	9085
925.602	9253
925.709	9066
925.816	8998
925.924	9081
926.031	9279
926.138	9039
926.245	9173
926.352	8982
926.459	9089
926.566	9180
926.673	9085
926.779	9055
926.886	8861
926.993	8834
927.099	8750
927.206	8750
927.312	8796
927.419	8811
927.525	8781
927.631	8842
927.737	8693
927.843	8629
927.95	8568
928.056	8594
928.162	8769
928.267	8720
928.373	9378
928.479	8811
928.585	8556
928.69	8659
928.796	8731
928.901	8640
929.007	8530
929.112	8594
929.218	8602
929.323	8564
929.428	8549
929.533	8651
929.638	8442
929.743	8469
929.848	8636
929.953	8526
930.058	8393
930.163	8290
930.267	8237
930.372	8370
930.477	8279
930.581	8457
930.685	8370
930.79	8214
930.894	8317
930.998	8206
931.103	8381
931.207	8005
931.311	7940
931.415	7921
931.519	7700
931.623	7784
