Data from test_V78500241_2768.txt Node
Date: Fri Mar 25 14:52:59 CST 2022
User: usil
Spectrometer: V785-0024
Trigger mode: 0
Integration Time (sec): 4.000000E-1
Scans to average: 1
Nonlinearity correction enabled: false
Boxcar width: 0
Storing dark spectrum: false
XAxis mode: Wavelengths
Number of Pixels in Spectrum: 1024
>>>>>Begin Spectral Data<<<<<
801.071	22040
801.214	21884
801.356	21641
801.499	21549
801.641	21557
801.783	21336
801.926	21287
802.068	21397
802.211	21249
802.353	21203
802.496	20975
802.638	20876
802.78	20781
802.923	20811
803.065	20712
803.208	20735
803.35	20788
803.492	20845
803.635	20868
803.777	20754
803.919	20750
804.061	21032
804.204	20826
804.346	20613
804.488	20598
804.63	20697
804.773	20564
804.915	20602
805.057	20632
805.199	20526
805.341	20632
805.483	20792
805.626	20765
805.768	20537
805.91	20754
806.052	20655
806.194	20640
806.336	20785
806.478	20564
806.62	20499
806.762	20636
806.904	20804
807.046	21020
807.188	20956
807.33	21127
807.472	20963
807.614	20868
807.756	20895
807.898	20670
808.04	20640
808.182	20739
808.324	20762
808.465	20739
808.607	20902
808.749	21036
808.891	21081
809.033	21233
809.174	21001
809.316	20929
809.458	20990
809.6	20948
809.741	21131
809.883	21024
810.025	21077
810.166	21116
810.308	21195
810.45	21142
810.591	20887
810.733	20891
810.875	20689
811.016	20754
811.158	20651
811.299	20826
811.441	20979
811.582	20895
811.724	20716
811.865	20739
812.007	20659
812.148	20727
812.29	20769
812.431	20864
812.573	21184
812.714	21047
812.855	21287
812.997	21332
813.138	21492
813.279	21313
813.421	21291
813.562	21066
813.703	21077
813.845	20899
813.986	20682
814.127	20355
814.268	20393
814.41	20396
814.551	20294
814.692	20339
814.833	20221
814.974	20324
815.115	20168
815.256	20172
815.397	20206
815.539	20183
815.68	20054
815.821	19963
815.962	20149
816.103	20088
816.244	19807
816.385	19769
816.526	19723
816.666	19559
816.807	19362
816.948	19647
817.089	19556
817.23	19426
817.371	19441
817.512	19445
817.653	19327
817.793	19324
817.934	19464
818.075	19335
818.216	19396
818.356	19324
818.497	19293
818.638	19065
818.778	19141
818.919	19122
819.06	19164
819.2	19327
819.341	19282
819.481	19301
819.622	19445
819.762	19696
819.903	19548
820.043	19381
820.184	19373
820.324	19419
820.465	19460
820.605	19415
820.746	19403
820.886	19362
821.026	19400
821.167	19339
821.307	19502
821.447	19346
821.588	19160
821.728	18981
821.868	18951
822.008	18806
822.149	18829
822.289	18795
822.429	18570
822.569	18559
822.709	18528
822.849	18429
822.99	18334
823.13	18289
823.27	18369
823.41	18102
823.55	18072
823.69	18064
823.83	18064
823.97	18053
824.11	17870
824.25	17912
824.389	17961
824.529	17904
824.669	17912
824.809	18011
824.949	18076
825.089	17920
825.228	17821
825.368	17745
825.508	17718
825.648	17726
825.787	17729
825.927	17752
826.067	17634
826.206	17573
826.346	17703
826.485	17729
826.625	17661
826.765	17733
826.904	17703
827.044	17509
827.183	17356
827.323	17299
827.462	17482
827.601	17395
827.741	17414
827.88	17383
828.02	17216
828.159	17334
828.298	17398
828.437	17436
828.577	17345
828.716	17528
828.855	17368
828.994	17242
829.134	17193
829.273	17223
829.412	17075
829.551	17113
829.69	17181
829.829	17269
829.968	17246
830.107	17178
830.246	17140
830.385	17109
830.524	17098
830.663	16896
830.802	16862
830.941	16835
831.08	16805
831.219	16885
831.357	16778
831.496	16976
831.635	16679
831.774	16786
831.913	16637
832.051	16653
832.19	16626
832.329	16584
832.467	16500
832.606	16417
832.744	16459
832.883	16367
833.022	16493
833.16	16470
833.299	16466
833.437	16504
833.576	16497
833.714	16436
833.852	16558
833.991	16535
834.129	16679
834.267	16679
834.406	16493
834.544	16519
834.682	16474
834.821	16436
834.959	16679
835.097	16546
835.235	16500
835.373	16561
835.511	16542
835.65	16462
835.788	16500
835.926	16303
836.064	16196
836.202	16249
836.34	16474
836.478	16474
836.615	16443
836.753	16390
836.891	16531
837.029	16481
837.167	16386
837.305	16417
837.443	16291
837.58	16363
837.718	16325
837.856	16371
837.993	16253
838.131	16310
838.269	16226
838.406	16284
838.544	16169
838.681	15975
838.819	15987
838.956	15846
839.094	15842
839.231	15903
839.369	15956
839.506	16215
839.643	16112
839.781	15911
839.918	15876
840.055	15930
840.193	15812
840.33	15846
840.467	15800
840.604	15842
840.742	16112
840.879	15793
841.016	15850
841.153	15819
841.29	15953
841.427	15869
841.564	15876
841.701	15865
841.838	15766
841.975	15720
842.112	15743
842.249	15644
842.385	15622
842.522	15842
842.659	15625
842.796	15656
842.933	15591
843.069	15675
843.206	15595
843.343	15641
843.479	15679
843.616	15667
843.752	15416
843.889	15412
844.025	15561
844.162	15424
844.298	15469
844.435	15485
844.571	15405
844.708	15450
844.844	15500
844.98	15561
845.117	15500
845.253	15340
845.389	15405
845.525	15306
845.661	15389
845.798	15291
845.934	15359
846.07	15230
846.206	15287
846.342	15336
846.478	15173
846.614	15062
846.75	14967
846.886	14952
847.022	15077
847.158	14960
847.294	15100
847.429	15032
847.565	15005
847.701	15180
847.837	14861
847.972	14632
848.108	14823
848.244	14792
848.379	14659
848.515	14518
848.65	14674
848.786	14564
848.921	14648
849.057	14655
849.192	14724
849.328	14648
849.463	14571
849.598	14503
849.734	14602
849.869	14450
850.004	14415
850.14	14324
850.275	14385
850.41	14313
850.545	14278
850.68	14248
850.815	14324
850.95	14313
851.085	14587
851.22	14507
851.355	14362
851.49	14355
851.625	14366
851.76	14301
851.895	14252
852.03	14168
852.165	14336
852.299	14393
852.434	14446
852.569	14457
852.703	14412
852.838	14419
852.973	14415
853.107	14492
853.242	14290
853.376	14221
853.511	14077
853.645	14225
853.78	14370
853.914	14237
854.048	14191
854.183	14263
854.317	14225
854.451	14358
854.585	14248
854.72	14187
854.854	14275
854.988	14210
855.122	14176
855.256	14069
855.39	14191
855.524	14389
855.658	14320
855.792	14286
855.926	14229
856.06	14328
856.194	14469
856.327	14362
856.461	14199
856.595	14206
856.729	14107
856.862	14305
856.996	14263
857.13	14248
857.263	14332
857.397	14313
857.53	14298
857.664	14294
857.797	14351
857.931	14343
858.064	14191
858.197	14351
858.331	14225
858.464	14202
858.597	14126
858.731	14119
858.864	14256
858.997	14252
859.13	14271
859.263	14332
859.396	14305
859.529	14275
859.662	14225
859.795	14180
859.928	14248
860.061	14366
860.194	14488
860.327	14263
860.46	14298
860.592	14412
860.725	14332
860.858	14355
860.99	14233
861.123	14210
861.256	14168
861.388	14248
861.521	14880
861.653	14107
861.786	14157
861.918	14096
862.05	14214
862.183	14161
862.315	14221
862.447	14339
862.58	14187
862.712	14043
862.844	13898
862.976	14058
863.108	14020
863.24	14423
863.372	13890
863.504	14073
863.636	13989
863.768	14031
863.9	13974
864.032	14008
864.164	13989
864.296	14081
864.428	14111
864.559	14107
864.691	14126
864.823	14107
864.954	13974
865.086	14050
865.217	13967
865.349	13909
865.48	14043
865.612	13978
865.743	14138
865.875	14024
866.006	14008
866.137	14001
866.269	14016
866.4	14016
866.531	13913
866.662	13959
866.793	13883
866.924	13989
867.055	14005
867.186	13963
867.317	13974
867.448	13822
867.579	13982
867.71	13894
867.841	13978
867.972	14043
868.103	14046
868.233	14039
868.364	13959
868.495	14046
868.625	14191
868.756	14320
868.886	14199
869.017	14229
869.147	14408
869.278	14339
869.408	14301
869.539	14233
869.669	14263
869.799	14278
869.929	14343
870.06	14393
870.19	14556
870.32	14602
870.45	14556
870.58	14587
870.71	14765
870.84	14701
870.97	14648
871.1	14602
871.23	14807
871.36	14853
871.489	14845
871.619	14804
871.749	14857
871.879	14914
872.008	14960
872.138	14842
872.267	14819
872.397	14648
872.526	14705
872.656	14686
872.785	14750
872.915	14872
873.044	14921
873.173	14937
873.303	14914
873.432	14876
873.561	14918
873.69	14883
873.819	14910
873.948	14902
874.077	14819
874.206	14823
874.335	14998
874.464	15013
874.593	15154
874.722	15131
874.851	15199
874.979	15291
875.108	15310
875.237	15104
875.365	15127
875.494	15252
875.623	15264
875.751	15222
875.88	15230
876.008	15310
876.136	15515
876.265	15603
876.393	15785
876.521	15641
876.65	15713
876.778	15610
876.906	15564
877.034	15591
877.162	15599
877.29	15648
877.418	15584
877.546	15610
877.674	15675
877.802	15618
877.93	15576
878.058	15564
878.185	15485
878.313	15595
878.441	15625
878.568	15481
878.696	15572
878.824	15648
878.951	15709
879.079	15770
879.206	15911
879.333	15778
879.461	15690
879.588	15618
879.715	15823
879.842	15823
879.97	15751
880.097	15469
880.224	15473
880.351	15473
880.478	15534
880.605	15473
880.732	15420
880.859	15675
880.986	15504
881.112	15488
881.239	15329
881.366	15321
881.493	15108
881.619	15211
881.746	15024
881.872	15135
881.999	15043
882.125	15146
882.252	15188
882.378	15226
882.505	15188
882.631	15013
882.757	14967
882.883	15066
883.01	14941
883.136	14819
883.262	14826
883.388	14899
883.514	15081
883.64	15051
883.766	14956
883.892	14758
884.018	14769
884.143	14982
884.269	14952
884.395	14705
884.52	14621
884.646	14625
884.772	14594
884.897	14590
885.023	14682
885.148	14754
885.274	14838
885.399	14788
885.524	14674
885.65	14549
885.775	14659
885.9	14655
886.025	14807
886.15	14682
886.275	14644
886.4	14583
886.525	14613
886.65	14644
886.775	14537
886.9	14724
887.025	14864
887.149	14678
887.274	14438
887.399	14454
887.523	14484
887.648	14442
887.773	14374
887.897	14587
888.021	14522
888.146	14404
888.27	14488
888.395	14659
888.519	14514
888.643	14518
888.767	14476
888.891	14374
889.015	14370
889.139	14404
889.263	14324
889.387	14450
889.511	14522
889.635	14590
889.759	14263
889.883	14229
890.006	14355
890.13	14434
890.254	14305
890.377	14275
890.501	14168
890.624	14103
890.748	14229
890.871	14062
890.995	13974
891.118	14062
891.241	14062
891.364	14077
891.488	14157
891.611	13925
891.734	14123
891.857	14077
891.98	14084
892.103	14164
892.226	14058
892.349	14016
892.471	13860
892.594	13963
892.717	14115
892.839	14050
892.962	14039
893.085	14065
893.207	13978
893.33	13909
893.452	13947
893.575	14138
893.697	14012
893.819	14313
893.941	14218
894.064	14218
894.186	13963
894.308	14001
894.43	14187
894.552	14225
894.674	14195
894.796	14073
894.918	14062
895.04	14210
895.161	14168
895.283	14214
895.405	14016
895.526	14111
895.648	14172
895.769	14199
895.891	14282
896.012	14347
896.134	14210
896.255	14221
896.376	14149
896.498	14290
896.619	14210
896.74	14161
896.861	14282
896.982	14484
897.103	14682
897.224	14537
897.345	14503
897.466	14389
897.587	14438
897.708	14590
897.828	14473
897.949	14427
898.07	14332
898.19	14484
898.311	14636
898.431	14492
898.552	14499
898.672	14670
898.792	14735
898.913	14632
899.033	14511
899.153	14419
899.273	14381
899.393	14381
899.513	14518
899.633	14419
899.753	14457
899.873	14347
899.993	14473
900.113	14492
900.232	14450
900.352	14438
900.472	14351
900.591	14271
900.711	14351
900.83	14233
900.95	14396
901.069	14400
901.189	14252
901.308	14054
901.427	13928
901.546	13989
901.665	13909
901.784	14107
901.904	13890
902.023	13734
902.141	13506
902.26	13518
902.379	13677
902.498	13476
902.617	13438
902.735	13521
902.854	13578
902.973	13457
903.091	13266
903.21	13297
903.328	13198
903.446	13129
903.565	13061
903.683	13050
903.801	12977
903.919	13088
904.038	13152
904.156	12947
904.274	13061
904.392	12916
904.51	12909
904.627	12924
904.745	12928
904.863	12989
904.981	12703
905.098	12593
905.216	12654
905.334	12646
905.451	12658
905.569	12620
905.686	12665
905.803	12631
905.921	12441
906.038	12464
906.155	12437
906.272	12350
906.389	12357
906.506	12186
906.623	12152
906.74	12220
906.857	12163
906.974	12114
907.091	12296
907.208	12395
907.324	12190
907.441	12182
907.557	12030
907.674	12026
907.79	11916
907.907	11954
908.023	12034
908.139	11931
908.256	11942
908.372	11931
908.488	11821
908.604	11771
908.72	11729
908.836	11699
908.952	11688
909.068	11767
909.184	11859
909.3	11688
909.415	11760
909.531	11821
909.647	11585
909.762	11486
909.878	11554
909.993	11543
910.108	11509
910.224	11543
910.339	11573
910.454	11524
910.57	11387
910.685	11315
910.8	11524
910.915	11558
911.03	11372
911.145	11227
911.259	11223
911.374	11231
911.489	11151
911.604	11132
911.718	11003
911.833	11064
911.947	10854
912.062	10805
912.176	10919
912.291	10949
912.405	10915
912.519	11159
912.633	11239
912.748	11048
912.862	10995
912.976	10934
913.09	10793
913.204	10824
913.318	10953
913.431	10934
913.545	10957
913.659	10946
913.772	10927
913.886	10763
914	10714
914.113	10835
914.226	10843
914.34	10862
914.453	10637
914.566	10824
914.68	10668
914.793	10577
914.906	10561
915.019	10421
915.132	10398
915.245	10470
915.358	10474
915.47	10531
915.583	10443
915.696	10527
915.809	10611
915.921	10615
916.034	10455
916.146	10417
916.259	10405
916.371	10542
916.483	10512
916.595	10421
916.708	10375
916.82	10417
916.932	10451
917.044	10402
917.156	10478
917.268	10299
917.38	10333
917.491	10341
917.603	10318
917.715	10413
917.826	10428
917.938	10306
918.049	10253
918.161	10329
918.272	10466
918.384	10478
918.495	10367
918.606	10223
918.717	10200
918.828	10234
918.939	10158
919.05	10166
919.161	10147
919.272	9983
919.383	10135
919.494	10238
919.604	10417
919.715	10192
919.826	10173
919.936	10185
920.047	10318
920.157	10223
920.267	10390
920.378	10287
920.488	10215
920.598	10402
920.708	10565
920.818	10405
920.928	10386
921.038	10611
921.148	10447
921.258	10341
921.368	10185
921.477	10063
921.587	10063
921.697	9949
921.806	10135
921.916	9941
922.025	9728
922.134	9770
922.244	9656
922.353	9797
922.462	9667
922.571	9584
922.68	9424
922.789	9420
922.898	9523
923.007	9408
923.116	9458
923.224	9428
923.333	9462
923.442	9386
923.55	9260
923.659	9485
923.767	9389
923.876	9294
923.984	9405
924.092	9310
924.201	9374
924.309	9332
924.417	9287
924.525	9256
924.633	9382
924.741	10032
924.849	9127
924.956	9230
925.064	9093
925.172	9089
925.279	9055
925.387	9097
925.494	9047
925.602	9207
925.709	9169
925.816	9058
925.924	9100
926.031	9218
926.138	9165
926.245	9161
926.352	9032
926.459	9233
926.566	9237
926.673	9066
926.779	8990
926.886	8979
926.993	8906
927.099	8788
927.206	8807
927.312	8754
927.419	8921
927.525	8899
927.631	8910
927.737	8758
927.843	8716
927.95	8697
928.056	8686
928.162	8682
928.267	8788
928.373	9416
928.479	8861
928.585	8587
928.69	8625
928.796	8682
928.901	8708
929.007	8503
929.112	8663
929.218	8632
929.323	8640
929.428	8495
929.533	8651
929.638	8461
929.743	8537
929.848	8579
929.953	8568
930.058	8434
930.163	8248
930.267	8358
930.372	8465
930.477	8400
930.581	8549
930.685	8419
930.79	8221
930.894	8244
930.998	8279
931.103	8389
931.207	8069
931.311	7986
931.415	7944
931.519	7788
931.623	7780
