Data from test_V78500241_1129.txt Node
Date: Fri Mar 25 14:41:34 CST 2022
User: usil
Spectrometer: V785-0024
Trigger mode: 0
Integration Time (sec): 4.000000E-1
Scans to average: 1
Nonlinearity correction enabled: false
Boxcar width: 0
Storing dark spectrum: false
XAxis mode: Wavelengths
Number of Pixels in Spectrum: 1024
>>>>>Begin Spectral Data<<<<<
801.071	22626
801.214	22516
801.356	22185
801.499	22124
801.641	21983
801.783	21934
801.926	21857
802.068	21804
802.211	21766
802.353	21797
802.496	21515
802.638	21454
802.78	21332
802.923	21420
803.065	21249
803.208	21294
803.35	21233
803.492	21393
803.635	21428
803.777	21370
803.919	21313
804.061	21625
804.204	21329
804.346	21218
804.488	21184
804.63	21306
804.773	21142
804.915	21184
805.057	21336
805.199	21268
805.341	21336
805.483	21439
805.626	21230
805.768	21146
805.91	21222
806.052	21180
806.194	21036
806.336	21389
806.478	21272
806.62	21188
806.762	21272
806.904	21507
807.046	21576
807.188	21580
807.33	21595
807.472	21526
807.614	21542
807.756	21603
807.898	21424
808.04	21329
808.182	21439
808.324	21496
808.465	21530
808.607	21789
808.749	21991
808.891	22017
809.033	22112
809.174	21915
809.316	21736
809.458	21759
809.6	21759
809.741	21797
809.883	21846
810.025	21892
810.166	21998
810.308	21835
810.45	21648
810.591	21679
810.733	21633
810.875	21496
811.016	21378
811.158	21370
811.299	21519
811.441	21511
811.582	21496
811.724	21530
811.865	21367
812.007	21378
812.148	21431
812.29	21389
812.431	21542
812.573	21751
812.714	21831
812.855	21979
812.997	21975
813.138	22097
813.279	22120
813.421	21869
813.562	21892
813.703	21732
813.845	21507
813.986	21268
814.127	21055
814.268	21028
814.41	21036
814.551	21043
814.692	20990
814.833	20902
814.974	20872
815.115	21005
815.256	20754
815.397	20785
815.539	20731
815.68	20689
815.821	20560
815.962	20800
816.103	20617
816.244	20526
816.385	20423
816.526	20396
816.666	20259
816.807	20073
816.948	20103
817.089	20252
817.23	20290
817.371	20149
817.512	20138
817.653	20054
817.793	20142
817.934	20103
818.075	20115
818.216	20210
818.356	20111
818.497	19967
818.638	19704
818.778	19769
818.919	19860
819.06	19887
819.2	19947
819.341	20027
819.481	20103
819.622	20119
819.762	20389
819.903	20237
820.043	20168
820.184	20153
820.324	20050
820.465	20240
820.605	20088
820.746	20077
820.886	20005
821.026	20107
821.167	19989
821.307	20149
821.447	19978
821.588	19898
821.728	19879
821.868	19605
822.008	19571
822.149	19563
822.289	19571
822.429	19411
822.569	19171
822.709	19194
822.849	18989
822.99	19004
823.13	19088
823.27	18848
823.41	18795
823.55	18631
823.69	18783
823.83	18776
823.97	18700
824.11	18509
824.25	18547
824.389	18494
824.529	18483
824.669	18635
824.809	18673
824.949	18715
825.089	18700
825.228	18525
825.368	18441
825.508	18266
825.648	18479
825.787	18540
825.927	18407
826.067	18334
826.206	18292
826.346	18490
826.485	18323
826.625	18372
826.765	18479
826.904	18407
827.044	18121
827.183	18129
827.323	18174
827.462	18140
827.601	18007
827.741	18003
827.88	17961
828.02	17939
828.159	17961
828.298	17973
828.437	18079
828.577	17912
828.716	18163
828.855	18034
828.994	17916
829.134	17851
829.273	17824
829.412	17786
829.551	17729
829.69	17733
829.829	17828
829.968	18007
830.107	17870
830.246	17840
830.385	17779
830.524	17661
830.663	17497
830.802	17474
830.941	17402
831.08	17448
831.219	17505
831.357	17505
831.496	17615
831.635	17482
831.774	17273
831.913	17337
832.051	17227
832.19	17200
832.329	17273
832.467	17227
832.606	17132
832.744	17117
832.883	17140
833.022	17155
833.16	17166
833.299	17185
833.437	17109
833.576	17090
833.714	17094
833.852	17193
833.991	17197
834.129	17303
834.267	17284
834.406	17197
834.544	17147
834.682	17288
834.821	17181
834.959	17398
835.097	17124
835.235	17193
835.373	17174
835.511	17258
835.65	17155
835.788	17117
835.926	16858
836.064	16862
836.202	16999
836.34	17223
836.478	17113
836.615	17003
836.753	17098
836.891	17303
837.029	17140
837.167	17083
837.305	17052
837.443	17105
837.58	16854
837.718	16980
837.856	16949
837.993	16767
838.131	16889
838.269	16828
838.406	16881
838.544	16850
838.681	16691
838.819	16550
838.956	16538
839.094	16474
839.231	16462
839.369	16592
839.506	16858
839.643	16763
839.781	16443
839.918	16417
840.055	16405
840.193	16554
840.33	16428
840.467	16424
840.604	16508
840.742	16763
840.879	16394
841.016	16508
841.153	16379
841.29	16573
841.427	16512
841.564	16554
841.701	16535
841.838	16497
841.975	16409
842.112	16455
842.249	16371
842.385	16147
842.522	16577
842.659	16215
842.796	16223
842.933	16150
843.069	16173
843.206	16242
843.343	16344
843.479	16318
843.616	16268
843.752	16131
843.889	16185
844.025	16188
844.162	16082
844.298	16093
844.435	16124
844.571	15949
844.708	16063
844.844	16287
844.98	16272
845.117	16158
845.253	16105
845.389	15998
845.525	16013
845.661	16192
845.798	16097
845.934	16204
846.07	16188
846.206	16139
846.342	16242
846.478	16025
846.614	15728
846.75	15675
846.886	15724
847.022	15747
847.158	15705
847.294	15698
847.429	15698
847.565	15595
847.701	15736
847.837	15393
847.972	15363
848.108	15526
848.244	15462
848.379	15252
848.515	15203
848.65	15138
848.786	15180
848.921	15230
849.057	15408
849.192	15370
849.328	15325
849.463	15226
849.598	15222
849.734	15100
849.869	15127
850.004	15013
850.14	15009
850.275	14963
850.41	14830
850.545	14906
850.68	14941
850.815	15043
850.95	14994
851.085	15146
851.22	15024
851.355	15085
851.49	14986
851.625	14971
851.76	14918
851.895	14830
852.03	14906
852.165	14925
852.299	15024
852.434	15032
852.569	15017
852.703	15017
852.838	14929
852.973	15165
853.107	15005
853.242	14986
853.376	14842
853.511	14663
853.645	14777
853.78	15017
853.914	14887
854.048	14819
854.183	14769
854.317	14887
854.451	15051
854.585	14785
854.72	14754
854.854	14971
854.988	14670
855.122	14773
855.256	14629
855.39	14819
855.524	14937
855.658	14883
855.792	14804
855.926	14887
856.06	14952
856.194	15005
856.327	14804
856.461	14788
856.595	14826
856.729	14826
856.862	14948
856.996	14853
857.13	14929
857.263	14941
857.397	15058
857.53	14800
857.664	14861
857.797	14944
857.931	14918
858.064	14864
858.197	14967
858.331	14880
858.464	14887
858.597	14769
858.731	14872
858.864	14845
858.997	14899
859.13	14933
859.263	14906
859.396	14948
859.529	14807
859.662	14811
859.795	14765
859.928	14918
860.061	15089
860.194	14979
860.327	14963
860.46	14842
860.592	14921
860.725	14902
860.858	14948
860.99	14861
861.123	14857
861.256	14788
861.388	14849
861.521	15469
861.653	14746
861.786	14743
861.918	14701
862.05	14773
862.183	14769
862.315	14823
862.447	14857
862.58	14720
862.712	14594
862.844	14537
862.976	14804
863.108	14689
863.24	15100
863.372	14560
863.504	14537
863.636	14564
863.768	14617
863.9	14648
864.032	14507
864.164	14522
864.296	14678
864.428	14602
864.559	14769
864.691	14758
864.823	14610
864.954	14689
865.086	14678
865.217	14571
865.349	14469
865.48	14533
865.612	14549
865.743	14724
865.875	14621
866.006	14507
866.137	14720
866.269	14537
866.4	14590
866.531	14556
866.662	14473
866.793	14446
866.924	14495
867.055	14632
867.186	14564
867.317	14518
867.448	14495
867.579	14530
867.71	14450
867.841	14473
867.972	14492
868.103	14575
868.233	14583
868.364	14564
868.495	14602
868.625	14811
868.756	14842
868.886	14819
869.017	14811
869.147	14990
869.278	14971
869.408	14853
869.539	14724
869.669	14902
869.799	14944
869.929	14937
870.06	14918
870.19	15161
870.32	15108
870.45	15157
870.58	15275
870.71	15294
870.84	15279
870.97	15188
871.1	15173
871.23	15401
871.36	15447
871.489	15283
871.619	15488
871.749	15481
871.879	15511
872.008	15561
872.138	15523
872.267	15393
872.397	15252
872.526	15188
872.656	15264
872.785	15237
872.915	15405
873.044	15534
873.173	15553
873.303	15496
873.432	15492
873.561	15530
873.69	15408
873.819	15507
873.948	15625
874.077	15542
874.206	15458
874.335	15523
874.464	15663
874.593	15701
874.722	15713
874.851	15835
874.979	15789
875.108	15759
875.237	15800
875.365	15610
875.494	15709
875.623	15945
875.751	15736
875.88	15816
876.008	15994
876.136	16036
876.265	16139
876.393	16344
876.521	16348
876.65	16200
876.778	16219
876.906	16135
877.034	16207
877.162	16196
877.29	16196
877.418	16192
877.546	16223
877.674	16169
877.802	16207
877.93	16226
878.058	16215
878.185	16185
878.313	16173
878.441	16185
878.568	16105
878.696	16166
878.824	16261
878.951	16348
879.079	16447
879.206	16611
879.333	16592
879.461	16428
879.588	16451
879.715	16527
879.842	16637
879.97	16386
880.097	16230
880.224	16139
880.351	16173
880.478	16166
880.605	16051
880.732	16055
880.859	16344
880.986	16128
881.112	16074
881.239	15983
881.366	15831
881.493	15846
881.619	15743
881.746	15751
881.872	15682
881.999	15823
882.125	15701
882.252	15819
882.378	15774
882.505	15880
882.631	15675
882.757	15538
882.883	15656
883.01	15557
883.136	15469
883.262	15454
883.388	15408
883.514	15603
883.64	15652
883.766	15530
883.892	15336
884.018	15408
884.143	15599
884.269	15671
884.395	15363
884.52	15233
884.646	15226
884.772	15188
884.897	15226
885.023	15268
885.148	15302
885.274	15348
885.399	15367
885.524	15146
885.65	15283
885.775	15260
885.9	15112
886.025	15374
886.15	15321
886.275	15173
886.4	15104
886.525	15211
886.65	15237
886.775	15203
886.9	15500
887.025	15405
887.149	15192
887.274	15047
887.399	15058
887.523	15032
887.648	14925
887.773	14929
887.897	15119
888.021	15074
888.146	15024
888.27	15043
888.395	15207
888.519	15108
888.643	15112
888.767	15104
888.891	15028
889.015	14868
889.139	14906
889.263	14975
889.387	15032
889.511	15039
889.635	15036
889.759	14902
889.883	14891
890.006	14830
890.13	15017
890.254	14807
890.377	14880
890.501	14686
890.624	14568
890.748	14785
890.871	14594
890.995	14545
891.118	14454
891.241	14564
891.364	14587
891.488	14667
891.611	14522
891.734	14655
891.857	14674
891.98	14579
892.103	14648
892.226	14674
892.349	14579
892.471	14469
892.594	14617
892.717	14541
892.839	14587
892.962	14530
893.085	14621
893.207	14575
893.33	14541
893.452	14571
893.575	14579
893.697	14541
893.819	14739
893.941	14804
894.064	14708
894.186	14552
894.308	14613
894.43	14716
894.552	14663
894.674	14708
894.796	14526
894.918	14610
895.04	14689
895.161	14826
895.283	14743
895.405	14583
895.526	14610
895.648	14659
895.769	14735
895.891	14693
896.012	14887
896.134	14731
896.255	14724
896.376	14735
896.498	14712
896.619	14823
896.74	14758
896.861	14868
896.982	15058
897.103	15226
897.224	15043
897.345	14979
897.466	14933
897.587	14967
897.708	15199
897.828	15055
897.949	14956
898.07	14960
898.19	14921
898.311	15100
898.431	14952
898.552	15077
898.672	15146
898.792	15131
898.913	15138
899.033	14990
899.153	14864
899.273	14830
899.393	15017
899.513	14948
899.633	14845
899.753	14929
899.873	14849
899.993	14902
900.113	14876
900.232	14982
900.352	14933
900.472	14758
900.591	14765
900.711	14739
900.83	14769
900.95	14868
901.069	14963
901.189	14682
901.308	14503
901.427	14400
901.546	14495
901.665	14438
901.784	14408
901.904	14343
902.023	14309
902.141	14005
902.26	14043
902.379	14062
902.498	14065
902.617	13986
902.735	14069
902.854	14005
902.973	13982
903.091	13715
903.21	13738
903.328	13666
903.446	13677
903.565	13685
903.683	13605
903.801	13445
903.919	13677
904.038	13605
904.156	13377
904.274	13388
904.392	13350
904.51	13324
904.627	13331
904.745	13411
904.863	13434
904.981	13259
905.098	13046
905.216	13050
905.334	13206
905.451	12981
905.569	12981
905.686	13122
905.803	13171
905.921	12920
906.038	12947
906.155	12859
906.272	12837
906.389	12772
906.506	12726
906.623	12654
906.74	12730
906.857	12642
906.974	12536
907.091	12722
907.208	12753
907.324	12757
907.441	12509
907.557	12418
907.674	12365
907.79	12338
907.907	12357
908.023	12448
908.139	12376
908.256	12384
908.372	12285
908.488	12232
908.604	12190
908.72	12144
908.836	12186
908.952	12140
909.068	12224
909.184	12262
909.3	12110
909.415	12171
909.531	12159
909.647	12019
909.762	11885
909.878	11904
909.993	11961
910.108	11882
910.224	11912
910.339	11958
910.454	11786
910.57	11745
910.685	11653
910.8	12030
910.915	11954
911.03	11832
911.145	11646
911.259	11638
911.374	11570
911.489	11592
911.604	11551
911.718	11299
911.833	11349
911.947	11246
912.062	11151
912.176	11307
912.291	11433
912.405	11311
912.519	11543
912.633	11524
912.748	11436
912.862	11379
912.976	11315
913.09	11052
913.204	11181
913.318	11220
913.431	11307
913.545	11337
913.659	11383
913.772	11242
913.886	11185
914	11090
914.113	11220
914.226	11204
914.34	11212
914.453	10938
914.566	11174
914.68	11086
914.793	11079
914.906	10858
915.019	10778
915.132	10748
915.245	10915
915.358	10850
915.47	10862
915.583	10854
915.696	10881
915.809	10946
915.921	10976
916.034	10904
916.146	10831
916.259	10740
916.371	10843
916.483	10904
916.595	10740
916.708	10759
916.82	10782
916.932	10774
917.044	10774
917.156	10653
917.268	10618
917.38	10694
917.491	10622
917.603	10721
917.715	10660
917.826	10831
917.938	10729
918.049	10641
918.161	10706
918.272	10828
918.384	10710
918.495	10752
918.606	10596
918.717	10474
918.828	10519
918.939	10558
919.05	10485
919.161	10489
919.272	10337
919.383	10402
919.494	10554
919.604	10729
919.715	10535
919.826	10497
919.936	10550
920.047	10569
920.157	10500
920.267	10774
920.378	10599
920.488	10558
920.598	10778
920.708	10843
920.818	10755
920.928	10763
921.038	10835
921.148	10904
921.258	10660
921.368	10558
921.477	10390
921.587	10398
921.697	10287
921.806	10432
921.916	10295
922.025	10120
922.134	10120
922.244	10025
922.353	10131
922.462	9991
922.571	9975
922.68	9774
922.789	9778
922.898	9717
923.007	9713
923.116	9869
923.224	9724
923.333	9789
923.442	9766
923.55	9679
923.659	9625
923.767	9618
923.876	9599
923.984	9759
924.092	9591
924.201	9561
924.309	9629
924.417	9701
924.525	9595
924.633	9637
924.741	10310
924.849	9458
924.956	9542
925.064	9359
925.172	9348
925.279	9382
925.387	9416
925.494	9378
925.602	9519
925.709	9526
925.816	9355
925.924	9401
926.031	9469
926.138	9454
926.245	9485
926.352	9344
926.459	9469
926.566	9519
926.673	9393
926.779	9233
926.886	9298
926.993	9085
927.099	9100
927.206	9131
927.312	9058
927.419	9173
927.525	9104
927.631	9192
927.737	9032
927.843	8967
927.95	8914
928.056	8982
928.162	8994
928.267	9039
928.373	9671
928.479	9074
928.585	8929
928.69	9005
928.796	9066
928.901	8895
929.007	8754
929.112	8956
929.218	8899
929.323	8834
929.428	8842
929.533	8963
929.638	8705
929.743	8785
929.848	8887
929.953	8811
930.058	8724
930.163	8617
930.267	8549
930.372	8727
930.477	8522
930.581	8823
930.685	8670
930.79	8568
930.894	8568
930.998	8514
931.103	8613
931.207	8366
931.311	8229
931.415	8210
931.519	8062
931.623	8012
