Data from test_V78500241_2255.txt Node
Date: Fri Mar 25 14:49:24 CST 2022
User: usil
Spectrometer: V785-0024
Trigger mode: 0
Integration Time (sec): 4.000000E-1
Scans to average: 1
Nonlinearity correction enabled: false
Boxcar width: 0
Storing dark spectrum: false
XAxis mode: Wavelengths
Number of Pixels in Spectrum: 1024
>>>>>Begin Spectral Data<<<<<
801.071	22348
801.214	21991
801.356	21827
801.499	21755
801.641	21652
801.783	21496
801.926	21572
802.068	21420
802.211	21359
802.353	21294
802.496	21085
802.638	21077
802.78	20910
802.923	20887
803.065	20910
803.208	20853
803.35	20902
803.492	21043
803.635	20960
803.777	20918
803.919	20899
804.061	21226
804.204	20918
804.346	20746
804.488	20838
804.63	20819
804.773	20667
804.915	20800
805.057	20746
805.199	20777
805.341	20796
805.483	20906
805.626	20830
805.768	20667
805.91	20842
806.052	20918
806.194	20697
806.336	21020
806.478	20834
806.62	20708
806.762	20838
806.904	21055
807.046	21036
807.188	21169
807.33	21058
807.472	21142
807.614	21001
807.756	20899
807.898	20982
808.04	20868
808.182	20796
808.324	20906
808.465	20975
808.607	21089
808.749	21058
808.891	21287
809.033	21298
809.174	21218
809.316	21024
809.458	21173
809.6	21089
809.741	21157
809.883	21397
810.025	21344
810.166	21431
810.308	21256
810.45	21214
810.591	21173
810.733	20899
810.875	21055
811.016	20834
811.158	20876
811.299	20933
811.441	21081
811.582	20986
811.724	21001
811.865	20975
812.007	20960
812.148	21024
812.29	20971
812.431	21074
812.573	21230
812.714	21359
812.855	21393
812.997	21507
813.138	21690
813.279	21610
813.421	21473
813.562	21359
813.703	21119
813.845	21207
813.986	20785
814.127	20602
814.268	20533
814.41	20594
814.551	20503
814.692	20568
814.833	20366
814.974	20450
815.115	20480
815.256	20415
815.397	20336
815.539	20362
815.68	20271
815.821	20282
815.962	20259
816.103	20183
816.244	20069
816.385	20039
816.526	19936
816.666	19761
816.807	19780
816.948	19731
817.089	19791
817.23	19620
817.371	19506
817.512	19575
817.653	19643
817.793	19628
817.934	19480
818.075	19635
818.216	19594
818.356	19578
818.497	19460
818.638	19263
818.778	19312
818.919	19274
819.06	19304
819.2	19373
819.341	19438
819.481	19434
819.622	19700
819.762	19814
819.903	19715
820.043	19704
820.184	19594
820.324	19480
820.465	19639
820.605	19586
820.746	19628
820.886	19506
821.026	19571
821.167	19472
821.307	19609
821.447	19662
821.588	19426
821.728	19350
821.868	19141
822.008	19019
822.149	19080
822.289	18996
822.429	18738
822.569	18612
822.709	18715
822.849	18395
822.99	18547
823.13	18448
823.27	18509
823.41	18190
823.55	18308
823.69	18304
823.83	18308
823.97	18144
824.11	18171
824.25	18045
824.389	18007
824.529	18159
824.669	18060
824.809	18152
824.949	18186
825.089	18152
825.228	18076
825.368	17840
825.508	17923
825.648	17805
825.787	17897
825.927	17885
826.067	17863
826.206	17760
826.346	17901
826.485	17748
826.625	17893
826.765	17927
826.904	17851
827.044	17589
827.183	17653
827.323	17478
827.462	17760
827.601	17539
827.741	17505
827.88	17611
828.02	17478
828.159	17528
828.298	17604
828.437	17608
828.577	17646
828.716	17592
828.855	17558
828.994	17364
829.134	17178
829.273	17280
829.412	17254
829.551	17269
829.69	17242
829.829	17307
829.968	17372
830.107	17239
830.246	17292
830.385	17185
830.524	17117
830.663	17140
830.802	16946
830.941	16854
831.08	16820
831.219	16927
831.357	16854
831.496	16976
831.635	17052
831.774	16721
831.913	16767
832.051	16675
832.19	16672
832.329	16687
832.467	16645
832.606	16527
832.744	16516
832.883	16493
833.022	16565
833.16	16656
833.299	16668
833.437	16527
833.576	16637
833.714	16668
833.852	16546
833.991	16630
834.129	16656
834.267	16691
834.406	16683
834.544	16641
834.682	16599
834.821	16592
834.959	16816
835.097	16558
835.235	16618
835.373	16611
835.511	16516
835.65	16421
835.788	16443
835.926	16306
836.064	16375
836.202	16344
836.34	16462
836.478	16569
836.615	16462
836.753	16455
836.891	16546
837.029	16527
837.167	16402
837.305	16455
837.443	16386
837.58	16322
837.718	16527
837.856	16325
837.993	16318
838.131	16390
838.269	16337
838.406	16303
838.544	16344
838.681	16055
838.819	16048
838.956	15880
839.094	15960
839.231	16048
839.369	16169
839.506	16303
839.643	16196
839.781	15964
839.918	15880
840.055	15945
840.193	15972
840.33	15907
840.467	15899
840.604	15949
840.742	16276
840.879	15785
841.016	15823
841.153	15854
841.29	16093
841.427	15895
841.564	15915
841.701	15918
841.838	15918
841.975	15861
842.112	15838
842.249	15736
842.385	15728
842.522	15880
842.659	15747
842.796	15671
842.933	15743
843.069	15694
843.206	15644
843.343	15789
843.479	15720
843.616	15701
843.752	15511
843.889	15458
844.025	15701
844.162	15412
844.298	15690
844.435	15447
844.571	15458
844.708	15504
844.844	15595
844.98	15629
845.117	15618
845.253	15439
845.389	15367
845.525	15439
845.661	15416
845.798	15146
845.934	15378
846.07	15184
846.206	15321
846.342	15462
846.478	15321
846.614	15100
846.75	14998
846.886	15039
847.022	15138
847.158	15142
847.294	15058
847.429	15127
847.565	15001
847.701	15230
847.837	14735
847.972	14872
848.108	14849
848.244	14834
848.379	14712
848.515	14598
848.65	14693
848.786	14667
848.921	14659
849.057	14792
849.192	14762
849.328	14636
849.463	14632
849.598	14629
849.734	14545
849.869	14530
850.004	14427
850.14	14503
850.275	14438
850.41	14381
850.545	14408
850.68	14343
850.815	14499
850.95	14336
851.085	14640
851.22	14503
851.355	14431
851.49	14336
851.625	14454
851.76	14412
851.895	14343
852.03	14294
852.165	14408
852.299	14480
852.434	14461
852.569	14400
852.703	14533
852.838	14568
852.973	14560
853.107	14469
853.242	14267
853.376	14298
853.511	14138
853.645	14195
853.78	14317
853.914	14233
854.048	14240
854.183	14123
854.317	14324
854.451	14370
854.585	14351
854.72	14202
854.854	14290
854.988	14282
855.122	14271
855.256	14168
855.39	14191
855.524	14381
855.658	14248
855.792	14339
855.926	14305
856.06	14389
856.194	14495
856.327	14339
856.461	14259
856.595	14199
856.729	14351
856.862	14400
856.996	14298
857.13	14389
857.263	14446
857.397	14408
857.53	14320
857.664	14294
857.797	14358
857.931	14309
858.064	14374
858.197	14301
858.331	14271
858.464	14161
858.597	14199
858.731	14336
858.864	14248
858.997	14256
859.13	14278
859.263	14347
859.396	14347
859.529	14317
859.662	14244
859.795	14218
859.928	14320
860.061	14408
860.194	14454
860.327	14366
860.46	14298
860.592	14423
860.725	14408
860.858	14412
860.99	14237
861.123	14259
861.256	14271
861.388	14248
861.521	14746
861.653	14191
861.786	14126
861.918	14164
862.05	14187
862.183	14221
862.315	14286
862.447	14324
862.58	14195
862.712	14119
862.844	13978
862.976	14096
863.108	14123
863.24	14385
863.372	14020
863.504	14084
863.636	14115
863.768	14111
863.9	14043
864.032	13993
864.164	13989
864.296	14077
864.428	14157
864.559	14176
864.691	14134
864.823	14157
864.954	14130
865.086	14103
865.217	13921
865.349	14031
865.48	14016
865.612	14103
865.743	14324
865.875	14073
866.006	14050
866.137	14005
866.269	14084
866.4	14020
866.531	13989
866.662	13932
866.793	13936
866.924	13986
867.055	14050
867.186	14039
867.317	14008
867.448	13955
867.579	13944
867.71	14058
867.841	14035
867.972	13989
868.103	14077
868.233	14145
868.364	14069
868.495	14161
868.625	14259
868.756	14393
868.886	14282
869.017	14244
869.147	14442
869.278	14473
869.408	14324
869.539	14313
869.669	14381
869.799	14317
869.929	14434
870.06	14511
870.19	14625
870.32	14533
870.45	14507
870.58	14678
870.71	14823
870.84	14792
870.97	14651
871.1	14625
871.23	14830
871.36	14796
871.489	14754
871.619	14826
871.749	14861
871.879	15058
872.008	14960
872.138	14921
872.267	14906
872.397	14853
872.526	14640
872.656	14648
872.785	14731
872.915	14914
873.044	14986
873.173	14918
873.303	15055
873.432	15001
873.561	15028
873.69	15024
873.819	14952
873.948	14914
874.077	14914
874.206	14941
874.335	14963
874.464	15062
874.593	15241
874.722	15173
874.851	15313
874.979	15237
875.108	15382
875.237	15214
875.365	15184
875.494	15252
875.623	15310
875.751	15135
875.88	15325
876.008	15294
876.136	15412
876.265	15663
876.393	15804
876.521	15717
876.65	15766
876.778	15793
876.906	15644
877.034	15629
877.162	15637
877.29	15618
877.418	15679
877.546	15614
877.674	15755
877.802	15705
877.93	15713
878.058	15614
878.185	15481
878.313	15690
878.441	15717
878.568	15393
878.696	15614
878.824	15720
878.951	15751
879.079	15869
879.206	15915
879.333	15827
879.461	15663
879.588	15713
879.715	15865
879.842	15994
879.97	15842
880.097	15534
880.224	15412
880.351	15538
880.478	15412
880.605	15515
880.732	15500
880.859	15762
880.986	15507
881.112	15504
881.239	15447
881.366	15382
881.493	15165
881.619	15237
881.746	15169
881.872	15131
881.999	15127
882.125	15192
882.252	15188
882.378	15264
882.505	15344
882.631	15146
882.757	15085
882.883	15081
883.01	15028
883.136	14971
883.262	14902
883.388	14887
883.514	15097
883.64	15001
883.766	14998
883.892	14773
884.018	14830
884.143	14902
884.269	15058
884.395	14735
884.52	14777
884.646	14750
884.772	14583
884.897	14598
885.023	14697
885.148	14682
885.274	14800
885.399	14819
885.524	14674
885.65	14773
885.775	14682
885.9	14762
886.025	14842
886.15	14807
886.275	14701
886.4	14552
886.525	14655
886.65	14670
886.775	14693
886.9	14750
887.025	14883
887.149	14648
887.274	14549
887.399	14476
887.523	14400
887.648	14454
887.773	14412
887.897	14670
888.021	14575
888.146	14415
888.27	14560
888.395	14731
888.519	14606
888.643	14434
888.767	14606
888.891	14484
889.015	14358
889.139	14431
889.263	14309
889.387	14366
889.511	14568
889.635	14537
889.759	14370
889.883	14389
890.006	14355
890.13	14526
890.254	14377
890.377	14351
890.501	14252
890.624	14111
890.748	14320
890.871	14123
890.995	14077
891.118	14005
891.241	14054
891.364	14062
891.488	14187
891.611	14126
891.734	14111
891.857	14103
891.98	14062
892.103	14084
892.226	14134
892.349	14126
892.471	13951
892.594	14073
892.717	14084
892.839	14058
892.962	14115
893.085	14138
893.207	14062
893.33	13947
893.452	14016
893.575	14214
893.697	14043
893.819	14202
893.941	14229
894.064	14282
894.186	14039
894.308	13978
894.43	14256
894.552	14332
894.674	14225
894.796	14043
894.918	14218
895.04	14172
895.161	14187
895.283	14164
895.405	14191
895.526	14187
895.648	14229
895.769	14282
895.891	14168
896.012	14366
896.134	14374
896.255	14187
896.376	14248
896.498	14282
896.619	14332
896.74	14248
896.861	14385
896.982	14686
897.103	14781
897.224	14560
897.345	14522
897.466	14495
897.587	14454
897.708	14678
897.828	14606
897.949	14518
898.07	14370
898.19	14484
898.311	14648
898.431	14613
898.552	14602
898.672	14674
898.792	14697
898.913	14579
899.033	14533
899.153	14488
899.273	14419
899.393	14461
899.513	14438
899.633	14434
899.753	14545
899.873	14396
899.993	14412
900.113	14370
900.232	14568
900.352	14385
900.472	14408
900.591	14339
900.711	14412
900.83	14271
900.95	14427
901.069	14389
901.189	14229
901.308	14115
901.427	14027
901.546	14016
901.665	14035
901.784	14062
901.904	13955
902.023	13799
902.141	13674
902.26	13597
902.379	13609
902.498	13586
902.617	13499
902.735	13670
902.854	13506
902.973	13438
903.091	13324
903.21	13285
903.328	13331
903.446	13202
903.565	13213
903.683	13152
903.801	13107
903.919	13164
904.038	13118
904.156	13012
904.274	13031
904.392	12920
904.51	12939
904.627	12909
904.745	12985
904.863	13042
904.981	12829
905.098	12608
905.216	12703
905.334	12688
905.451	12642
905.569	12601
905.686	12669
905.803	12684
905.921	12441
906.038	12604
906.155	12589
906.272	12361
906.389	12414
906.506	12285
906.623	12213
906.74	12300
906.857	12216
906.974	12155
907.091	12327
907.208	12350
907.324	12213
907.441	12121
907.557	12041
907.674	12030
907.79	11916
907.907	12026
908.023	12007
908.139	11965
908.256	11954
908.372	11901
908.488	11904
908.604	11691
908.72	11718
908.836	11718
908.952	11627
909.068	11786
909.184	11946
909.3	11798
909.415	11828
909.531	11764
909.647	11478
909.762	11539
909.878	11478
909.993	11532
910.108	11566
910.224	11520
910.339	11509
910.454	11387
910.57	11391
910.685	11322
910.8	11577
910.915	11577
911.03	11490
911.145	11250
911.259	11201
911.374	11170
911.489	11105
911.604	11109
911.718	10995
911.833	11033
911.947	10850
912.062	10714
912.176	10927
912.291	10915
912.405	10965
912.519	11162
912.633	11235
912.748	11041
912.862	10923
912.976	10866
913.09	10710
913.204	10850
913.318	10793
913.431	10866
913.545	11064
913.659	10976
913.772	10850
913.886	10717
914	10660
914.113	10805
914.226	10873
914.34	10843
914.453	10687
914.566	10839
914.68	10691
914.793	10679
914.906	10500
915.019	10447
915.132	10417
915.245	10474
915.358	10493
915.47	10523
915.583	10474
915.696	10508
915.809	10660
915.921	10618
916.034	10455
916.146	10485
916.259	10462
916.371	10546
916.483	10421
916.595	10417
916.708	10478
916.82	10512
916.932	10398
917.044	10462
917.156	10436
917.268	10280
917.38	10276
917.491	10318
917.603	10398
917.715	10390
917.826	10447
917.938	10299
918.049	10223
918.161	10348
918.272	10451
918.384	10443
918.495	10337
918.606	10211
918.717	10185
918.828	10169
918.939	10196
919.05	10048
919.161	10185
919.272	9979
919.383	10063
919.494	10295
919.604	10440
919.715	10230
919.826	10154
919.936	10143
920.047	10299
920.157	10196
920.267	10474
920.378	10249
920.488	10177
920.598	10421
920.708	10516
920.818	10432
920.928	10409
921.038	10523
921.148	10558
921.258	10211
921.368	10158
921.477	10109
921.587	10055
921.697	9983
921.806	10048
921.916	9956
922.025	9816
922.134	9785
922.244	9717
922.353	9838
922.462	9610
922.571	9572
922.68	9492
922.789	9431
922.898	9526
923.007	9424
923.116	9515
923.224	9519
923.333	9504
923.442	9351
923.55	9348
923.659	9378
923.767	9363
923.876	9355
923.984	9355
924.092	9329
924.201	9310
924.309	9279
924.417	9370
924.525	9279
924.633	9321
924.741	10246
924.849	9146
924.956	9287
925.064	9180
925.172	9051
925.279	9070
925.387	9192
925.494	9157
925.602	9211
925.709	9207
925.816	9070
925.924	9138
926.031	9211
926.138	9112
926.245	9203
926.352	9039
926.459	9218
926.566	9222
926.673	9188
926.779	9028
926.886	9058
926.993	8883
927.099	8864
927.206	8815
927.312	8826
927.419	8876
927.525	8842
927.631	8944
927.737	8796
927.843	8724
927.95	8613
928.056	8743
928.162	8804
928.267	8868
928.373	9492
928.479	8861
928.585	8632
928.69	8727
928.796	8792
928.901	8632
929.007	8549
929.112	8640
929.218	8727
929.323	8610
929.428	8549
929.533	8667
929.638	8476
929.743	8568
929.848	8598
929.953	8610
930.058	8533
930.163	8461
930.267	8404
930.372	8457
930.477	8377
930.581	8613
930.685	8473
930.79	8237
930.894	8336
930.998	8290
931.103	8465
931.207	8088
931.311	8043
931.415	7970
931.519	7830
931.623	7803
