Data from test_V78500241_3069.txt Node
Date: Fri Mar 25 14:55:05 CST 2022
User: usil
Spectrometer: V785-0024
Trigger mode: 0
Integration Time (sec): 4.000000E-1
Scans to average: 1
Nonlinearity correction enabled: false
Boxcar width: 0
Storing dark spectrum: false
XAxis mode: Wavelengths
Number of Pixels in Spectrum: 1024
>>>>>Begin Spectral Data<<<<<
801.071	22112
801.214	21964
801.356	21717
801.499	21622
801.641	21458
801.783	21504
801.926	21648
802.068	21386
802.211	21302
802.353	21302
802.496	21028
802.638	20842
802.78	20849
802.923	20838
803.065	20716
803.208	20705
803.35	20845
803.492	20918
803.635	20845
803.777	20765
803.919	20883
804.061	21180
804.204	20861
804.346	20693
804.488	20602
804.63	20743
804.773	20606
804.915	20743
805.057	20762
805.199	20640
805.341	20754
805.483	20754
805.626	20716
805.768	20712
805.91	20746
806.052	20701
806.194	20712
806.336	20724
806.478	20716
806.62	20590
806.762	20606
806.904	20868
807.046	21127
807.188	20971
807.33	21005
807.472	20967
807.614	20948
807.756	20986
807.898	20868
808.04	20788
808.182	20651
808.324	20705
808.465	20815
808.607	20979
808.749	20998
808.891	21062
809.033	21252
809.174	21256
809.316	21028
809.458	21062
809.6	20998
809.741	21157
809.883	21028
810.025	21241
810.166	21188
810.308	21264
810.45	21176
810.591	21123
810.733	20990
810.875	20891
811.016	20765
811.158	20560
811.299	20933
811.441	20895
811.582	20921
811.724	20933
811.865	20895
812.007	20864
812.148	20845
812.29	20941
812.431	21058
812.573	21108
812.714	21386
812.855	21378
812.997	21332
813.138	21469
813.279	21401
813.421	21447
813.562	21180
813.703	21123
813.845	20948
813.986	20613
814.127	20446
814.268	20545
814.41	20305
814.551	20454
814.692	20480
814.833	20278
814.974	20271
815.115	20454
815.256	20286
815.397	20180
815.539	20221
815.68	20088
815.821	20176
815.962	20195
816.103	20058
816.244	20001
816.385	19860
816.526	19750
816.666	19750
816.807	19575
816.948	19708
817.089	19647
817.23	19502
817.371	19487
817.512	19438
817.653	19597
817.793	19392
817.934	19491
818.075	19491
818.216	19392
818.356	19483
818.497	19263
818.638	19217
818.778	19236
818.919	19076
819.06	19171
819.2	19316
819.341	19457
819.481	19350
819.622	19620
819.762	19704
819.903	19567
820.043	19476
820.184	19502
820.324	19491
820.465	19567
820.605	19422
820.746	19594
820.886	19304
821.026	19373
821.167	19411
821.307	19487
821.447	19449
821.588	19430
821.728	19213
821.868	19053
822.008	18875
822.149	18905
822.289	18909
822.429	18608
822.569	18623
822.709	18547
822.849	18437
822.99	18388
823.13	18384
823.27	18414
823.41	18182
823.55	18083
823.69	18281
823.83	18182
823.97	18045
824.11	18049
824.25	17942
824.389	17927
824.529	18003
824.669	17923
824.809	18072
824.949	18003
825.089	18030
825.228	17927
825.368	17813
825.508	17634
825.648	17779
825.787	17649
825.927	17699
826.067	17748
826.206	17687
826.346	17729
826.485	17691
826.625	17592
826.765	17836
826.904	17687
827.044	17532
827.183	17570
827.323	17360
827.462	17433
827.601	17402
827.741	17414
827.88	17421
828.02	17170
828.159	17376
828.298	17440
828.437	17493
828.577	17372
828.716	17474
828.855	17246
828.994	17132
829.134	17178
829.273	17121
829.412	17060
829.551	17022
829.69	17121
829.829	17231
829.968	17292
830.107	17174
830.246	17151
830.385	17185
830.524	16984
830.663	16995
830.802	16881
830.941	16748
831.08	16809
831.219	16831
831.357	16824
831.496	17113
831.635	16717
831.774	16618
831.913	16656
832.051	16668
832.19	16546
832.329	16603
832.467	16405
832.606	16337
832.744	16363
832.883	16440
833.022	16424
833.16	16402
833.299	16504
833.437	16443
833.576	16554
833.714	16508
833.852	16656
833.991	16489
834.129	16569
834.267	16504
834.406	16535
834.544	16542
834.682	16519
834.821	16440
834.959	16653
835.097	16402
835.235	16535
835.373	16527
835.511	16424
835.65	16428
835.788	16421
835.926	16226
836.064	16246
836.202	16265
836.34	16417
836.478	16432
836.615	16390
836.753	16402
836.891	16561
837.029	16417
837.167	16367
837.305	16348
837.443	16291
837.58	16276
837.718	16341
837.856	16280
837.993	16246
838.131	16234
838.269	16211
838.406	16173
838.544	16078
838.681	16002
838.819	15915
838.956	15759
839.094	15724
839.231	15884
839.369	15994
839.506	16192
839.643	16067
839.781	15850
839.918	15823
840.055	15842
840.193	15838
840.33	15774
840.467	15766
840.604	15918
840.742	16048
840.879	15766
841.016	15694
841.153	15717
841.29	15850
841.427	15774
841.564	15793
841.701	15755
841.838	15770
841.975	15599
842.112	15770
842.249	15660
842.385	15576
842.522	15736
842.659	15679
842.796	15507
842.933	15644
843.069	15591
843.206	15454
843.343	15507
843.479	15492
843.616	15644
843.752	15416
843.889	15355
844.025	15500
844.162	15310
844.298	15431
844.435	15329
844.571	15405
844.708	15408
844.844	15545
844.98	15526
845.117	15492
845.253	15306
845.389	15317
845.525	15256
845.661	15199
845.798	15127
845.934	15203
846.07	15074
846.206	15302
846.342	15275
846.478	15127
846.614	14979
846.75	14963
846.886	14990
847.022	15062
847.158	14937
847.294	14967
847.429	14929
847.565	14906
847.701	15154
847.837	14655
847.972	14579
848.108	14731
848.244	14769
848.379	14541
848.515	14446
848.65	14438
848.786	14484
848.921	14526
849.057	14560
849.192	14564
849.328	14587
849.463	14495
849.598	14571
849.734	14415
849.869	14431
850.004	14358
850.14	14370
850.275	14313
850.41	14267
850.545	14298
850.68	14275
850.815	14377
850.95	14328
851.085	14396
851.22	14351
851.355	14332
851.49	14286
851.625	14313
851.76	14301
851.895	14210
852.03	14187
852.165	14282
852.299	14301
852.434	14358
852.569	14366
852.703	14377
852.838	14366
852.973	14423
853.107	14362
853.242	14130
853.376	14256
853.511	14039
853.645	14142
853.78	14301
853.914	14271
854.048	14180
854.183	14142
854.317	14275
854.451	14267
854.585	14149
854.72	14176
854.854	14282
854.988	14100
855.122	14081
855.256	14039
855.39	14210
855.524	14221
855.658	14259
855.792	14180
855.926	14248
856.06	14271
856.194	14320
856.327	14096
856.461	14195
856.595	14191
856.729	14145
856.862	14263
856.996	14313
857.13	14214
857.263	14324
857.397	14347
857.53	14138
857.664	14385
857.797	14202
857.931	14320
858.064	14202
858.197	14313
858.331	14149
858.464	14221
858.597	14058
858.731	14187
858.864	14111
858.997	14043
859.13	14183
859.263	14282
859.396	14229
859.529	14153
859.662	14054
859.795	14157
859.928	14172
860.061	14286
860.194	14389
860.327	14309
860.46	14126
860.592	14282
860.725	14320
860.858	14259
860.99	14294
861.123	14123
861.256	14088
861.388	14153
861.521	14750
861.653	13955
861.786	14065
861.918	14062
862.05	14084
862.183	14206
862.315	14115
862.447	14130
862.58	14164
862.712	13928
862.844	13902
862.976	14016
863.108	14046
863.24	14320
863.372	13887
863.504	14001
863.636	13902
863.768	13963
863.9	13974
864.032	13864
864.164	13909
864.296	14043
864.428	14001
864.559	14149
864.691	14020
864.823	13955
864.954	13894
865.086	13986
865.217	13906
865.349	13887
865.48	13879
865.612	14031
865.743	14145
865.875	13974
866.006	13860
866.137	13974
866.269	13989
866.4	13974
866.531	13811
866.662	13879
866.793	13852
866.924	13894
867.055	13913
867.186	13974
867.317	13879
867.448	13769
867.579	13864
867.71	13784
867.841	13883
867.972	13837
868.103	13974
868.233	13906
868.364	13955
868.495	13967
868.625	14164
868.756	14305
868.886	14062
869.017	14172
869.147	14278
869.278	14301
869.408	14233
869.539	14214
869.669	14252
869.799	14294
869.929	14343
870.06	14374
870.19	14533
870.32	14530
870.45	14522
870.58	14617
870.71	14762
870.84	14682
870.97	14659
871.1	14526
871.23	14792
871.36	14750
871.489	14682
871.619	14697
871.749	14781
871.879	14807
872.008	14872
872.138	14815
872.267	14830
872.397	14640
872.526	14621
872.656	14674
872.785	14583
872.915	14785
873.044	14845
873.173	14872
873.303	14868
873.432	14819
873.561	14872
873.69	14857
873.819	14750
873.948	14937
874.077	14910
874.206	14883
874.335	14910
874.464	14990
874.593	15089
874.722	15081
874.851	15070
874.979	15135
875.108	15199
875.237	15173
875.365	15074
875.494	14990
875.623	15188
875.751	15066
875.88	15283
876.008	15230
876.136	15412
876.265	15580
876.393	15766
876.521	15633
876.65	15629
876.778	15496
876.906	15591
877.034	15450
877.162	15549
877.29	15485
877.418	15561
877.546	15534
877.674	15545
877.802	15545
877.93	15545
878.058	15545
878.185	15496
878.313	15412
878.441	15561
878.568	15458
878.696	15431
878.824	15587
878.951	15671
879.079	15644
879.206	15842
879.333	15652
879.461	15580
879.588	15622
879.715	15686
879.842	15846
879.97	15747
880.097	15424
880.224	15420
880.351	15412
880.478	15458
880.605	15370
880.732	15458
880.859	15637
880.986	15363
881.112	15412
881.239	15329
881.366	15214
881.493	15176
881.619	15119
881.746	15135
881.872	15058
881.999	14941
882.125	15020
882.252	15119
882.378	15062
882.505	15116
882.631	15119
882.757	14941
882.883	14880
883.01	14891
883.136	14853
883.262	14720
883.388	14716
883.514	14921
883.64	14933
883.766	14762
883.892	14727
884.018	14819
884.143	14826
884.269	14925
884.395	14670
884.52	14613
884.646	14587
884.772	14465
884.897	14507
885.023	14667
885.148	14697
885.274	14663
885.399	14682
885.524	14663
885.65	14560
885.775	14571
885.9	14583
886.025	14648
886.15	14667
886.275	14537
886.4	14533
886.525	14530
886.65	14511
886.775	14560
886.9	14758
887.025	14800
887.149	14610
887.274	14450
887.399	14450
887.523	14351
887.648	14298
887.773	14351
887.897	14549
888.021	14503
888.146	14366
888.27	14552
888.395	14526
888.519	14431
888.643	14480
888.767	14522
888.891	14396
889.015	14324
889.139	14355
889.263	14393
889.387	14465
889.511	14457
889.635	14343
889.759	14218
889.883	14305
890.006	14336
890.13	14465
890.254	14240
890.377	14149
890.501	14237
890.624	14134
890.748	14237
890.871	14145
890.995	13982
891.118	13967
891.241	14046
891.364	13947
891.488	14069
891.611	14043
891.734	13997
891.857	14012
891.98	13982
892.103	14107
892.226	14054
892.349	13982
892.471	13909
892.594	14024
892.717	13955
892.839	13898
892.962	14001
893.085	14096
893.207	13959
893.33	13925
893.452	13879
893.575	14084
893.697	14050
893.819	14005
893.941	14233
894.064	14183
894.186	13955
894.308	14001
894.43	14130
894.552	14202
894.674	14161
894.796	14012
894.918	14088
895.04	14107
895.161	14161
895.283	14153
895.405	14172
895.526	14027
895.648	14012
895.769	14221
895.891	14199
896.012	14210
896.134	14199
896.255	14172
896.376	14103
896.498	14199
896.619	14221
896.74	14294
896.861	14275
896.982	14594
897.103	14739
897.224	14488
897.345	14385
897.466	14328
897.587	14450
897.708	14560
897.828	14419
897.949	14560
898.07	14362
898.19	14396
898.311	14644
898.431	14404
898.552	14495
898.672	14606
898.792	14701
898.913	14476
899.033	14427
899.153	14385
899.273	14240
899.393	14328
899.513	14393
899.633	14385
899.753	14473
899.873	14385
899.993	14404
900.113	14434
900.232	14427
900.352	14305
900.472	14309
900.591	14294
900.711	14339
900.83	14210
900.95	14381
901.069	14328
901.189	14210
901.308	14054
901.427	13841
901.546	13993
901.665	13932
901.784	13997
901.904	13925
902.023	13738
902.141	13483
902.26	13586
902.379	13658
902.498	13487
902.617	13491
902.735	13491
902.854	13487
902.973	13358
903.091	13339
903.21	13221
903.328	13145
903.446	13289
903.565	13118
903.683	13114
903.801	13076
903.919	13103
904.038	13061
904.156	12825
904.274	13004
904.392	12954
904.51	12878
904.627	12966
904.745	12928
904.863	12932
904.981	12669
905.098	12532
905.216	12528
905.334	12642
905.451	12582
905.569	12555
905.686	12570
905.803	12540
905.921	12441
906.038	12498
906.155	12506
906.272	12273
906.389	12285
906.506	12197
906.623	12216
906.74	12155
906.857	12087
906.974	12102
907.091	12270
907.208	12308
907.324	12171
907.441	12060
907.557	11977
907.674	11859
907.79	11817
907.907	11821
908.023	11904
908.139	11961
908.256	11859
908.372	11805
908.488	11756
908.604	11661
908.72	11592
908.836	11722
908.952	11585
909.068	11718
909.184	11863
909.3	11699
909.415	11729
909.531	11691
909.647	11455
909.762	11410
909.878	11372
909.993	11376
910.108	11459
910.224	11376
910.339	11455
910.454	11417
910.57	11296
910.685	11242
910.8	11604
910.915	11459
911.03	11379
911.145	11162
911.259	11132
911.374	11166
911.489	11048
911.604	11064
911.718	10892
911.833	10942
911.947	10862
912.062	10740
912.176	10873
912.291	10930
912.405	10881
912.519	11124
912.633	11105
912.748	10961
912.862	10881
912.976	10782
913.09	10740
913.204	10786
913.318	10782
913.431	10892
913.545	10968
913.659	10873
913.772	10873
913.886	10664
914	10660
914.113	10736
914.226	10752
914.34	10736
914.453	10550
914.566	10729
914.68	10645
914.793	10656
914.906	10375
915.019	10405
915.132	10333
915.245	10390
915.358	10436
915.47	10417
915.583	10451
915.696	10497
915.809	10573
915.921	10569
916.034	10394
916.146	10363
916.259	10333
916.371	10447
916.483	10402
916.595	10363
916.708	10382
916.82	10440
916.932	10318
917.044	10394
917.156	10344
917.268	10173
917.38	10299
917.491	10112
917.603	10322
917.715	10322
917.826	10348
917.938	10204
918.049	10128
918.161	10207
918.272	10318
918.384	10371
918.495	10287
918.606	10177
918.717	10112
918.828	10109
918.939	10128
919.05	10013
919.161	10131
919.272	9918
919.383	10010
919.494	10158
919.604	10337
919.715	10025
919.826	10188
919.936	10082
920.047	10188
920.157	10207
920.267	10367
920.378	10219
920.488	10154
920.598	10337
920.708	10561
920.818	10382
920.928	10303
921.038	10519
921.148	10478
921.258	10166
921.368	10059
921.477	10021
921.587	10044
921.697	9846
921.806	10017
921.916	9975
922.025	9717
922.134	9713
922.244	9667
922.353	9793
922.462	9595
922.571	9526
922.68	9405
922.789	9401
922.898	9454
923.007	9313
923.116	9435
923.224	9416
923.333	9393
923.442	9310
923.55	9264
923.659	9294
923.767	9401
923.876	9279
923.984	9374
924.092	9199
924.201	9291
924.309	9313
924.417	9256
924.525	9249
924.633	9253
924.741	10246
924.849	9047
924.956	9173
925.064	8998
925.172	8982
925.279	8971
925.387	9100
925.494	9062
925.602	9214
925.709	9150
925.816	8986
925.924	9070
926.031	9146
926.138	9157
926.245	9070
926.352	8960
926.459	9097
926.566	9116
926.673	9055
926.779	8914
926.886	8941
926.993	8792
927.099	8804
927.206	8769
927.312	8750
927.419	8743
927.525	8804
927.631	8861
927.737	8769
927.843	8682
927.95	8556
928.056	8625
928.162	8758
928.267	8804
928.373	9363
928.479	8766
928.585	8549
928.69	8663
928.796	8712
928.901	8610
929.007	8492
929.112	8598
929.218	8575
929.323	8571
929.428	8484
929.533	8636
929.638	8465
929.743	8488
929.848	8590
929.953	8503
930.058	8423
930.163	8221
930.267	8229
930.372	8419
930.477	8237
930.581	8518
930.685	8313
930.79	8244
930.894	8248
930.998	8176
931.103	8381
931.207	8016
931.311	7967
931.415	7890
931.519	7708
931.623	7731
