Data from test_V78500241_3303.txt Node
Date: Fri Mar 25 14:56:42 CST 2022
User: usil
Spectrometer: V785-0024
Trigger mode: 0
Integration Time (sec): 4.000000E-1
Scans to average: 1
Nonlinearity correction enabled: false
Boxcar width: 0
Storing dark spectrum: false
XAxis mode: Wavelengths
Number of Pixels in Spectrum: 1024
>>>>>Begin Spectral Data<<<<<
801.071	21926
801.214	21865
801.356	21724
801.499	21583
801.641	21420
801.783	21283
801.926	21378
802.068	21344
802.211	21298
802.353	21077
802.496	20963
802.638	20883
802.78	20918
802.923	20727
803.065	20537
803.208	20693
803.35	20651
803.492	20792
803.635	20849
803.777	20739
803.919	20667
804.061	20982
804.204	20701
804.346	20686
804.488	20507
804.63	20564
804.773	20469
804.915	20495
805.057	20632
805.199	20663
805.341	20636
805.483	20640
805.626	20632
805.768	20511
805.91	20583
806.052	20568
806.194	20549
806.336	20758
806.478	20606
806.62	20530
806.762	20537
806.904	20792
807.046	21024
807.188	20842
807.33	20902
807.472	20876
807.614	20792
807.756	20906
807.898	20670
808.04	20587
808.182	20568
808.324	20724
808.465	20785
808.607	20750
808.749	20967
808.891	20998
809.033	21150
809.174	20979
809.316	20925
809.458	20838
809.6	20743
809.741	21024
809.883	21070
810.025	20971
810.166	21047
810.308	21001
810.45	21001
810.591	20853
810.733	20750
810.875	20621
811.016	20598
811.158	20682
811.299	20765
811.441	20838
811.582	20815
811.724	20674
811.865	20571
812.007	20511
812.148	20743
812.29	20769
812.431	20716
812.573	21032
812.714	21051
812.855	21173
812.997	21195
813.138	21260
813.279	21355
813.421	21131
813.562	21230
813.703	20952
813.845	20796
813.986	20594
814.127	20442
814.268	20256
814.41	20317
814.551	20259
814.692	20286
814.833	20206
814.974	20180
815.115	20195
815.256	20134
815.397	19909
815.539	20043
815.68	19890
815.821	19898
815.962	20001
816.103	19887
816.244	19833
816.385	19559
816.526	19689
816.666	19552
816.807	19464
816.948	19403
817.089	19419
817.23	19441
817.371	19419
817.512	19358
817.653	19445
817.793	19377
817.934	19419
818.075	19343
818.216	19335
818.356	19251
818.497	19076
818.638	18947
818.778	19069
818.919	19065
819.06	19065
819.2	19141
819.341	19225
819.481	19244
819.622	19388
819.762	19502
819.903	19400
820.043	19415
820.184	19346
820.324	19403
820.465	19403
820.605	19396
820.746	19411
820.886	19266
821.026	19324
821.167	19293
821.307	19259
821.447	19297
821.588	19114
821.728	19053
821.868	18882
822.008	18867
822.149	18783
822.289	18726
822.429	18517
822.569	18456
822.709	18376
822.849	18194
822.99	18315
823.13	18235
823.27	18190
823.41	18117
823.55	18022
823.69	18155
823.83	18106
823.97	17999
824.11	17745
824.25	17775
824.389	17802
824.529	17897
824.669	17859
824.809	17984
824.949	17809
825.089	17870
825.228	17836
825.368	17646
825.508	17524
825.648	17630
825.787	17600
825.927	17592
826.067	17505
826.206	17611
826.346	17608
826.485	17551
826.625	17493
826.765	17634
826.904	17733
827.044	17387
827.183	17345
827.323	17303
827.462	17311
827.601	17334
827.741	17311
827.88	17265
828.02	17246
828.159	17212
828.298	17311
828.437	17288
828.577	17269
828.716	17360
828.855	17250
828.994	17083
829.134	16953
829.273	17064
829.412	16991
829.551	17003
829.69	17064
829.829	17113
829.968	17117
830.107	17094
830.246	17045
830.385	17010
830.524	17006
830.663	16938
830.802	16713
830.941	16656
831.08	16527
831.219	16740
831.357	16679
831.496	16889
831.635	16687
831.774	16622
831.913	16630
832.051	16493
832.19	16447
832.329	16474
832.467	16390
832.606	16314
832.744	16310
832.883	16379
833.022	16367
833.16	16318
833.299	16470
833.437	16500
833.576	16459
833.714	16440
833.852	16402
833.991	16459
834.129	16466
834.267	16424
834.406	16459
834.544	16474
834.682	16413
834.821	16451
834.959	16603
835.097	16360
835.235	16390
835.373	16390
835.511	16470
835.65	16398
835.788	16322
835.926	16143
836.064	16097
836.202	16238
836.34	16337
836.478	16352
836.615	16219
836.753	16333
836.891	16344
837.029	16402
837.167	16280
837.305	16390
837.443	16234
837.58	16139
837.718	16211
837.856	16204
837.993	16219
838.131	16207
838.269	16188
838.406	16154
838.544	16036
838.681	15918
838.819	15888
838.956	15785
839.094	15709
839.231	15759
839.369	15930
839.506	16101
839.643	16010
839.781	15785
839.918	15705
840.055	15739
840.193	15743
840.33	15747
840.467	15736
840.604	15816
840.742	16074
840.879	15614
841.016	15625
841.153	15701
841.29	15888
841.427	15774
841.564	15869
841.701	15800
841.838	15648
841.975	15667
842.112	15705
842.249	15614
842.385	15408
842.522	15682
842.659	15545
842.796	15488
842.933	15545
843.069	15507
843.206	15477
843.343	15614
843.479	15564
843.616	15549
843.752	15329
843.889	15431
844.025	15416
844.162	15275
844.298	15443
844.435	15313
844.571	15302
844.708	15268
844.844	15447
844.98	15473
845.117	15496
845.253	15291
845.389	15150
845.525	15287
845.661	15199
845.798	15062
845.934	15150
846.07	15024
846.206	15233
846.342	15192
846.478	15085
846.614	15001
846.75	14880
846.886	14777
847.022	15074
847.158	14925
847.294	14971
847.429	14902
847.565	14819
847.701	15188
847.837	14659
847.972	14568
848.108	14712
848.244	14758
848.379	14579
848.515	14404
848.65	14488
848.786	14476
848.921	14526
849.057	14651
849.192	14549
849.328	14484
849.463	14454
849.598	14480
849.734	14488
849.869	14339
850.004	14218
850.14	14320
850.275	14290
850.41	14210
850.545	14259
850.68	14267
850.815	14298
850.95	14233
851.085	14446
851.22	14415
851.355	14298
851.49	14187
851.625	14252
851.76	14282
851.895	14138
852.03	14252
852.165	14286
852.299	14259
852.434	14320
852.569	14377
852.703	14229
852.838	14381
852.973	14434
853.107	14324
853.242	14153
853.376	14077
853.511	14001
853.645	14069
853.78	14313
853.914	14107
854.048	14046
854.183	14126
854.317	14240
854.451	14305
854.585	14123
854.72	14100
854.854	14164
854.988	14001
855.122	14130
855.256	14077
855.39	14134
855.524	14240
855.658	14176
855.792	14202
855.926	14183
856.06	14195
856.194	14294
856.327	14164
856.461	14043
856.595	14035
856.729	14035
856.862	14267
856.996	14126
857.13	14191
857.263	14294
857.397	14183
857.53	14024
857.664	14252
857.797	14214
857.931	14339
858.064	14294
858.197	14233
858.331	14168
858.464	14024
858.597	14035
858.731	14107
858.864	14119
858.997	14100
859.13	14240
859.263	14202
859.396	14218
859.529	14100
859.662	14134
859.795	14054
859.928	14062
860.061	14328
860.194	14385
860.327	14187
860.46	14172
860.592	14233
860.725	14275
860.858	14267
860.99	14248
861.123	13993
861.256	14050
861.388	14183
861.521	14986
861.653	14069
861.786	13944
861.918	13986
862.05	14073
862.183	14024
862.315	14157
862.447	14130
862.58	14046
862.712	13902
862.844	13906
862.976	13921
863.108	14024
863.24	14267
863.372	13887
863.504	13871
863.636	13871
863.768	14031
863.9	13898
864.032	13879
864.164	13906
864.296	14016
864.428	14027
864.559	13951
864.691	14001
864.823	13959
864.954	13875
865.086	14035
865.217	13997
865.349	13799
865.48	14024
865.612	13837
865.743	14077
865.875	13947
866.006	13860
866.137	13959
866.269	14020
866.4	13849
866.531	13822
866.662	13799
866.793	13887
866.924	13803
867.055	13890
867.186	13917
867.317	13738
867.448	13875
867.579	13788
867.71	13830
867.841	13841
867.972	13963
868.103	13951
868.233	13921
868.364	13947
868.495	13963
868.625	14126
868.756	14221
868.886	14024
869.017	14115
869.147	14355
869.278	14187
869.408	14214
869.539	14180
869.669	14237
869.799	14221
869.929	14301
870.06	14278
870.19	14400
870.32	14389
870.45	14537
870.58	14511
870.71	14701
870.84	14667
870.97	14518
871.1	14408
871.23	14697
871.36	14765
871.489	14754
871.619	14804
871.749	14792
871.879	14682
872.008	14944
872.138	14735
872.267	14697
872.397	14686
872.526	14682
872.656	14518
872.785	14617
872.915	14762
873.044	14849
873.173	14785
873.303	14845
873.432	14834
873.561	14861
873.69	14868
873.819	14811
873.948	14933
874.077	14796
874.206	14781
874.335	14842
874.464	15001
874.593	15135
874.722	15062
874.851	15211
874.979	15142
875.108	15195
875.237	15070
875.365	15036
875.494	15081
875.623	15116
875.751	15097
875.88	15249
876.008	15279
876.136	15264
876.265	15534
876.393	15675
876.521	15576
876.65	15530
876.778	15534
876.906	15488
877.034	15485
877.162	15519
877.29	15412
877.418	15500
877.546	15618
877.674	15599
877.802	15538
877.93	15511
878.058	15450
878.185	15408
878.313	15424
878.441	15507
878.568	15386
878.696	15485
878.824	15572
878.951	15713
879.079	15739
879.206	15880
879.333	15732
879.461	15507
879.588	15656
879.715	15717
879.842	15778
879.97	15568
880.097	15378
880.224	15370
880.351	15374
880.478	15412
880.605	15298
880.732	15310
880.859	15694
880.986	15424
881.112	15450
881.239	15298
881.366	15104
881.493	15157
881.619	15058
881.746	15039
881.872	15070
881.999	15047
882.125	15001
882.252	15112
882.378	15116
882.505	15146
882.631	15039
882.757	14899
882.883	15009
883.01	14826
883.136	14777
883.262	14739
883.388	14777
883.514	14857
883.64	14914
883.766	14830
883.892	14655
884.018	14689
884.143	14845
884.269	14914
884.395	14632
884.52	14610
884.646	14610
884.772	14571
884.897	14457
885.023	14549
885.148	14727
885.274	14689
885.399	14750
885.524	14579
885.65	14571
885.775	14617
885.9	14560
886.025	14754
886.15	14617
886.275	14613
886.4	14473
886.525	14556
886.65	14526
886.775	14476
886.9	14644
887.025	14845
887.149	14571
887.274	14385
887.399	14389
887.523	14343
887.648	14290
887.773	14237
887.897	14457
888.021	14503
888.146	14419
888.27	14438
888.395	14552
888.519	14366
888.643	14374
888.767	14457
888.891	14434
889.015	14195
889.139	14286
889.263	14176
889.387	14415
889.511	14480
889.635	14434
889.759	14237
889.883	14221
890.006	14267
890.13	14366
890.254	14168
890.377	14301
890.501	14077
890.624	14065
890.748	14153
890.871	14058
890.995	13970
891.118	13849
891.241	13970
891.364	13951
891.488	13967
891.611	13913
891.734	14016
891.857	14077
891.98	14069
892.103	14016
892.226	14027
892.349	13883
892.471	13753
892.594	14005
892.717	13925
892.839	13989
892.962	13879
893.085	14062
893.207	14031
893.33	13875
893.452	13860
893.575	14008
893.697	13936
893.819	14195
893.941	14218
894.064	14202
894.186	13928
894.308	13902
894.43	14142
894.552	14298
894.674	14157
894.796	13993
894.918	13997
895.04	14043
895.161	14153
895.283	14043
895.405	14001
895.526	14046
895.648	14016
895.769	14145
895.891	14119
896.012	14115
896.134	14195
896.255	14180
896.376	14149
896.498	14172
896.619	14263
896.74	14206
896.861	14180
896.982	14526
897.103	14613
897.224	14473
897.345	14419
897.466	14347
897.587	14286
897.708	14587
897.828	14457
897.949	14415
898.07	14385
898.19	14374
898.311	14533
898.431	14423
898.552	14400
898.672	14697
898.792	14606
898.913	14533
899.033	14484
899.153	14393
899.273	14355
899.393	14355
899.513	14332
899.633	14370
899.753	14389
899.873	14328
899.993	14400
900.113	14377
900.232	14393
900.352	14320
900.472	14324
900.591	14210
900.711	14278
900.83	14206
900.95	14347
901.069	14320
901.189	14195
901.308	13925
901.427	13890
901.546	13894
901.665	13947
901.784	14016
901.904	13750
902.023	13719
902.141	13571
902.26	13457
902.379	13624
902.498	13510
902.617	13441
902.735	13476
902.854	13464
902.973	13460
903.091	13202
903.21	13126
903.328	13160
903.446	13168
903.565	13129
903.683	13164
903.801	12996
903.919	13038
904.038	13046
904.156	12924
904.274	12977
904.392	12867
904.51	12875
904.627	12856
904.745	12897
904.863	12825
904.981	12669
905.098	12563
905.216	12597
905.334	12563
905.451	12589
905.569	12528
905.686	12627
905.803	12532
905.921	12296
906.038	12502
906.155	12380
906.272	12323
906.389	12315
906.506	12194
906.623	12030
906.74	12129
906.857	12076
906.974	12125
907.091	12182
907.208	12308
907.324	12152
907.441	12106
907.557	11855
907.674	11817
907.79	11859
907.907	11859
908.023	11961
908.139	11920
908.256	11882
908.372	11840
908.488	11745
908.604	11680
908.72	11577
908.836	11680
908.952	11638
909.068	11630
909.184	11775
909.3	11657
909.415	11710
909.531	11691
909.647	11509
909.762	11467
909.878	11376
909.993	11425
910.108	11349
910.224	11414
910.339	11417
910.454	11315
910.57	11299
910.685	11204
910.8	11478
910.915	11452
911.03	11242
911.145	11162
911.259	11098
911.374	11105
911.489	11113
911.604	10968
911.718	10866
911.833	10923
911.947	10714
912.062	10637
912.176	10908
912.291	10896
912.405	10927
912.519	11010
912.633	11060
912.748	11083
912.862	10919
912.976	10774
913.09	10675
913.204	10702
913.318	10786
913.431	10877
913.545	10824
913.659	10946
913.772	10790
913.886	10637
914	10561
914.113	10733
914.226	10710
914.34	10748
914.453	10558
914.566	10733
914.68	10634
914.793	10569
914.906	10428
915.019	10344
915.132	10284
915.245	10356
915.358	10413
915.47	10417
915.583	10424
915.696	10405
915.809	10588
915.921	10626
916.034	10478
916.146	10348
916.259	10360
916.371	10485
916.483	10481
916.595	10348
916.708	10386
916.82	10394
916.932	10261
917.044	10390
917.156	10363
917.268	10230
917.38	10287
917.491	10265
917.603	10295
917.715	10325
917.826	10344
917.938	10234
918.049	10215
918.161	10306
918.272	10363
918.384	10443
918.495	10333
918.606	10169
918.717	10105
918.828	10154
918.939	10204
919.05	10196
919.161	10162
919.272	9937
919.383	10021
919.494	10234
919.604	10417
919.715	10196
919.826	10105
919.936	10116
920.047	10219
920.157	10234
920.267	10333
920.378	10230
920.488	10162
920.598	10356
920.708	10516
920.818	10409
920.928	10398
921.038	10535
921.148	10546
921.258	10230
921.368	10135
921.477	10021
921.587	10017
921.697	9915
921.806	10109
921.916	9983
922.025	9819
922.134	9705
922.244	9728
922.353	9709
922.462	9625
922.571	9622
922.68	9386
922.789	9424
922.898	9515
923.007	9405
923.116	9420
923.224	9389
923.333	9428
923.442	9302
923.55	9260
923.659	9355
923.767	9351
923.876	9291
923.984	9344
924.092	9230
924.201	9344
924.309	9275
924.417	9260
924.525	9222
924.633	9291
924.741	10223
924.849	9074
924.956	9165
925.064	9123
925.172	9024
925.279	9009
925.387	9135
925.494	9150
925.602	9214
925.709	9169
925.816	9009
925.924	9097
926.031	9154
926.138	9142
926.245	9119
926.352	9020
926.459	9173
926.566	9165
926.673	9058
926.779	8979
926.886	8864
926.993	8777
927.099	8807
927.206	8708
927.312	8731
927.419	8872
927.525	8754
927.631	8880
927.737	8785
927.843	8701
927.95	8594
928.056	8640
928.162	8739
928.267	8800
928.373	9348
928.479	8811
928.585	8610
928.69	8766
928.796	8739
928.901	8678
929.007	8415
929.112	8678
929.218	8556
929.323	8549
929.428	8518
929.533	8693
929.638	8461
929.743	8473
929.848	8568
929.953	8499
930.058	8427
930.163	8358
930.267	8328
930.372	8438
930.477	8225
930.581	8514
930.685	8328
930.79	8271
930.894	8317
930.998	8218
931.103	8396
931.207	8016
931.311	7967
931.415	7913
931.519	7731
931.623	7753
