Data from test_V78500241_2822.txt Node
Date: Fri Mar 25 14:53:21 CST 2022
User: usil
Spectrometer: V785-0024
Trigger mode: 0
Integration Time (sec): 4.000000E-1
Scans to average: 1
Nonlinearity correction enabled: false
Boxcar width: 0
Storing dark spectrum: false
XAxis mode: Wavelengths
Number of Pixels in Spectrum: 1024
>>>>>Begin Spectral Data<<<<<
801.071	21972
801.214	21998
801.356	21671
801.499	21648
801.641	21545
801.783	21370
801.926	21405
802.068	21401
802.211	21416
802.353	21256
802.496	21116
802.638	20929
802.78	20872
802.923	20788
803.065	20800
803.208	20785
803.35	20792
803.492	20773
803.635	20872
803.777	20659
803.919	20800
804.061	21192
804.204	20845
804.346	20750
804.488	20686
804.63	20712
804.773	20621
804.915	20731
805.057	20872
805.199	20590
805.341	20716
805.483	20811
805.626	20724
805.768	20648
805.91	20727
806.052	20769
806.194	20644
806.336	20857
806.478	20636
806.62	20701
806.762	20648
806.904	20944
807.046	21093
807.188	21017
807.33	21135
807.472	21176
807.614	20971
807.756	20941
807.898	20788
808.04	20697
808.182	20670
808.324	20823
808.465	20830
808.607	20883
808.749	21089
808.891	20975
809.033	21218
809.174	21093
809.316	20918
809.458	21043
809.6	21047
809.741	21176
809.883	21135
810.025	21192
810.166	21142
810.308	21169
810.45	21249
810.591	21245
810.733	20880
810.875	20880
811.016	20773
811.158	20773
811.299	20872
811.441	20963
811.582	20948
811.724	20788
811.865	20697
812.007	20716
812.148	20815
812.29	20701
812.431	20868
812.573	20979
812.714	21157
812.855	21313
812.997	21355
813.138	21553
813.279	21416
813.421	21367
813.562	21264
813.703	21028
813.845	20937
813.986	20701
814.127	20533
814.268	20294
814.41	20396
814.551	20351
814.692	20457
814.833	20275
814.974	20457
815.115	20381
815.256	20153
815.397	20107
815.539	20229
815.68	20126
815.821	20069
815.962	20073
816.103	19989
816.244	19890
816.385	19780
816.526	19822
816.666	19601
816.807	19476
816.948	19525
817.089	19651
817.23	19411
817.371	19567
817.512	19449
817.653	19438
817.793	19434
817.934	19487
818.075	19563
818.216	19441
818.356	19449
818.497	19228
818.638	19004
818.778	19270
818.919	19228
819.06	19198
819.2	19362
819.341	19312
819.481	19308
819.622	19499
819.762	19628
819.903	19582
820.043	19537
820.184	19460
820.324	19445
820.465	19537
820.605	19453
820.746	19403
820.886	19304
821.026	19476
821.167	19339
821.307	19525
821.447	19324
821.588	19213
821.728	19160
821.868	18875
822.008	18844
822.149	18878
822.289	18741
822.429	18639
822.569	18532
822.709	18582
822.849	18346
822.99	18300
823.13	18323
823.27	18323
823.41	18224
823.55	18098
823.69	18136
823.83	18174
823.97	18209
824.11	17965
824.25	18034
824.389	17901
824.529	17980
824.669	17863
824.809	18091
824.949	18091
825.089	18068
825.228	18041
825.368	17703
825.508	17733
825.648	17760
825.787	17756
825.927	17699
826.067	17729
826.206	17600
826.346	17783
826.485	17718
826.625	17726
826.765	17809
826.904	17726
827.044	17474
827.183	17482
827.323	17452
827.462	17425
827.601	17379
827.741	17391
827.88	17471
828.02	17326
828.159	17433
828.298	17345
828.437	17444
828.577	17341
828.716	17459
828.855	17360
828.994	17197
829.134	17204
829.273	17117
829.412	17086
829.551	17117
829.69	17037
829.829	17124
829.968	17265
830.107	17223
830.246	17022
830.385	17155
830.524	17010
830.663	16946
830.802	16953
830.941	16721
831.08	16702
831.219	16774
831.357	16824
831.496	16957
831.635	16828
831.774	16717
831.913	16683
832.051	16500
832.19	16611
832.329	16516
832.467	16428
832.606	16276
832.744	16481
832.883	16497
833.022	16424
833.16	16478
833.299	16398
833.437	16485
833.576	16443
833.714	16580
833.852	16535
833.991	16527
834.129	16611
834.267	16459
834.406	16462
834.544	16558
834.682	16489
834.821	16443
834.959	16630
835.097	16527
835.235	16607
835.373	16588
835.511	16527
835.65	16443
835.788	16421
835.926	16200
836.064	16211
836.202	16310
836.34	16341
836.478	16481
836.615	16367
836.753	16394
836.891	16493
837.029	16523
837.167	16375
837.305	16379
837.443	16314
837.58	16162
837.718	16413
837.856	16371
837.993	16276
838.131	16223
838.269	16223
838.406	16207
838.544	16261
838.681	15937
838.819	15911
838.956	15873
839.094	15774
839.231	15884
839.369	15918
839.506	16139
839.643	16090
839.781	15846
839.918	15827
840.055	15819
840.193	15850
840.33	15778
840.467	15842
840.604	15907
840.742	16071
840.879	15835
841.016	15781
841.153	15778
841.29	15903
841.427	15949
841.564	15857
841.701	15865
841.838	15770
841.975	15759
842.112	15751
842.249	15671
842.385	15496
842.522	15808
842.659	15587
842.796	15599
842.933	15633
843.069	15564
843.206	15572
843.343	15690
843.479	15534
843.616	15561
843.752	15408
843.889	15401
844.025	15447
844.162	15355
844.298	15416
844.435	15340
844.571	15363
844.708	15545
844.844	15587
844.98	15469
845.117	15500
845.253	15329
845.389	15218
845.525	15283
845.661	15382
845.798	15195
845.934	15237
846.07	15154
846.206	15283
846.342	15325
846.478	15150
846.614	15009
846.75	14895
846.886	15039
847.022	14998
847.158	15009
847.294	14960
847.429	15058
847.565	14891
847.701	15199
847.837	14705
847.972	14617
848.108	14807
848.244	14731
848.379	14583
848.515	14594
848.65	14636
848.786	14560
848.921	14522
849.057	14655
849.192	14579
849.328	14640
849.463	14686
849.598	14575
849.734	14473
849.869	14438
850.004	14351
850.14	14343
850.275	14370
850.41	14294
850.545	14275
850.68	14320
850.815	14263
850.95	14324
851.085	14499
851.22	14419
851.355	14324
851.49	14393
851.625	14301
851.76	14450
851.895	14233
852.03	14195
852.165	14263
852.299	14305
852.434	14377
852.569	14336
852.703	14415
852.838	14442
852.973	14473
853.107	14404
853.242	14385
853.376	14218
853.511	14191
853.645	14157
853.78	14415
853.914	14199
854.048	14172
854.183	14084
854.317	14248
854.451	14320
854.585	14195
854.72	14191
854.854	14233
854.988	14187
855.122	14187
855.256	14012
855.39	14157
855.524	14434
855.658	14366
855.792	14199
855.926	14172
856.06	14294
856.194	14301
856.327	14286
856.461	14103
856.595	14191
856.729	14126
856.862	14358
856.996	14168
857.13	14328
857.263	14366
857.397	14282
857.53	14145
857.664	14278
857.797	14275
857.931	14305
858.064	14339
858.197	14275
858.331	14267
858.464	14199
858.597	14130
858.731	14225
858.864	14244
858.997	14229
859.13	14191
859.263	14259
859.396	14263
859.529	14100
859.662	14187
859.795	14164
859.928	14256
860.061	14358
860.194	14431
860.327	14221
860.46	14187
860.592	14404
860.725	14366
860.858	14305
860.99	14123
861.123	14183
861.256	14229
861.388	14225
861.521	14914
861.653	14107
861.786	13986
861.918	14058
862.05	14107
862.183	14183
862.315	14248
862.447	14271
862.58	14172
862.712	13963
862.844	13932
862.976	14054
863.108	14039
863.24	14362
863.372	13928
863.504	14001
863.636	14008
863.768	14134
863.9	14039
864.032	13906
864.164	13921
864.296	14031
864.428	14187
864.559	14065
864.691	14020
864.823	13951
864.954	14088
865.086	14001
865.217	14073
865.349	14024
865.48	13906
865.612	13970
865.743	14199
865.875	14001
866.006	13887
866.137	13906
866.269	14024
866.4	14016
866.531	13875
866.662	13868
866.793	13868
866.924	13928
867.055	14027
867.186	13936
867.317	13955
867.448	13849
867.579	13864
867.71	13974
867.841	13883
867.972	14024
868.103	13997
868.233	13906
868.364	14115
868.495	14046
868.625	14168
868.756	14362
868.886	14176
869.017	14142
869.147	14404
869.278	14377
869.408	14263
869.539	14199
869.669	14263
869.799	14301
869.929	14343
870.06	14282
870.19	14526
870.32	14473
870.45	14629
870.58	14552
870.71	14716
870.84	14613
870.97	14526
871.1	14648
871.23	14804
871.36	14811
871.489	14731
871.619	14845
871.749	14823
871.879	14899
872.008	14918
872.138	14754
872.267	14746
872.397	14674
872.526	14530
872.656	14678
872.785	14659
872.915	14842
873.044	14899
873.173	14712
873.303	14952
873.432	14823
873.561	14982
873.69	14830
873.819	14845
873.948	14914
874.077	14845
874.206	14807
874.335	14910
874.464	14967
874.593	15150
874.722	15135
874.851	15146
874.979	15165
875.108	15252
875.237	15138
875.365	15070
875.494	15108
875.623	15306
875.751	15233
875.88	15173
876.008	15329
876.136	15374
876.265	15625
876.393	15724
876.521	15663
876.65	15663
876.778	15675
876.906	15564
877.034	15500
877.162	15557
877.29	15481
877.418	15568
877.546	15580
877.674	15538
877.802	15606
877.93	15675
878.058	15500
878.185	15507
878.313	15584
878.441	15599
878.568	15454
878.696	15530
878.824	15622
878.951	15770
879.079	15804
879.206	15892
879.333	15739
879.461	15728
879.588	15747
879.715	15747
879.842	15915
879.97	15652
880.097	15504
880.224	15450
880.351	15511
880.478	15492
880.605	15336
880.732	15530
880.859	15679
880.986	15488
881.112	15504
881.239	15249
881.366	15241
881.493	15081
881.619	15138
881.746	15085
881.872	15135
881.999	15047
882.125	15085
882.252	15108
882.378	15207
882.505	15275
882.631	15036
882.757	14845
882.883	14963
883.01	14918
883.136	14902
883.262	14731
883.388	14785
883.514	15024
883.64	14967
883.766	14864
883.892	14720
884.018	14773
884.143	14902
884.269	15043
884.395	14640
884.52	14575
884.646	14667
884.772	14530
884.897	14533
885.023	14590
885.148	14720
885.274	14727
885.399	14781
885.524	14651
885.65	14678
885.775	14644
885.9	14655
886.025	14727
886.15	14640
886.275	14571
886.4	14503
886.525	14648
886.65	14545
886.775	14598
886.9	14735
887.025	14872
887.149	14636
887.274	14579
887.399	14396
887.523	14400
887.648	14419
887.773	14336
887.897	14530
888.021	14560
888.146	14423
888.27	14537
888.395	14617
888.519	14423
888.643	14552
888.767	14598
888.891	14427
889.015	14328
889.139	14351
889.263	14237
889.387	14400
889.511	14469
889.635	14454
889.759	14271
889.883	14343
890.006	14343
890.13	14465
890.254	14267
890.377	14305
890.501	14210
890.624	14115
890.748	14195
890.871	14031
890.995	14077
891.118	13986
891.241	14081
891.364	14077
891.488	14126
891.611	14058
891.734	14180
891.857	14065
891.98	13993
892.103	14142
892.226	14111
892.349	13928
892.471	13856
892.594	13974
892.717	14024
892.839	14008
892.962	14054
893.085	14077
893.207	14081
893.33	13940
893.452	13917
893.575	14134
893.697	14035
893.819	14210
893.941	14199
894.064	14206
894.186	14081
894.308	14008
894.43	14111
894.552	14233
894.674	14195
894.796	14001
894.918	14043
895.04	14065
895.161	14161
895.283	14221
895.405	14050
895.526	14172
895.648	14111
895.769	14103
895.891	14153
896.012	14305
896.134	14271
896.255	14267
896.376	14191
896.498	14294
896.619	14161
896.74	14240
896.861	14324
896.982	14499
897.103	14705
897.224	14507
897.345	14461
897.466	14351
897.587	14408
897.708	14522
897.828	14442
897.949	14412
898.07	14336
898.19	14454
898.311	14537
898.431	14590
898.552	14526
898.672	14651
898.792	14674
898.913	14644
899.033	14511
899.153	14514
899.273	14358
899.393	14442
899.513	14419
899.633	14328
899.753	14355
899.873	14362
899.993	14522
900.113	14396
900.232	14484
900.352	14355
900.472	14332
900.591	14282
900.711	14347
900.83	14202
900.95	14404
901.069	14419
901.189	14240
901.308	13963
901.427	13871
901.546	13909
901.665	14073
901.784	13978
901.904	13875
902.023	13723
902.141	13616
902.26	13499
902.379	13544
902.498	13472
902.617	13403
902.735	13544
902.854	13483
902.973	13411
903.091	13133
903.21	13244
903.328	13308
903.446	13126
903.565	13080
903.683	13141
903.801	13091
903.919	13057
904.038	13084
904.156	12890
904.274	13061
904.392	12806
904.51	12947
904.627	12909
904.745	12970
904.863	12833
904.981	12684
905.098	12639
905.216	12589
905.334	12646
905.451	12677
905.569	12574
905.686	12696
905.803	12597
905.921	12486
906.038	12528
906.155	12486
906.272	12289
906.389	12357
906.506	12292
906.623	12232
906.74	12163
906.857	12045
906.974	12114
907.091	12254
907.208	12338
907.324	12273
907.441	12175
907.557	12049
907.674	11927
907.79	11885
907.907	11935
908.023	11961
908.139	11908
908.256	11969
908.372	11866
908.488	11824
908.604	11733
908.72	11729
908.836	11691
908.952	11634
909.068	11729
909.184	11851
909.3	11611
909.415	11775
909.531	11752
909.647	11474
909.762	11459
909.878	11421
909.993	11459
910.108	11372
910.224	11433
910.339	11539
910.454	11402
910.57	11299
910.685	11307
910.8	11596
910.915	11440
911.03	11349
911.145	11189
911.259	11094
911.374	11246
911.489	11067
911.604	11045
911.718	10942
911.833	10919
911.947	10805
912.062	10736
912.176	10892
912.291	10915
912.405	10904
912.519	11117
912.633	11193
912.748	10980
912.862	10930
912.976	10721
913.09	10634
913.204	10767
913.318	10858
913.431	10885
913.545	10995
913.659	10984
913.772	10847
913.886	10698
914	10729
914.113	10763
914.226	10763
914.34	10767
914.453	10607
914.566	10691
914.68	10554
914.793	10645
914.906	10375
915.019	10424
915.132	10405
915.245	10459
915.358	10451
915.47	10447
915.583	10409
915.696	10523
915.809	10664
915.921	10554
916.034	10405
916.146	10394
916.259	10428
916.371	10512
916.483	10512
916.595	10371
916.708	10375
916.82	10318
916.932	10291
917.044	10379
917.156	10379
917.268	10287
917.38	10230
917.491	10223
917.603	10329
917.715	10367
917.826	10382
917.938	10230
918.049	10135
918.161	10276
918.272	10390
918.384	10382
918.495	10242
918.606	10204
918.717	10112
918.828	10147
918.939	10200
919.05	10002
919.161	10188
919.272	9888
919.383	10036
919.494	10204
919.604	10337
919.715	10227
919.826	10097
919.936	10135
920.047	10276
920.157	10238
920.267	10371
920.378	10227
920.488	10196
920.598	10379
920.708	10500
920.818	10360
920.928	10402
921.038	10470
921.148	10554
921.258	10230
921.368	10139
921.477	10044
921.587	9968
921.697	9873
921.806	10059
921.916	9888
922.025	9804
922.134	9713
922.244	9690
922.353	9736
922.462	9629
922.571	9603
922.68	9462
922.789	9393
922.898	9424
923.007	9386
923.116	9428
923.224	9431
923.333	9389
923.442	9363
923.55	9245
923.659	9321
923.767	9374
923.876	9287
923.984	9287
924.092	9218
924.201	9321
924.309	9241
924.417	9264
924.525	9264
924.633	9306
924.741	10109
924.849	8998
924.956	9218
925.064	9066
925.172	9013
925.279	9089
925.387	9097
925.494	9028
925.602	9176
925.709	9237
925.816	9055
925.924	9055
926.031	9211
926.138	9085
926.245	9097
926.352	9043
926.459	9097
926.566	9199
926.673	9077
926.779	8967
926.886	8963
926.993	8880
927.099	8766
927.206	8769
927.312	8735
927.419	8800
927.525	8792
927.631	8868
927.737	8735
927.843	8659
927.95	8556
928.056	8674
928.162	8693
928.267	8792
928.373	9211
928.479	8815
928.585	8598
928.69	8735
928.796	8739
928.901	8602
929.007	8442
929.112	8705
929.218	8667
929.323	8473
929.428	8476
929.533	8629
929.638	8484
929.743	8465
929.848	8480
929.953	8476
930.058	8446
930.163	8233
930.267	8313
930.372	8484
930.477	8202
930.581	8454
930.685	8381
930.79	8191
930.894	8309
930.998	8187
931.103	8332
931.207	8035
931.311	7959
931.415	7871
931.519	7769
931.623	7704
