Data from test_V78500241_1174.txt Node
Date: Fri Mar 25 14:41:53 CST 2022
User: usil
Spectrometer: V785-0024
Trigger mode: 0
Integration Time (sec): 4.000000E-1
Scans to average: 1
Nonlinearity correction enabled: false
Boxcar width: 0
Storing dark spectrum: false
XAxis mode: Wavelengths
Number of Pixels in Spectrum: 1024
>>>>>Begin Spectral Data<<<<<
801.071	22462
801.214	22291
801.356	22128
801.499	22116
801.641	21857
801.783	21907
801.926	21865
802.068	21793
802.211	21671
802.353	21629
802.496	21317
802.638	21283
802.78	21351
802.923	21169
803.065	21150
803.208	21146
803.35	21135
803.492	21218
803.635	21154
803.777	21127
803.919	21116
804.061	21488
804.204	21272
804.346	21135
804.488	21051
804.63	21062
804.773	21066
804.915	21096
805.057	21275
805.199	21017
805.341	21203
805.483	21230
805.626	21165
805.768	21013
805.91	21131
806.052	21138
806.194	21112
806.336	21317
806.478	21237
806.62	21089
806.762	21131
806.904	21207
807.046	21610
807.188	21488
807.33	21530
807.472	21511
807.614	21416
807.756	21511
807.898	21241
808.04	21237
808.182	21207
808.324	21256
808.465	21374
808.607	21500
808.749	21686
808.891	21713
809.033	21739
809.174	21656
809.316	21618
809.458	21526
809.6	21667
809.741	21648
809.883	21682
810.025	21641
810.166	21641
810.308	21667
810.45	21675
810.591	21736
810.733	21405
810.875	21306
811.016	21291
811.158	21344
811.299	21348
811.441	21488
811.582	21435
811.724	21275
811.865	21340
812.007	21344
812.148	21150
812.29	21294
812.431	21580
812.573	21629
812.714	21629
812.855	21701
812.997	21854
813.138	22017
813.279	21899
813.421	21808
813.562	21656
813.703	21538
813.845	21515
813.986	21131
814.127	20967
814.268	21024
814.41	20853
814.551	20929
814.692	20880
814.833	20857
814.974	20765
815.115	20777
815.256	20648
815.397	20758
815.539	20720
815.68	20644
815.821	20507
815.962	20598
816.103	20552
816.244	20370
816.385	20282
816.526	20271
816.666	20180
816.807	19963
816.948	20107
817.089	20119
817.23	20054
817.371	20024
817.512	20050
817.653	19963
817.793	20054
817.934	19997
818.075	20069
818.216	20054
818.356	19978
818.497	19822
818.638	19635
818.778	19708
818.919	19620
819.06	19738
819.2	19837
819.341	19833
819.481	19803
819.622	20005
819.762	20214
819.903	20024
820.043	20069
820.184	19963
820.324	19894
820.465	19982
820.605	19947
820.746	20012
820.886	19795
821.026	19955
821.167	20016
821.307	19921
821.447	19913
821.588	19700
821.728	19856
821.868	19620
822.008	19346
822.149	19358
822.289	19293
822.429	19145
822.569	19114
822.709	19164
822.849	18954
822.99	18863
823.13	18913
823.27	18772
823.41	18776
823.55	18673
823.69	18612
823.83	18745
823.97	18578
824.11	18479
824.25	18353
824.389	18445
824.529	18639
824.669	18452
824.809	18559
824.949	18410
825.089	18551
825.228	18391
825.368	18308
825.508	18247
825.648	18338
825.787	18338
825.927	18270
826.067	18110
826.206	18163
826.346	18194
826.485	18232
826.625	18243
826.765	18300
826.904	18315
827.044	18003
827.183	18060
827.323	17809
827.462	17984
827.601	17980
827.741	17866
827.88	17901
828.02	17760
828.159	17961
828.298	18026
828.437	17961
828.577	17786
828.716	18034
828.855	17901
828.994	17786
829.134	17623
829.273	17649
829.412	17642
829.551	17687
829.69	17722
829.829	17729
829.968	17748
830.107	17710
830.246	17661
830.385	17672
830.524	17573
830.663	17623
830.802	17452
830.941	17280
831.08	17284
831.219	17421
831.357	17330
831.496	17368
831.635	17406
831.774	17296
831.913	17204
832.051	17121
832.19	17151
832.329	17200
832.467	17086
832.606	17022
832.744	17064
832.883	16961
833.022	17022
833.16	17037
833.299	17056
833.437	17083
833.576	17098
833.714	17079
833.852	17166
833.991	17048
834.129	17162
834.267	17166
834.406	17166
834.544	17174
834.682	17033
834.821	17067
834.959	17261
835.097	17052
835.235	17102
835.373	17067
835.511	17162
835.65	17045
835.788	16930
835.926	16831
836.064	16752
836.202	16812
836.34	17086
836.478	17022
836.615	16934
836.753	17006
836.891	17102
837.029	16987
837.167	16953
837.305	16908
837.443	16873
837.58	16904
837.718	16972
837.856	16908
837.993	16710
838.131	16790
838.269	16740
838.406	16786
838.544	16687
838.681	16558
838.819	16607
838.956	16348
839.094	16443
839.231	16432
839.369	16565
839.506	16763
839.643	16668
839.781	16405
839.918	16299
840.055	16489
840.193	16352
840.33	16413
840.467	16382
840.604	16447
840.742	16649
840.879	16204
841.016	16287
841.153	16204
841.29	16656
841.427	16421
841.564	16432
841.701	16310
841.838	16291
841.975	16333
842.112	16287
842.249	16246
842.385	16120
842.522	16489
842.659	16090
842.796	16177
842.933	16162
843.069	16150
843.206	16200
843.343	16196
843.479	16246
843.616	16291
843.752	15911
843.889	15941
844.025	16097
844.162	15861
844.298	16112
844.435	15835
844.571	15922
844.708	16032
844.844	16071
844.98	16131
845.117	16055
845.253	15873
845.389	15785
845.525	16109
845.661	15949
845.798	15907
845.934	16029
846.07	15854
846.206	15960
846.342	16017
846.478	15797
846.614	15675
846.75	15549
846.886	15557
847.022	15698
847.158	15572
847.294	15416
847.429	15519
847.565	15519
847.701	15755
847.837	15230
847.972	15230
848.108	15313
848.244	15363
848.379	15211
848.515	15081
848.65	15127
848.786	15066
848.921	15154
849.057	15199
849.192	15195
849.328	15135
849.463	15093
849.598	15108
849.734	15070
849.869	14887
850.004	14861
850.14	15001
850.275	14861
850.41	14815
850.545	14872
850.68	14910
850.815	14914
850.95	14845
851.085	15112
851.22	15032
851.355	14876
851.49	14872
851.625	14895
851.76	14910
851.895	14716
852.03	14727
852.165	14891
852.299	14857
852.434	14929
852.569	14971
852.703	14914
852.838	15123
852.973	15142
853.107	14998
853.242	14868
853.376	14667
853.511	14629
853.645	14697
853.78	14864
853.914	14705
854.048	14731
854.183	14697
854.317	14792
854.451	14998
854.585	14796
854.72	14701
854.854	14819
854.988	14670
855.122	14792
855.256	14556
855.39	14815
855.524	14823
855.658	14769
855.792	14746
855.926	14842
856.06	14864
856.194	14838
856.327	14895
856.461	14727
856.595	14716
856.729	14689
856.862	14823
856.996	14857
857.13	14842
857.263	14834
857.397	14899
857.53	14644
857.664	14864
857.797	14708
857.931	14933
858.064	14758
858.197	14834
858.331	14670
858.464	14670
858.597	14632
858.731	14731
858.864	14705
858.997	14712
859.13	14788
859.263	14750
859.396	14834
859.529	14712
859.662	14716
859.795	14701
859.928	14674
860.061	14910
860.194	14853
860.327	14838
860.46	14777
860.592	14857
860.725	14914
860.858	14918
860.99	14743
861.123	14629
861.256	14632
861.388	14716
861.521	15507
861.653	14606
861.786	14670
861.918	14602
862.05	14606
862.183	14556
862.315	14701
862.447	14788
862.58	14743
862.712	14625
862.844	14541
862.976	14705
863.108	14473
863.24	14986
863.372	14465
863.504	14488
863.636	14590
863.768	14610
863.9	14579
864.032	14446
864.164	14533
864.296	14625
864.428	14594
864.559	14583
864.691	14648
864.823	14560
864.954	14526
865.086	14621
865.217	14499
865.349	14415
865.48	14450
865.612	14533
865.743	14621
865.875	14492
866.006	14431
866.137	14644
866.269	14545
866.4	14499
866.531	14499
866.662	14427
866.793	14412
866.924	14389
867.055	14450
867.186	14480
867.317	14412
867.448	14454
867.579	14396
867.71	14484
867.841	14442
867.972	14492
868.103	14499
868.233	14545
868.364	14495
868.495	14492
868.625	14689
868.756	14800
868.886	14705
869.017	14689
869.147	14842
869.278	14899
869.408	14804
869.539	14811
869.669	14857
869.799	14796
869.929	14849
870.06	14834
870.19	15077
870.32	15066
870.45	15032
870.58	15119
870.71	15291
870.84	15283
870.97	15081
871.1	15180
871.23	15226
871.36	15344
871.489	15241
871.619	15279
871.749	15317
871.879	15329
872.008	15412
872.138	15450
872.267	15313
872.397	15207
872.526	15116
872.656	15119
872.785	15275
872.915	15386
873.044	15386
873.173	15359
873.303	15447
873.432	15481
873.561	15435
873.69	15408
873.819	15428
873.948	15447
874.077	15378
874.206	15370
874.335	15416
874.464	15610
874.593	15762
874.722	15587
874.851	15694
874.979	15804
875.108	15736
875.237	15644
875.365	15538
875.494	15713
875.623	15747
875.751	15652
875.88	15743
876.008	15918
876.136	15812
876.265	16078
876.393	16390
876.521	16128
876.65	16230
876.778	16120
876.906	16048
877.034	16051
877.162	16128
877.29	16059
877.418	16158
877.546	16135
877.674	16124
877.802	16055
877.93	16143
878.058	16025
878.185	16051
878.313	16048
878.441	16097
878.568	15922
878.696	16082
878.824	16067
878.951	16200
879.079	16230
879.206	16455
879.333	16310
879.461	16211
879.588	16322
879.715	16447
879.842	16462
879.97	16261
880.097	16074
880.224	16029
880.351	16029
880.478	16105
880.605	15949
880.732	15934
880.859	16185
880.986	16036
881.112	16067
881.239	15846
881.366	15747
881.493	15652
881.619	15568
881.746	15679
881.872	15698
881.999	15614
882.125	15599
882.252	15675
882.378	15781
882.505	15759
882.631	15568
882.757	15412
882.883	15614
883.01	15408
883.136	15488
883.262	15306
883.388	15272
883.514	15488
883.64	15386
883.766	15412
883.892	15279
884.018	15310
884.143	15416
884.269	15572
884.395	15199
884.52	15176
884.646	15291
884.772	15077
884.897	15161
885.023	15142
885.148	15233
885.274	15275
885.399	15298
885.524	15233
885.65	15256
885.775	15203
885.9	15081
886.025	15268
886.15	15233
886.275	15077
886.4	15024
886.525	15123
886.65	15108
886.775	15089
886.9	15176
887.025	15447
887.149	15161
887.274	15043
887.399	15051
887.523	14914
887.648	14956
887.773	14830
887.897	14971
888.021	15024
888.146	14963
888.27	15051
888.395	15070
888.519	14967
888.643	15036
888.767	14967
888.891	14868
889.015	14826
889.139	14902
889.263	14792
889.387	14838
889.511	15062
889.635	14899
889.759	14834
889.883	14792
890.006	14883
890.13	14918
890.254	14701
890.377	14777
890.501	14621
890.624	14556
890.748	14659
890.871	14590
890.995	14450
891.118	14396
891.241	14408
891.364	14514
891.488	14655
891.611	14518
891.734	14454
891.857	14583
891.98	14568
892.103	14579
892.226	14598
892.349	14503
892.471	14317
892.594	14495
892.717	14530
892.839	14503
892.962	14503
893.085	14587
893.207	14457
893.33	14412
893.452	14415
893.575	14564
893.697	14503
893.819	14670
893.941	14701
894.064	14640
894.186	14457
894.308	14495
894.43	14556
894.552	14693
894.674	14701
894.796	14495
894.918	14571
895.04	14503
895.161	14606
895.283	14632
895.405	14537
895.526	14610
895.648	14571
895.769	14564
895.891	14571
896.012	14727
896.134	14636
896.255	14640
896.376	14629
896.498	14636
896.619	14678
896.74	14739
896.861	14697
896.982	14998
897.103	15173
897.224	14925
897.345	14876
897.466	14876
897.587	14811
897.708	14963
897.828	14998
897.949	14933
898.07	14796
898.19	14948
898.311	15093
898.431	14868
898.552	14952
898.672	15005
898.792	14986
898.913	15070
899.033	14864
899.153	14902
899.273	14697
899.393	14800
899.513	14849
899.633	14891
899.753	14891
899.873	14857
899.993	14910
900.113	14887
900.232	14800
900.352	14902
900.472	14644
900.591	14583
900.711	14724
900.83	14613
900.95	14834
901.069	14743
901.189	14625
901.308	14385
901.427	14282
901.546	14275
901.665	14381
901.784	14396
901.904	14332
902.023	14202
902.141	13982
902.26	13871
902.379	14096
902.498	13860
902.617	13833
902.735	13928
902.854	13932
902.973	13917
903.091	13651
903.21	13594
903.328	13689
903.446	13544
903.565	13525
903.683	13571
903.801	13426
903.919	13464
904.038	13434
904.156	13308
904.274	13392
904.392	13331
904.51	13149
904.627	13304
904.745	13339
904.863	13430
904.981	13107
905.098	12886
905.216	13012
905.334	13042
905.451	12954
905.569	12920
905.686	12920
905.803	13015
905.921	12817
906.038	12859
906.155	12787
906.272	12768
906.389	12802
906.506	12597
906.623	12604
906.74	12635
906.857	12593
906.974	12490
907.091	12703
907.208	12688
907.324	12707
907.441	12536
907.557	12395
907.674	12235
907.79	12266
907.907	12228
908.023	12399
908.139	12292
908.256	12228
908.372	12209
908.488	12205
908.604	12091
908.72	11988
908.836	12133
908.952	12072
909.068	12106
909.184	12186
909.3	12053
909.415	12049
909.531	12136
909.647	11893
909.762	11824
909.878	11786
909.993	11984
910.108	11866
910.224	11931
910.339	11908
910.454	11771
910.57	11729
910.685	11646
910.8	11908
910.915	11817
911.03	11668
911.145	11566
911.259	11630
911.374	11535
911.489	11505
911.604	11444
911.718	11292
911.833	11330
911.947	11136
912.062	11147
912.176	11227
912.291	11330
912.405	11284
912.519	11482
912.633	11547
912.748	11322
912.862	11288
912.976	11212
913.09	11033
913.204	11098
913.318	11151
913.431	11239
913.545	11239
913.659	11269
913.772	11288
913.886	11025
914	11071
914.113	11113
914.226	11140
914.34	11083
914.453	10942
914.566	11220
914.68	10968
914.793	11041
914.906	10850
915.019	10793
915.132	10748
915.245	10702
915.358	10869
915.47	10793
915.583	10820
915.696	10862
915.809	10923
915.921	10831
916.034	10797
916.146	10752
916.259	10744
916.371	10877
916.483	10763
916.595	10714
916.708	10748
916.82	10820
916.932	10656
917.044	10793
917.156	10683
917.268	10550
917.38	10653
917.491	10653
917.603	10588
917.715	10717
917.826	10645
917.938	10546
918.049	10516
918.161	10607
918.272	10767
918.384	10672
918.495	10588
918.606	10550
918.717	10424
918.828	10390
918.939	10508
919.05	10508
919.161	10523
919.272	10188
919.383	10318
919.494	10516
919.604	10679
919.715	10451
919.826	10459
919.936	10481
920.047	10573
920.157	10565
920.267	10790
920.378	10542
920.488	10504
920.598	10660
920.708	10858
920.818	10698
920.928	10706
921.038	10908
921.148	10824
921.258	10493
921.368	10402
921.477	10379
921.587	10295
921.697	10200
921.806	10333
921.916	10227
922.025	10082
922.134	10048
922.244	9964
922.353	10017
922.462	9895
922.571	9884
922.68	9766
922.789	9701
922.898	9728
923.007	9679
923.116	9838
923.224	9740
923.333	9663
923.442	9591
923.55	9469
923.659	9545
923.767	9698
923.876	9599
923.984	9595
924.092	9515
924.201	9584
924.309	9622
924.417	9526
924.525	9507
924.633	9557
924.741	10272
924.849	9424
924.956	9485
925.064	9344
925.172	9332
925.279	9291
925.387	9321
925.494	9382
925.602	9481
925.709	9443
925.816	9348
925.924	9329
926.031	9466
926.138	9420
926.245	9370
926.352	9253
926.459	9397
926.566	9428
926.673	9424
926.779	9184
926.886	9146
926.993	9112
927.099	9055
927.206	9009
927.312	8990
927.419	9028
927.525	9081
927.631	9089
927.737	8986
927.843	8963
927.95	8899
928.056	8982
928.162	8990
928.267	9028
928.373	9641
928.479	9104
928.585	8815
928.69	8990
928.796	8960
928.901	8842
929.007	8739
929.112	8986
929.218	8838
929.323	8830
929.428	8750
929.533	8941
929.638	8773
929.743	8754
929.848	8811
929.953	8735
930.058	8644
930.163	8522
930.267	8537
930.372	8667
930.477	8556
930.581	8674
930.685	8629
930.79	8495
930.894	8514
930.998	8446
931.103	8575
931.207	8244
931.311	8229
931.415	8195
931.519	7955
931.623	7974
