Data from test_V78500241_2535.txt Node
Date: Fri Mar 25 14:51:21 CST 2022
User: usil
Spectrometer: V785-0024
Trigger mode: 0
Integration Time (sec): 4.000000E-1
Scans to average: 1
Nonlinearity correction enabled: false
Boxcar width: 0
Storing dark spectrum: false
XAxis mode: Wavelengths
Number of Pixels in Spectrum: 1024
>>>>>Begin Spectral Data<<<<<
801.071	22067
801.214	22002
801.356	21842
801.499	21519
801.641	21355
801.783	21351
801.926	21370
802.068	21294
802.211	21119
802.353	21180
802.496	20921
802.638	20944
802.78	20849
802.923	20743
803.065	20674
803.208	20632
803.35	20880
803.492	20777
803.635	20830
803.777	20667
803.919	20876
804.061	21165
804.204	20746
804.346	20686
804.488	20594
804.63	20663
804.773	20708
804.915	20617
805.057	20792
805.199	20549
805.341	20579
805.483	20796
805.626	20674
805.768	20689
805.91	20712
806.052	20530
806.194	20533
806.336	20746
806.478	20682
806.62	20659
806.762	20686
806.904	20914
807.046	21058
807.188	20963
807.33	20944
807.472	21100
807.614	20883
807.756	20990
807.898	20674
808.04	20629
808.182	20625
808.324	20819
808.465	20739
808.607	20887
808.749	20921
808.891	21218
809.033	21112
809.174	21066
809.316	20910
809.458	21013
809.6	20979
809.741	21013
809.883	21058
810.025	21218
810.166	21066
810.308	21188
810.45	21237
810.591	21009
810.733	20887
810.875	20750
811.016	20754
811.158	20606
811.299	20883
811.441	20891
811.582	20872
811.724	20861
811.865	20872
812.007	20632
812.148	20849
812.29	20849
812.431	20826
812.573	21085
812.714	21112
812.855	21245
812.997	21359
813.138	21511
813.279	21401
813.421	21275
813.562	21127
813.703	20994
813.845	20925
813.986	20705
814.127	20396
814.268	20431
814.41	20324
814.551	20381
814.692	20381
814.833	20259
814.974	20301
815.115	20374
815.256	20081
815.397	20294
815.539	20206
815.68	20062
815.821	20001
815.962	20077
816.103	20024
816.244	19955
816.385	19894
816.526	19734
816.666	19597
816.807	19506
816.948	19635
817.089	19655
817.23	19594
817.371	19460
817.512	19468
817.653	19411
817.793	19304
817.934	19350
818.075	19445
818.216	19483
818.356	19400
818.497	19312
818.638	19148
818.778	19168
818.919	19259
819.06	19133
819.2	19327
819.341	19388
819.481	19327
819.622	19457
819.762	19765
819.903	19537
820.043	19540
820.184	19510
820.324	19453
820.465	19460
820.605	19537
820.746	19480
820.886	19384
821.026	19320
821.167	19415
821.307	19415
821.447	19434
821.588	19187
821.728	19080
821.868	19038
822.008	18901
822.149	18798
822.289	18798
822.429	18726
822.569	18547
822.709	18566
822.849	18376
822.99	18441
823.13	18285
823.27	18346
823.41	18098
823.55	18053
823.69	18049
823.83	18243
823.97	18098
824.11	17935
824.25	17893
824.389	17897
824.529	18038
824.669	17946
824.809	18083
824.949	18102
825.089	18007
825.228	17912
825.368	17771
825.508	17703
825.648	17741
825.787	17733
825.927	17752
826.067	17718
826.206	17653
826.346	17665
826.485	17745
826.625	17703
826.765	17828
826.904	17718
827.044	17459
827.183	17410
827.323	17265
827.462	17436
827.601	17452
827.741	17311
827.88	17296
828.02	17307
828.159	17334
828.298	17326
828.437	17376
828.577	17288
828.716	17512
828.855	17421
828.994	17200
829.134	17143
829.273	17265
829.412	17147
829.551	17094
829.69	17102
829.829	17140
829.968	17292
830.107	17258
830.246	17147
830.385	17094
830.524	17071
830.663	16968
830.802	16889
830.941	16847
831.08	16774
831.219	16809
831.357	16717
831.496	16927
831.635	16755
831.774	16767
831.913	16672
832.051	16542
832.19	16558
832.329	16645
832.467	16504
832.606	16371
832.744	16409
832.883	16360
833.022	16436
833.16	16538
833.299	16527
833.437	16516
833.576	16432
833.714	16466
833.852	16497
833.991	16489
834.129	16599
834.267	16577
834.406	16538
834.544	16580
834.682	16508
834.821	16470
834.959	16546
835.097	16424
835.235	16558
835.373	16455
835.511	16504
835.65	16443
835.788	16398
835.926	16382
836.064	16154
836.202	16314
836.34	16371
836.478	16580
836.615	16424
836.753	16470
836.891	16493
837.029	16478
837.167	16299
837.305	16299
837.443	16238
837.58	16284
837.718	16428
837.856	16246
837.993	16253
838.131	16314
838.269	16265
838.406	16211
838.544	16211
838.681	16036
838.819	15987
838.956	15880
839.094	15778
839.231	15857
839.369	15964
839.506	16287
839.643	16036
839.781	15915
839.918	15888
840.055	15903
840.193	15850
840.33	15743
840.467	15876
840.604	15686
840.742	16116
840.879	15701
841.016	15705
841.153	15770
841.29	15911
841.427	15956
841.564	15831
841.701	15850
841.838	15895
841.975	15648
842.112	15816
842.249	15576
842.385	15618
842.522	15854
842.659	15652
842.796	15595
842.933	15739
843.069	15603
843.206	15584
843.343	15618
843.479	15751
843.616	15652
843.752	15412
843.889	15412
844.025	15644
844.162	15389
844.298	15545
844.435	15458
844.571	15252
844.708	15584
844.844	15561
844.98	15671
845.117	15504
845.253	15500
845.389	15291
845.525	15393
845.661	15279
845.798	15252
845.934	15336
846.07	15150
846.206	15287
846.342	15363
846.478	15230
846.614	15089
846.75	15017
846.886	14853
847.022	15055
847.158	15104
847.294	15055
847.429	15100
847.565	15013
847.701	15203
847.837	14887
847.972	14800
848.108	14777
848.244	14735
848.379	14537
848.515	14552
848.65	14594
848.786	14568
848.921	14621
849.057	14750
849.192	14632
849.328	14636
849.463	14682
849.598	14613
849.734	14549
849.869	14492
850.004	14442
850.14	14298
850.275	14351
850.41	14294
850.545	14294
850.68	14237
850.815	14374
850.95	14362
851.085	14507
851.22	14431
851.355	14298
851.49	14404
851.625	14343
851.76	14320
851.895	14336
852.03	14343
852.165	14309
852.299	14339
852.434	14473
852.569	14408
852.703	14275
852.838	14488
852.973	14503
853.107	14480
853.242	14355
853.376	14221
853.511	14191
853.645	14229
853.78	14305
853.914	14301
854.048	14168
854.183	14119
854.317	14210
854.451	14438
854.585	14191
854.72	14195
854.854	14301
854.988	14252
855.122	14286
855.256	14062
855.39	14168
855.524	14320
855.658	14221
855.792	14176
855.926	14252
856.06	14294
856.194	14237
856.327	14244
856.461	14199
856.595	14225
856.729	14263
856.862	14294
856.996	14362
857.13	14332
857.263	14252
857.397	14282
857.53	14202
857.664	14408
857.797	14317
857.931	14225
858.064	14229
858.197	14309
858.331	14275
858.464	14191
858.597	14039
858.731	14221
858.864	14221
858.997	14233
859.13	14305
859.263	14180
859.396	14317
859.529	14221
859.662	14164
859.795	14138
859.928	14305
860.061	14431
860.194	14434
860.327	14286
860.46	14183
860.592	14313
860.725	14366
860.858	14313
860.99	14138
861.123	14119
861.256	14107
861.388	14282
861.521	14807
861.653	14145
861.786	14058
861.918	14172
862.05	14168
862.183	14142
862.315	14233
862.447	14229
862.58	14214
862.712	14001
862.844	13875
862.976	14119
863.108	14020
863.24	14343
863.372	13906
863.504	13974
863.636	13986
863.768	13997
863.9	14039
864.032	13868
864.164	14001
864.296	14024
864.428	14153
864.559	14058
864.691	14054
864.823	14153
864.954	14081
865.086	14027
865.217	13967
865.349	13993
865.48	14035
865.612	14008
865.743	14126
865.875	14077
866.006	13860
866.137	13917
866.269	14065
866.4	13978
866.531	13959
866.662	13925
866.793	13947
866.924	13906
867.055	13967
867.186	13925
867.317	13959
867.448	13856
867.579	13864
867.71	13925
867.841	13864
867.972	13917
868.103	14035
868.233	14115
868.364	13974
868.495	14081
868.625	14206
868.756	14259
868.886	14149
869.017	14210
869.147	14381
869.278	14377
869.408	14180
869.539	14248
869.669	14393
869.799	14301
869.929	14408
870.06	14278
870.19	14613
870.32	14530
870.45	14617
870.58	14708
870.71	14750
870.84	14765
870.97	14659
871.1	14640
871.23	14785
871.36	14830
871.489	14781
871.619	14758
871.749	14830
871.879	14727
872.008	14925
872.138	14796
872.267	14746
872.397	14800
872.526	14663
872.656	14724
872.785	14648
872.915	14830
873.044	14910
873.173	14773
873.303	14864
873.432	14963
873.561	14979
873.69	14952
873.819	14849
873.948	15005
874.077	14899
874.206	14823
874.335	14902
874.464	15009
874.593	15112
874.722	15146
874.851	15256
874.979	15294
875.108	15218
875.237	15123
875.365	15169
875.494	15119
875.623	15310
875.751	15233
875.88	15272
876.008	15359
876.136	15439
876.265	15667
876.393	15751
876.521	15774
876.65	15633
876.778	15667
876.906	15618
877.034	15629
877.162	15656
877.29	15545
877.418	15671
877.546	15564
877.674	15671
877.802	15530
877.93	15682
878.058	15538
878.185	15507
878.313	15572
878.441	15622
878.568	15469
878.696	15561
878.824	15713
878.951	15679
879.079	15804
879.206	15907
879.333	15934
879.461	15618
879.588	15812
879.715	15770
879.842	15892
879.97	15686
880.097	15412
880.224	15500
880.351	15576
880.478	15515
880.605	15393
880.732	15458
880.859	15625
880.986	15488
881.112	15568
881.239	15355
881.366	15211
881.493	15203
881.619	15142
881.746	15150
881.872	14979
881.999	15116
882.125	15108
882.252	15161
882.378	15123
882.505	15420
882.631	15104
882.757	14914
882.883	15058
883.01	15005
883.136	14902
883.262	14842
883.388	14788
883.514	14986
883.64	14887
883.766	14948
883.892	14701
884.018	14788
884.143	14956
884.269	15058
884.395	14746
884.52	14682
884.646	14743
884.772	14583
884.897	14575
885.023	14644
885.148	14746
885.274	14796
885.399	14800
885.524	14670
885.65	14693
885.775	14625
885.9	14625
886.025	14819
886.15	14686
886.275	14651
886.4	14575
886.525	14632
886.65	14575
886.775	14655
886.9	14613
887.025	14834
887.149	14705
887.274	14412
887.399	14408
887.523	14503
887.648	14415
887.773	14381
887.897	14606
888.021	14571
888.146	14461
888.27	14564
888.395	14587
888.519	14537
888.643	14537
888.767	14659
888.891	14480
889.015	14313
889.139	14351
889.263	14355
889.387	14469
889.511	14530
889.635	14423
889.759	14370
889.883	14415
890.006	14434
890.13	14396
890.254	14278
890.377	14263
890.501	14172
890.624	14081
890.748	14111
890.871	14062
890.995	14065
891.118	13879
891.241	14058
891.364	14069
891.488	14164
891.611	14039
891.734	14077
891.857	14092
891.98	14084
892.103	14126
892.226	14161
892.349	14126
892.471	13890
892.594	14012
892.717	13978
892.839	14050
892.962	14039
893.085	14092
893.207	14092
893.33	13944
893.452	14005
893.575	14081
893.697	13974
893.819	14202
893.941	14309
894.064	14202
894.186	14100
894.308	13932
894.43	14225
894.552	14240
894.674	14111
894.796	14107
894.918	14039
895.04	14115
895.161	14142
895.283	14271
895.405	14134
895.526	14123
895.648	14206
895.769	14206
895.891	14233
896.012	14271
896.134	14358
896.255	14180
896.376	14176
896.498	14229
896.619	14244
896.74	14259
896.861	14347
896.982	14598
897.103	14712
897.224	14518
897.345	14579
897.466	14446
897.587	14480
897.708	14651
897.828	14613
897.949	14412
898.07	14374
898.19	14590
898.311	14659
898.431	14446
898.552	14583
898.672	14697
898.792	14727
898.913	14648
899.033	14541
899.153	14473
899.273	14419
899.393	14336
899.513	14446
899.633	14370
899.753	14522
899.873	14469
899.993	14522
900.113	14412
900.232	14461
900.352	14358
900.472	14393
900.591	14252
900.711	14358
900.83	14328
900.95	14396
901.069	14442
901.189	14195
901.308	14142
901.427	13978
901.546	13974
901.665	14016
901.784	13982
901.904	13883
902.023	13750
902.141	13582
902.26	13731
902.379	13590
902.498	13510
902.617	13445
902.735	13643
902.854	13476
902.973	13510
903.091	13251
903.21	13217
903.328	13358
903.446	13247
903.565	13122
903.683	13057
903.801	13004
903.919	13164
904.038	13080
904.156	12844
904.274	13034
904.392	12901
904.51	12951
904.627	13008
904.745	12920
904.863	12901
904.981	12779
905.098	12650
905.216	12734
905.334	12681
905.451	12635
905.569	12540
905.686	12669
905.803	12604
905.921	12498
906.038	12547
906.155	12380
906.272	12445
906.389	12319
906.506	12258
906.623	12228
906.74	12175
906.857	12102
906.974	12197
907.091	12216
907.208	12422
907.324	12266
907.441	12140
907.557	11996
907.674	12068
907.79	11847
907.907	11874
908.023	12079
908.139	12015
908.256	11863
908.372	11980
908.488	11870
908.604	11733
908.72	11764
908.836	11646
908.952	11714
909.068	11722
909.184	11874
909.3	11737
909.415	11764
909.531	11710
909.647	11471
909.762	11471
909.878	11516
909.993	11486
910.108	11474
910.224	11497
910.339	11448
910.454	11341
910.57	11349
910.685	11364
910.8	11539
910.915	11414
911.03	11311
911.145	11162
911.259	11105
911.374	11185
911.489	11083
911.604	11124
911.718	10991
911.833	11029
911.947	10847
912.062	10759
912.176	11003
912.291	10957
912.405	10957
912.519	11159
912.633	11178
912.748	11094
912.862	10965
912.976	10911
913.09	10714
913.204	10767
913.318	10797
913.431	10968
913.545	10927
913.659	10946
913.772	10889
913.886	10767
914	10660
914.113	10805
914.226	10831
914.34	10771
914.453	10641
914.566	10782
914.68	10668
914.793	10649
914.906	10546
915.019	10379
915.132	10405
915.245	10360
915.358	10485
915.47	10443
915.583	10470
915.696	10489
915.809	10565
915.921	10641
916.034	10455
916.146	10394
916.259	10341
916.371	10523
916.483	10436
916.595	10405
916.708	10303
916.82	10363
916.932	10337
917.044	10291
917.156	10386
917.268	10242
917.38	10310
917.491	10230
917.603	10257
917.715	10443
917.826	10352
917.938	10287
918.049	10032
918.161	10325
918.272	10436
918.384	10432
918.495	10352
918.606	10192
918.717	10139
918.828	10192
918.939	10181
919.05	10131
919.161	10192
919.272	9949
919.383	10048
919.494	10200
919.604	10398
919.715	10150
919.826	10025
919.936	10181
920.047	10238
920.157	10246
920.267	10432
920.378	10272
920.488	10219
920.598	10398
920.708	10455
920.818	10462
920.928	10291
921.038	10508
921.148	10447
921.258	10268
921.368	10139
921.477	10040
921.587	9979
921.697	9941
921.806	10109
921.916	9968
922.025	9774
922.134	9755
922.244	9679
922.353	9694
922.462	9622
922.571	9637
922.68	9496
922.789	9488
922.898	9561
923.007	9428
923.116	9397
923.224	9443
923.333	9450
923.442	9332
923.55	9310
923.659	9279
923.767	9329
923.876	9291
923.984	9382
924.092	9173
924.201	9317
924.309	9325
924.417	9351
924.525	9302
924.633	9279
924.741	10246
924.849	9123
924.956	9203
925.064	9043
925.172	8998
925.279	9104
925.387	9093
925.494	9100
925.602	9268
925.709	9138
925.816	9028
925.924	9081
926.031	9173
926.138	9081
926.245	9127
926.352	9055
926.459	9195
926.566	9218
926.673	9131
926.779	8929
926.886	8967
926.993	8830
927.099	8777
927.206	8861
927.312	8792
927.419	8864
927.525	8861
927.631	8826
927.737	8693
927.843	8705
927.95	8613
928.056	8697
928.162	8678
928.267	8689
928.373	9367
928.479	8853
928.585	8579
928.69	8674
928.796	8701
928.901	8590
929.007	8457
929.112	8659
929.218	8617
929.323	8507
929.428	8507
929.533	8640
929.638	8469
929.743	8480
929.848	8507
929.953	8514
930.058	8408
930.163	8290
930.267	8339
930.372	8461
930.477	8252
930.581	8503
930.685	8427
930.79	8240
930.894	8305
930.998	8290
931.103	8370
931.207	8096
931.311	8031
931.415	7906
931.519	7753
931.623	7727
