Data from test_V78500241_631.txt Node
Date: Fri Mar 25 14:38:06 CST 2022
User: usil
Spectrometer: V785-0024
Trigger mode: 0
Integration Time (sec): 4.000000E-1
Scans to average: 1
Nonlinearity correction enabled: false
Boxcar width: 0
Storing dark spectrum: false
XAxis mode: Wavelengths
Number of Pixels in Spectrum: 1024
>>>>>Begin Spectral Data<<<<<
801.071	27907
801.214	27808
801.356	27637
801.499	27526
801.641	27237
801.783	27386
801.926	27401
802.068	27058
802.211	27150
802.353	27001
802.496	26940
802.638	26921
802.78	26785
802.923	26746
803.065	26708
803.208	26670
803.35	26792
803.492	26762
803.635	27005
803.777	26804
803.919	26960
804.061	27252
804.204	27001
804.346	26872
804.488	26940
804.63	27127
804.773	26940
804.915	27116
805.057	27173
805.199	27108
805.341	27245
805.483	27424
805.626	27454
805.768	27370
805.91	27427
806.052	27568
806.194	27610
806.336	27949
806.478	28063
806.62	28211
806.762	28379
806.904	28580
807.046	29334
807.188	29288
807.33	29699
807.472	30201
807.614	30753
807.756	31411
807.898	32229
808.04	33408
808.182	35079
808.324	37057
808.465	39378
808.607	42007
808.749	44336
808.891	45747
809.033	45595
809.174	44389
809.316	42076
809.458	39488
809.6	36722
809.741	34748
809.883	33108
810.025	31936
810.166	30951
810.308	30433
810.45	29942
810.591	29505
810.733	29048
810.875	28763
811.016	28516
811.158	28253
811.299	28421
811.441	28325
811.582	28143
811.724	27914
811.865	27660
812.007	27694
812.148	27755
812.29	27599
812.431	27698
812.573	27892
812.714	27903
812.855	27949
812.997	28070
813.138	28086
813.279	27895
813.421	27819
813.562	27671
813.703	27500
813.845	27393
813.986	27032
814.127	26823
814.268	26777
814.41	26678
814.551	26651
814.692	26739
814.833	26514
814.974	26533
815.115	26541
815.256	26366
815.397	26438
815.539	26328
815.68	26138
815.821	26138
815.962	26214
816.103	26058
816.244	26092
816.385	25970
816.526	25822
816.666	25567
816.807	25578
816.948	25609
817.089	25590
817.23	25499
817.371	25491
817.512	25521
817.653	25495
817.793	25365
817.934	25388
818.075	25438
818.216	25472
818.356	25388
818.497	25259
818.638	25084
818.778	25202
818.919	25145
819.06	25175
819.2	25289
819.341	25251
819.481	25362
819.622	25464
819.762	25635
819.903	25464
820.043	25460
820.184	25278
820.324	25369
820.465	25365
820.605	25274
820.746	25430
820.886	25164
821.026	25221
821.167	25148
821.307	25225
821.447	25251
821.588	24973
821.728	24901
821.868	24612
822.008	24593
822.149	24517
822.289	24620
822.429	24292
822.569	24251
822.709	24319
822.849	24064
822.99	24026
823.13	24030
823.27	23843
823.41	23878
823.55	23722
823.69	23847
823.83	23718
823.97	23821
824.11	23512
824.25	23509
824.389	23581
824.529	23627
824.669	23406
824.809	23638
824.949	23672
825.089	23570
825.228	23562
825.368	23524
825.508	23356
825.648	23417
825.787	23433
825.927	23433
826.067	23280
826.206	23326
826.346	23379
826.485	23387
826.625	23444
826.765	23277
826.904	23341
827.044	23105
827.183	23136
827.323	23056
827.462	23003
827.601	23052
827.741	22976
827.88	23006
828.02	22816
828.159	22809
828.298	22999
828.437	23018
828.577	22809
828.716	23010
828.855	22934
828.994	22485
829.134	22641
829.273	22679
829.412	22580
829.551	22550
829.69	22588
829.829	22725
829.968	22729
830.107	22706
830.246	22729
830.385	22736
830.524	22634
830.663	22310
830.802	22443
830.941	22295
831.08	22177
831.219	22246
831.357	22402
831.496	22565
831.635	22287
831.774	22078
831.913	22143
832.051	22040
832.19	22097
832.329	22135
832.467	22040
832.606	21964
832.744	22002
832.883	22067
833.022	22177
833.16	22230
833.299	22348
833.437	22554
833.576	22637
833.714	22611
833.852	22736
833.991	22854
834.129	23098
834.267	23033
834.406	22889
834.544	22858
834.682	22790
834.821	22584
834.959	22698
835.097	22523
835.235	22367
835.373	22303
835.511	22223
835.65	22029
835.788	22048
835.926	21698
836.064	21610
836.202	21762
836.34	21793
836.478	21854
836.615	21774
836.753	21937
836.891	21854
837.029	21797
837.167	21728
837.305	21641
837.443	21686
837.58	21519
837.718	21671
837.856	21534
837.993	21450
838.131	21610
838.269	21511
838.406	21397
838.544	21291
838.681	21264
838.819	21256
838.956	21062
839.094	20990
839.231	21074
839.369	21237
839.506	21325
839.643	21264
839.781	21039
839.918	20914
840.055	20925
840.193	20906
840.33	20906
840.467	20834
840.604	20967
840.742	21150
840.879	20731
841.016	20785
841.153	20921
841.29	21047
841.427	20910
841.564	20937
841.701	20925
841.838	20902
841.975	20834
842.112	20861
842.249	20849
842.385	20701
842.522	20937
842.659	20762
842.796	20727
842.933	20735
843.069	20625
843.206	20864
843.343	20941
843.479	20773
843.616	20785
843.752	20708
843.889	20655
844.025	20883
844.162	20697
844.298	20944
844.435	20967
844.571	21146
844.708	21416
844.844	21762
844.98	22082
845.117	22630
845.253	23376
845.389	24646
845.525	27397
845.661	31928
845.798	37046
845.934	41162
846.07	42958
846.206	41961
846.342	38328
846.478	33036
846.614	28158
846.75	25038
846.886	23395
847.022	22291
847.158	21637
847.294	21131
847.429	20842
847.565	20571
847.701	20602
847.837	20221
847.972	20065
848.108	20073
848.244	20039
848.379	19925
848.515	19784
848.65	19537
848.786	19655
848.921	19616
849.057	19670
849.192	19731
849.328	19609
849.463	19609
849.598	19426
849.734	19491
849.869	19426
850.004	19426
850.14	19381
850.275	19251
850.41	19221
850.545	19274
850.68	19304
850.815	19365
850.95	19320
851.085	19472
851.22	19457
851.355	19263
851.49	19213
851.625	19346
851.76	19240
851.895	19088
852.03	19164
852.165	19327
852.299	19346
852.434	19445
852.569	19388
852.703	19316
852.838	19354
852.973	19396
853.107	19601
853.242	19225
853.376	19274
853.511	19148
853.645	19308
853.78	19495
853.914	19369
854.048	19441
854.183	19464
854.317	19415
854.451	19556
854.585	19449
854.72	19415
854.854	19453
854.988	19263
855.122	19415
855.256	19175
855.39	19297
855.524	19327
855.658	19164
855.792	19213
855.926	19240
856.06	19266
856.194	19255
856.327	19148
856.461	19042
856.595	18985
856.729	19042
856.862	19168
856.996	19107
857.13	19103
857.263	19137
857.397	19137
857.53	19012
857.664	19168
857.797	19008
857.931	19152
858.064	19198
858.197	19118
858.331	19027
858.464	18993
858.597	18993
858.731	18981
858.864	19000
858.997	18973
859.13	18928
859.263	19046
859.396	19091
859.529	18916
859.662	18894
859.795	18871
859.928	18966
860.061	18966
860.194	19126
860.327	19034
860.46	18886
860.592	19080
860.725	19084
860.858	19072
860.99	18973
861.123	18814
861.256	19038
861.388	18977
861.521	19559
861.653	18848
861.786	18802
861.918	18783
862.05	18840
862.183	18859
862.315	18886
862.447	18920
862.58	18905
862.712	18677
862.844	18616
862.976	18730
863.108	18593
863.24	18989
863.372	18585
863.504	18658
863.636	18597
863.768	18669
863.9	18658
864.032	18582
864.164	18532
864.296	18604
864.428	18589
864.559	18821
864.691	18730
864.823	18692
864.954	18589
865.086	18536
865.217	18486
865.349	18570
865.48	18464
865.612	18597
865.743	18719
865.875	18604
866.006	18502
866.137	18452
866.269	18517
866.4	18502
866.531	18464
866.662	18486
866.793	18483
866.924	18365
867.055	18433
867.186	18448
867.317	18486
867.448	18391
867.579	18422
867.71	18452
867.841	18369
867.972	18433
868.103	18426
868.233	18566
868.364	18563
868.495	18555
868.625	18631
868.756	18776
868.886	18654
869.017	18829
869.147	18787
869.278	18856
869.408	18760
869.539	18806
869.669	18871
869.799	18795
869.929	18867
870.06	18901
870.19	19133
870.32	19069
870.45	19042
870.58	19194
870.71	19373
870.84	19179
870.97	19247
871.1	19129
871.23	19354
871.36	19499
871.489	19480
871.619	19373
871.749	19362
871.879	19567
872.008	19605
872.138	19430
872.267	19483
872.397	19483
872.526	19312
872.656	19320
872.785	19362
872.915	19559
873.044	19689
873.173	19666
873.303	19662
873.432	19620
873.561	19685
873.69	19685
873.819	19776
873.948	19803
874.077	19731
874.206	19597
874.335	19818
874.464	19845
874.593	19947
874.722	20035
874.851	20218
874.979	20107
875.108	20176
875.237	20149
875.365	20092
875.494	20180
875.623	20313
875.751	20263
875.88	20374
876.008	20442
876.136	20602
876.265	20891
876.393	21024
876.521	21039
876.65	20967
876.778	20963
876.906	21039
877.034	21112
877.162	21127
877.29	21142
877.418	21336
877.546	21351
877.674	21355
877.802	21386
877.93	21572
878.058	21728
878.185	21793
878.313	22025
878.441	22432
878.568	22455
878.696	23079
878.824	23790
878.951	24817
879.079	25883
879.206	27450
879.333	29117
879.461	30399
879.588	31339
879.715	31411
879.842	30798
879.97	29102
880.097	27427
880.224	26229
880.351	25103
880.478	24532
880.605	24053
880.732	23710
880.859	23794
880.986	23269
881.112	23265
881.239	23246
881.366	23025
881.493	22911
881.619	22858
881.746	22968
881.872	23006
881.999	22847
882.125	22915
882.252	23181
882.378	23102
882.505	23189
882.631	23094
882.757	22885
882.883	23037
883.01	22866
883.136	22930
883.262	22706
883.388	22649
883.514	22767
883.64	22873
883.766	22801
883.892	22630
884.018	22653
884.143	22797
884.269	22965
884.395	22748
884.52	22615
884.646	22596
884.772	22577
884.897	22489
885.023	22634
885.148	22565
885.274	22618
885.399	22504
885.524	22390
885.65	22428
885.775	22105
885.9	21926
886.025	21895
886.15	21873
886.275	21652
886.4	21511
886.525	21610
886.65	21348
886.775	21245
886.9	21329
887.025	21416
887.149	21104
887.274	20891
887.399	20819
887.523	20648
887.648	20492
887.773	20328
887.897	20533
888.021	20564
888.146	20313
888.27	20442
888.395	20484
888.519	20313
888.643	20290
888.767	20298
888.891	20054
889.015	19883
889.139	19913
889.263	19909
889.387	19928
889.511	20100
889.635	20081
889.759	19776
889.883	19719
890.006	19765
890.13	19761
890.254	19582
890.377	19571
890.501	19525
890.624	19339
890.748	19419
890.871	19365
890.995	19225
891.118	19110
891.241	19198
891.364	19110
891.488	19152
891.611	19061
891.734	19027
891.857	19133
891.98	18981
892.103	19031
892.226	18985
892.349	18928
892.471	18650
892.594	18779
892.717	18837
892.839	18757
892.962	18738
893.085	18795
893.207	18719
893.33	18661
893.452	18528
893.575	18856
893.697	18601
893.819	18806
893.941	18772
894.064	18795
894.186	18498
894.308	18547
894.43	18589
894.552	18669
894.674	18688
894.796	18467
894.918	18540
895.04	18433
895.161	18544
895.283	18570
895.405	18464
895.526	18391
895.648	18426
895.769	18471
895.891	18414
896.012	18388
896.134	18388
896.255	18441
896.376	18304
896.498	18311
896.619	18395
896.74	18319
896.861	18452
896.982	18871
897.103	18802
897.224	18669
897.345	18612
897.466	18414
897.587	18627
897.708	18544
897.828	18677
897.949	18490
898.07	18437
898.19	18399
898.311	18642
898.431	18490
898.552	18566
898.672	18597
898.792	18532
898.913	18540
899.033	18380
899.153	18422
899.273	18270
899.393	18285
899.513	18372
899.633	18414
899.753	18369
899.873	18197
899.993	18323
900.113	18273
900.232	18311
900.352	18148
900.472	18216
900.591	18220
900.711	18144
900.83	18026
900.95	18201
901.069	18334
901.189	18026
901.308	17737
901.427	17756
901.546	17665
901.665	17756
901.784	17668
901.904	17630
902.023	17410
902.141	17200
902.26	17178
902.379	17273
902.498	17090
902.617	17208
902.735	17223
902.854	17086
902.973	17166
903.091	16843
903.21	16824
903.328	16713
903.446	16656
903.565	16481
903.683	16630
903.801	16405
903.919	16527
904.038	16645
904.156	16394
904.274	16485
904.392	16249
904.51	16276
904.627	16234
904.745	16440
904.863	16325
904.981	16112
905.098	15979
905.216	16048
905.334	16051
905.451	15983
905.569	15937
905.686	16048
905.803	15922
905.921	15846
906.038	15873
906.155	15827
906.272	15644
906.389	15690
906.506	15481
906.623	15458
906.74	15447
906.857	15401
906.974	15389
907.091	15496
907.208	15542
907.324	15458
907.441	15325
907.557	15233
907.674	15157
907.79	15119
907.907	15199
908.023	15340
908.139	15245
908.256	15127
908.372	15100
908.488	15028
908.604	14960
908.72	14876
908.836	14823
908.952	14857
909.068	14956
909.184	14986
909.3	14834
909.415	14952
909.531	14849
909.647	14674
909.762	14686
909.878	14549
909.993	14625
910.108	14716
910.224	14606
910.339	14579
910.454	14556
910.57	14442
910.685	14461
910.8	14632
910.915	14568
911.03	14484
911.145	14290
911.259	14271
911.374	14256
911.489	14191
911.604	14134
911.718	13951
911.833	14012
911.947	13917
912.062	13826
912.176	13928
912.291	14092
912.405	14054
912.519	14084
912.633	14119
912.748	14062
912.862	13951
912.976	13917
913.09	13845
913.204	13727
913.318	13940
913.431	13913
913.545	13909
913.659	13955
913.772	13906
913.886	13700
914	13666
914.113	13799
914.226	13712
914.34	13826
914.453	13590
914.566	13719
914.68	13666
914.793	13636
914.906	13320
915.019	13350
915.132	13316
915.245	13392
915.358	13426
915.47	13377
915.583	13369
915.696	13472
915.809	13377
915.921	13487
916.034	13232
916.146	13255
916.259	13285
916.371	13301
916.483	13422
916.595	13251
916.708	13206
916.82	13285
916.932	13225
917.044	13232
917.156	13285
917.268	13129
917.38	13050
917.491	13012
917.603	13050
917.715	13198
917.826	13194
917.938	13027
918.049	12928
918.161	13000
918.272	13198
918.384	13122
918.495	12966
918.606	12833
918.717	12715
918.828	12897
918.939	12897
919.05	12749
919.161	12863
919.272	12635
919.383	12627
919.494	12810
919.604	12981
919.715	12825
919.826	12715
919.936	12806
920.047	12837
920.157	12741
920.267	12973
920.378	12913
920.488	12768
920.598	13050
920.708	13145
920.818	12886
920.928	12962
921.038	13156
921.148	13076
921.258	12825
921.368	12650
921.477	12658
921.587	12536
921.697	12410
921.806	12589
921.916	12445
922.025	12361
922.134	12228
922.244	12243
922.353	12277
922.462	12095
922.571	12041
922.68	11901
922.789	11958
922.898	11927
923.007	11870
923.116	11901
923.224	11828
923.333	11874
923.442	11695
923.55	11733
923.659	11748
923.767	11832
923.876	11714
923.984	11722
924.092	11619
924.201	11707
924.309	11589
924.417	11661
924.525	11608
924.633	11611
924.741	12323
924.849	11402
924.956	11539
925.064	11398
925.172	11292
925.279	11376
925.387	11406
925.494	11360
925.602	11501
925.709	11410
925.816	11322
925.924	11341
926.031	11448
926.138	11288
926.245	11429
926.352	11296
926.459	11322
926.566	11410
926.673	11322
926.779	11159
926.886	11174
926.993	11159
927.099	11025
927.206	10934
927.312	10991
927.419	11010
927.525	11014
927.631	11056
927.737	10919
927.843	10877
927.95	10793
928.056	10858
928.162	10869
928.267	10892
928.373	11368
928.479	10927
928.585	10702
928.69	10835
928.796	10976
928.901	10698
929.007	10622
929.112	10801
929.218	10748
929.323	10645
929.428	10565
929.533	10774
929.638	10531
929.743	10615
929.848	10649
929.953	10607
930.058	10512
930.163	10409
930.267	10447
930.372	10512
930.477	10348
930.581	10470
930.685	10440
930.79	10230
930.894	10310
930.998	10215
931.103	10352
931.207	10002
931.311	9975
931.415	9835
931.519	9671
931.623	9709
