Data from test_V78500241_358.txt Node
Date: Fri Mar 25 14:36:12 CST 2022
User: usil
Spectrometer: V785-0024
Trigger mode: 0
Integration Time (sec): 4.000000E-1
Scans to average: 1
Nonlinearity correction enabled: false
Boxcar width: 0
Storing dark spectrum: false
XAxis mode: Wavelengths
Number of Pixels in Spectrum: 1024
>>>>>Begin Spectral Data<<<<<
801.071	26826
801.214	26720
801.356	26480
801.499	26381
801.641	26218
801.783	26328
801.926	26343
802.068	26195
802.211	26126
802.353	26058
802.496	25822
802.638	25822
802.78	25883
802.923	25776
803.065	25757
803.208	25845
803.35	25696
803.492	25765
803.635	25932
803.777	25761
803.919	25894
804.061	26115
804.204	25856
804.346	25799
804.488	25613
804.63	25708
804.773	25738
804.915	25795
805.057	25841
805.199	25757
805.341	25921
805.483	25704
805.626	25704
805.768	25852
805.91	25753
806.052	25761
806.194	25727
806.336	25879
806.478	25890
806.62	25712
806.762	25947
806.904	26054
807.046	26225
807.188	26290
807.33	26153
807.472	26210
807.614	26016
807.756	26282
807.898	25921
808.04	25959
808.182	26024
808.324	25997
808.465	26096
808.607	26084
808.749	26240
808.891	26434
809.033	26473
809.174	26408
809.316	26240
809.458	26320
809.6	26202
809.741	26385
809.883	26450
810.025	26446
810.166	26537
810.308	26511
810.45	26469
810.591	26453
810.733	26195
810.875	26187
811.016	26100
811.158	25986
811.299	26119
811.441	26343
811.582	26324
811.724	26142
811.865	26058
812.007	26191
812.148	26153
812.29	26161
812.431	26278
812.573	26389
812.714	26583
812.855	26621
812.997	26773
813.138	26906
813.279	26667
813.421	26731
813.562	26541
813.703	26530
813.845	26278
813.986	26077
814.127	25856
814.268	25909
814.41	25845
814.551	25803
814.692	25750
814.833	25635
814.974	25563
815.115	25814
815.256	25548
815.397	25483
815.539	25575
815.68	25537
815.821	25491
815.962	25415
816.103	25396
816.244	25270
816.385	25297
816.526	25255
816.666	25118
816.807	24810
816.948	25084
817.089	24954
817.23	24973
817.371	24859
817.512	24817
817.653	24787
817.793	24856
817.934	24700
818.075	24837
818.216	24886
818.356	24802
818.497	24749
818.638	24578
818.778	24589
818.919	24589
819.06	24551
819.2	24684
819.341	24681
819.481	24741
819.622	24768
819.762	25046
819.903	24962
820.043	25008
820.184	24928
820.324	24878
820.465	24962
820.605	24814
820.746	24821
820.886	24665
821.026	24757
821.167	24757
821.307	24840
821.447	24665
821.588	24688
821.728	24536
821.868	24308
822.008	24281
822.149	24213
822.289	24060
822.429	23954
822.569	23809
822.709	23752
822.849	23566
822.99	23570
823.13	23649
823.27	23524
823.41	23368
823.55	23368
823.69	23455
823.83	23410
823.97	23277
824.11	23254
824.25	23143
824.389	23239
824.529	23220
824.669	23132
824.809	23318
824.949	23353
825.089	23242
825.228	23185
825.368	23006
825.508	23170
825.648	23006
825.787	23003
825.927	22987
826.067	22946
826.206	22995
826.346	23071
826.485	22934
826.625	22961
826.765	23105
826.904	22972
827.044	22820
827.183	22706
827.323	22622
827.462	22721
827.601	22744
827.741	22584
827.88	22717
828.02	22577
828.159	22550
828.298	22687
828.437	22656
828.577	22588
828.716	22618
828.855	22500
828.994	22417
829.134	22386
829.273	22519
829.412	22249
829.551	22185
829.69	22310
829.829	22356
829.968	22382
830.107	22379
830.246	22276
830.385	22284
830.524	22185
830.663	22177
830.802	22051
830.941	21899
831.08	21762
831.219	21953
831.357	21949
831.496	22131
831.635	21865
831.774	21816
831.913	21766
832.051	21557
832.19	21762
832.329	21663
832.467	21530
832.606	21488
832.744	21542
832.883	21557
833.022	21591
833.16	21511
833.299	21534
833.437	21542
833.576	21591
833.714	21534
833.852	21656
833.991	21641
834.129	21568
834.267	21614
834.406	21614
834.544	21637
834.682	21583
834.821	21367
834.959	21660
835.097	21435
835.235	21618
835.373	21450
835.511	21511
835.65	21424
835.788	21389
835.926	21279
836.064	21222
836.202	21329
836.34	21370
836.478	21450
836.615	21329
836.753	21382
836.891	21485
837.029	21466
837.167	21306
837.305	21393
837.443	21355
837.58	21214
837.718	21340
837.856	21306
837.993	21214
838.131	21195
838.269	21207
838.406	21119
838.544	21173
838.681	20861
838.819	20872
838.956	20781
839.094	20701
839.231	20724
839.369	20716
839.506	21142
839.643	20800
839.781	20678
839.918	20621
840.055	20644
840.193	20606
840.33	20499
840.467	20484
840.604	20609
840.742	20952
840.879	20514
841.016	20708
841.153	20545
841.29	20724
841.427	20575
841.564	20560
841.701	20640
841.838	20476
841.975	20457
842.112	20507
842.249	20404
842.385	20256
842.522	20594
842.659	20434
842.796	20427
842.933	20267
843.069	20309
843.206	20248
843.343	20431
843.479	20400
843.616	20278
843.752	20172
843.889	20062
844.025	20278
844.162	20008
844.298	20210
844.435	20134
844.571	20134
844.708	20153
844.844	20282
844.98	20221
845.117	20180
845.253	20149
845.389	20031
845.525	20043
845.661	20046
845.798	20008
845.934	19947
846.07	19951
846.206	20027
846.342	19932
846.478	19833
846.614	19704
846.75	19590
846.886	19597
847.022	19586
847.158	19609
847.294	19586
847.429	19590
847.565	19567
847.701	19833
847.837	19293
847.972	19152
848.108	19350
848.244	19339
848.379	19236
848.515	19031
848.65	19129
848.786	19145
848.921	19076
849.057	19126
849.192	19228
849.328	19110
849.463	19122
849.598	18970
849.734	19042
849.869	18951
850.004	18890
850.14	18875
850.275	18916
850.41	18909
850.545	18859
850.68	18795
850.815	18875
850.95	18924
851.085	18973
851.22	18924
851.355	18806
851.49	18791
851.625	18844
851.76	18848
851.895	18757
852.03	18673
852.165	18768
852.299	18779
852.434	18943
852.569	18753
852.703	18890
852.838	18886
852.973	18897
853.107	19012
853.242	18871
853.376	18681
853.511	18555
853.645	18654
853.78	18741
853.914	18623
854.048	18627
854.183	18661
854.317	18688
854.451	18932
854.585	18597
854.72	18642
854.854	18738
854.988	18688
855.122	18650
855.256	18623
855.39	18620
855.524	18821
855.658	18757
855.792	18604
855.926	18787
856.06	18681
856.194	18620
856.327	18703
856.461	18517
856.595	18593
856.729	18639
856.862	18776
856.996	18745
857.13	18604
857.263	18833
857.397	18753
857.53	18589
857.664	18677
857.797	18722
857.931	18734
858.064	18688
858.197	18730
858.331	18661
858.464	18517
858.597	18521
858.731	18555
858.864	18650
858.997	18544
859.13	18593
859.263	18681
859.396	18741
859.529	18623
859.662	18589
859.795	18582
859.928	18525
860.061	18734
860.194	18703
860.327	18574
860.46	18456
860.592	18681
860.725	18741
860.858	18589
860.99	18509
861.123	18509
861.256	18574
861.388	18589
861.521	19304
861.653	18460
861.786	18403
861.918	18483
862.05	18486
862.183	18593
862.315	18627
862.447	18696
862.58	18570
862.712	18388
862.844	18213
862.976	18471
863.108	18407
863.24	18593
863.372	18296
863.504	18285
863.636	18254
863.768	18327
863.9	18292
864.032	18228
864.164	18289
864.296	18384
864.428	18350
864.559	18388
864.691	18372
864.823	18334
864.954	18247
865.086	18327
865.217	18281
865.349	18148
865.48	18304
865.612	18281
865.743	18452
865.875	18277
866.006	18163
866.137	18270
866.269	18251
866.4	18194
866.531	18216
866.662	18098
866.793	18213
866.924	18216
867.055	18243
867.186	18155
867.317	18232
867.448	18106
867.579	18220
867.71	18038
867.841	18148
867.972	18243
868.103	18254
868.233	18194
868.364	18167
868.495	18216
868.625	18456
868.756	18525
868.886	18285
869.017	18330
869.147	18486
869.278	18574
869.408	18445
869.539	18395
869.669	18418
869.799	18410
869.929	18467
870.06	18540
870.19	18658
870.32	18654
870.45	18776
870.58	18810
870.71	18875
870.84	18977
870.97	18692
871.1	18760
871.23	18947
871.36	18973
871.489	18848
871.619	18966
871.749	19019
871.879	19012
872.008	18989
872.138	19053
872.267	18966
872.397	18833
872.526	18966
872.656	18882
872.785	18844
872.915	18867
873.044	19023
873.173	19019
873.303	19103
873.432	19084
873.561	19217
873.69	19046
873.819	18954
873.948	19114
874.077	19168
874.206	19050
874.335	19023
874.464	19145
874.593	19164
874.722	19145
874.851	19308
874.979	19354
875.108	19525
875.237	19228
875.365	19255
875.494	19270
875.623	19476
875.751	19259
875.88	19225
876.008	19499
876.136	19521
876.265	19753
876.393	19788
876.521	19784
876.65	19731
876.778	19738
876.906	19578
877.034	19655
877.162	19670
877.29	19655
877.418	19677
877.546	19651
877.674	19666
877.802	19605
877.93	19715
878.058	19632
878.185	19544
878.313	19708
878.441	19738
878.568	19601
878.696	19662
878.824	19693
878.951	19738
879.079	19955
879.206	19982
879.333	19959
879.461	19803
879.588	19830
879.715	19993
879.842	20058
879.97	19841
880.097	19590
880.224	19594
880.351	19693
880.478	19537
880.605	19586
880.732	19552
880.859	19788
880.986	19548
881.112	19540
881.239	19388
881.366	19304
881.493	19156
881.619	19122
881.746	19065
881.872	19137
881.999	19175
882.125	19126
882.252	19156
882.378	19217
882.505	19209
882.631	19209
882.757	19088
882.883	18977
883.01	18916
883.136	18856
883.262	18829
883.388	18856
883.514	18897
883.64	18939
883.766	18901
883.892	18703
884.018	18757
884.143	18890
884.269	18905
884.395	18639
884.52	18483
884.646	18532
884.772	18570
884.897	18399
885.023	18597
885.148	18677
885.274	18715
885.399	18681
885.524	18471
885.65	18502
885.775	18681
885.9	18471
886.025	18639
886.15	18589
886.275	18566
886.4	18388
886.525	18555
886.65	18445
886.775	18433
886.9	18681
887.025	18856
887.149	18555
887.274	18384
887.399	18285
887.523	18334
887.648	18308
887.773	18292
887.897	18407
888.021	18391
888.146	18315
888.27	18346
888.395	18410
888.519	18243
888.643	18414
888.767	18426
888.891	18304
889.015	18041
889.139	18281
889.263	18106
889.387	18281
889.511	18338
889.635	18270
889.759	18129
889.883	18194
890.006	18159
890.13	18266
890.254	18022
890.377	18125
890.501	18011
890.624	17954
890.748	17973
890.871	17866
890.995	17828
891.118	17748
891.241	17821
891.364	17817
891.488	17912
891.611	17764
891.734	17699
891.857	17878
891.98	17878
892.103	17817
892.226	17809
892.349	17726
892.471	17623
892.594	17718
892.717	17843
892.839	17703
892.962	17722
893.085	17802
893.207	17741
893.33	17649
893.452	17649
893.575	17786
893.697	17847
893.819	18003
893.941	18068
894.064	17745
894.186	17703
894.308	17623
894.43	17843
894.552	17939
894.674	17794
894.796	17783
894.918	17764
895.04	17821
895.161	17878
895.283	17745
895.405	17771
895.526	17710
895.648	17843
895.769	17741
895.891	17863
896.012	17893
896.134	17779
896.255	17748
896.376	17737
896.498	17794
896.619	17840
896.74	17843
896.861	17958
896.982	18251
897.103	18266
897.224	18155
897.345	17946
897.466	17946
897.587	18041
897.708	18152
897.828	18213
897.949	18064
898.07	17847
898.19	17923
898.311	18163
898.431	18003
898.552	18060
898.672	18163
898.792	18098
898.913	17984
899.033	17973
899.153	17950
899.273	17764
899.393	17923
899.513	17904
899.633	17817
899.753	17828
899.873	17893
899.993	17889
900.113	17748
900.232	17855
900.352	17843
900.472	17687
900.591	17570
900.711	17615
900.83	17638
900.95	17745
901.069	17764
901.189	17535
901.308	17395
901.427	17303
901.546	17242
901.665	17250
901.784	17197
901.904	17140
902.023	17037
902.141	16828
902.26	16725
902.379	16889
902.498	16683
902.617	16809
902.735	16793
902.854	16729
902.973	16668
903.091	16546
903.21	16493
903.328	16493
903.446	16352
903.565	16356
903.683	16253
903.801	16257
903.919	16249
904.038	16219
904.156	16078
904.274	16162
904.392	16029
904.51	16101
904.627	16128
904.745	16067
904.863	16105
904.981	15926
905.098	15713
905.216	15831
905.334	15797
905.451	15686
905.569	15808
905.686	15819
905.803	15694
905.921	15641
906.038	15629
906.155	15542
906.272	15462
906.389	15412
906.506	15294
906.623	15313
906.74	15237
906.857	15252
906.974	15154
907.091	15321
907.208	15401
907.324	15424
907.441	15325
907.557	15058
907.674	14979
907.79	15001
907.907	15001
908.023	14975
908.139	14971
908.256	14906
908.372	14906
908.488	14815
908.604	14739
908.72	14731
908.836	14697
908.952	14705
909.068	14765
909.184	14739
909.3	14663
909.415	14735
909.531	14575
909.647	14381
909.762	14393
909.878	14377
909.993	14309
910.108	14389
910.224	14419
910.339	14362
910.454	14290
910.57	14225
910.685	14149
910.8	14419
910.915	14393
911.03	14187
911.145	14130
911.259	14062
911.374	14001
911.489	14050
911.604	13970
911.718	13837
911.833	13776
911.947	13628
912.062	13616
912.176	13750
912.291	13704
912.405	13734
912.519	13887
912.633	13989
912.748	13784
912.862	13723
912.976	13575
913.09	13540
913.204	13620
913.318	13647
913.431	13803
913.545	13746
913.659	13719
913.772	13571
913.886	13518
914	13518
914.113	13567
914.226	13639
914.34	13529
914.453	13335
914.566	13556
914.68	13457
914.793	13457
914.906	13194
915.019	13198
915.132	13099
915.245	13114
915.358	13164
915.47	13244
915.583	13118
915.696	13187
915.809	13304
915.921	13244
916.034	13187
916.146	13103
916.259	13061
916.371	13171
916.483	13126
916.595	13057
916.708	13008
916.82	13133
916.932	12928
917.044	12973
917.156	12916
917.268	12817
917.38	12875
917.491	12894
917.603	12878
917.715	12932
917.826	12943
917.938	12814
918.049	12821
918.161	12867
918.272	12966
918.384	12996
918.495	12779
918.606	12642
918.717	12673
918.828	12726
918.939	12639
919.05	12566
919.161	12604
919.272	12391
919.383	12578
919.494	12715
919.604	12871
919.715	12627
919.826	12528
919.936	12597
920.047	12738
920.157	12585
920.267	12875
920.378	12593
920.488	12582
920.598	12715
920.708	12924
920.818	12779
920.928	12707
921.038	12996
921.148	12825
921.258	12612
921.368	12490
921.477	12403
921.587	12426
921.697	12281
921.806	12357
921.916	12311
922.025	12087
922.134	12060
922.244	11980
922.353	12091
922.462	11969
922.571	11897
922.68	11866
922.789	11741
922.898	11786
923.007	11649
923.116	11748
923.224	11745
923.333	11775
923.442	11539
923.55	11627
923.659	11581
923.767	11611
923.876	11528
923.984	11611
924.092	11410
924.201	11532
924.309	11532
924.417	11562
924.525	11417
924.633	11436
924.741	12239
924.849	11231
924.956	11429
925.064	11280
925.172	11273
925.279	11223
925.387	11288
925.494	11197
925.602	11303
925.709	11284
925.816	11189
925.924	11223
926.031	11284
926.138	11231
926.245	11227
926.352	11045
926.459	11220
926.566	11277
926.673	11166
926.779	11079
926.886	10957
926.993	10991
927.099	10885
927.206	10740
927.312	10778
927.419	10885
927.525	10919
927.631	10927
927.737	10782
927.843	10717
927.95	10573
928.056	10660
928.162	10778
928.267	10782
928.373	11383
928.479	10778
928.585	10580
928.69	10691
928.796	10797
928.901	10569
929.007	10466
929.112	10618
929.218	10599
929.323	10485
929.428	10459
929.533	10607
929.638	10424
929.743	10516
929.848	10497
929.953	10394
930.058	10333
930.163	10204
930.267	10196
930.372	10352
930.477	10143
930.581	10329
930.685	10215
930.79	10139
930.894	10185
930.998	10120
931.103	10173
931.207	9854
931.311	9762
931.415	9690
931.519	9549
931.623	9515
