Data from test_V78500241_2926.txt Node
Date: Fri Mar 25 14:54:05 CST 2022
User: usil
Spectrometer: V785-0024
Trigger mode: 0
Integration Time (sec): 4.000000E-1
Scans to average: 1
Nonlinearity correction enabled: false
Boxcar width: 0
Storing dark spectrum: false
XAxis mode: Wavelengths
Number of Pixels in Spectrum: 1024
>>>>>Begin Spectral Data<<<<<
801.071	22082
801.214	22025
801.356	21583
801.499	21614
801.641	21443
801.783	21367
801.926	21504
802.068	21363
802.211	21287
802.353	21329
802.496	21085
802.638	21017
802.78	20956
802.923	20956
803.065	20667
803.208	20804
803.35	20712
803.492	20845
803.635	20918
803.777	20788
803.919	20826
804.061	21123
804.204	20724
804.346	20716
804.488	20735
804.63	20800
804.773	20792
804.915	20739
805.057	20697
805.199	20575
805.341	20720
805.483	20765
805.626	20602
805.768	20640
805.91	20743
806.052	20720
806.194	20549
806.336	20819
806.478	20674
806.62	20530
806.762	20667
806.904	20899
807.046	21001
807.188	20990
807.33	21001
807.472	20979
807.614	20937
807.756	20899
807.898	20800
808.04	20720
808.182	20804
808.324	20720
808.465	20781
808.607	20872
808.749	21047
808.891	21146
809.033	21237
809.174	21100
809.316	21009
809.458	21104
809.6	21032
809.741	21074
809.883	21089
810.025	21203
810.166	21214
810.308	21150
810.45	21081
810.591	21062
810.733	20918
810.875	20826
811.016	20743
811.158	20674
811.299	20796
811.441	20948
811.582	20914
811.724	20887
811.865	20750
812.007	20842
812.148	20834
812.29	20762
812.431	20990
812.573	21135
812.714	21298
812.855	21447
812.997	21435
813.138	21576
813.279	21450
813.421	21298
813.562	21211
813.703	21104
813.845	20990
813.986	20648
814.127	20522
814.268	20438
814.41	20415
814.551	20355
814.692	20454
814.833	20366
814.974	20206
815.115	20267
815.256	20103
815.397	20199
815.539	20107
815.68	20149
815.821	20142
815.962	20145
816.103	20024
816.244	19860
816.385	19970
816.526	19921
816.666	19742
816.807	19510
816.948	19575
817.089	19544
817.23	19537
817.371	19480
817.512	19422
817.653	19392
817.793	19438
817.934	19521
818.075	19578
818.216	19483
818.356	19518
818.497	19354
818.638	19225
818.778	19206
818.919	19190
819.06	19183
819.2	19301
819.341	19289
819.481	19468
819.622	19468
819.762	19632
819.903	19658
820.043	19468
820.184	19434
820.324	19339
820.465	19559
820.605	19552
820.746	19499
820.886	19327
821.026	19396
821.167	19346
821.307	19468
821.447	19552
821.588	19392
821.728	19152
821.868	18993
822.008	18996
822.149	18894
822.289	18825
822.429	18681
822.569	18635
822.709	18513
822.849	18460
822.99	18296
823.13	18323
823.27	18464
823.41	18095
823.55	18087
823.69	18346
823.83	18235
823.97	18102
824.11	17984
824.25	17939
824.389	17980
824.529	18060
824.669	17908
824.809	17992
824.949	18003
825.089	18038
825.228	17863
825.368	17832
825.508	17779
825.648	17756
825.787	17729
825.927	17756
826.067	17653
826.206	17611
826.346	17760
826.485	17615
826.625	17741
826.765	17737
826.904	17665
827.044	17570
827.183	17433
827.323	17387
827.462	17505
827.601	17474
827.741	17425
827.88	17406
828.02	17337
828.159	17383
828.298	17398
828.437	17448
828.577	17269
828.716	17547
828.855	17250
828.994	17330
829.134	17162
829.273	17193
829.412	17147
829.551	17121
829.69	17109
829.829	17208
829.968	17189
830.107	17250
830.246	17227
830.385	17189
830.524	17109
830.663	16908
830.802	16984
830.941	16748
831.08	16748
831.219	16839
831.357	16900
831.496	17109
831.635	16755
831.774	16630
831.913	16580
832.051	16573
832.19	16588
832.329	16592
832.467	16577
832.606	16432
832.744	16470
832.883	16478
833.022	16497
833.16	16565
833.299	16459
833.437	16478
833.576	16565
833.714	16580
833.852	16588
833.991	16558
834.129	16675
834.267	16561
834.406	16561
834.544	16538
834.682	16588
834.821	16481
834.959	16622
835.097	16474
835.235	16558
835.373	16618
835.511	16565
835.65	16474
835.788	16405
835.926	16375
836.064	16291
836.202	16226
836.34	16565
836.478	16634
836.615	16470
836.753	16466
836.891	16584
837.029	16424
837.167	16379
837.305	16360
837.443	16333
837.58	16284
837.718	16417
837.856	16188
837.993	16303
838.131	16280
838.269	16265
838.406	16276
838.544	16268
838.681	15983
838.819	16101
838.956	15778
839.094	15880
839.231	15945
839.369	15960
839.506	16207
839.643	16078
839.781	15876
839.918	15884
840.055	15930
840.193	15892
840.33	15770
840.467	15823
840.604	15854
840.742	16135
840.879	15804
841.016	15667
841.153	15770
841.29	15915
841.427	15930
841.564	15915
841.701	15865
841.838	15785
841.975	15739
842.112	15736
842.249	15564
842.385	15511
842.522	15739
842.659	15606
842.796	15606
842.933	15553
843.069	15572
843.206	15553
843.343	15717
843.479	15629
843.616	15629
843.752	15473
843.889	15469
844.025	15515
844.162	15477
844.298	15496
844.435	15473
844.571	15367
844.708	15428
844.844	15542
844.98	15519
845.117	15492
845.253	15351
845.389	15310
845.525	15348
845.661	15321
845.798	15214
845.934	15382
846.07	15237
846.206	15245
846.342	15378
846.478	15283
846.614	15070
846.75	14941
846.886	14967
847.022	15077
847.158	15017
847.294	14979
847.429	15024
847.565	14990
847.701	15294
847.837	14701
847.972	14674
848.108	14796
848.244	14842
848.379	14682
848.515	14655
848.65	14621
848.786	14511
848.921	14606
849.057	14731
849.192	14712
849.328	14640
849.463	14621
849.598	14484
849.734	14507
849.869	14427
850.004	14301
850.14	14412
850.275	14355
850.41	14278
850.545	14309
850.68	14320
850.815	14343
850.95	14381
851.085	14514
851.22	14446
851.355	14343
851.49	14332
851.625	14320
851.76	14259
851.895	14298
852.03	14244
852.165	14343
852.299	14408
852.434	14507
852.569	14385
852.703	14412
852.838	14442
852.973	14423
853.107	14507
853.242	14355
853.376	14221
853.511	14096
853.645	14164
853.78	14309
853.914	14244
854.048	14214
854.183	14100
854.317	14195
854.451	14454
854.585	14278
854.72	14271
854.854	14336
854.988	14130
855.122	14214
855.256	14123
855.39	14161
855.524	14423
855.658	14282
855.792	14317
855.926	14309
856.06	14313
856.194	14328
856.327	14252
856.461	14183
856.595	14221
856.729	14210
856.862	14328
856.996	14214
857.13	14263
857.263	14343
857.397	14347
857.53	14172
857.664	14252
857.797	14271
857.931	14381
858.064	14237
858.197	14328
858.331	14199
858.464	14180
858.597	14062
858.731	14358
858.864	14100
858.997	14248
859.13	14282
859.263	14282
859.396	14290
859.529	14221
859.662	14218
859.795	14168
859.928	14271
860.061	14431
860.194	14419
860.327	14298
860.46	14256
860.592	14469
860.725	14332
860.858	14275
860.99	14180
861.123	14183
861.256	14206
861.388	14210
861.521	14804
861.653	14145
861.786	14050
861.918	14157
862.05	14180
862.183	14252
862.315	14172
862.447	14275
862.58	14153
862.712	14005
862.844	13936
862.976	14069
863.108	14088
863.24	14343
863.372	13997
863.504	14039
863.636	13944
863.768	14046
863.9	13989
864.032	13845
864.164	13978
864.296	13997
864.428	14107
864.559	14123
864.691	14145
864.823	14039
864.954	14065
865.086	14084
865.217	14012
865.349	13913
865.48	13932
865.612	13989
865.743	14096
865.875	13940
866.006	13967
866.137	13894
866.269	13978
866.4	13963
866.531	13917
866.662	13811
866.793	14001
866.924	13955
867.055	13932
867.186	13974
867.317	13913
867.448	13826
867.579	13917
867.71	13928
867.841	13887
867.972	13951
868.103	13925
868.233	14039
868.364	13913
868.495	13997
868.625	14183
868.756	14286
868.886	14237
869.017	14180
869.147	14275
869.278	14370
869.408	14248
869.539	14187
869.669	14244
869.799	14358
869.929	14366
870.06	14305
870.19	14579
870.32	14514
870.45	14556
870.58	14686
870.71	14708
870.84	14735
870.97	14648
871.1	14606
871.23	14826
871.36	14880
871.489	14682
871.619	14762
871.749	14792
871.879	14815
872.008	14842
872.138	14845
872.267	14830
872.397	14765
872.526	14621
872.656	14613
872.785	14670
872.915	14834
873.044	14883
873.173	14773
873.303	14883
873.432	14994
873.561	14918
873.69	14849
873.819	14986
873.948	14982
874.077	14979
874.206	14788
874.335	14982
874.464	15024
874.593	15211
874.722	15058
874.851	15249
874.979	15203
875.108	15218
875.237	15207
875.365	15093
875.494	15165
875.623	15279
875.751	15188
875.88	15207
876.008	15275
876.136	15481
876.265	15660
876.393	15903
876.521	15781
876.65	15751
876.778	15603
876.906	15652
877.034	15595
877.162	15545
877.29	15507
877.418	15564
877.546	15614
877.674	15606
877.802	15595
877.93	15667
878.058	15545
878.185	15519
878.313	15587
878.441	15644
878.568	15488
878.696	15580
878.824	15690
878.951	15603
879.079	15701
879.206	15880
879.333	15793
879.461	15656
879.588	15789
879.715	15743
879.842	15804
879.97	15663
880.097	15606
880.224	15466
880.351	15500
880.478	15549
880.605	15340
880.732	15439
880.859	15614
880.986	15488
881.112	15519
881.239	15393
881.366	15321
881.493	15165
881.619	15055
881.746	15188
881.872	15036
881.999	15127
882.125	15135
882.252	15211
882.378	15058
882.505	15237
882.631	15013
882.757	14933
882.883	14944
883.01	14982
883.136	14872
883.262	14819
883.388	14735
883.514	14887
883.64	15005
883.766	14948
883.892	14705
884.018	14739
884.143	15051
884.269	15036
884.395	14716
884.52	14587
884.646	14659
884.772	14587
884.897	14438
885.023	14590
885.148	14762
885.274	14762
885.399	14663
885.524	14716
885.65	14610
885.775	14678
885.9	14636
886.025	14689
886.15	14750
886.275	14617
886.4	14488
886.525	14514
886.65	14594
886.775	14560
886.9	14708
887.025	14800
887.149	14655
887.274	14499
887.399	14412
887.523	14412
887.648	14419
887.773	14377
887.897	14556
888.021	14545
888.146	14404
888.27	14556
888.395	14625
888.519	14579
888.643	14541
888.767	14480
888.891	14404
889.015	14248
889.139	14377
889.263	14358
889.387	14480
889.511	14522
889.635	14480
889.759	14282
889.883	14244
890.006	14362
890.13	14556
890.254	14176
890.377	14263
890.501	14081
890.624	14153
890.748	14263
890.871	14016
890.995	13982
891.118	13883
891.241	13997
891.364	14005
891.488	14168
891.611	14027
891.734	14069
891.857	14069
891.98	14119
892.103	14119
892.226	14100
892.349	13932
892.471	13875
892.594	14073
892.717	14073
892.839	13955
892.962	14126
893.085	14180
893.207	14058
893.33	13913
893.452	14016
893.575	14149
893.697	14016
893.819	14229
893.941	14282
894.064	14256
894.186	13993
894.308	14005
894.43	14172
894.552	14252
894.674	14172
894.796	13940
894.918	14115
895.04	14176
895.161	14180
895.283	14225
895.405	14107
895.526	14103
895.648	14153
895.769	14157
895.891	14168
896.012	14225
896.134	14214
896.255	14225
896.376	14180
896.498	14180
896.619	14290
896.74	14180
896.861	14328
896.982	14476
897.103	14617
897.224	14446
897.345	14427
897.466	14358
897.587	14404
897.708	14594
897.828	14537
897.949	14495
898.07	14377
898.19	14473
898.311	14632
898.431	14495
898.552	14526
898.672	14621
898.792	14708
898.913	14587
899.033	14541
899.153	14362
899.273	14404
899.393	14362
899.513	14374
899.633	14434
899.753	14446
899.873	14461
899.993	14507
900.113	14473
900.232	14514
900.352	14393
900.472	14339
900.591	14252
900.711	14240
900.83	14256
900.95	14339
901.069	14347
901.189	14062
901.308	14062
901.427	13913
901.546	14046
901.665	13967
901.784	14027
901.904	13746
902.023	13742
902.141	13613
902.26	13605
902.379	13597
902.498	13609
902.617	13464
902.735	13491
902.854	13559
902.973	13434
903.091	13289
903.21	13244
903.328	13255
903.446	13266
903.565	13099
903.683	13175
903.801	13019
903.919	13050
904.038	13110
904.156	12935
904.274	13076
904.392	12954
904.51	12795
904.627	12909
904.745	12886
904.863	13034
904.981	12665
905.098	12620
905.216	12604
905.334	12658
905.451	12536
905.569	12536
905.686	12658
905.803	12612
905.921	12334
906.038	12532
906.155	12437
906.272	12380
906.389	12403
906.506	12228
906.623	12186
906.74	12197
906.857	12098
906.974	12148
907.091	12266
907.208	12300
907.324	12273
907.441	12049
907.557	11992
907.674	11973
907.79	11874
907.907	11874
908.023	11996
908.139	11969
908.256	11923
908.372	11901
908.488	11893
908.604	11790
908.72	11699
908.836	11627
908.952	11741
909.068	11718
909.184	11870
909.3	11688
909.415	11722
909.531	11680
909.647	11467
909.762	11459
909.878	11463
909.993	11471
910.108	11474
910.224	11467
910.339	11410
910.454	11360
910.57	11299
910.685	11284
910.8	11490
910.915	11497
911.03	11402
911.145	11090
911.259	11208
911.374	11181
911.489	11094
911.604	11056
911.718	10915
911.833	11041
911.947	10824
912.062	10767
912.176	10854
912.291	10892
912.405	10904
912.519	11109
912.633	11109
912.748	11060
912.862	10896
912.976	10858
913.09	10691
913.204	10782
913.318	10805
913.431	10858
913.545	10968
913.659	10961
913.772	10782
913.886	10702
914	10577
914.113	10714
914.226	10797
914.34	10763
914.453	10630
914.566	10786
914.68	10687
914.793	10542
914.906	10409
915.019	10356
915.132	10371
915.245	10478
915.358	10348
915.47	10402
915.583	10447
915.696	10470
915.809	10546
915.921	10622
916.034	10538
916.146	10436
916.259	10382
916.371	10489
916.483	10394
916.595	10451
916.708	10318
916.82	10436
916.932	10360
917.044	10363
917.156	10268
917.268	10306
917.38	10227
917.491	10265
917.603	10314
917.715	10318
917.826	10428
917.938	10230
918.049	10211
918.161	10276
918.272	10428
918.384	10382
918.495	10325
918.606	10158
918.717	10032
918.828	10227
918.939	10204
919.05	10048
919.161	10166
919.272	9994
919.383	9960
919.494	10166
919.604	10386
919.715	10162
919.826	10067
919.936	10109
920.047	10265
920.157	10227
920.267	10398
920.378	10139
920.488	10177
920.598	10333
920.708	10535
920.818	10333
920.928	10299
921.038	10485
921.148	10462
921.258	10181
921.368	10211
921.477	10013
921.587	10006
921.697	9926
921.806	10006
921.916	9907
922.025	9812
922.134	9743
922.244	9656
922.353	9705
922.462	9656
922.571	9568
922.68	9450
922.789	9431
922.898	9386
923.007	9416
923.116	9523
923.224	9447
923.333	9443
923.442	9283
923.55	9253
923.659	9306
923.767	9412
923.876	9260
923.984	9302
924.092	9192
924.201	9363
924.309	9256
924.417	9275
924.525	9195
924.633	9249
924.741	10181
924.849	9085
924.956	9180
925.064	9036
925.172	9039
925.279	9039
925.387	9127
925.494	9024
925.602	9165
925.709	9294
925.816	8986
925.924	9032
926.031	9180
926.138	9085
926.245	9104
926.352	9032
926.459	9135
926.566	9226
926.673	8952
926.779	8979
926.886	9001
926.993	8849
927.099	8819
927.206	8762
927.312	8773
927.419	8880
927.525	8876
927.631	8880
927.737	8815
927.843	8712
927.95	8610
928.056	8678
928.162	8735
928.267	8746
928.373	9302
928.479	8785
928.585	8579
928.69	8727
928.796	8743
928.901	8625
929.007	8499
929.112	8617
929.218	8552
929.323	8511
929.428	8446
929.533	8686
929.638	8442
929.743	8503
929.848	8568
929.953	8511
930.058	8404
930.163	8229
930.267	8256
930.372	8415
930.477	8248
930.581	8446
930.685	8336
930.79	8218
930.894	8267
930.998	8199
931.103	8362
931.207	8001
931.311	7989
931.415	7845
931.519	7715
931.623	7772
