Data from test_V78500241_1188.txt Node
Date: Fri Mar 25 14:41:59 CST 2022
User: usil
Spectrometer: V785-0024
Trigger mode: 0
Integration Time (sec): 4.000000E-1
Scans to average: 1
Nonlinearity correction enabled: false
Boxcar width: 0
Storing dark spectrum: false
XAxis mode: Wavelengths
Number of Pixels in Spectrum: 1024
>>>>>Begin Spectral Data<<<<<
801.071	22447
801.214	22303
801.356	22090
801.499	21949
801.641	21857
801.783	21774
801.926	21774
802.068	21850
802.211	21679
802.353	21603
802.496	21351
802.638	21336
802.78	21245
802.923	21207
803.065	21119
803.208	21047
803.35	21146
803.492	21302
803.635	21237
803.777	21176
803.919	21154
804.061	21488
804.204	21184
804.346	21070
804.488	21020
804.63	21077
804.773	20948
804.915	21119
805.057	21157
805.199	21093
805.341	21093
805.483	21230
805.626	21150
805.768	20937
805.91	21085
806.052	21176
806.194	20918
806.336	21157
806.478	21135
806.62	21013
806.762	21138
806.904	21203
807.046	21500
807.188	21393
807.33	21363
807.472	21492
807.614	21370
807.756	21340
807.898	21260
808.04	21157
808.182	21256
808.324	21245
808.465	21203
808.607	21443
808.749	21473
808.891	21622
809.033	21660
809.174	21701
809.316	21595
809.458	21557
809.6	21454
809.741	21469
809.883	21542
810.025	21580
810.166	21648
810.308	21504
810.45	21568
810.591	21500
810.733	21382
810.875	21237
811.016	21241
811.158	21165
811.299	21313
811.441	21397
811.582	21351
811.724	21279
811.865	21150
812.007	21195
812.148	21154
812.29	21279
812.431	21424
812.573	21622
812.714	21599
812.855	21694
812.997	21819
813.138	22044
813.279	21861
813.421	21701
813.562	21622
813.703	21576
813.845	21405
813.986	21036
814.127	20971
814.268	20712
814.41	20895
814.551	20823
814.692	20891
814.833	20686
814.974	20678
815.115	20769
815.256	20670
815.397	20594
815.539	20621
815.68	20488
815.821	20503
815.962	20598
816.103	20522
816.244	20396
816.385	20142
816.526	20282
816.666	20183
816.807	19875
816.948	20199
817.089	20027
817.23	19955
817.371	20054
817.512	19978
817.653	19898
817.793	19879
817.934	19986
818.075	19951
818.216	19841
818.356	19944
818.497	19799
818.638	19563
818.778	19624
818.919	19620
819.06	19677
819.2	19670
819.341	19814
819.481	19860
819.622	19837
819.762	20122
819.903	20077
820.043	19986
820.184	19997
820.324	19940
820.465	19955
820.605	19921
820.746	19837
820.886	19814
821.026	19860
821.167	19814
821.307	19974
821.447	19913
821.588	19715
821.728	19537
821.868	19559
822.008	19308
822.149	19289
822.289	19339
822.429	19031
822.569	18951
822.709	19031
822.849	18821
822.99	18901
823.13	18795
823.27	18776
823.41	18719
823.55	18589
823.69	18688
823.83	18517
823.97	18486
824.11	18456
824.25	18399
824.389	18296
824.529	18418
824.669	18433
824.809	18475
824.949	18460
825.089	18532
825.228	18311
825.368	18254
825.508	18266
825.648	18239
825.787	18205
825.927	18300
826.067	18171
826.206	18159
826.346	18171
826.485	18254
826.625	18197
826.765	18376
826.904	18144
827.044	18038
827.183	17942
827.323	17889
827.462	17996
827.601	17897
827.741	17767
827.88	17958
828.02	17741
828.159	17813
828.298	17885
828.437	17927
828.577	17870
828.716	18102
828.855	17805
828.994	17657
829.134	17699
829.273	17745
829.412	17619
829.551	17619
829.69	17657
829.829	17653
829.968	17668
830.107	17809
830.246	17661
830.385	17516
830.524	17547
830.663	17486
830.802	17410
830.941	17330
831.08	17250
831.219	17261
831.357	17364
831.496	17410
831.635	17235
831.774	17197
831.913	17204
832.051	17033
832.19	16999
832.329	17121
832.467	17045
832.606	16972
832.744	16930
832.883	17006
833.022	16911
833.16	17014
833.299	16889
833.437	16965
833.576	16995
833.714	17124
833.852	17136
833.991	17022
834.129	16999
834.267	17060
834.406	17048
834.544	17029
834.682	17022
834.821	17033
834.959	17197
835.097	16965
835.235	17124
835.373	16995
835.511	17117
835.65	16915
835.788	16927
835.926	16949
836.064	16801
836.202	16755
836.34	16942
836.478	16953
836.615	16828
836.753	16900
836.891	17037
837.029	16968
837.167	16873
837.305	16896
837.443	16786
837.58	16725
837.718	16854
837.856	16850
837.993	16778
838.131	16877
838.269	16725
838.406	16733
838.544	16596
838.681	16588
838.819	16432
838.956	16386
839.094	16337
839.231	16478
839.369	16516
839.506	16664
839.643	16611
839.781	16432
839.918	16382
840.055	16310
840.193	16306
840.33	16310
840.467	16287
840.604	16371
840.742	16607
840.879	16162
841.016	16268
841.153	16204
841.29	16523
841.427	16443
841.564	16519
841.701	16428
841.838	16413
841.975	16219
842.112	16268
842.249	16181
842.385	16162
842.522	16329
842.659	16120
842.796	16158
842.933	16090
843.069	16051
843.206	16112
843.343	16211
843.479	16093
843.616	16158
843.752	15968
843.889	15968
844.025	16173
844.162	15899
844.298	16010
844.435	15918
844.571	15926
844.708	15930
844.844	16078
844.98	16067
845.117	15987
845.253	15903
845.389	15922
845.525	15816
845.661	15850
845.798	15766
845.934	15857
846.07	15774
846.206	15956
846.342	15994
846.478	15766
846.614	15572
846.75	15530
846.886	15496
847.022	15549
847.158	15431
847.294	15549
847.429	15420
847.565	15515
847.701	15720
847.837	15291
847.972	15199
848.108	15313
848.244	15252
848.379	15184
848.515	15176
848.65	15058
848.786	15013
848.921	15070
849.057	15184
849.192	15233
849.328	15165
849.463	15047
849.598	15112
849.734	15039
849.869	15020
850.004	14887
850.14	14842
850.275	14815
850.41	14777
850.545	14781
850.68	14800
850.815	14921
850.95	14845
851.085	15047
851.22	14925
851.355	14944
851.49	14845
851.625	14834
851.76	14739
851.895	14689
852.03	14765
852.165	14769
852.299	14971
852.434	14948
852.569	14891
852.703	14899
852.838	14941
852.973	14948
853.107	14963
853.242	14796
853.376	14739
853.511	14682
853.645	14686
853.78	14883
853.914	14705
854.048	14697
854.183	14701
854.317	14659
854.451	14895
854.585	14640
854.72	14655
854.854	14804
854.988	14667
855.122	14693
855.256	14571
855.39	14648
855.524	14823
855.658	14773
855.792	14743
855.926	14754
856.06	14857
856.194	14861
856.327	14659
856.461	14663
856.595	14693
856.729	14731
856.862	14853
856.996	14678
857.13	14823
857.263	14773
857.397	14800
857.53	14716
857.664	14648
857.797	14845
857.931	14857
858.064	14807
858.197	14769
858.331	14731
858.464	14667
858.597	14625
858.731	14716
858.864	14693
858.997	14632
859.13	14792
859.263	14727
859.396	14876
859.529	14773
859.662	14648
859.795	14648
859.928	14697
860.061	14864
860.194	14906
860.327	14735
860.46	14712
860.592	14914
860.725	14853
860.858	14823
860.99	14720
861.123	14613
861.256	14701
861.388	14731
861.521	15443
861.653	14625
861.786	14511
861.918	14568
862.05	14670
862.183	14724
862.315	14682
862.447	14800
862.58	14663
862.712	14499
862.844	14427
862.976	14560
863.108	14579
863.24	14967
863.372	14381
863.504	14621
863.636	14514
863.768	14651
863.9	14537
864.032	14358
864.164	14492
864.296	14541
864.428	14522
864.559	14621
864.691	14564
864.823	14560
864.954	14514
865.086	14495
865.217	14514
865.349	14431
865.48	14408
865.612	14442
865.743	14602
865.875	14545
866.006	14552
866.137	14454
866.269	14499
866.4	14438
866.531	14396
866.662	14465
866.793	14446
866.924	14522
867.055	14465
867.186	14473
867.317	14488
867.448	14358
867.579	14294
867.71	14355
867.841	14427
867.972	14423
868.103	14446
868.233	14415
868.364	14560
868.495	14598
868.625	14705
868.756	14769
868.886	14716
869.017	14765
869.147	14826
869.278	14792
869.408	14648
869.539	14670
869.669	14754
869.799	14762
869.929	14834
870.06	14880
870.19	14941
870.32	14944
870.45	15047
870.58	15161
870.71	15233
870.84	15203
870.97	15093
871.1	15036
871.23	15241
871.36	15241
871.489	15154
871.619	15237
871.749	15279
871.879	15245
872.008	15370
872.138	15317
872.267	15344
872.397	15173
872.526	15157
872.656	15089
872.785	15218
872.915	15249
873.044	15294
873.173	15268
873.303	15397
873.432	15325
873.561	15435
873.69	15363
873.819	15355
873.948	15359
874.077	15359
874.206	15306
874.335	15473
874.464	15466
874.593	15694
874.722	15599
874.851	15694
874.979	15576
875.108	15751
875.237	15545
875.365	15538
875.494	15622
875.623	15705
875.751	15663
875.88	15770
876.008	15838
876.136	15915
876.265	16040
876.393	16154
876.521	16059
876.65	16169
876.778	16029
876.906	15949
877.034	15998
877.162	16029
877.29	16059
877.418	16124
877.546	16074
877.674	16051
877.802	16048
877.93	15979
878.058	16067
878.185	15968
878.313	15991
878.441	16044
878.568	15991
878.696	16032
878.824	16147
878.951	16150
879.079	16272
879.206	16569
879.333	16268
879.461	16215
879.588	16303
879.715	16299
879.842	16379
879.97	16154
880.097	16013
880.224	15911
880.351	16055
880.478	15937
880.605	15907
880.732	15876
880.859	16135
880.986	15987
881.112	16013
881.239	15884
881.366	15690
881.493	15652
881.619	15614
881.746	15603
881.872	15610
881.999	15549
882.125	15572
882.252	15778
882.378	15728
882.505	15816
882.631	15629
882.757	15428
882.883	15492
883.01	15450
883.136	15408
883.262	15382
883.388	15272
883.514	15485
883.64	15428
883.766	15458
883.892	15332
884.018	15302
884.143	15370
884.269	15538
884.395	15256
884.52	15192
884.646	15108
884.772	15047
884.897	15036
885.023	15214
885.148	15245
885.274	15302
885.399	15268
885.524	15154
885.65	15157
885.775	15127
885.9	15100
886.025	15222
886.15	15176
886.275	15043
886.4	15032
886.525	15142
886.65	15055
886.775	15036
886.9	15199
887.025	15405
887.149	15112
887.274	14960
887.399	15028
887.523	14941
887.648	14921
887.773	14929
887.897	15093
888.021	15017
888.146	14960
888.27	15047
888.395	15104
888.519	14990
888.643	15024
888.767	15028
888.891	14967
889.015	14853
889.139	14853
889.263	14674
889.387	14929
889.511	15135
889.635	14963
889.759	14739
889.883	14838
890.006	14838
890.13	14910
890.254	14716
890.377	14705
890.501	14670
890.624	14739
890.748	14686
890.871	14549
890.995	14507
891.118	14412
891.241	14579
891.364	14575
891.488	14579
891.611	14412
891.734	14526
891.857	14598
891.98	14556
892.103	14533
892.226	14511
892.349	14511
892.471	14362
892.594	14484
892.717	14526
892.839	14499
892.962	14488
893.085	14526
893.207	14469
893.33	14446
893.452	14465
893.575	14621
893.697	14530
893.819	14632
893.941	14644
894.064	14613
894.186	14480
894.308	14457
894.43	14598
894.552	14724
894.674	14632
894.796	14465
894.918	14541
895.04	14583
895.161	14636
895.283	14575
895.405	14514
895.526	14552
895.648	14602
895.769	14678
895.891	14636
896.012	14682
896.134	14594
896.255	14663
896.376	14606
896.498	14568
896.619	14686
896.74	14727
896.861	14659
896.982	14948
897.103	15085
897.224	15005
897.345	14929
897.466	14823
897.587	14853
897.708	15127
897.828	14994
897.949	14899
898.07	14815
898.19	14868
898.311	15047
898.431	14845
898.552	14887
898.672	15051
898.792	15001
898.913	14994
899.033	14952
899.153	14743
899.273	14735
899.393	14868
899.513	14853
899.633	14872
899.753	14891
899.873	14800
899.993	14914
900.113	14804
900.232	14864
900.352	14781
900.472	14750
900.591	14644
900.711	14663
900.83	14670
900.95	14838
901.069	14868
901.189	14556
901.308	14442
901.427	14400
901.546	14332
901.665	14317
901.784	14419
901.904	14229
902.023	14130
902.141	13925
902.26	13913
902.379	14020
902.498	13860
902.617	13811
902.735	13963
902.854	13932
902.973	13856
903.091	13746
903.21	13540
903.328	13590
903.446	13533
903.565	13514
903.683	13502
903.801	13476
903.919	13480
904.038	13400
904.156	13285
904.274	13388
904.392	13365
904.51	13202
904.627	13251
904.745	13312
904.863	13335
904.981	13129
905.098	12989
905.216	13012
905.334	13103
905.451	13072
905.569	13034
905.686	12977
905.803	13034
905.921	12745
906.038	12985
906.155	12840
906.272	12753
906.389	12856
906.506	12620
906.623	12574
906.74	12627
906.857	12498
906.974	12574
907.091	12681
907.208	12745
907.324	12620
907.441	12612
907.557	12372
907.674	12334
907.79	12220
907.907	12338
908.023	12300
908.139	12300
908.256	12292
908.372	12235
908.488	12266
908.604	12197
908.72	12068
908.836	12155
908.952	12083
909.068	12083
909.184	12129
909.3	12053
909.415	12091
909.531	12144
909.647	11923
909.762	11813
909.878	11779
909.993	11866
910.108	11809
910.224	11798
910.339	11931
910.454	11714
910.57	11722
910.685	11665
910.8	11916
910.915	11809
911.03	11756
911.145	11558
911.259	11440
911.374	11619
911.489	11505
911.604	11349
911.718	11345
911.833	11376
911.947	11235
912.062	11162
912.176	11242
912.291	11311
912.405	11223
912.519	11581
912.633	11482
912.748	11398
912.862	11334
912.976	11132
913.09	11067
913.204	11162
913.318	11250
913.431	11265
913.545	11223
913.659	11292
913.772	11094
913.886	11033
914	11105
914.113	11170
914.226	11189
914.34	11197
914.453	11010
914.566	11075
914.68	11010
914.793	11064
914.906	10866
915.019	10637
915.132	10717
915.245	10744
915.358	10839
915.47	10869
915.583	10797
915.696	10881
915.809	10942
915.921	10927
916.034	10721
916.146	10733
916.259	10683
916.371	10828
916.483	10786
916.595	10687
916.708	10778
916.82	10725
916.932	10694
917.044	10683
917.156	10725
917.268	10611
917.38	10691
917.491	10603
917.603	10607
917.715	10744
917.826	10725
917.938	10611
918.049	10558
918.161	10611
918.272	10858
918.384	10725
918.495	10596
918.606	10432
918.717	10424
918.828	10588
918.939	10508
919.05	10428
919.161	10474
919.272	10325
919.383	10344
919.494	10508
919.604	10691
919.715	10508
919.826	10417
919.936	10447
920.047	10607
920.157	10531
920.267	10710
920.378	10569
920.488	10402
920.598	10694
920.708	10919
920.818	10637
920.928	10714
921.038	10797
921.148	10767
921.258	10466
921.368	10474
921.477	10341
921.587	10333
921.697	10272
921.806	10371
921.916	10249
922.025	10006
922.134	10017
922.244	9991
922.353	10147
922.462	9941
922.571	9869
922.68	9747
922.789	9717
922.898	9740
923.007	9698
923.116	9728
923.224	9736
923.333	9743
923.442	9591
923.55	9603
923.659	9564
923.767	9736
923.876	9629
923.984	9641
924.092	9561
924.201	9629
924.309	9580
924.417	9549
924.525	9473
924.633	9515
924.741	10295
924.849	9386
924.956	9564
925.064	9351
925.172	9336
925.279	9359
925.387	9408
925.494	9367
925.602	9523
925.709	9428
925.816	9348
925.924	9428
926.031	9450
926.138	9382
926.245	9431
926.352	9245
926.459	9466
926.566	9386
926.673	9344
926.779	9302
926.886	9165
926.993	9097
927.099	9051
927.206	9028
927.312	9081
927.419	9123
927.525	9032
927.631	9173
927.737	9005
927.843	9013
927.95	8883
928.056	8944
928.162	9017
928.267	8998
928.373	9610
928.479	9055
928.585	8758
928.69	8941
928.796	9009
928.901	8891
929.007	8705
929.112	8857
929.218	8823
929.323	8834
929.428	8750
929.533	8921
929.638	8689
929.743	8762
929.848	8823
929.953	8804
930.058	8686
930.163	8507
930.267	8492
930.372	8667
930.477	8530
930.581	8796
930.685	8598
930.79	8492
930.894	8549
930.998	8465
931.103	8552
931.207	8214
931.311	8263
931.415	8164
931.519	8001
931.623	7906
