Data from test_V78500241_1889.txt Node
Date: Fri Mar 25 14:46:52 CST 2022
User: usil
Spectrometer: V785-0024
Trigger mode: 0
Integration Time (sec): 4.000000E-1
Scans to average: 1
Nonlinearity correction enabled: false
Boxcar width: 0
Storing dark spectrum: false
XAxis mode: Wavelengths
Number of Pixels in Spectrum: 1024
>>>>>Begin Spectral Data<<<<<
801.071	22139
801.214	22109
801.356	21785
801.499	21728
801.641	21633
801.783	21454
801.926	21485
802.068	21363
802.211	21294
802.353	21306
802.496	21108
802.638	21119
802.78	20948
802.923	20845
803.065	20792
803.208	20773
803.35	20944
803.492	20971
803.635	20960
803.777	20765
803.919	20853
804.061	21085
804.204	20811
804.346	20754
804.488	20686
804.63	20807
804.773	20606
804.915	20769
805.057	20762
805.199	20667
805.341	20826
805.483	20838
805.626	20826
805.768	20754
805.91	20754
806.052	20815
806.194	20609
806.336	20876
806.478	20682
806.62	20705
806.762	20838
806.904	20891
807.046	21093
807.188	21070
807.33	21062
807.472	21138
807.614	20906
807.756	21077
807.898	20872
808.04	20830
808.182	20910
808.324	20743
808.465	20941
808.607	20998
808.749	21104
808.891	21241
809.033	21310
809.174	21184
809.316	21017
809.458	21142
809.6	21055
809.741	21127
809.883	21127
810.025	21351
810.166	21344
810.308	21222
810.45	21131
810.591	21100
810.733	20929
810.875	20838
811.016	20781
811.158	20632
811.299	21009
811.441	20998
811.582	21009
811.724	20902
811.865	20960
812.007	20807
812.148	20750
812.29	20853
812.431	21024
812.573	21096
812.714	21203
812.855	21310
812.997	21507
813.138	21568
813.279	21439
813.421	21439
813.562	21374
813.703	20986
813.845	21028
813.986	20785
814.127	20488
814.268	20583
814.41	20530
814.551	20214
814.692	20514
814.833	20377
814.974	20339
815.115	20408
815.256	20225
815.397	20263
815.539	20153
815.68	20180
815.821	20020
815.962	20107
816.103	20119
816.244	20005
816.385	20005
816.526	19951
816.666	19670
816.807	19647
816.948	19674
817.089	19712
817.23	19590
817.371	19635
817.512	19559
817.653	19518
817.793	19540
817.934	19434
818.075	19601
818.216	19605
818.356	19468
818.497	19403
818.638	19244
818.778	19236
818.919	19320
819.06	19255
819.2	19362
819.341	19415
819.481	19411
819.622	19609
819.762	19712
819.903	19704
820.043	19609
820.184	19548
820.324	19651
820.465	19514
820.605	19605
820.746	19613
820.886	19381
821.026	19537
821.167	19464
821.307	19502
821.447	19510
821.588	19392
821.728	19316
821.868	18977
822.008	19019
822.149	18970
822.289	18916
822.429	18722
822.569	18627
822.709	18608
822.849	18498
822.99	18448
823.13	18494
823.27	18380
823.41	18270
823.55	18224
823.69	18296
823.83	18388
823.97	18239
824.11	18053
824.25	17980
824.389	17969
824.529	18045
824.669	18003
824.809	18205
824.949	18102
825.089	18076
825.228	18117
825.368	17851
825.508	17805
825.648	17794
825.787	17767
825.927	17889
826.067	17756
826.206	17684
826.346	17802
826.485	17779
826.625	17756
826.765	17939
826.904	17912
827.044	17600
827.183	17604
827.323	17436
827.462	17501
827.601	17425
827.741	17573
827.88	17455
828.02	17395
828.159	17444
828.298	17497
828.437	17604
828.577	17425
828.716	17680
828.855	17387
828.994	17299
829.134	17322
829.273	17204
829.412	17273
829.551	17250
829.69	17174
829.829	17261
829.968	17425
830.107	17326
830.246	17258
830.385	17288
830.524	17197
830.663	17151
830.802	16885
830.941	16869
831.08	16824
831.219	16862
831.357	16927
831.496	17197
831.635	16900
831.774	16831
831.913	16820
832.051	16767
832.19	16733
832.329	16793
832.467	16687
832.606	16516
832.744	16538
832.883	16500
833.022	16565
833.16	16618
833.299	16531
833.437	16607
833.576	16653
833.714	16588
833.852	16668
833.991	16675
834.129	16733
834.267	16698
834.406	16656
834.544	16694
834.682	16675
834.821	16679
834.959	16797
835.097	16694
835.235	16675
835.373	16554
835.511	16698
835.65	16558
835.788	16603
835.926	16440
836.064	16455
836.202	16394
836.34	16634
836.478	16618
836.615	16462
836.753	16535
836.891	16618
837.029	16672
837.167	16459
837.305	16489
837.443	16470
837.58	16394
837.718	16519
837.856	16421
837.993	16337
838.131	16440
838.269	16356
838.406	16322
838.544	16337
838.681	16215
838.819	16071
838.956	15960
839.094	15937
839.231	16013
839.369	16067
839.506	16367
839.643	16234
839.781	15998
839.918	15960
840.055	16051
840.193	16029
840.33	15899
840.467	16006
840.604	15899
840.742	16207
840.879	15846
841.016	15850
841.153	15831
841.29	16082
841.427	16025
841.564	15991
841.701	16029
841.838	15956
841.975	15842
842.112	15899
842.249	15827
842.385	15751
842.522	15915
842.659	15736
842.796	15679
842.933	15831
843.069	15679
843.206	15785
843.343	15850
843.479	15808
843.616	15778
843.752	15576
843.889	15610
844.025	15652
844.162	15526
844.298	15686
844.435	15622
844.571	15435
844.708	15542
844.844	15724
844.98	15686
845.117	15625
845.253	15504
845.389	15431
845.525	15367
845.661	15424
845.798	15279
845.934	15340
846.07	15226
846.206	15332
846.342	15496
846.478	15241
846.614	15214
846.75	15112
846.886	15032
847.022	15264
847.158	15138
847.294	15157
847.429	15161
847.565	15146
847.701	15332
847.837	14842
847.972	14815
848.108	14842
848.244	14914
848.379	14796
848.515	14758
848.65	14746
848.786	14682
848.921	14705
849.057	14777
849.192	14724
849.328	14705
849.463	14800
849.598	14716
849.734	14686
849.869	14541
850.004	14556
850.14	14495
850.275	14503
850.41	14400
850.545	14408
850.68	14522
850.815	14503
850.95	14514
851.085	14590
851.22	14495
851.355	14484
851.49	14381
851.625	14461
851.76	14366
851.895	14419
852.03	14286
852.165	14438
852.299	14560
852.434	14514
852.569	14476
852.703	14461
852.838	14575
852.973	14575
853.107	14659
853.242	14450
853.376	14434
853.511	14240
853.645	14313
853.78	14480
853.914	14328
854.048	14282
854.183	14351
854.317	14320
854.451	14545
854.585	14309
854.72	14259
854.854	14366
854.988	14278
855.122	14324
855.256	14183
855.39	14343
855.524	14465
855.658	14412
855.792	14366
855.926	14355
856.06	14434
856.194	14438
856.327	14317
856.461	14332
856.595	14282
856.729	14309
856.862	14370
856.996	14358
857.13	14385
857.263	14571
857.397	14484
857.53	14427
857.664	14415
857.797	14488
857.931	14507
858.064	14499
858.197	14431
858.331	14358
858.464	14336
858.597	14286
858.731	14336
858.864	14332
858.997	14275
859.13	14305
859.263	14389
859.396	14457
859.529	14355
859.662	14355
859.795	14248
859.928	14438
860.061	14545
860.194	14549
860.327	14343
860.46	14355
860.592	14393
860.725	14511
860.858	14408
860.99	14377
861.123	14263
861.256	14275
861.388	14427
861.521	14986
861.653	14305
861.786	14134
861.918	14263
862.05	14282
862.183	14328
862.315	14282
862.447	14362
862.58	14313
862.712	14126
862.844	14100
862.976	14248
863.108	14111
863.24	14495
863.372	14096
863.504	14153
863.636	14123
863.768	14172
863.9	14214
864.032	14054
864.164	14035
864.296	14145
864.428	14199
864.559	14145
864.691	14271
864.823	14123
864.954	14142
865.086	14145
865.217	14172
865.349	14001
865.48	14050
865.612	14176
865.743	14214
865.875	14153
866.006	14096
866.137	14195
866.269	14157
866.4	14130
866.531	14016
866.662	14119
866.793	14065
866.924	14065
867.055	14088
867.186	14138
867.317	14153
867.448	13974
867.579	14077
867.71	14043
867.841	14005
867.972	14119
868.103	14088
868.233	14046
868.364	14153
868.495	14164
868.625	14343
868.756	14454
868.886	14263
869.017	14366
869.147	14343
869.278	14419
869.408	14408
869.539	14381
869.669	14473
869.799	14488
869.929	14492
870.06	14465
870.19	14636
870.32	14670
870.45	14686
870.58	14765
870.71	14861
870.84	14921
870.97	14746
871.1	14739
871.23	14956
871.36	14960
871.489	14826
871.619	14918
871.749	15039
871.879	14918
872.008	15070
872.138	14921
872.267	14925
872.397	14834
872.526	14849
872.656	14765
872.785	14785
872.915	14963
873.044	15100
873.173	15112
873.303	14937
873.432	15058
873.561	15020
873.69	14982
873.819	14998
873.948	15005
874.077	15062
874.206	14971
874.335	15058
874.464	15036
874.593	15298
874.722	15214
874.851	15344
874.979	15344
875.108	15408
875.237	15291
875.365	15287
875.494	15294
875.623	15378
875.751	15287
875.88	15412
876.008	15515
876.136	15492
876.265	15694
876.393	15838
876.521	15743
876.65	15892
876.778	15778
876.906	15675
877.034	15720
877.162	15766
877.29	15720
877.418	15766
877.546	15789
877.674	15755
877.802	15690
877.93	15759
878.058	15644
878.185	15641
878.313	15694
878.441	15755
878.568	15500
878.696	15739
878.824	15732
878.951	15785
879.079	15861
879.206	16078
879.333	15831
879.461	15686
879.588	15846
879.715	15873
879.842	16002
879.97	15831
880.097	15534
880.224	15629
880.351	15568
880.478	15549
880.605	15549
880.732	15545
880.859	15747
880.986	15622
881.112	15610
881.239	15492
881.366	15408
881.493	15283
881.619	15097
881.746	15291
881.872	15252
881.999	15214
882.125	15100
882.252	15313
882.378	15332
882.505	15420
882.631	15184
882.757	15024
882.883	15047
883.01	15154
883.136	14990
883.262	14986
883.388	14887
883.514	15192
883.64	15089
883.766	15036
883.892	14963
884.018	14906
884.143	15123
884.269	15123
884.395	14880
884.52	14743
884.646	14811
884.772	14705
884.897	14598
885.023	14857
885.148	14842
885.274	14933
885.399	14830
885.524	14674
885.65	14716
885.775	14826
885.9	14815
886.025	14941
886.15	14883
886.275	14701
886.4	14716
886.525	14769
886.65	14651
886.775	14788
886.9	14895
887.025	15017
887.149	14823
887.274	14640
887.399	14541
887.523	14610
887.648	14537
887.773	14537
887.897	14648
888.021	14716
888.146	14526
888.27	14705
888.395	14739
888.519	14556
888.643	14667
888.767	14682
888.891	14533
889.015	14434
889.139	14545
889.263	14415
889.387	14613
889.511	14682
889.635	14594
889.759	14415
889.883	14434
890.006	14461
890.13	14564
890.254	14320
890.377	14374
890.501	14256
890.624	14275
890.748	14252
890.871	14183
890.995	14157
891.118	14073
891.241	14161
891.364	14214
891.488	14259
891.611	14161
891.734	14164
891.857	14206
891.98	14259
892.103	14271
892.226	14252
892.349	14187
892.471	14062
892.594	14100
892.717	14187
892.839	14157
892.962	14126
893.085	14229
893.207	14229
893.33	14050
893.452	14119
893.575	14221
893.697	14100
893.819	14271
893.941	14358
894.064	14206
894.186	14092
894.308	14103
894.43	14271
894.552	14419
894.674	14244
894.796	14123
894.918	14206
895.04	14256
895.161	14244
895.283	14237
895.405	14092
895.526	14263
895.648	14317
895.769	14336
895.891	14267
896.012	14423
896.134	14362
896.255	14301
896.376	14290
896.498	14271
896.619	14370
896.74	14324
896.861	14396
896.982	14724
897.103	14857
897.224	14689
897.345	14476
897.466	14476
897.587	14571
897.708	14644
897.828	14610
897.949	14514
898.07	14590
898.19	14598
898.311	14701
898.431	14621
898.552	14670
898.672	14762
898.792	14686
898.913	14655
899.033	14568
899.153	14499
899.273	14415
899.393	14533
899.513	14507
899.633	14537
899.753	14587
899.873	14461
899.993	14522
900.113	14564
900.232	14526
900.352	14522
900.472	14404
900.591	14305
900.711	14385
900.83	14301
900.95	14507
901.069	14450
901.189	14370
901.308	14065
901.427	14012
901.546	14035
901.665	14084
901.784	14054
901.904	13906
902.023	13849
902.141	13597
902.26	13575
902.379	13712
902.498	13563
902.617	13578
902.735	13685
902.854	13601
902.973	13594
903.091	13331
903.21	13358
903.328	13282
903.446	13221
903.565	13259
903.683	13175
903.801	13129
903.919	13244
904.038	13137
904.156	13023
904.274	13004
904.392	13008
904.51	12954
904.627	13023
904.745	13080
904.863	13027
904.981	12787
905.098	12700
905.216	12779
905.334	12757
905.451	12681
905.569	12662
905.686	12684
905.803	12673
905.921	12574
906.038	12570
906.155	12464
906.272	12380
906.389	12467
906.506	12342
906.623	12292
906.74	12277
906.857	12209
906.974	12186
907.091	12330
907.208	12448
907.324	12296
907.441	12159
907.557	12072
907.674	11973
907.79	11961
907.907	12045
908.023	12064
908.139	12064
908.256	12038
908.372	12049
908.488	11961
908.604	11832
908.72	11733
908.836	11748
908.952	11748
909.068	11832
909.184	11961
909.3	11821
909.415	11843
909.531	11805
909.647	11509
909.762	11539
909.878	11543
909.993	11634
910.108	11585
910.224	11493
910.339	11562
910.454	11471
910.57	11398
910.685	11368
910.8	11589
910.915	11638
911.03	11493
911.145	11311
911.259	11227
911.374	11246
911.489	11269
911.604	11178
911.718	11090
911.833	10984
911.947	10866
912.062	10797
912.176	10980
912.291	10987
912.405	10965
912.519	11292
912.633	11220
912.748	11113
912.862	11064
912.976	10930
913.09	10801
913.204	10850
913.318	10850
913.431	10995
913.545	10980
913.659	11041
913.772	10892
913.886	10809
914	10706
914.113	10877
914.226	10930
914.34	10885
914.453	10725
914.566	10850
914.68	10816
914.793	10702
914.906	10603
915.019	10516
915.132	10466
915.245	10584
915.358	10573
915.47	10527
915.583	10516
915.696	10618
915.809	10615
915.921	10645
916.034	10542
916.146	10577
916.259	10519
916.371	10618
916.483	10622
916.595	10455
916.708	10500
916.82	10489
916.932	10481
917.044	10500
917.156	10500
917.268	10390
917.38	10405
917.491	10375
917.603	10451
917.715	10493
917.826	10489
917.938	10432
918.049	10280
918.161	10447
918.272	10516
918.384	10474
918.495	10436
918.606	10249
918.717	10253
918.828	10249
918.939	10337
919.05	10207
919.161	10276
919.272	10071
919.383	10059
919.494	10325
919.604	10432
919.715	10341
919.826	10158
919.936	10299
920.047	10379
920.157	10344
920.267	10527
920.378	10379
920.488	10306
920.598	10512
920.708	10558
920.818	10478
920.928	10474
921.038	10691
921.148	10565
921.258	10299
921.368	10211
921.477	10147
921.587	10135
921.697	10029
921.806	10234
921.916	10101
922.025	9835
922.134	9880
922.244	9774
922.353	9854
922.462	9747
922.571	9705
922.68	9561
922.789	9523
922.898	9572
923.007	9424
923.116	9538
923.224	9580
923.333	9614
923.442	9485
923.55	9374
923.659	9553
923.767	9462
923.876	9428
923.984	9488
924.092	9359
924.201	9374
924.309	9344
924.417	9408
924.525	9313
924.633	9359
924.741	10306
924.849	9222
924.956	9302
925.064	9169
925.172	9104
925.279	9169
925.387	9214
925.494	9165
925.602	9355
925.709	9218
925.816	9123
925.924	9157
926.031	9272
926.138	9253
926.245	9241
926.352	9093
926.459	9283
926.566	9325
926.673	9188
926.779	9070
926.886	9039
926.993	8864
927.099	8910
927.206	8830
927.312	8864
927.419	8929
927.525	8937
927.631	8948
927.737	8823
927.843	8777
927.95	8670
928.056	8792
928.162	8769
928.267	8800
928.373	9344
928.479	8811
928.585	8674
928.69	8750
928.796	8804
928.901	8731
929.007	8564
929.112	8739
929.218	8636
929.323	8617
929.428	8613
929.533	8762
929.638	8545
929.743	8575
929.848	8697
929.953	8583
930.058	8552
930.163	8317
930.267	8450
930.372	8533
930.477	8332
930.581	8613
930.685	8514
930.79	8313
930.894	8377
930.998	8313
931.103	8469
931.207	8142
931.311	8065
931.415	7989
931.519	7883
931.623	7871
