Data from test_V78500241_318.txt Node
Date: Fri Mar 25 14:35:56 CST 2022
User: usil
Spectrometer: V785-0024
Trigger mode: 0
Integration Time (sec): 4.000000E-1
Scans to average: 1
Nonlinearity correction enabled: false
Boxcar width: 0
Storing dark spectrum: false
XAxis mode: Wavelengths
Number of Pixels in Spectrum: 1024
>>>>>Begin Spectral Data<<<<<
801.071	27146
801.214	26963
801.356	26674
801.499	26663
801.641	26499
801.783	26495
801.926	26476
802.068	26347
802.211	26294
802.353	26328
802.496	26206
802.638	26065
802.78	26134
802.923	25932
803.065	25951
803.208	25909
803.35	25970
803.492	26005
803.635	26221
803.777	26043
803.919	26122
804.061	26446
804.204	26069
804.346	25944
804.488	26050
804.63	26008
804.773	25856
804.915	26027
805.057	26176
805.199	25986
805.341	25982
805.483	26084
805.626	26191
805.768	25852
805.91	26024
806.052	26050
806.194	25989
806.336	26301
806.478	25997
806.62	26020
806.762	26271
806.904	26138
807.046	26640
807.188	26453
807.33	26419
807.472	26533
807.614	26339
807.756	26423
807.898	26218
808.04	26199
808.182	26309
808.324	26176
808.465	26278
808.607	26484
808.749	26609
808.891	26716
809.033	26845
809.174	26735
809.316	26632
809.458	26545
809.6	26549
809.741	26450
809.883	26625
810.025	26861
810.166	26727
810.308	26735
810.45	26777
810.591	26644
810.733	26404
810.875	26541
811.016	26389
811.158	26393
811.299	26476
811.441	26564
811.582	26461
811.724	26256
811.865	26400
812.007	26309
812.148	26393
812.29	26484
812.431	26549
812.573	26659
812.714	26670
812.855	26849
812.997	26910
813.138	27222
813.279	26982
813.421	26952
813.562	26796
813.703	26754
813.845	26613
813.986	26259
814.127	26195
814.268	25955
814.41	26065
814.551	25951
814.692	26126
814.833	26050
814.974	25811
815.115	25887
815.256	25731
815.397	25734
815.539	25879
815.68	25734
815.821	25662
815.962	25822
816.103	25624
816.244	25658
816.385	25365
816.526	25449
816.666	25396
816.807	25107
816.948	25187
817.089	25118
817.23	25122
817.371	25000
817.512	24996
817.653	25019
817.793	24962
817.934	25000
818.075	25023
818.216	25088
818.356	25232
818.497	24871
818.638	24677
818.778	24779
818.919	24776
819.06	24897
819.2	24981
819.341	24886
819.481	24981
819.622	25038
819.762	25339
819.903	25422
820.043	25164
820.184	25050
820.324	25091
820.465	25152
820.605	25012
820.746	25019
820.886	24981
821.026	24924
821.167	24989
821.307	25114
821.447	24985
821.588	24658
821.728	24745
821.868	24566
822.008	24460
822.149	24372
822.289	24544
822.429	24232
822.569	24106
822.709	24076
822.849	23870
822.99	23870
823.13	23836
823.27	23904
823.41	23722
823.55	23535
823.69	23741
823.83	23684
823.97	23627
824.11	23516
824.25	23459
824.389	23433
824.529	23444
824.669	23490
824.809	23516
824.949	23463
825.089	23531
825.228	23509
825.368	23273
825.508	23261
825.648	23280
825.787	23261
825.927	23246
826.067	23132
826.206	23102
826.346	23280
826.485	23258
826.625	23143
826.765	23242
826.904	23246
827.044	23086
827.183	23003
827.323	22984
827.462	22927
827.601	22831
827.741	22949
827.88	22885
828.02	22774
828.159	22873
828.298	22877
828.437	22976
828.577	22759
828.716	23022
828.855	22801
828.994	22679
829.134	22596
829.273	22801
829.412	22519
829.551	22607
829.69	22447
829.829	22664
829.968	22489
830.107	22649
830.246	22607
830.385	22577
830.524	22561
830.663	22375
830.802	22265
830.941	22139
831.08	22090
831.219	22272
831.357	22230
831.496	22360
831.635	22169
831.774	22063
831.913	22021
832.051	21922
832.19	21854
832.329	21964
832.467	21774
832.606	21739
832.744	21694
832.883	21823
833.022	21808
833.16	21785
833.299	21854
833.437	21808
833.576	21835
833.714	21876
833.852	21759
833.991	21873
834.129	21975
834.267	21892
834.406	21819
834.544	21709
834.682	21846
834.821	21816
834.959	21903
835.097	21622
835.235	21804
835.373	21717
835.511	21774
835.65	21530
835.788	21690
835.926	21523
836.064	21428
836.202	21462
836.34	21622
836.478	21755
836.615	21644
836.753	21523
836.891	21720
837.029	21675
837.167	21549
837.305	21511
837.443	21443
837.58	21515
837.718	21675
837.856	21568
837.993	21420
838.131	21485
838.269	21561
838.406	21420
838.544	21291
838.681	21192
838.819	21066
838.956	20975
839.094	20979
839.231	20975
839.369	21085
839.506	21195
839.643	21176
839.781	20883
839.918	20967
840.055	20823
840.193	20921
840.33	20819
840.467	20845
840.604	20929
840.742	21074
840.879	20712
841.016	20838
841.153	20792
841.29	20861
841.427	20910
841.564	20834
841.701	20849
841.838	20693
841.975	20621
842.112	20701
842.249	20602
842.385	20499
842.522	20655
842.659	20621
842.796	20514
842.933	20526
843.069	20438
843.206	20457
843.343	20606
843.479	20533
843.616	20583
843.752	20415
843.889	20347
844.025	20362
844.162	20240
844.298	20423
844.435	20320
844.571	20267
844.708	20278
844.844	20503
844.98	20370
845.117	20389
845.253	20336
845.389	20225
845.525	20256
845.661	20199
845.798	19989
845.934	20183
846.07	20084
846.206	20233
846.342	20248
846.478	20073
846.614	19997
846.75	19822
846.886	19788
847.022	19887
847.158	19765
847.294	19780
847.429	19704
847.565	19635
847.701	19887
847.837	19575
847.972	19487
848.108	19540
848.244	19537
848.379	19327
848.515	19411
848.65	19373
848.786	19263
848.921	19350
849.057	19403
849.192	19415
849.328	19362
849.463	19278
849.598	19274
849.734	19255
849.869	19145
850.004	19065
850.14	19091
850.275	19023
850.41	19015
850.545	19164
850.68	19034
850.815	19133
850.95	19084
851.085	19145
851.22	19164
851.355	19015
851.49	19084
851.625	19065
851.76	19088
851.895	19057
852.03	18882
852.165	18920
852.299	19129
852.434	19225
852.569	19129
852.703	18958
852.838	19118
852.973	19183
853.107	19099
853.242	19004
853.376	18947
853.511	18749
853.645	18825
853.78	18989
853.914	18882
854.048	18837
854.183	18958
854.317	18897
854.451	18966
854.585	18776
854.72	18920
854.854	18848
854.988	18779
855.122	18783
855.256	18715
855.39	18783
855.524	18924
855.658	18890
855.792	18913
855.926	18928
856.06	18985
856.194	18973
856.327	18875
856.461	18825
856.595	18817
856.729	18825
856.862	18913
856.996	18939
857.13	18859
857.263	18943
857.397	19110
857.53	18867
857.664	18981
857.797	18935
857.931	18989
858.064	18871
858.197	18943
858.331	18821
858.464	18806
858.597	18665
858.731	18840
858.864	18783
858.997	18875
859.13	18825
859.263	18837
859.396	18810
859.529	18795
859.662	18852
859.795	18681
859.928	18730
860.061	18913
860.194	18859
860.327	18859
860.46	18741
860.592	18970
860.725	18859
860.858	18867
860.99	18840
861.123	18741
861.256	18688
861.388	18798
861.521	19518
861.653	18616
861.786	18612
861.918	18635
862.05	18711
862.183	18878
862.315	18833
862.447	18966
862.58	18711
862.712	18551
862.844	18646
862.976	18616
863.108	18551
863.24	18993
863.372	18525
863.504	18506
863.636	18574
863.768	18566
863.9	18646
864.032	18456
864.164	18509
864.296	18544
864.428	18612
864.559	18494
864.691	18616
864.823	18513
864.954	18490
865.086	18555
865.217	18464
865.349	18300
865.48	18475
865.612	18464
865.743	18608
865.875	18513
866.006	18334
866.137	18467
866.269	18448
866.4	18391
866.531	18372
866.662	18308
866.793	18315
866.924	18353
867.055	18525
867.186	18399
867.317	18289
867.448	18334
867.579	18327
867.71	18323
867.841	18391
867.972	18452
868.103	18361
868.233	18380
868.364	18357
868.495	18486
868.625	18582
868.756	18688
868.886	18486
869.017	18563
869.147	18673
869.278	18764
869.408	18639
869.539	18563
869.669	18749
869.799	18654
869.929	18669
870.06	18730
870.19	18867
870.32	18958
870.45	18954
870.58	19023
870.71	19145
870.84	19065
870.97	19004
871.1	19069
871.23	19133
871.36	19126
871.489	19072
871.619	19080
871.749	19171
871.879	19156
872.008	19255
872.138	19228
872.267	19171
872.397	19053
872.526	18947
872.656	19095
872.785	19027
872.915	19297
873.044	19335
873.173	19209
873.303	19297
873.432	19312
873.561	19270
873.69	19259
873.819	19266
873.948	19301
874.077	19126
874.206	19259
874.335	19152
874.464	19289
874.593	19468
874.722	19381
874.851	19578
874.979	19578
875.108	19556
875.237	19438
875.365	19464
875.494	19434
875.623	19537
875.751	19464
875.88	19510
876.008	19476
876.136	19708
876.265	19906
876.393	20050
876.521	20020
876.65	20084
876.778	19940
876.906	19883
877.034	19849
877.162	19928
877.29	19970
877.418	19860
877.546	19963
877.674	19997
877.802	19875
877.93	19890
878.058	19913
878.185	19849
878.313	19814
878.441	19970
878.568	19925
878.696	19814
878.824	19921
878.951	19917
879.079	20073
879.206	20286
879.333	20058
879.461	20001
879.588	20145
879.715	20134
879.842	20358
879.97	20031
880.097	19776
880.224	19795
880.351	19719
880.478	19750
880.605	19738
880.732	19811
880.859	20046
880.986	19803
881.112	19784
881.239	19613
881.366	19590
881.493	19430
881.619	19396
881.746	19259
881.872	19346
881.999	19228
882.125	19198
882.252	19415
882.378	19346
882.505	19495
882.631	19297
882.757	19145
882.883	19293
883.01	19099
883.136	19046
883.262	18954
883.388	19023
883.514	19118
883.64	19156
883.766	19038
883.892	18814
884.018	18996
884.143	19141
884.269	19072
884.395	18928
884.52	18734
884.646	18848
884.772	18673
884.897	18658
885.023	18886
885.148	18840
885.274	18996
885.399	18806
885.524	18806
885.65	18688
885.775	18764
885.9	18707
886.025	18913
886.15	18779
886.275	18715
886.4	18719
886.525	18730
886.65	18711
886.775	18646
886.9	18848
887.025	19027
887.149	18719
887.274	18563
887.399	18585
887.523	18479
887.648	18410
887.773	18460
887.897	18627
888.021	18612
888.146	18460
888.27	18528
888.395	18616
888.519	18528
888.643	18578
888.767	18498
888.891	18334
889.015	18388
889.139	18319
889.263	18220
889.387	18494
889.511	18525
889.635	18395
889.759	18197
889.883	18224
890.006	18350
890.13	18418
890.254	18228
890.377	18220
890.501	18095
890.624	18049
890.748	18159
890.871	18038
890.995	17980
891.118	17889
891.241	17958
891.364	17805
891.488	18034
891.611	17935
891.734	17908
891.857	17927
891.98	17863
892.103	17996
892.226	18007
892.349	17954
892.471	17775
892.594	17824
892.717	17916
892.839	17836
892.962	17912
893.085	17965
893.207	17988
893.33	17779
893.452	17824
893.575	17897
893.697	17859
893.819	18102
893.941	18076
894.064	18019
894.186	17760
894.308	17767
894.43	18007
894.552	18034
894.674	17958
894.796	17923
894.918	17908
895.04	17870
895.161	17939
895.283	17931
895.405	17874
895.526	17961
895.648	17847
895.769	17935
895.891	17980
896.012	17935
896.134	17931
896.255	17912
896.376	17927
896.498	18045
896.619	18057
896.74	17996
896.861	18026
896.982	18433
897.103	18479
897.224	18323
897.345	18304
897.466	18163
897.587	18125
897.708	18254
897.828	18201
897.949	18133
898.07	18174
898.19	18114
898.311	18388
898.431	18144
898.552	18186
898.672	18266
898.792	18273
898.913	18190
899.033	18015
899.153	17984
899.273	17897
899.393	17904
899.513	17916
899.633	17942
899.753	17866
899.873	18053
899.993	18030
900.113	17935
900.232	17893
900.352	17870
900.472	17843
900.591	17745
900.711	17805
900.83	17748
900.95	17920
901.069	17904
901.189	17809
901.308	17600
901.427	17349
901.546	17455
901.665	17414
901.784	17459
901.904	17330
902.023	17250
902.141	16946
902.26	17037
902.379	17136
902.498	16957
902.617	16793
902.735	16854
902.854	16850
902.973	16687
903.091	16653
903.21	16668
903.328	16592
903.446	16516
903.565	16478
903.683	16440
903.801	16291
903.919	16451
904.038	16470
904.156	16253
904.274	16295
904.392	16246
904.51	16200
904.627	16242
904.745	16223
904.863	16143
904.981	16032
905.098	15854
905.216	15907
905.334	15850
905.451	15892
905.569	15873
905.686	15937
905.803	15812
905.921	15762
906.038	15770
906.155	15789
906.272	15542
906.389	15542
906.506	15412
906.623	15325
906.74	15344
906.857	15176
906.974	15405
907.091	15412
907.208	15466
907.324	15397
907.441	15302
907.557	15161
907.674	15157
907.79	15020
907.907	15116
908.023	15180
908.139	15081
908.256	15047
908.372	15036
908.488	15104
908.604	14830
908.72	14845
908.836	14899
908.952	14796
909.068	14773
909.184	14910
909.3	14804
909.415	14857
909.531	14819
909.647	14545
909.762	14480
909.878	14442
909.993	14530
910.108	14457
910.224	14507
910.339	14564
910.454	14484
910.57	14415
910.685	14290
910.8	14613
910.915	14488
911.03	14218
911.145	14202
911.259	14161
911.374	14103
911.489	14092
911.604	14027
911.718	13875
911.833	13890
911.947	13845
912.062	13788
912.176	13944
912.291	13917
912.405	13898
912.519	14092
912.633	14172
912.748	13913
912.862	13761
912.976	13708
913.09	13662
913.204	13693
913.318	13807
913.431	13753
913.545	13849
913.659	13818
913.772	13689
913.886	13567
914	13616
914.113	13677
914.226	13731
914.34	13662
914.453	13548
914.566	13636
914.68	13483
914.793	13400
914.906	13270
915.019	13107
915.132	13118
915.245	13236
915.358	13225
915.47	13247
915.583	13282
915.696	13255
915.809	13335
915.921	13324
916.034	13183
916.146	13202
916.259	13164
916.371	13270
916.483	13251
916.595	13095
916.708	13183
916.82	13122
916.932	13069
917.044	13015
917.156	13057
917.268	12920
917.38	12856
917.491	12882
917.603	13034
917.715	13034
917.826	12989
917.938	12958
918.049	12863
918.161	12916
918.272	13072
918.384	13019
918.495	12905
918.606	12798
918.717	12665
918.828	12837
918.939	12852
919.05	12658
919.161	12665
919.272	12528
919.383	12479
919.494	12772
919.604	12954
919.715	12696
919.826	12665
919.936	12681
920.047	12745
920.157	12688
920.267	12859
920.378	12726
920.488	12776
920.598	12821
920.708	13042
920.818	12825
920.928	12875
921.038	13065
921.148	12962
921.258	12665
921.368	12502
921.477	12528
921.587	12513
921.697	12346
921.806	12502
921.916	12384
922.025	12194
922.134	12102
922.244	12178
922.353	12194
922.462	12064
922.571	12011
922.68	11855
922.789	11767
922.898	11794
923.007	11722
923.116	11855
923.224	11771
923.333	11714
923.442	11714
923.55	11627
923.659	11722
923.767	11760
923.876	11684
923.984	11672
924.092	11444
924.201	11589
924.309	11634
924.417	11524
924.525	11573
924.633	11532
924.741	12262
924.849	11288
924.956	11497
925.064	11349
925.172	11193
925.279	11288
925.387	11391
925.494	11307
925.602	11372
925.709	11372
925.816	11189
925.924	11284
926.031	11398
926.138	11208
926.245	11383
926.352	11273
926.459	11322
926.566	11315
926.673	11269
926.779	11109
926.886	11113
926.993	10976
927.099	10930
927.206	10908
927.312	10881
927.419	11014
927.525	11006
927.631	10968
927.737	10812
927.843	10835
927.95	10645
928.056	10824
928.162	10778
928.267	10858
928.373	11406
928.479	10835
928.585	10554
928.69	10809
928.796	10858
928.901	10679
929.007	10550
929.112	10706
929.218	10641
929.323	10588
929.428	10512
929.533	10691
929.638	10443
929.743	10500
929.848	10592
929.953	10500
930.058	10474
930.163	10276
930.267	10234
930.372	10356
930.477	10188
930.581	10459
930.685	10265
930.79	10143
930.894	10173
930.998	10059
931.103	10253
931.207	9968
931.311	9937
931.415	9816
931.519	9584
931.623	9572
