Data from test_V78500241_574.txt Node
Date: Fri Mar 25 14:37:42 CST 2022
User: usil
Spectrometer: V785-0024
Trigger mode: 0
Integration Time (sec): 4.000000E-1
Scans to average: 1
Nonlinearity correction enabled: false
Boxcar width: 0
Storing dark spectrum: false
XAxis mode: Wavelengths
Number of Pixels in Spectrum: 1024
>>>>>Begin Spectral Data<<<<<
801.071	27686
801.214	27694
801.356	27382
801.499	27359
801.641	27184
801.783	27138
801.926	27131
802.068	27032
802.211	26956
802.353	26891
802.496	26674
802.638	26746
802.78	26682
802.923	26640
803.065	26423
803.208	26594
803.35	26621
803.492	26686
803.635	26663
803.777	26659
803.919	26785
804.061	27199
804.204	26743
804.346	26777
804.488	26773
804.63	26663
804.773	26830
804.915	26895
805.057	26971
805.199	26880
805.341	27089
805.483	27028
805.626	27211
805.768	27055
805.91	27195
806.052	27230
806.194	27355
806.336	27458
806.478	27397
806.62	27450
806.762	27941
806.904	28261
807.046	28455
807.188	28577
807.33	28934
807.472	29303
807.614	29604
807.756	30041
807.898	30623
808.04	31407
808.182	32533
808.324	34025
808.465	35691
808.607	37632
808.749	39370
808.891	40268
809.033	40348
809.174	39226
809.316	37632
809.458	35729
809.6	33736
809.741	32419
809.883	31187
810.025	30551
810.166	29870
810.308	29459
810.45	29090
810.591	28668
810.733	28386
810.875	28181
811.016	27800
811.158	27694
811.299	27755
811.441	27804
811.582	27781
811.724	27477
811.865	27408
812.007	27408
812.148	27340
812.29	27363
812.431	27454
812.573	27496
812.714	27572
812.855	27682
812.997	27701
813.138	27937
813.279	27587
813.421	27709
813.562	27447
813.703	27298
813.845	27230
813.986	26823
814.127	26632
814.268	26533
814.41	26617
814.551	26606
814.692	26594
814.833	26488
814.974	26537
815.115	26324
815.256	26233
815.397	26221
815.539	26237
815.68	25909
815.821	26119
815.962	26058
816.103	26054
816.244	25947
816.385	25997
816.526	25841
816.666	25559
816.807	25514
816.948	25419
817.089	25609
817.23	25415
817.371	25491
817.512	25476
817.653	25411
817.793	25327
817.934	25320
818.075	25373
818.216	25434
818.356	25312
818.497	25263
818.638	25015
818.778	25251
818.919	25084
819.06	25129
819.2	25377
819.341	25316
819.481	25209
819.622	25354
819.762	25479
819.903	25464
820.043	25297
820.184	25354
820.324	25384
820.465	25491
820.605	25453
820.746	25285
820.886	25152
821.026	25327
821.167	25179
821.307	25278
821.447	25156
821.588	25076
821.728	24970
821.868	24681
822.008	24467
822.149	24597
822.289	24593
822.429	24346
822.569	24205
822.709	24254
822.849	24045
822.99	23980
823.13	23969
823.27	23908
823.41	23783
823.55	23695
823.69	23733
823.83	23843
823.97	23790
824.11	23600
824.25	23634
824.389	23573
824.529	23737
824.669	23471
824.809	23722
824.949	23577
825.089	23638
825.228	23577
825.368	23452
825.508	23303
825.648	23315
825.787	23440
825.927	23448
826.067	23227
826.206	23185
826.346	23349
826.485	23353
826.625	23356
826.765	23414
826.904	23444
827.044	23090
827.183	23113
827.323	22900
827.462	23178
827.601	22999
827.741	22774
827.88	22949
828.02	22904
828.159	22885
828.298	22999
828.437	22976
828.577	22873
828.716	23102
828.855	22885
828.994	22664
829.134	22599
829.273	22790
829.412	22675
829.551	22645
829.69	22698
829.829	22687
829.968	22687
830.107	22774
830.246	22717
830.385	22744
830.524	22508
830.663	22455
830.802	22310
830.941	22337
831.08	22230
831.219	22291
831.357	22306
831.496	22459
831.635	22230
831.774	22207
831.913	22093
832.051	22166
832.19	22021
832.329	22158
832.467	22025
832.606	22032
832.744	21953
832.883	22044
833.022	22055
833.16	22135
833.299	22112
833.437	22261
833.576	22462
833.714	22432
833.852	22478
833.991	22565
834.129	22679
834.267	22744
834.406	22546
834.544	22771
834.682	22538
834.821	22367
834.959	22485
835.097	22230
835.235	22443
835.373	22226
835.511	22181
835.65	22017
835.788	21880
835.926	21705
836.064	21606
836.202	21675
836.34	21869
836.478	21876
836.615	21797
836.753	21903
836.891	21823
837.029	21827
837.167	21751
837.305	21698
837.443	21603
837.58	21717
837.718	21633
837.856	21511
837.993	21564
838.131	21587
838.269	21622
838.406	21523
838.544	21370
838.681	21321
838.819	21127
838.956	21119
839.094	21043
839.231	21123
839.369	21249
839.506	21397
839.643	21329
839.781	21085
839.918	20788
840.055	20975
840.193	20899
840.33	20967
840.467	20826
840.604	21020
840.742	21294
840.879	20758
841.016	20861
841.153	20921
841.29	20960
841.427	20998
841.564	20990
841.701	20830
841.838	20883
841.975	20800
842.112	20838
842.249	20864
842.385	20701
842.522	21009
842.659	20849
842.796	20693
842.933	20625
843.069	20705
843.206	20613
843.343	20788
843.479	20777
843.616	20880
843.752	20598
843.889	20598
844.025	20765
844.162	20659
844.298	20933
844.435	20883
844.571	20918
844.708	21161
844.844	21378
844.98	21682
845.117	22051
845.253	22459
845.389	23239
845.525	25080
845.661	28238
845.798	32069
845.934	35128
846.07	36308
846.206	35710
846.342	33325
846.478	29471
846.614	25978
846.75	23672
846.886	22360
847.022	21774
847.158	21047
847.294	20807
847.429	20659
847.565	20294
847.701	20571
847.837	19982
847.972	19864
848.108	19898
848.244	19917
848.379	19700
848.515	19552
848.65	19658
848.786	19639
848.921	19597
849.057	19681
849.192	19647
849.328	19643
849.463	19556
849.598	19464
849.734	19419
849.869	19354
850.004	19293
850.14	19316
850.275	19426
850.41	19179
850.545	19194
850.68	19320
850.815	19320
850.95	19164
851.085	19483
851.22	19434
851.355	19335
851.49	19263
851.625	19183
851.76	19190
851.895	19168
852.03	19042
852.165	19244
852.299	19369
852.434	19411
852.569	19335
852.703	19293
852.838	19472
852.973	19430
853.107	19411
853.242	19183
853.376	19206
853.511	19099
853.645	19175
853.78	19369
853.914	19308
854.048	19312
854.183	19301
854.317	19331
854.451	19487
854.585	19297
854.72	19403
854.854	19381
854.988	19194
855.122	19270
855.256	19091
855.39	19213
855.524	19236
855.658	19190
855.792	19194
855.926	19137
856.06	19183
856.194	19232
856.327	19217
856.461	19126
856.595	19031
856.729	19103
856.862	19263
856.996	19061
857.13	19088
857.263	19194
857.397	19168
857.53	19080
857.664	19137
857.797	18985
857.931	19133
858.064	19076
858.197	19171
858.331	19000
858.464	18939
858.597	18867
858.731	19012
858.864	18909
858.997	18981
859.13	18943
859.263	19015
859.396	19031
859.529	18875
859.662	18852
859.795	18886
859.928	19000
860.061	18985
860.194	18996
860.327	19061
860.46	18894
860.592	19004
860.725	18954
860.858	19156
860.99	18970
861.123	18791
861.256	18901
861.388	18932
861.521	19670
861.653	18791
861.786	18719
861.918	18688
862.05	18882
862.183	18985
862.315	18985
862.447	18954
862.58	18897
862.712	18749
862.844	18673
862.976	18837
863.108	18738
863.24	19019
863.372	18540
863.504	18703
863.636	18673
863.768	18677
863.9	18696
864.032	18601
864.164	18665
864.296	18654
864.428	18673
864.559	18616
864.691	18627
864.823	18646
864.954	18578
865.086	18589
865.217	18589
865.349	18544
865.48	18517
865.612	18589
865.743	18749
865.875	18620
866.006	18563
866.137	18661
866.269	18544
866.4	18521
866.531	18399
866.662	18445
866.793	18441
866.924	18418
867.055	18521
867.186	18532
867.317	18391
867.448	18330
867.579	18486
867.71	18365
867.841	18433
867.972	18623
868.103	18551
868.233	18589
868.364	18448
868.495	18700
868.625	18703
868.756	18753
868.886	18719
869.017	18642
869.147	18844
869.278	18791
869.408	18802
869.539	18833
869.669	18909
869.799	18859
869.929	19050
870.06	18848
870.19	19118
870.32	19145
870.45	19095
870.58	19190
870.71	19301
870.84	19263
870.97	19129
871.1	19221
871.23	19312
871.36	19343
871.489	19396
871.619	19400
871.749	19453
871.879	19521
872.008	19514
872.138	19438
872.267	19460
872.397	19407
872.526	19198
872.656	19285
872.785	19316
872.915	19445
873.044	19567
873.173	19533
873.303	19597
873.432	19590
873.561	19662
873.69	19632
873.819	19590
873.948	19753
874.077	19677
874.206	19586
874.335	19609
874.464	19814
874.593	19993
874.722	19947
874.851	20111
874.979	20027
875.108	20092
875.237	19947
875.365	20031
875.494	20016
875.623	20210
875.751	20149
875.88	20172
876.008	20187
876.136	20431
876.265	20693
876.393	20834
876.521	20667
876.65	20746
876.778	20693
876.906	20678
877.034	20720
877.162	20914
877.29	20750
877.418	20838
877.546	20944
877.674	21058
877.802	21055
877.93	21161
878.058	21260
878.185	21207
878.313	21447
878.441	21770
878.568	21850
878.696	22154
878.824	22626
878.951	23406
879.079	24117
879.206	25407
879.333	26469
879.461	27534
879.588	28063
879.715	28207
879.842	27739
879.97	26518
880.097	25141
880.224	24258
880.351	23611
880.478	23197
880.605	22824
880.732	22596
880.859	22618
880.986	22512
881.112	22356
881.239	22215
881.366	22093
881.493	21899
881.619	21869
881.746	21930
881.872	21888
881.999	22002
882.125	21918
882.252	22074
882.378	21945
882.505	22211
882.631	22021
882.757	21880
882.883	21865
883.01	21785
883.136	21785
883.262	21606
883.388	21614
883.514	21778
883.64	21736
883.766	21728
883.892	21523
884.018	21572
884.143	21819
884.269	21895
884.395	21580
884.52	21412
884.646	21450
884.772	21443
884.897	21428
885.023	21447
885.148	21572
885.274	21587
885.399	21458
885.524	21272
885.65	21306
885.775	21218
885.9	20990
886.025	21207
886.15	21135
886.275	20826
886.4	20845
886.525	20727
886.65	20629
886.775	20507
886.9	20594
887.025	20636
887.149	20492
887.274	20339
887.399	20069
887.523	20119
887.648	20031
887.773	19982
887.897	20043
888.021	20012
888.146	19856
888.27	19925
888.395	19902
888.519	19738
888.643	19925
888.767	19837
888.891	19693
889.015	19476
889.139	19597
889.263	19552
889.387	19594
889.511	19556
889.635	19483
889.759	19533
889.883	19289
890.006	19278
890.13	19464
890.254	19339
890.377	19194
890.501	19088
890.624	19000
890.748	19091
890.871	18970
890.995	18806
891.118	18806
891.241	18856
891.364	18707
891.488	18878
891.611	18814
891.734	18795
891.857	18901
891.98	18806
892.103	18760
892.226	18738
892.349	18627
892.471	18479
892.594	18479
892.717	18642
892.839	18509
892.962	18574
893.085	18547
893.207	18532
893.33	18304
893.452	18372
893.575	18418
893.697	18483
893.819	18604
893.941	18559
894.064	18502
894.186	18380
894.308	18357
894.43	18426
894.552	18506
894.674	18452
894.796	18251
894.918	18353
895.04	18334
895.161	18327
895.283	18433
895.405	18296
895.526	18285
895.648	18292
895.769	18296
895.891	18300
896.012	18300
896.134	18342
896.255	18262
896.376	18235
896.498	18273
896.619	18323
896.74	18365
896.861	18304
896.982	18635
897.103	18764
897.224	18525
897.345	18661
897.466	18506
897.587	18536
897.708	18703
897.828	18578
897.949	18479
898.07	18380
898.19	18471
898.311	18490
898.431	18426
898.552	18521
898.672	18521
898.792	18566
898.913	18441
899.033	18391
899.153	18311
899.273	18220
899.393	18254
899.513	18129
899.633	18213
899.753	18346
899.873	18201
899.993	18262
900.113	18148
900.232	18247
900.352	18205
900.472	18007
900.591	17939
900.711	18152
900.83	17973
900.95	18178
901.069	18163
901.189	17942
901.308	17718
901.427	17653
901.546	17729
901.665	17676
901.784	17573
901.904	17505
902.023	17349
902.141	17193
902.26	17113
902.379	17284
902.498	17064
902.617	17083
902.735	17178
902.854	17064
902.973	17090
903.091	16797
903.21	16729
903.328	16748
903.446	16763
903.565	16577
903.683	16630
903.801	16447
903.919	16504
904.038	16516
904.156	16322
904.274	16455
904.392	16348
904.51	16261
904.627	16318
904.745	16447
904.863	16360
904.981	16150
905.098	16036
905.216	16044
905.334	16044
905.451	15998
905.569	15903
905.686	16040
905.803	15983
905.921	15755
906.038	15888
906.155	15800
906.272	15682
906.389	15739
906.506	15466
906.623	15523
906.74	15507
906.857	15435
906.974	15477
907.091	15572
907.208	15610
907.324	15549
907.441	15397
907.557	15287
907.674	15237
907.79	15108
907.907	15176
908.023	15184
908.139	15123
908.256	15169
908.372	15074
908.488	15119
908.604	14979
908.72	15020
908.836	14921
908.952	14887
909.068	14921
909.184	15009
909.3	14933
909.415	15036
909.531	14804
909.647	14632
909.762	14697
909.878	14594
909.993	14625
910.108	14625
910.224	14594
910.339	14533
910.454	14556
910.57	14469
910.685	14347
910.8	14640
910.915	14590
911.03	14473
911.145	14252
911.259	14286
911.374	14301
911.489	14195
911.604	14130
911.718	14039
911.833	14073
911.947	13932
912.062	13807
912.176	13951
912.291	13978
912.405	14081
912.519	14221
912.633	14183
912.748	14088
912.862	14035
912.976	13890
913.09	13807
913.204	13791
913.318	13883
913.431	13909
913.545	13890
913.659	13932
913.772	13837
913.886	13651
914	13662
914.113	13742
914.226	13795
914.34	13696
914.453	13571
914.566	13674
914.68	13578
914.793	13590
914.906	13407
915.019	13285
915.132	13270
915.245	13327
915.358	13384
915.47	13407
915.583	13422
915.696	13441
915.809	13445
915.921	13518
916.034	13358
916.146	13335
916.259	13259
916.371	13320
916.483	13400
916.595	13206
916.708	13240
916.82	13278
916.932	13259
917.044	13244
917.156	13209
917.268	13103
917.38	13110
917.491	13069
917.603	13149
917.715	13129
917.826	13183
917.938	13004
918.049	12920
918.161	13050
918.272	13190
918.384	13175
918.495	13012
918.606	12909
918.717	12837
918.828	12848
918.939	12821
919.05	12795
919.161	12840
919.272	12635
919.383	12707
919.494	12749
919.604	12916
919.715	12772
919.826	12745
919.936	12760
920.047	12894
920.157	12768
920.267	12924
920.378	12821
920.488	12730
920.598	13008
920.708	13053
920.818	12920
920.928	13065
921.038	13050
921.148	13038
921.258	12802
921.368	12654
921.477	12631
921.587	12506
921.697	12422
921.806	12559
921.916	12452
922.025	12273
922.134	12292
922.244	12182
922.353	12220
922.462	12144
922.571	12125
922.68	11958
922.789	11958
922.898	11882
923.007	11878
923.116	11980
923.224	11908
923.333	11863
923.442	11775
923.55	11688
923.659	11710
923.767	11760
923.876	11752
923.984	11756
924.092	11665
924.201	11688
924.309	11615
924.417	11760
924.525	11642
924.633	11729
924.741	12201
924.849	11433
924.956	11551
925.064	11414
925.172	11292
925.279	11436
925.387	11448
925.494	11341
925.602	11619
925.709	11463
925.816	11277
925.924	11391
926.031	11463
926.138	11360
926.245	11398
926.352	11296
926.459	11353
926.566	11391
926.673	11337
926.779	11189
926.886	11151
926.993	11067
927.099	11033
927.206	10995
927.312	10999
927.419	11029
927.525	11033
927.631	11041
927.737	10911
927.843	10839
927.95	10744
928.056	10911
928.162	10927
928.267	10942
928.373	11417
928.479	10953
928.585	10687
928.69	10820
928.796	10824
928.901	10744
929.007	10611
929.112	10733
929.218	10748
929.323	10691
929.428	10630
929.533	10710
929.638	10592
929.743	10531
929.848	10580
929.953	10603
930.058	10466
930.163	10344
930.267	10402
930.372	10443
930.477	10303
930.581	10523
930.685	10409
930.79	10253
930.894	10242
930.998	10215
931.103	10421
931.207	10048
931.311	9937
931.415	9907
931.519	9618
931.623	9682
