Data from test_V78500241_1786.txt Node
Date: Fri Mar 25 14:46:08 CST 2022
User: usil
Spectrometer: V785-0024
Trigger mode: 0
Integration Time (sec): 4.000000E-1
Scans to average: 1
Nonlinearity correction enabled: false
Boxcar width: 0
Storing dark spectrum: false
XAxis mode: Wavelengths
Number of Pixels in Spectrum: 1024
>>>>>Begin Spectral Data<<<<<
801.071	22169
801.214	21975
801.356	21667
801.499	21705
801.641	21477
801.783	21557
801.926	21591
802.068	21393
802.211	21256
802.353	21233
802.496	21066
802.638	21112
802.78	21146
802.923	20807
803.065	20815
803.208	20807
803.35	20963
803.492	21013
803.635	20948
803.777	20880
803.919	20956
804.061	21195
804.204	20902
804.346	20842
804.488	20701
804.63	20811
804.773	20640
804.915	20735
805.057	20788
805.199	20830
805.341	20948
805.483	20910
805.626	20929
805.768	20724
805.91	20708
806.052	20895
806.194	20781
806.336	20819
806.478	20716
806.62	20754
806.762	20956
806.904	21017
807.046	21154
807.188	21055
807.33	21047
807.472	21127
807.614	21013
807.756	21013
807.898	20933
808.04	20785
808.182	20868
808.324	20872
808.465	20826
808.607	20998
808.749	21218
808.891	21180
809.033	21313
809.174	21249
809.316	21142
809.458	21131
809.6	21043
809.741	21211
809.883	21272
810.025	21439
810.166	21291
810.308	21382
810.45	21294
810.591	21214
810.733	21005
810.875	21051
811.016	20731
811.158	20788
811.299	20979
811.441	21055
811.582	20941
811.724	20975
811.865	21009
812.007	21009
812.148	20762
812.29	21039
812.431	21142
812.573	21249
812.714	21378
812.855	21424
812.997	21614
813.138	21686
813.279	21511
813.421	21534
813.562	21439
813.703	21241
813.845	20948
813.986	20701
814.127	20541
814.268	20537
814.41	20533
814.551	20415
814.692	20556
814.833	20324
814.974	20454
815.115	20454
815.256	20305
815.397	20252
815.539	20275
815.68	20199
815.821	20225
815.962	20252
816.103	20233
816.244	20016
816.385	19890
816.526	20008
816.666	19822
816.807	19556
816.948	19601
817.089	19742
817.23	19715
817.371	19681
817.512	19647
817.653	19609
817.793	19521
817.934	19708
818.075	19624
818.216	19544
818.356	19609
818.497	19537
818.638	19236
818.778	19202
818.919	19316
819.06	19403
819.2	19381
819.341	19506
819.481	19571
819.622	19556
819.762	19845
819.903	19807
820.043	19556
820.184	19533
820.324	19597
820.465	19658
820.605	19594
820.746	19674
820.886	19362
821.026	19514
821.167	19521
821.307	19628
821.447	19502
821.588	19392
821.728	19365
821.868	19198
822.008	19027
822.149	18958
822.289	19042
822.429	18795
822.569	18612
822.709	18684
822.849	18525
822.99	18448
823.13	18513
823.27	18353
823.41	18308
823.55	18167
823.69	18365
823.83	18399
823.97	18277
824.11	18136
824.25	18026
824.389	18003
824.529	18251
824.669	18003
824.809	18140
824.949	18102
825.089	18083
825.228	18072
825.368	17920
825.508	17859
825.648	17843
825.787	17878
825.927	17916
826.067	17748
826.206	17901
826.346	17813
826.485	17809
826.625	17836
826.765	18003
826.904	17882
827.044	17687
827.183	17619
827.323	17600
827.462	17570
827.601	17592
827.741	17543
827.88	17608
828.02	17402
828.159	17573
828.298	17554
828.437	17676
828.577	17410
828.716	17676
828.855	17482
828.994	17296
829.134	17220
829.273	17318
829.412	17258
829.551	17223
829.69	17337
829.829	17341
829.968	17356
830.107	17398
830.246	17391
830.385	17273
830.524	17200
830.663	17060
830.802	17075
830.941	16850
831.08	16850
831.219	16984
831.357	16968
831.496	17113
831.635	16881
831.774	16809
831.913	16854
832.051	16721
832.19	16736
832.329	16767
832.467	16645
832.606	16542
832.744	16409
832.883	16584
833.022	16626
833.16	16561
833.299	16687
833.437	16641
833.576	16558
833.714	16641
833.852	16698
833.991	16782
834.129	16866
834.267	16748
834.406	16713
834.544	16771
834.682	16664
834.821	16599
834.959	16869
835.097	16710
835.235	16740
835.373	16630
835.511	16592
835.65	16607
835.788	16569
835.926	16451
836.064	16360
836.202	16371
836.34	16637
836.478	16466
836.615	16531
836.753	16592
836.891	16641
837.029	16531
837.167	16538
837.305	16466
837.443	16462
837.58	16398
837.718	16466
837.856	16428
837.993	16348
838.131	16455
838.269	16409
838.406	16443
838.544	16318
838.681	16109
838.819	16135
838.956	16002
839.094	15926
839.231	16021
839.369	16128
839.506	16478
839.643	16185
839.781	15975
839.918	15930
840.055	16017
840.193	16010
840.33	15926
840.467	15964
840.604	16029
840.742	16223
840.879	15911
841.016	15857
841.153	15964
841.29	16196
841.427	16185
841.564	16025
841.701	16025
841.838	15937
841.975	15804
842.112	15873
842.249	15816
842.385	15732
842.522	15895
842.659	15720
842.796	15762
842.933	15831
843.069	15770
843.206	15823
843.343	15842
843.479	15842
843.616	15720
843.752	15637
843.889	15603
844.025	15618
844.162	15553
844.298	15819
844.435	15568
844.571	15504
844.708	15507
844.844	15629
844.98	15770
845.117	15717
845.253	15576
845.389	15439
845.525	15553
845.661	15500
845.798	15321
845.934	15275
846.07	15313
846.206	15481
846.342	15530
846.478	15294
846.614	15184
846.75	15055
846.886	15116
847.022	15218
847.158	15138
847.294	15127
847.429	15222
847.565	15180
847.701	15374
847.837	14830
847.972	14777
848.108	14967
848.244	14994
848.379	14781
848.515	14701
848.65	14705
848.786	14689
848.921	14746
849.057	14868
849.192	14834
849.328	14697
849.463	14739
849.598	14724
849.734	14678
849.869	14590
850.004	14537
850.14	14511
850.275	14587
850.41	14408
850.545	14473
850.68	14457
850.815	14522
850.95	14492
851.085	14587
851.22	14602
851.355	14579
851.49	14427
851.625	14427
851.76	14526
851.895	14332
852.03	14396
852.165	14358
852.299	14556
852.434	14590
852.569	14537
852.703	14537
852.838	14621
852.973	14716
853.107	14499
853.242	14590
853.376	14476
853.511	14389
853.645	14298
853.78	14412
853.914	14480
854.048	14294
854.183	14309
854.317	14427
854.451	14499
854.585	14362
854.72	14320
854.854	14442
854.988	14320
855.122	14351
855.256	14244
855.39	14328
855.524	14461
855.658	14518
855.792	14355
855.926	14389
856.06	14514
856.194	14533
856.327	14317
856.461	14294
856.595	14275
856.729	14320
856.862	14450
856.996	14423
857.13	14488
857.263	14450
857.397	14454
857.53	14396
857.664	14370
857.797	14389
857.931	14480
858.064	14374
858.197	14526
858.331	14419
858.464	14259
858.597	14290
858.731	14351
858.864	14370
858.997	14332
859.13	14385
859.263	14370
859.396	14389
859.529	14339
859.662	14324
859.795	14282
859.928	14404
860.061	14473
860.194	14598
860.327	14389
860.46	14275
860.592	14549
860.725	14552
860.858	14518
860.99	14389
861.123	14221
861.256	14320
861.388	14408
861.521	15013
861.653	14256
861.786	14278
861.918	14275
862.05	14214
862.183	14385
862.315	14389
862.447	14374
862.58	14317
862.712	14081
862.844	14100
862.976	14126
863.108	14206
863.24	14587
863.372	14180
863.504	14027
863.636	14081
863.768	14172
863.9	14176
864.032	14119
864.164	14111
864.296	14180
864.428	14168
864.559	14233
864.691	14206
864.823	14142
864.954	14092
865.086	14123
865.217	14050
865.349	14077
865.48	14134
865.612	14248
865.743	14256
865.875	14107
866.006	14081
866.137	14142
866.269	14111
866.4	14164
866.531	14092
866.662	14035
866.793	14107
866.924	14096
867.055	14134
867.186	14092
867.317	14145
867.448	14039
867.579	14077
867.71	14069
867.841	14142
867.972	14206
868.103	14050
868.233	14168
868.364	14096
868.495	14225
868.625	14343
868.756	14431
868.886	14298
869.017	14396
869.147	14480
869.278	14450
869.408	14343
869.539	14434
869.669	14469
869.799	14377
869.929	14511
870.06	14484
870.19	14678
870.32	14659
870.45	14727
870.58	14849
870.71	14819
870.84	14887
870.97	14792
871.1	14758
871.23	14914
871.36	15024
871.489	14891
871.619	14967
871.749	14963
871.879	15001
872.008	14986
872.138	14941
872.267	14994
872.397	14792
872.526	14895
872.656	14765
872.785	14834
872.915	15005
873.044	15112
873.173	15066
873.303	15085
873.432	15058
873.561	15066
873.69	15176
873.819	14986
873.948	15112
874.077	14944
874.206	14990
874.335	14960
874.464	15180
874.593	15348
874.722	15256
874.851	15226
874.979	15443
875.108	15389
875.237	15317
875.365	15222
875.494	15260
875.623	15408
875.751	15367
875.88	15439
876.008	15477
876.136	15595
876.265	15724
876.393	15865
876.521	15766
876.65	15759
876.778	15720
876.906	15743
877.034	15641
877.162	15812
877.29	15671
877.418	15804
877.546	15625
877.674	15679
877.802	15800
877.93	15736
878.058	15755
878.185	15614
878.313	15743
878.441	15698
878.568	15584
878.696	15660
878.824	15876
878.951	15751
879.079	15876
879.206	16086
879.333	15880
879.461	15804
879.588	15979
879.715	15915
879.842	15998
879.97	15755
880.097	15587
880.224	15534
880.351	15641
880.478	15599
880.605	15576
880.732	15572
880.859	15755
880.986	15576
881.112	15625
881.239	15420
881.366	15386
881.493	15306
881.619	15279
881.746	15241
881.872	15329
881.999	15272
882.125	15317
882.252	15359
882.378	15214
882.505	15420
882.631	15169
882.757	15085
882.883	15009
883.01	15028
883.136	14990
883.262	14956
883.388	14887
883.514	15180
883.64	15062
883.766	15051
883.892	14826
884.018	14872
884.143	15024
884.269	15241
884.395	14853
884.52	14777
884.646	14785
884.772	14765
884.897	14606
885.023	14678
885.148	14902
885.274	14880
885.399	14960
885.524	14724
885.65	14800
885.775	14762
885.9	14807
886.025	14960
886.15	14804
886.275	14743
886.4	14636
886.525	14724
886.65	14785
886.775	14648
886.9	14826
887.025	15020
887.149	14838
887.274	14682
887.399	14648
887.523	14625
887.648	14514
887.773	14549
887.897	14682
888.021	14693
888.146	14648
888.27	14670
888.395	14644
888.519	14663
888.643	14708
888.767	14678
888.891	14617
889.015	14484
889.139	14583
889.263	14286
889.387	14625
889.511	14716
889.635	14522
889.759	14419
889.883	14457
890.006	14545
890.13	14495
890.254	14431
890.377	14450
890.501	14317
890.624	14221
890.748	14332
890.871	14096
890.995	14183
891.118	14111
891.241	14161
891.364	14073
891.488	14240
891.611	14134
891.734	14210
891.857	14233
891.98	14237
892.103	14256
892.226	14180
892.349	14161
892.471	14031
892.594	14092
892.717	14161
892.839	14084
892.962	14153
893.085	14248
893.207	14130
893.33	14069
893.452	14043
893.575	14309
893.697	14039
893.819	14336
893.941	14366
894.064	14275
894.186	14115
894.308	14195
894.43	14317
894.552	14381
894.674	14305
894.796	14202
894.918	14126
895.04	14267
895.161	14332
895.283	14355
895.405	14221
895.526	14324
895.648	14126
895.769	14347
895.891	14370
896.012	14366
896.134	14400
896.255	14389
896.376	14320
896.498	14229
896.619	14324
896.74	14454
896.861	14434
896.982	14678
897.103	14785
897.224	14632
897.345	14629
897.466	14613
897.587	14530
897.708	14819
897.828	14636
897.949	14636
898.07	14423
898.19	14568
898.311	14834
898.431	14617
898.552	14693
898.672	14758
898.792	14788
898.913	14708
899.033	14640
899.153	14446
899.273	14446
899.393	14480
899.513	14514
899.633	14393
899.753	14606
899.873	14446
899.993	14530
900.113	14568
900.232	14545
900.352	14518
900.472	14362
900.591	14412
900.711	14339
900.83	14351
900.95	14613
901.069	14541
901.189	14317
901.308	14069
901.427	14130
901.546	13967
901.665	14088
901.784	14092
901.904	13947
902.023	13864
902.141	13734
902.26	13540
902.379	13784
902.498	13597
902.617	13666
902.735	13674
902.854	13647
902.973	13533
903.091	13377
903.21	13369
903.328	13441
903.446	13358
903.565	13255
903.683	13282
903.801	13137
903.919	13179
904.038	13244
904.156	13088
904.274	13000
904.392	13031
904.51	12985
904.627	12943
904.745	13053
904.863	13149
904.981	12852
905.098	12677
905.216	12772
905.334	12719
905.451	12642
905.569	12631
905.686	12715
905.803	12749
905.921	12547
906.038	12681
906.155	12486
906.272	12384
906.389	12479
906.506	12372
906.623	12376
906.74	12243
906.857	12273
906.974	12239
907.091	12308
907.208	12429
907.324	12433
907.441	12220
907.557	12034
907.674	12038
907.79	11969
907.907	11996
908.023	12068
908.139	12091
908.256	11996
908.372	12049
908.488	11901
908.604	11832
908.72	11783
908.836	11840
908.952	11802
909.068	11813
909.184	11954
909.3	11824
909.415	11885
909.531	11824
909.647	11535
909.762	11535
909.878	11512
909.993	11558
910.108	11551
910.224	11570
910.339	11562
910.454	11524
910.57	11478
910.685	11372
910.8	11649
910.915	11524
911.03	11421
911.145	11265
911.259	11280
911.374	11227
911.489	11208
911.604	11242
911.718	11010
911.833	11045
911.947	10908
912.062	10904
912.176	11041
912.291	11048
912.405	11048
912.519	11197
912.633	11193
912.748	11113
912.862	11029
912.976	10854
913.09	10755
913.204	10889
913.318	10930
913.431	10991
913.545	10881
913.659	11014
913.772	10896
913.886	10854
914	10793
914.113	10843
914.226	10976
914.34	10923
914.453	10767
914.566	10809
914.68	10763
914.793	10698
914.906	10535
915.019	10485
915.132	10436
915.245	10489
915.358	10474
915.47	10512
915.583	10546
915.696	10634
915.809	10694
915.921	10588
916.034	10512
916.146	10523
916.259	10462
916.371	10573
916.483	10561
916.595	10508
916.708	10527
916.82	10421
916.932	10500
917.044	10390
917.156	10432
917.268	10329
917.38	10363
917.491	10341
917.603	10360
917.715	10402
917.826	10451
917.938	10291
918.049	10257
918.161	10500
918.272	10474
918.384	10466
918.495	10371
918.606	10265
918.717	10131
918.828	10169
918.939	10284
919.05	10185
919.161	10230
919.272	10082
919.383	10105
919.494	10314
919.604	10417
919.715	10272
919.826	10257
919.936	10200
920.047	10367
920.157	10268
920.267	10478
920.378	10371
920.488	10314
920.598	10390
920.708	10691
920.818	10390
920.928	10417
921.038	10565
921.148	10466
921.258	10287
921.368	10192
921.477	10173
921.587	10116
921.697	10013
921.806	10169
921.916	9983
922.025	9838
922.134	9861
922.244	9797
922.353	9884
922.462	9633
922.571	9606
922.68	9450
922.789	9431
922.898	9534
923.007	9454
923.116	9557
923.224	9507
923.333	9454
923.442	9408
923.55	9340
923.659	9466
923.767	9481
923.876	9389
923.984	9431
924.092	9310
924.201	9325
924.309	9374
924.417	9378
924.525	9344
924.633	9313
924.741	10249
924.849	9161
924.956	9359
925.064	9119
925.172	9081
925.279	9036
925.387	9135
925.494	9260
925.602	9298
925.709	9237
925.816	9093
925.924	9268
926.031	9199
926.138	9127
926.245	9275
926.352	9112
926.459	9241
926.566	9302
926.673	9070
926.779	9058
926.886	9081
926.993	8857
927.099	8895
927.206	8788
927.312	8788
927.419	8853
927.525	8902
927.631	8914
927.737	8739
927.843	8743
927.95	8625
928.056	8807
928.162	8804
928.267	8785
928.373	9439
928.479	8842
928.585	8579
928.69	8830
928.796	8697
928.901	8701
929.007	8522
929.112	8773
929.218	8667
929.323	8590
929.428	8556
929.533	8701
929.638	8514
929.743	8571
929.848	8598
929.953	8518
930.058	8434
930.163	8355
930.267	8355
930.372	8560
930.477	8328
930.581	8545
930.685	8412
930.79	8324
930.894	8362
930.998	8248
931.103	8396
931.207	8111
931.311	8062
931.415	7944
931.519	7830
931.623	7826
