Data from test_V78500241_2624.txt Node
Date: Fri Mar 25 14:51:59 CST 2022
User: usil
Spectrometer: V785-0024
Trigger mode: 0
Integration Time (sec): 4.000000E-1
Scans to average: 1
Nonlinearity correction enabled: false
Boxcar width: 0
Storing dark spectrum: false
XAxis mode: Wavelengths
Number of Pixels in Spectrum: 1024
>>>>>Begin Spectral Data<<<<<
801.071	21930
801.214	21956
801.356	21762
801.499	21530
801.641	21447
801.783	21374
801.926	21469
802.068	21291
802.211	21169
802.353	21119
802.496	20979
802.638	20952
802.78	20800
802.923	20762
803.065	20716
803.208	20697
803.35	20750
803.492	20914
803.635	20834
803.777	20629
803.919	20769
804.061	21093
804.204	20804
804.346	20556
804.488	20579
804.63	20739
804.773	20568
804.915	20549
805.057	20769
805.199	20594
805.341	20758
805.483	20769
805.626	20735
805.768	20579
805.91	20602
806.052	20632
806.194	20530
806.336	20617
806.478	20518
806.62	20571
806.762	20689
806.904	20811
807.046	20994
807.188	20914
807.33	20948
807.472	20910
807.614	20792
807.756	20887
807.898	20765
808.04	20735
808.182	20743
808.324	20720
808.465	20735
808.607	20804
808.749	20956
808.891	21039
809.033	21165
809.174	21047
809.316	20918
809.458	20853
809.6	20944
809.741	21001
809.883	21024
810.025	21001
810.166	21165
810.308	21039
810.45	21055
810.591	20979
810.733	20804
810.875	20746
811.016	20670
811.158	20655
811.299	20724
811.441	20956
811.582	20914
811.724	20735
811.865	20613
812.007	20720
812.148	20674
812.29	20823
812.431	20941
812.573	20994
812.714	21123
812.855	21268
812.997	21302
813.138	21359
813.279	21332
813.421	21218
813.562	21173
813.703	20956
813.845	20864
813.986	20587
814.127	20408
814.268	20423
814.41	20309
814.551	20191
814.692	20404
814.833	20237
814.974	20385
815.115	20275
815.256	20126
815.397	20214
815.539	20142
815.68	20016
815.821	20035
815.962	20153
816.103	20043
816.244	19830
816.385	19803
816.526	19689
816.666	19635
816.807	19434
816.948	19643
817.089	19495
817.23	19510
817.371	19518
817.512	19419
817.653	19487
817.793	19331
817.934	19388
818.075	19369
818.216	19396
818.356	19384
818.497	19266
818.638	19179
818.778	19084
818.919	18996
819.06	19095
819.2	19194
819.341	19206
819.481	19297
819.622	19487
819.762	19605
819.903	19651
820.043	19491
820.184	19316
820.324	19510
820.465	19495
820.605	19403
820.746	19384
820.886	19225
821.026	19453
821.167	19293
821.307	19388
821.447	19362
821.588	19263
821.728	19042
821.868	19038
822.008	18814
822.149	18875
822.289	18726
822.429	18677
822.569	18452
822.709	18532
822.849	18361
822.99	18380
823.13	18304
823.27	18270
823.41	18197
823.55	18026
823.69	18136
823.83	18125
823.97	18030
824.11	17866
824.25	17866
824.389	17920
824.529	17920
824.669	17958
824.809	17969
824.949	17961
825.089	17904
825.228	17923
825.368	17665
825.508	17691
825.648	17703
825.787	17737
825.927	17665
826.067	17585
826.206	17619
826.346	17592
826.485	17733
826.625	17604
826.765	17794
826.904	17703
827.044	17463
827.183	17433
827.323	17360
827.462	17391
827.601	17349
827.741	17337
827.88	17372
828.02	17147
828.159	17337
828.298	17318
828.437	17417
828.577	17322
828.716	17501
828.855	17398
828.994	17159
829.134	17105
829.273	17090
829.412	17029
829.551	16957
829.69	17090
829.829	17124
829.968	17231
830.107	17258
830.246	17212
830.385	17010
830.524	17079
830.663	16854
830.802	16854
830.941	16778
831.08	16759
831.219	16797
831.357	16698
831.496	17071
831.635	16748
831.774	16725
831.913	16573
832.051	16615
832.19	16512
832.329	16546
832.467	16405
832.606	16474
832.744	16402
832.883	16394
833.022	16470
833.16	16436
833.299	16500
833.437	16474
833.576	16523
833.714	16485
833.852	16451
833.991	16569
834.129	16645
834.267	16497
834.406	16459
834.544	16538
834.682	16573
834.821	16459
834.959	16626
835.097	16455
835.235	16561
835.373	16519
835.511	16611
835.65	16409
835.788	16409
835.926	16234
836.064	16162
836.202	16299
836.34	16402
836.478	16512
836.615	16356
836.753	16375
836.891	16405
837.029	16462
837.167	16356
837.305	16306
837.443	16287
837.58	16272
837.718	16276
837.856	16257
837.993	16246
838.131	16276
838.269	16196
838.406	16295
838.544	16097
838.681	15968
838.819	16021
838.956	15751
839.094	15759
839.231	15838
839.369	15915
839.506	16177
839.643	16135
839.781	15781
839.918	15804
840.055	15804
840.193	15785
840.33	15781
840.467	15774
840.604	15819
840.742	16135
840.879	15732
841.016	15755
841.153	15663
841.29	15861
841.427	15850
841.564	15857
841.701	15907
841.838	15869
841.975	15694
842.112	15812
842.249	15667
842.385	15603
842.522	15850
842.659	15663
842.796	15667
842.933	15576
843.069	15549
843.206	15534
843.343	15694
843.479	15526
843.616	15606
843.752	15370
843.889	15336
844.025	15644
844.162	15416
844.298	15500
844.435	15447
844.571	15367
844.708	15458
844.844	15610
844.98	15526
845.117	15447
845.253	15382
845.389	15302
845.525	15332
845.661	15306
845.798	15222
845.934	15241
846.07	15127
846.206	15173
846.342	15226
846.478	15207
846.614	15028
846.75	14975
846.886	14944
847.022	15112
847.158	14952
847.294	14990
847.429	14948
847.565	14929
847.701	15184
847.837	14811
847.972	14602
848.108	14781
848.244	14777
848.379	14651
848.515	14625
848.65	14545
848.786	14617
848.921	14545
849.057	14598
849.192	14655
849.328	14568
849.463	14659
849.598	14560
849.734	14457
849.869	14400
850.004	14419
850.14	14320
850.275	14454
850.41	14282
850.545	14259
850.68	14328
850.815	14324
850.95	14351
851.085	14465
851.22	14381
851.355	14290
851.49	14381
851.625	14305
851.76	14358
851.895	14164
852.03	14195
852.165	14328
852.299	14328
852.434	14427
852.569	14229
852.703	14343
852.838	14343
852.973	14461
853.107	14476
853.242	14332
853.376	14290
853.511	14157
853.645	14107
853.78	14355
853.914	14214
854.048	14202
854.183	14111
854.317	14176
854.451	14389
854.585	14164
854.72	14214
854.854	14206
854.988	14126
855.122	14119
855.256	14046
855.39	14176
855.524	14282
855.658	14233
855.792	14214
855.926	14282
856.06	14206
856.194	14396
856.327	14202
856.461	14065
856.595	14210
856.729	14138
856.862	14305
856.996	14199
857.13	14286
857.263	14305
857.397	14317
857.53	14195
857.664	14290
857.797	14221
857.931	14263
858.064	14351
858.197	14294
858.331	14187
858.464	14199
858.597	14126
858.731	14180
858.864	14267
858.997	14210
859.13	14278
859.263	14275
859.396	14343
859.529	14237
859.662	14161
859.795	14176
859.928	14282
860.061	14328
860.194	14556
860.327	14317
860.46	14286
860.592	14229
860.725	14259
860.858	14317
860.99	14256
861.123	14210
861.256	14248
861.388	14286
861.521	14849
861.653	14199
861.786	14062
861.918	14145
862.05	14119
862.183	14191
862.315	14218
862.447	14278
862.58	14195
862.712	14039
862.844	13993
862.976	14050
863.108	14024
863.24	14507
863.372	13974
863.504	13997
863.636	14096
863.768	14065
863.9	14039
864.032	13997
864.164	13970
864.296	14096
864.428	14138
864.559	14248
864.691	14180
864.823	14134
864.954	14107
865.086	14043
865.217	13940
865.349	13928
865.48	14005
865.612	14012
865.743	14153
865.875	14031
866.006	14008
866.137	14046
866.269	14088
866.4	14039
866.531	13959
866.662	13959
866.793	13959
866.924	14088
867.055	14024
867.186	14065
867.317	14005
867.448	13902
867.579	14016
867.71	13970
867.841	13989
867.972	13997
868.103	14062
868.233	14103
868.364	14092
868.495	14111
868.625	14252
868.756	14419
868.886	14202
869.017	14298
869.147	14415
869.278	14358
869.408	14343
869.539	14324
869.669	14343
869.799	14271
869.929	14358
870.06	14385
870.19	14575
870.32	14560
870.45	14606
870.58	14655
870.71	14727
870.84	14754
870.97	14579
871.1	14640
871.23	14990
871.36	14815
871.489	14720
871.619	14910
871.749	14845
871.879	14796
872.008	15024
872.138	14902
872.267	14834
872.397	14720
872.526	14693
872.656	14610
872.785	14720
872.915	14921
873.044	14986
873.173	14918
873.303	15028
873.432	14956
873.561	15039
873.69	14921
873.819	14937
873.948	14963
874.077	14914
874.206	14960
874.335	14918
874.464	15020
874.593	15245
874.722	15188
874.851	15325
874.979	15203
875.108	15317
875.237	15329
875.365	15222
875.494	15230
875.623	15317
875.751	15211
875.88	15268
876.008	15458
876.136	15519
876.265	15724
876.393	15728
876.521	15728
876.65	15720
876.778	15686
876.906	15751
877.034	15606
877.162	15644
877.29	15542
877.418	15705
877.546	15667
877.674	15584
877.802	15610
877.93	15743
878.058	15648
878.185	15545
878.313	15637
878.441	15599
878.568	15412
878.696	15504
878.824	15663
878.951	15732
879.079	15842
879.206	15983
879.333	15884
879.461	15690
879.588	15781
879.715	15892
879.842	16002
879.97	15698
880.097	15485
880.224	15538
880.351	15523
880.478	15492
880.605	15561
880.732	15504
880.859	15759
880.986	15526
881.112	15526
881.239	15443
881.366	15336
881.493	15150
881.619	15066
881.746	15157
881.872	15184
881.999	15108
882.125	15138
882.252	15218
882.378	15131
882.505	15348
882.631	15157
882.757	15001
882.883	14941
883.01	14914
883.136	14979
883.262	14792
883.388	14830
883.514	14963
883.64	14918
883.766	14861
883.892	14746
884.018	14853
884.143	14902
884.269	15074
884.395	14758
884.52	14705
884.646	14743
884.772	14575
884.897	14530
885.023	14773
885.148	14788
885.274	14819
885.399	14724
885.524	14705
885.65	14769
885.775	14731
885.9	14735
886.025	14857
886.15	14765
886.275	14579
886.4	14545
886.525	14648
886.65	14537
886.775	14564
886.9	14792
887.025	14952
887.149	14708
887.274	14602
887.399	14446
887.523	14450
887.648	14461
887.773	14469
887.897	14522
888.021	14469
888.146	14415
888.27	14606
888.395	14644
888.519	14511
888.643	14632
888.767	14598
888.891	14488
889.015	14317
889.139	14366
889.263	14347
889.387	14438
889.511	14590
889.635	14495
889.759	14332
889.883	14374
890.006	14400
890.13	14511
890.254	14298
890.377	14278
890.501	14248
890.624	14138
890.748	14313
890.871	14157
890.995	14081
891.118	13997
891.241	14092
891.364	14058
891.488	14168
891.611	14107
891.734	14077
891.857	14199
891.98	14119
892.103	14096
892.226	14180
892.349	14043
892.471	14020
892.594	14077
892.717	14016
892.839	14008
892.962	14126
893.085	14069
893.207	14012
893.33	14016
893.452	14069
893.575	14168
893.697	14088
893.819	14221
893.941	14290
894.064	14267
894.186	14100
894.308	14024
894.43	14305
894.552	14275
894.674	14123
894.796	13997
894.918	14100
895.04	14130
895.161	14313
895.283	14218
895.405	14039
895.526	14164
895.648	14267
895.769	14195
895.891	14263
896.012	14332
896.134	14336
896.255	14298
896.376	14225
896.498	14210
896.619	14317
896.74	14275
896.861	14305
896.982	14594
897.103	14636
897.224	14651
897.345	14583
897.466	14446
897.587	14473
897.708	14651
897.828	14587
897.949	14503
898.07	14362
898.19	14446
898.311	14724
898.431	14602
898.552	14590
898.672	14682
898.792	14708
898.913	14648
899.033	14602
899.153	14400
899.273	14377
899.393	14450
899.513	14503
899.633	14507
899.753	14492
899.873	14431
899.993	14511
900.113	14393
900.232	14457
900.352	14465
900.472	14324
900.591	14290
900.711	14366
900.83	14286
900.95	14336
901.069	14446
901.189	14252
901.308	14111
901.427	13925
901.546	13967
901.665	13959
901.784	14126
901.904	13864
902.023	13772
902.141	13605
902.26	13499
902.379	13628
902.498	13632
902.617	13449
902.735	13715
902.854	13586
902.973	13445
903.091	13236
903.21	13335
903.328	13327
903.446	13266
903.565	13206
903.683	13190
903.801	13042
903.919	13065
904.038	13091
904.156	12996
904.274	13069
904.392	12981
904.51	12932
904.627	12867
904.745	13000
904.863	13046
904.981	12726
905.098	12677
905.216	12601
905.334	12654
905.451	12654
905.569	12574
905.686	12741
905.803	12646
905.921	12540
906.038	12513
906.155	12490
906.272	12342
906.389	12388
906.506	12159
906.623	12277
906.74	12228
906.857	12136
906.974	12098
907.091	12220
907.208	12357
907.324	12228
907.441	12201
907.557	12030
907.674	11912
907.79	11889
907.907	11882
908.023	11980
908.139	11965
908.256	11946
908.372	11965
908.488	11847
908.604	11824
908.72	11627
908.836	11718
908.952	11714
909.068	11714
909.184	11813
909.3	11710
909.415	11836
909.531	11733
909.647	11497
909.762	11425
909.878	11478
909.993	11512
910.108	11512
910.224	11482
910.339	11486
910.454	11376
910.57	11429
910.685	11341
910.8	11554
910.915	11425
911.03	11402
911.145	11223
911.259	11261
911.374	11201
911.489	11117
911.604	11094
911.718	10904
911.833	10927
911.947	10831
912.062	10843
912.176	10862
912.291	10965
912.405	10999
912.519	11170
912.633	11193
912.748	11121
912.862	11033
912.976	10866
913.09	10694
913.204	10862
913.318	10900
913.431	10984
913.545	10949
913.659	11075
913.772	10816
913.886	10679
914	10664
914.113	10812
914.226	10972
914.34	10835
914.453	10615
914.566	10778
914.68	10599
914.793	10615
914.906	10512
915.019	10527
915.132	10447
915.245	10478
915.358	10497
915.47	10542
915.583	10516
915.696	10512
915.809	10615
915.921	10622
916.034	10363
916.146	10443
916.259	10436
916.371	10565
916.483	10523
916.595	10447
916.708	10360
916.82	10451
916.932	10348
917.044	10341
917.156	10306
917.268	10284
917.38	10265
917.491	10306
917.603	10352
917.715	10348
917.826	10447
917.938	10329
918.049	10192
918.161	10310
918.272	10462
918.384	10478
918.495	10306
918.606	10200
918.717	10120
918.828	10249
918.939	10310
919.05	10093
919.161	10238
919.272	9949
919.383	10101
919.494	10246
919.604	10360
919.715	10162
919.826	10143
919.936	10131
920.047	10249
920.157	10223
920.267	10405
920.378	10291
920.488	10227
920.598	10386
920.708	10516
920.818	10394
920.928	10409
921.038	10596
921.148	10577
921.258	10314
921.368	10059
921.477	10090
921.587	10010
921.697	9937
921.806	10097
921.916	9941
922.025	9850
922.134	9797
922.244	9709
922.353	9797
922.462	9686
922.571	9591
922.68	9458
922.789	9405
922.898	9542
923.007	9412
923.116	9534
923.224	9443
923.333	9431
923.442	9336
923.55	9245
923.659	9336
923.767	9374
923.876	9329
923.984	9321
924.092	9245
924.201	9291
924.309	9294
924.417	9420
924.525	9268
924.633	9264
924.741	10131
924.849	9112
924.956	9245
925.064	9089
925.172	8979
925.279	9085
925.387	9116
925.494	9077
925.602	9260
925.709	9161
925.816	9032
925.924	9135
926.031	9218
926.138	9142
926.245	9180
926.352	9051
926.459	9157
926.566	9287
926.673	9020
926.779	9051
926.886	8963
926.993	8842
927.099	8842
927.206	8800
927.312	8769
927.419	8864
927.525	8861
927.631	8899
927.737	8811
927.843	8731
927.95	8689
928.056	8724
928.162	8754
928.267	8769
928.373	9405
928.479	8830
928.585	8598
928.69	8724
928.796	8796
928.901	8644
929.007	8537
929.112	8686
929.218	8629
929.323	8564
929.428	8590
929.533	8686
929.638	8549
929.743	8537
929.848	8549
929.953	8583
930.058	8518
930.163	8301
930.267	8377
930.372	8431
930.477	8305
930.581	8602
930.685	8476
930.79	8320
930.894	8309
930.998	8248
931.103	8431
931.207	8058
931.311	7959
931.415	8012
931.519	7757
931.623	7818
