Data from test_V78500241_3574.txt Node
Date: Fri Mar 25 14:58:36 CST 2022
User: usil
Spectrometer: V785-0024
Trigger mode: 0
Integration Time (sec): 4.000000E-1
Scans to average: 1
Nonlinearity correction enabled: false
Boxcar width: 0
Storing dark spectrum: false
XAxis mode: Wavelengths
Number of Pixels in Spectrum: 1024
>>>>>Begin Spectral Data<<<<<
801.071	21994
801.214	21701
801.356	21530
801.499	21397
801.641	21359
801.783	21294
801.926	21325
802.068	21161
802.211	21233
802.353	21096
802.496	20792
802.638	20724
802.78	20724
802.923	20644
803.065	20613
803.208	20533
803.35	20705
803.492	20640
803.635	20701
803.777	20522
803.919	20678
804.061	20971
804.204	20739
804.346	20514
804.488	20507
804.63	20727
804.773	20499
804.915	20465
805.057	20499
805.199	20480
805.341	20655
805.483	20648
805.626	20613
805.768	20393
805.91	20594
806.052	20636
806.194	20480
806.336	20621
806.478	20454
806.62	20533
806.762	20571
806.904	20670
807.046	20826
807.188	20785
807.33	20807
807.472	20944
807.614	20731
807.756	20625
807.898	20693
808.04	20617
808.182	20636
808.324	20609
808.465	20636
808.607	20815
808.749	20960
808.891	21013
809.033	21013
809.174	20796
809.316	20857
809.458	20941
809.6	20826
809.741	20883
809.883	20857
810.025	21001
810.166	21058
810.308	21047
810.45	20876
810.591	20887
810.733	20644
810.875	20609
811.016	20571
811.158	20564
811.299	20674
811.441	20830
811.582	20651
811.724	20644
811.865	20530
812.007	20644
812.148	20579
812.29	20697
812.431	20746
812.573	20914
812.714	20975
812.855	21264
812.997	21192
813.138	21317
813.279	21260
813.421	21032
813.562	20929
813.703	20948
813.845	20777
813.986	20499
814.127	20259
814.268	20183
814.41	20256
814.551	20199
814.692	20180
814.833	20103
814.974	20058
815.115	20130
815.256	20050
815.397	20073
815.539	20065
815.68	19993
815.821	19738
815.962	19868
816.103	19803
816.244	19803
816.385	19693
816.526	19681
816.666	19403
816.807	19293
816.948	19373
817.089	19457
817.23	19293
817.371	19377
817.512	19156
817.653	19247
817.793	19095
817.934	19354
818.075	19301
818.216	19346
818.356	19179
818.497	19228
818.638	18920
818.778	19053
818.919	19046
819.06	19080
819.2	19156
819.341	19209
819.481	19164
819.622	19324
819.762	19468
819.903	19422
820.043	19247
820.184	19331
820.324	19407
820.465	19365
820.605	19293
820.746	19274
820.886	19084
821.026	19168
821.167	19206
821.307	19350
821.447	19282
821.588	19042
821.728	19053
821.868	18810
822.008	18684
822.149	18734
822.289	18532
822.429	18300
822.569	18407
822.709	18445
822.849	18133
822.99	18186
823.13	18152
823.27	18247
823.41	17984
823.55	17946
823.69	17977
823.83	18011
823.97	17866
824.11	17737
824.25	17756
824.389	17733
824.529	17764
824.669	17695
824.809	17866
824.949	17897
825.089	17779
825.228	17824
825.368	17532
825.508	17474
825.648	17490
825.787	17630
825.927	17619
826.067	17558
826.206	17448
826.346	17573
826.485	17566
826.625	17493
826.765	17619
826.904	17600
827.044	17280
827.183	17284
827.323	17223
827.462	17273
827.601	17258
827.741	17250
827.88	17284
828.02	17140
828.159	17220
828.298	17391
828.437	17200
828.577	17246
828.716	17387
828.855	17136
828.994	17067
829.134	16953
829.273	17109
829.412	16984
829.551	16980
829.69	17006
829.829	17041
829.968	17022
830.107	16961
830.246	16957
830.385	16949
830.524	16961
830.663	16759
830.802	16645
830.941	16618
831.08	16717
831.219	16691
831.357	16664
831.496	16786
831.635	16519
831.774	16615
831.913	16432
832.051	16390
832.19	16322
832.329	16432
832.467	16295
832.606	16394
832.744	16390
832.883	16333
833.022	16360
833.16	16230
833.299	16436
833.437	16318
833.576	16242
833.714	16417
833.852	16451
833.991	16523
834.129	16519
834.267	16447
834.406	16371
834.544	16455
834.682	16405
834.821	16417
834.959	16588
835.097	16299
835.235	16462
835.373	16489
835.511	16367
835.65	16356
835.788	16348
835.926	16055
836.064	16101
836.202	16128
836.34	16200
836.478	16459
836.615	16204
836.753	16421
836.891	16234
837.029	16284
837.167	16185
837.305	16261
837.443	16135
837.58	16249
837.718	16238
837.856	16109
837.993	16226
838.131	16059
838.269	16074
838.406	16139
838.544	16090
838.681	15922
838.819	15854
838.956	15736
839.094	15793
839.231	15797
839.369	15804
839.506	16185
839.643	15972
839.781	15743
839.918	15762
840.055	15660
840.193	15709
840.33	15660
840.467	15698
840.604	15846
840.742	15960
840.879	15500
841.016	15625
841.153	15648
841.29	15880
841.427	15743
841.564	15736
841.701	15774
841.838	15663
841.975	15545
842.112	15675
842.249	15500
842.385	15481
842.522	15717
842.659	15561
842.796	15496
842.933	15492
843.069	15462
843.206	15393
843.343	15599
843.479	15492
843.616	15515
843.752	15268
843.889	15252
844.025	15374
844.162	15287
844.298	15408
844.435	15226
844.571	15176
844.708	15298
844.844	15435
844.98	15359
845.117	15405
845.253	15275
845.389	15237
845.525	15218
845.661	15165
845.798	15005
845.934	15085
846.07	15051
846.206	15093
846.342	15272
846.478	15020
846.614	14929
846.75	14845
846.886	14815
847.022	14929
847.158	14830
847.294	15043
847.429	14921
847.565	14899
847.701	15093
847.837	14594
847.972	14606
848.108	14644
848.244	14689
848.379	14476
848.515	14461
848.65	14484
848.786	14469
848.921	14507
849.057	14518
849.192	14640
849.328	14530
849.463	14495
849.598	14362
849.734	14400
849.869	14324
850.004	14248
850.14	14347
850.275	14176
850.41	14180
850.545	14183
850.68	14218
850.815	14191
850.95	14119
851.085	14396
851.22	14339
851.355	14294
851.49	14259
851.625	14206
851.76	14168
851.895	14138
852.03	14077
852.165	14229
852.299	14286
852.434	14286
852.569	14301
852.703	14218
852.838	14294
852.973	14355
853.107	14385
853.242	14206
853.376	14187
853.511	14027
853.645	14126
853.78	14237
853.914	14081
854.048	14054
854.183	14062
854.317	14191
854.451	14259
854.585	14123
854.72	14039
854.854	14119
854.988	14065
855.122	14134
855.256	13963
855.39	14123
855.524	14229
855.658	14153
855.792	14111
855.926	14084
856.06	14202
856.194	14206
856.327	14077
856.461	13982
856.595	14062
856.729	14107
856.862	14202
856.996	14195
857.13	14134
857.263	14256
857.397	14157
857.53	14027
857.664	14191
857.797	14161
857.931	14229
858.064	14172
858.197	14256
858.331	14119
858.464	14111
858.597	14130
858.731	14123
858.864	14088
858.997	14062
859.13	14084
859.263	14119
859.396	14164
859.529	14008
859.662	14050
859.795	14081
859.928	14069
860.061	14366
860.194	14275
860.327	14153
860.46	14024
860.592	14183
860.725	14347
860.858	14317
860.99	14073
861.123	14107
861.256	13986
861.388	14119
861.521	14944
861.653	13921
861.786	13909
861.918	14050
862.05	14012
862.183	14058
862.315	14077
862.447	14123
862.58	14054
862.712	13890
862.844	13845
862.976	13963
863.108	13807
863.24	14202
863.372	13894
863.504	13864
863.636	13784
863.768	14005
863.9	13909
864.032	13849
864.164	13780
864.296	13928
864.428	14001
864.559	14027
864.691	13959
864.823	13932
864.954	13860
865.086	13928
865.217	13928
865.349	13803
865.48	13951
865.612	13974
865.743	14081
865.875	13906
866.006	13830
866.137	13852
866.269	13921
866.4	13826
866.531	13898
866.662	13765
866.793	13830
866.924	13830
867.055	13997
867.186	13928
867.317	13776
867.448	13776
867.579	13871
867.71	13887
867.841	13780
867.972	13845
868.103	14020
868.233	13833
868.364	13879
868.495	13959
868.625	14168
868.756	14187
868.886	14050
869.017	14103
869.147	14180
869.278	14263
869.408	14126
869.539	14157
869.669	14138
869.799	14183
869.929	14328
870.06	14119
870.19	14400
870.32	14427
870.45	14393
870.58	14606
870.71	14640
870.84	14625
870.97	14526
871.1	14587
871.23	14796
871.36	14667
871.489	14670
871.619	14686
871.749	14807
871.879	14819
872.008	14792
872.138	14765
872.267	14819
872.397	14594
872.526	14571
872.656	14640
872.785	14667
872.915	14792
873.044	14815
873.173	14853
873.303	14887
873.432	14792
873.561	14929
873.69	14762
873.819	14845
873.948	14815
874.077	14743
874.206	14792
874.335	14864
874.464	15024
874.593	15066
874.722	15146
874.851	15180
874.979	15192
875.108	15108
875.237	15077
875.365	15142
875.494	15127
875.623	15199
875.751	15093
875.88	15237
876.008	15283
876.136	15351
876.265	15534
876.393	15614
876.521	15507
876.65	15584
876.778	15458
876.906	15545
877.034	15488
877.162	15515
877.29	15389
877.418	15542
877.546	15481
877.674	15542
877.802	15519
877.93	15496
878.058	15473
878.185	15378
878.313	15450
878.441	15492
878.568	15325
878.696	15401
878.824	15584
878.951	15633
879.079	15656
879.206	15812
879.333	15698
879.461	15496
879.588	15641
879.715	15641
879.842	15732
879.97	15622
880.097	15351
880.224	15389
880.351	15458
880.478	15435
880.605	15389
880.732	15397
880.859	15667
880.986	15450
881.112	15378
881.239	15260
881.366	15169
881.493	15097
881.619	14967
881.746	15062
881.872	15074
881.999	14998
882.125	14986
882.252	15203
882.378	14944
882.505	15207
882.631	14963
882.757	14861
882.883	14990
883.01	14861
883.136	14830
883.262	14701
883.388	14705
883.514	14921
883.64	14918
883.766	14815
883.892	14655
884.018	14682
884.143	14883
884.269	14963
884.395	14610
884.52	14545
884.646	14545
884.772	14457
884.897	14530
885.023	14587
885.148	14678
885.274	14739
885.399	14606
885.524	14511
885.65	14625
885.775	14594
885.9	14454
886.025	14712
886.15	14716
886.275	14514
886.4	14442
886.525	14568
886.65	14480
886.775	14484
886.9	14632
887.025	14853
887.149	14537
887.274	14438
887.399	14358
887.523	14320
887.648	14328
887.773	14275
887.897	14480
888.021	14427
888.146	14351
888.27	14450
888.395	14473
888.519	14530
888.643	14476
888.767	14434
888.891	14355
889.015	14161
889.139	14309
889.263	14282
889.387	14286
889.511	14381
889.635	14412
889.759	14267
889.883	14343
890.006	14180
890.13	14339
890.254	14164
890.377	14229
890.501	14103
890.624	14043
890.748	14237
890.871	14077
890.995	13849
891.118	13936
891.241	14016
891.364	13955
891.488	14092
891.611	13951
891.734	13993
891.857	14001
891.98	13970
892.103	14103
892.226	13947
892.349	13944
892.471	13776
892.594	13860
892.717	13986
892.839	13932
892.962	13963
893.085	14005
893.207	14058
893.33	13875
893.452	13849
893.575	14126
893.697	13913
893.819	14077
893.941	14176
894.064	14081
894.186	13921
894.308	13917
894.43	14115
894.552	14176
894.674	14096
894.796	13947
894.918	13989
895.04	13963
895.161	14069
895.283	14058
895.405	14092
895.526	14062
895.648	14107
895.769	14062
895.891	14088
896.012	14183
896.134	14275
896.255	14088
896.376	14191
896.498	14138
896.619	14172
896.74	14123
896.861	14153
896.982	14408
897.103	14602
897.224	14370
897.345	14396
897.466	14313
897.587	14366
897.708	14583
897.828	14336
897.949	14355
898.07	14252
898.19	14419
898.311	14537
898.431	14400
898.552	14530
898.672	14556
898.792	14693
898.913	14457
899.033	14389
899.153	14328
899.273	14309
899.393	14305
899.513	14290
899.633	14336
899.753	14396
899.873	14248
899.993	14362
900.113	14206
900.232	14377
900.352	14381
900.472	14229
900.591	14210
900.711	14263
900.83	14115
900.95	14275
901.069	14347
901.189	14149
901.308	14001
901.427	13826
901.546	13906
901.665	13849
901.784	13909
901.904	13700
902.023	13647
902.141	13529
902.26	13495
902.379	13594
902.498	13441
902.617	13445
902.735	13525
902.854	13415
902.973	13396
903.091	13221
903.21	13202
903.328	13168
903.446	13110
903.565	12981
903.683	13107
903.801	12871
903.919	12996
904.038	13008
904.156	12848
904.274	12916
904.392	12833
904.51	12825
904.627	12856
904.745	12848
904.863	12890
904.981	12654
905.098	12559
905.216	12601
905.334	12521
905.451	12494
905.569	12547
905.686	12563
905.803	12601
905.921	12357
906.038	12399
906.155	12456
906.272	12235
906.389	12266
906.506	12140
906.623	12171
906.74	12178
906.857	11980
906.974	12064
907.091	12213
907.208	12220
907.324	12167
907.441	12026
907.557	11866
907.674	11882
907.79	11802
907.907	11863
908.023	11847
908.139	11885
908.256	11874
908.372	11863
908.488	11821
908.604	11672
908.72	11619
908.836	11653
908.952	11615
909.068	11581
909.184	11726
909.3	11646
909.415	11748
909.531	11646
909.647	11455
909.762	11376
909.878	11383
909.993	11425
910.108	11315
910.224	11391
910.339	11406
910.454	11341
910.57	11315
910.685	11204
910.8	11474
910.915	11440
911.03	11250
911.145	11178
911.259	11124
911.374	11128
911.489	11086
911.604	11010
911.718	10866
911.833	10949
911.947	10820
912.062	10725
912.176	10862
912.291	10953
912.405	10892
912.519	11052
912.633	11102
912.748	10999
912.862	10885
912.976	10786
913.09	10577
913.204	10733
913.318	10656
913.431	10843
913.545	10858
913.659	10824
913.772	10786
913.886	10691
914	10679
914.113	10752
914.226	10767
914.34	10683
914.453	10519
914.566	10759
914.68	10573
914.793	10577
914.906	10402
915.019	10379
915.132	10261
915.245	10386
915.358	10432
915.47	10398
915.583	10394
915.696	10462
915.809	10523
915.921	10565
916.034	10394
916.146	10348
916.259	10329
916.371	10489
916.483	10424
916.595	10272
916.708	10352
916.82	10284
916.932	10341
917.044	10284
917.156	10246
917.268	10204
917.38	10207
917.491	10192
917.603	10261
917.715	10257
917.826	10322
917.938	10204
918.049	10139
918.161	10257
918.272	10227
918.384	10409
918.495	10257
918.606	10124
918.717	10078
918.828	10112
918.939	10143
919.05	10025
919.161	10074
919.272	9888
919.383	9922
919.494	10181
919.604	10371
919.715	10101
919.826	10059
919.936	10017
920.047	10169
920.157	10162
920.267	10337
920.378	10131
920.488	10109
920.598	10325
920.708	10405
920.818	10257
920.928	10291
921.038	10489
921.148	10462
921.258	10147
921.368	10048
921.477	9941
921.587	9949
921.697	9823
921.806	9998
921.916	9888
922.025	9713
922.134	9694
922.244	9629
922.353	9743
922.462	9576
922.571	9511
922.68	9393
922.789	9340
922.898	9401
923.007	9336
923.116	9389
923.224	9439
923.333	9344
923.442	9355
923.55	9214
923.659	9283
923.767	9306
923.876	9188
923.984	9351
924.092	9180
924.201	9245
924.309	9279
924.417	9245
924.525	9199
924.633	9176
924.741	9964
924.849	9043
924.956	9142
925.064	9043
925.172	8895
925.279	8933
925.387	9051
925.494	9058
925.602	9226
925.709	9135
925.816	9009
925.924	9009
926.031	9131
926.138	9104
926.245	9097
926.352	8998
926.459	9146
926.566	9146
926.673	8967
926.779	8971
926.886	8944
926.993	8792
927.099	8754
927.206	8758
927.312	8701
927.419	8811
927.525	8792
927.631	8773
927.737	8667
927.843	8598
927.95	8499
928.056	8651
928.162	8682
928.267	8621
928.373	9313
928.479	8731
928.585	8526
928.69	8655
928.796	8644
928.901	8594
929.007	8442
929.112	8590
929.218	8571
929.323	8499
929.428	8480
929.533	8537
929.638	8408
929.743	8465
929.848	8480
929.953	8476
930.058	8434
930.163	8256
930.267	8259
930.372	8408
930.477	8225
930.581	8438
930.685	8309
930.79	8180
930.894	8218
930.998	8157
931.103	8279
931.207	7959
931.311	7940
931.415	7906
931.519	7674
931.623	7674
