Data from test_V78500241_3517.txt Node
Date: Fri Mar 25 14:58:12 CST 2022
User: usil
Spectrometer: V785-0024
Trigger mode: 0
Integration Time (sec): 4.000000E-1
Scans to average: 1
Nonlinearity correction enabled: false
Boxcar width: 0
Storing dark spectrum: false
XAxis mode: Wavelengths
Number of Pixels in Spectrum: 1024
>>>>>Begin Spectral Data<<<<<
801.071	21888
801.214	21922
801.356	21599
801.499	21363
801.641	21298
801.783	21283
801.926	21306
802.068	21294
802.211	21089
802.353	21028
802.496	20921
802.638	20880
802.78	20785
802.923	20568
803.065	20686
803.208	20522
803.35	20674
803.492	20735
803.635	20686
803.777	20537
803.919	20712
804.061	21005
804.204	20598
804.346	20651
804.488	20568
804.63	20541
804.773	20579
804.915	20476
805.057	20583
805.199	20480
805.341	20469
805.483	20621
805.626	20492
805.768	20336
805.91	20492
806.052	20651
806.194	20465
806.336	20659
806.478	20381
806.62	20415
806.762	20549
806.904	20777
807.046	20880
807.188	20773
807.33	20845
807.472	20868
807.614	20750
807.756	20781
807.898	20735
808.04	20621
808.182	20541
808.324	20632
808.465	20522
808.607	20769
808.749	20944
808.891	21013
809.033	21017
809.174	20906
809.316	20872
809.458	20765
809.6	20834
809.741	20914
809.883	20925
810.025	21077
810.166	21051
810.308	20998
810.45	20887
810.591	20876
810.733	20807
810.875	20724
811.016	20587
811.158	20522
811.299	20651
811.441	20804
811.582	20781
811.724	20621
811.865	20667
812.007	20678
812.148	20689
812.29	20632
812.431	20743
812.573	20838
812.714	20990
812.855	21047
812.997	21241
813.138	21367
813.279	21272
813.421	21165
813.562	20990
813.703	20960
813.845	20705
813.986	20594
814.127	20355
814.268	20199
814.41	20309
814.551	20172
814.692	20153
814.833	20081
814.974	20180
815.115	20149
815.256	19944
815.397	19967
815.539	20012
815.68	19940
815.821	19963
815.962	19887
816.103	19772
816.244	19704
816.385	19590
816.526	19704
816.666	19502
816.807	19297
816.948	19396
817.089	19373
817.23	19331
817.371	19251
817.512	19247
817.653	19324
817.793	19263
817.934	19293
818.075	19304
818.216	19278
818.356	19339
818.497	19129
818.638	19015
818.778	18962
818.919	19031
819.06	19088
819.2	19072
819.341	19156
819.481	19069
819.622	19377
819.762	19502
819.903	19381
820.043	19365
820.184	19308
820.324	19240
820.465	19308
820.605	19365
820.746	19221
820.886	19072
821.026	19171
821.167	19381
821.307	19324
821.447	19160
821.588	19148
821.728	18924
821.868	18856
822.008	18700
822.149	18757
822.289	18589
822.429	18467
822.569	18369
822.709	18289
822.849	18178
822.99	18174
823.13	18205
823.27	18167
823.41	18102
823.55	17916
823.69	18003
823.83	18076
823.97	17901
824.11	17661
824.25	17863
824.389	17828
824.529	17828
824.669	17668
824.809	17878
824.949	17737
825.089	17775
825.228	17840
825.368	17710
825.508	17581
825.648	17577
825.787	17657
825.927	17630
826.067	17524
826.206	17497
826.346	17589
826.485	17611
826.625	17516
826.765	17722
826.904	17596
827.044	17334
827.183	17387
827.323	17261
827.462	17440
827.601	17273
827.741	17292
827.88	17273
828.02	17056
828.159	17261
828.298	17402
828.437	17345
828.577	17147
828.716	17433
828.855	17239
828.994	17155
829.134	16999
829.273	17083
829.412	16972
829.551	16976
829.69	16934
829.829	17041
829.968	17045
830.107	17045
830.246	17117
830.385	17025
830.524	17037
830.663	16896
830.802	16733
830.941	16675
831.08	16645
831.219	16729
831.357	16717
831.496	16839
831.635	16664
831.774	16626
831.913	16580
832.051	16447
832.19	16558
832.329	16535
832.467	16280
832.606	16348
832.744	16303
832.883	16306
833.022	16310
833.16	16314
833.299	16371
833.437	16337
833.576	16538
833.714	16382
833.852	16485
833.991	16443
834.129	16489
834.267	16508
834.406	16371
834.544	16462
834.682	16455
834.821	16402
834.959	16615
835.097	16432
835.235	16424
835.373	16440
835.511	16402
835.65	16356
835.788	16204
835.926	16188
836.064	16112
836.202	16204
836.34	16314
836.478	16443
836.615	16280
836.753	16306
836.891	16432
837.029	16318
837.167	16337
837.305	16268
837.443	16185
837.58	16120
837.718	16329
837.856	16246
837.993	16154
838.131	16230
838.269	16173
838.406	16173
838.544	16078
838.681	15888
838.819	15934
838.956	15800
839.094	15800
839.231	15861
839.369	15949
839.506	16139
839.643	16048
839.781	15823
839.918	15637
840.055	15781
840.193	15774
840.33	15762
840.467	15709
840.604	15751
840.742	16002
840.879	15618
841.016	15701
841.153	15595
841.29	15774
841.427	15774
841.564	15759
841.701	15728
841.838	15698
841.975	15576
842.112	15637
842.249	15591
842.385	15458
842.522	15755
842.659	15561
842.796	15557
842.933	15492
843.069	15386
843.206	15538
843.343	15663
843.479	15530
843.616	15564
843.752	15329
843.889	15275
844.025	15507
844.162	15294
844.298	15466
844.435	15393
844.571	15321
844.708	15401
844.844	15454
844.98	15450
845.117	15435
845.253	15245
845.389	15291
845.525	15348
845.661	15184
845.798	15173
845.934	15188
846.07	15161
846.206	15142
846.342	15264
846.478	15093
846.614	14925
846.75	14918
846.886	14895
847.022	15005
847.158	14937
847.294	14880
847.429	14906
847.565	14967
847.701	15184
847.837	14731
847.972	14590
848.108	14746
848.244	14651
848.379	14590
848.515	14473
848.65	14549
848.786	14549
848.921	14587
849.057	14617
849.192	14636
849.328	14526
849.463	14434
849.598	14492
849.734	14343
849.869	14434
850.004	14286
850.14	14294
850.275	14294
850.41	14187
850.545	14164
850.68	14161
850.815	14313
850.95	14275
851.085	14465
851.22	14374
851.355	14309
851.49	14286
851.625	14286
851.76	14138
851.895	14153
852.03	14168
852.165	14271
852.299	14317
852.434	14362
852.569	14248
852.703	14313
852.838	14347
852.973	14454
853.107	14351
853.242	14267
853.376	14164
853.511	14092
853.645	14161
853.78	14077
853.914	14229
854.048	14210
854.183	14168
854.317	14202
854.451	14332
854.585	14191
854.72	14092
854.854	14275
854.988	14039
855.122	14130
855.256	13989
855.39	14191
855.524	14233
855.658	14237
855.792	14065
855.926	14161
856.06	14229
856.194	14218
856.327	14126
856.461	14050
856.595	14062
856.729	14172
856.862	14229
856.996	14164
857.13	14233
857.263	14275
857.397	14267
857.53	14142
857.664	14157
857.797	14259
857.931	14240
858.064	14180
858.197	14229
858.331	14142
858.464	14077
858.597	14024
858.731	14199
858.864	14149
858.997	14161
859.13	14221
859.263	14195
859.396	14176
859.529	14111
859.662	14058
859.795	14103
859.928	14161
860.061	14317
860.194	14355
860.327	14180
860.46	14134
860.592	14286
860.725	14199
860.858	14263
860.99	14100
861.123	13997
861.256	14046
861.388	14134
861.521	15058
861.653	14012
861.786	13978
861.918	13974
862.05	14084
862.183	14115
862.315	14073
862.447	14157
862.58	14130
862.712	13925
862.844	13818
862.976	14008
863.108	13928
863.24	14290
863.372	13928
863.504	13894
863.636	13902
863.768	13925
863.9	13993
864.032	13822
864.164	13811
864.296	14039
864.428	14054
864.559	13883
864.691	13936
864.823	13925
864.954	13967
865.086	13898
865.217	13913
865.349	13837
865.48	13879
865.612	13963
865.743	14043
865.875	13978
866.006	13921
866.137	13909
866.269	13932
866.4	13788
866.531	13845
866.662	13890
866.793	13868
866.924	13871
867.055	13887
867.186	13902
867.317	13883
867.448	13822
867.579	13818
867.71	13791
867.841	13807
867.972	13974
868.103	13875
868.233	13925
868.364	13879
868.495	13982
868.625	14092
868.756	14252
868.886	14111
869.017	14126
869.147	14183
869.278	14210
869.408	14164
869.539	14180
869.669	14199
869.799	14210
869.929	14244
870.06	14256
870.19	14518
870.32	14454
870.45	14556
870.58	14549
870.71	14670
870.84	14678
870.97	14541
871.1	14522
871.23	14716
871.36	14769
871.489	14731
871.619	14659
871.749	14724
871.879	14800
872.008	14880
872.138	14845
872.267	14769
872.397	14617
872.526	14522
872.656	14552
872.785	14594
872.915	14773
873.044	14788
873.173	14701
873.303	14815
873.432	14864
873.561	14880
873.69	14876
873.819	14765
873.948	14830
874.077	14807
874.206	14826
874.335	14811
874.464	14861
874.593	15081
874.722	14975
874.851	15150
874.979	15081
875.108	15214
875.237	15112
875.365	15173
875.494	15085
875.623	15207
875.751	15074
875.88	15214
876.008	15195
876.136	15287
876.265	15526
876.393	15633
876.521	15644
876.65	15625
876.778	15660
876.906	15504
877.034	15321
877.162	15523
877.29	15481
877.418	15538
877.546	15530
877.674	15622
877.802	15614
877.93	15542
878.058	15466
878.185	15450
878.313	15553
878.441	15591
878.568	15389
878.696	15515
878.824	15587
878.951	15553
879.079	15679
879.206	15907
879.333	15705
879.461	15587
879.588	15701
879.715	15797
879.842	15797
879.97	15591
880.097	15298
880.224	15431
880.351	15408
880.478	15435
880.605	15401
880.732	15355
880.859	15679
880.986	15412
881.112	15401
881.239	15321
881.366	15218
881.493	15097
881.619	15081
881.746	15066
881.872	15089
881.999	15036
882.125	14960
882.252	15062
882.378	15176
882.505	15260
882.631	14994
882.757	14857
882.883	14880
883.01	14857
883.136	14811
883.262	14758
883.388	14689
883.514	14887
883.64	14937
883.766	14880
883.892	14739
884.018	14720
884.143	14891
884.269	14921
884.395	14640
884.52	14495
884.646	14598
884.772	14503
884.897	14511
885.023	14571
885.148	14640
885.274	14754
885.399	14815
885.524	14514
885.65	14682
885.775	14625
885.9	14564
886.025	14765
886.15	14648
886.275	14495
886.4	14473
886.525	14556
886.65	14503
886.775	14552
886.9	14575
887.025	14769
887.149	14571
887.274	14457
887.399	14404
887.523	14358
887.648	14305
887.773	14290
887.897	14469
888.021	14389
888.146	14381
888.27	14427
888.395	14503
888.519	14587
888.643	14400
888.767	14389
888.891	14404
889.015	14355
889.139	14252
889.263	14248
889.387	14396
889.511	14431
889.635	14377
889.759	14092
889.883	14244
890.006	14389
890.13	14271
890.254	14191
890.377	14256
890.501	14191
890.624	13997
890.748	14123
890.871	14115
890.995	13909
891.118	13925
891.241	14008
891.364	14001
891.488	14157
891.611	14081
891.734	14077
891.857	14054
891.98	14008
892.103	14031
892.226	14020
892.349	13982
892.471	13784
892.594	13940
892.717	14058
892.839	14008
892.962	13951
893.085	14092
893.207	14016
893.33	13913
893.452	13830
893.575	13967
893.697	13970
893.819	14138
893.941	14183
894.064	14088
894.186	13989
894.308	13959
894.43	14096
894.552	14168
894.674	14119
894.796	13936
894.918	14043
895.04	13963
895.161	14149
895.283	14027
895.405	13982
895.526	14035
895.648	14126
895.769	14119
895.891	14084
896.012	14157
896.134	14214
896.255	14214
896.376	14115
896.498	14126
896.619	14096
896.74	14081
896.861	14237
896.982	14499
897.103	14594
897.224	14415
897.345	14526
897.466	14404
897.587	14427
897.708	14606
897.828	14473
897.949	14469
898.07	14374
898.19	14351
898.311	14511
898.431	14469
898.552	14469
898.672	14514
898.792	14533
898.913	14667
899.033	14450
899.153	14370
899.273	14210
899.393	14282
899.513	14347
899.633	14336
899.753	14396
899.873	14396
899.993	14355
900.113	14324
900.232	14393
900.352	14317
900.472	14252
900.591	14282
900.711	14248
900.83	14237
900.95	14324
901.069	14362
901.189	14126
901.308	13921
901.427	13879
901.546	13963
901.665	13928
901.784	13947
901.904	13841
902.023	13700
902.141	13529
902.26	13483
902.379	13506
902.498	13426
902.617	13426
902.735	13559
902.854	13407
902.973	13388
903.091	13251
903.21	13228
903.328	13152
903.446	13129
903.565	13057
903.683	13042
903.801	12935
903.919	13099
904.038	13027
904.156	12844
904.274	12920
904.392	12886
904.51	12916
904.627	12703
904.745	12890
904.863	12935
904.981	12684
905.098	12555
905.216	12513
905.334	12642
905.451	12570
905.569	12498
905.686	12631
905.803	12593
905.921	12292
906.038	12452
906.155	12456
906.272	12266
906.389	12300
906.506	12087
906.623	12194
906.74	12159
906.857	12079
906.974	12053
907.091	12292
907.208	12247
907.324	12178
907.441	12068
907.557	11901
907.674	11912
907.79	11832
907.907	11908
908.023	11897
908.139	11942
908.256	11771
908.372	11809
908.488	11821
908.604	11714
908.72	11566
908.836	11714
908.952	11627
909.068	11691
909.184	11783
909.3	11611
909.415	11611
909.531	11657
909.647	11436
909.762	11425
909.878	11356
909.993	11478
910.108	11429
910.224	11421
910.339	11398
910.454	11356
910.57	11277
910.685	11208
910.8	11524
910.915	11497
911.03	11345
911.145	11136
911.259	11098
911.374	11136
911.489	11113
911.604	11029
911.718	10889
911.833	10881
911.947	10748
912.062	10729
912.176	10843
912.291	10873
912.405	10896
912.519	11090
912.633	11105
912.748	11014
912.862	10949
912.976	10816
913.09	10656
913.204	10721
913.318	10710
913.431	10771
913.545	10896
913.659	10866
913.772	10847
913.886	10698
914	10626
914.113	10786
914.226	10850
914.34	10752
914.453	10630
914.566	10725
914.68	10508
914.793	10508
914.906	10322
915.019	10405
915.132	10333
915.245	10451
915.358	10367
915.47	10462
915.583	10466
915.696	10478
915.809	10538
915.921	10645
916.034	10325
916.146	10280
916.259	10299
916.371	10314
916.483	10421
916.595	10238
916.708	10363
916.82	10322
916.932	10238
917.044	10344
917.156	10257
917.268	10196
917.38	10230
917.491	10154
917.603	10272
917.715	10310
917.826	10367
917.938	10253
918.049	10116
918.161	10207
918.272	10375
918.384	10390
918.495	10299
918.606	10120
918.717	10150
918.828	10185
918.939	10154
919.05	10036
919.161	10093
919.272	9892
919.383	9945
919.494	10200
919.604	10367
919.715	10093
919.826	10051
919.936	10078
920.047	10166
920.157	10059
920.267	10348
920.378	10150
920.488	10166
920.598	10249
920.708	10447
920.818	10265
920.928	10352
921.038	10500
921.148	10523
921.258	10169
921.368	10173
921.477	9998
921.587	9956
921.697	9892
921.806	9964
921.916	9880
922.025	9698
922.134	9675
922.244	9606
922.353	9694
922.462	9637
922.571	9469
922.68	9359
922.789	9389
922.898	9340
923.007	9412
923.116	9500
923.224	9435
923.333	9389
923.442	9275
923.55	9272
923.659	9283
923.767	9416
923.876	9241
923.984	9344
924.092	9203
924.201	9199
924.309	9264
924.417	9260
924.525	9112
924.633	9211
924.741	10055
924.849	9047
924.956	9226
925.064	9017
925.172	8902
925.279	8937
925.387	9116
925.494	8998
925.602	9184
925.709	9131
925.816	9001
925.924	9024
926.031	9104
926.138	8990
926.245	9058
926.352	8956
926.459	9036
926.566	9157
926.673	8990
926.779	8933
926.886	8998
926.993	8758
927.099	8693
927.206	8686
927.312	8739
927.419	8754
927.525	8792
927.631	8849
927.737	8678
927.843	8651
927.95	8545
928.056	8678
928.162	8659
928.267	8716
928.373	9336
928.479	8796
928.585	8476
928.69	8629
928.796	8705
928.901	8598
929.007	8427
929.112	8583
929.218	8568
929.323	8488
929.428	8457
929.533	8670
929.638	8431
929.743	8415
929.848	8461
929.953	8450
930.058	8423
930.163	8229
930.267	8229
930.372	8377
930.477	8202
930.581	8469
930.685	8336
930.79	8176
930.894	8275
930.998	8229
931.103	8313
931.207	7986
931.311	7883
931.415	7894
931.519	7632
931.623	7628
