Data from test_V78500241_3488.txt Node
Date: Fri Mar 25 14:58:00 CST 2022
User: usil
Spectrometer: V785-0024
Trigger mode: 0
Integration Time (sec): 4.000000E-1
Scans to average: 1
Nonlinearity correction enabled: false
Boxcar width: 0
Storing dark spectrum: false
XAxis mode: Wavelengths
Number of Pixels in Spectrum: 1024
>>>>>Begin Spectral Data<<<<<
801.071	21838
801.214	21751
801.356	21568
801.499	21405
801.641	21348
801.783	21462
801.926	21355
802.068	21230
802.211	21017
802.353	21157
802.496	20849
802.638	20853
802.78	20731
802.923	20724
803.065	20533
803.208	20526
803.35	20613
803.492	20800
803.635	20834
803.777	20579
803.919	20636
804.061	21013
804.204	20773
804.346	20613
804.488	20495
804.63	20575
804.773	20568
804.915	20503
805.057	20655
805.199	20503
805.341	20503
805.483	20594
805.626	20602
805.768	20587
805.91	20518
806.052	20488
806.194	20434
806.336	20663
806.478	20450
806.62	20461
806.762	20495
806.904	20845
807.046	20826
807.188	20785
807.33	20952
807.472	20876
807.614	20834
807.756	20720
807.898	20693
808.04	20530
808.182	20465
808.324	20579
808.465	20651
808.607	20861
808.749	20925
808.891	20937
809.033	21047
809.174	20956
809.316	20720
809.458	20842
809.6	20845
809.741	20921
809.883	20880
810.025	21051
810.166	20941
810.308	21173
810.45	21058
810.591	20830
810.733	20583
810.875	20678
811.016	20629
811.158	20545
811.299	20678
811.441	20746
811.582	20758
811.724	20568
811.865	20587
812.007	20625
812.148	20625
812.29	20587
812.431	20864
812.573	20937
812.714	21089
812.855	21112
812.997	21176
813.138	21405
813.279	21180
813.421	21066
813.562	21017
813.703	20921
813.845	20800
813.986	20522
814.127	20320
814.268	20290
814.41	20259
814.551	20164
814.692	20218
814.833	20096
814.974	20142
815.115	20202
815.256	19989
815.397	20088
815.539	20050
815.68	20065
815.821	19765
815.962	19845
816.103	19833
816.244	19674
816.385	19529
816.526	19518
816.666	19491
816.807	19297
816.948	19434
817.089	19472
817.23	19358
817.371	19232
817.512	19343
817.653	19183
817.793	19171
817.934	19175
818.075	19316
818.216	19327
818.356	19183
818.497	19057
818.638	19046
818.778	18981
818.919	19042
819.06	19019
819.2	19061
819.341	19251
819.481	19152
819.622	19403
819.762	19430
819.903	19445
820.043	19365
820.184	19232
820.324	19263
820.465	19339
820.605	19335
820.746	19377
820.886	19061
821.026	19327
821.167	19270
821.307	19187
821.447	19289
821.588	19152
821.728	19061
821.868	18772
822.008	18715
822.149	18707
822.289	18654
822.429	18395
822.569	18330
822.709	18486
822.849	18266
822.99	18083
823.13	18186
823.27	18186
823.41	17889
823.55	17939
823.69	17988
823.83	18030
823.97	17828
824.11	17882
824.25	17794
824.389	17764
824.529	17794
824.669	17748
824.809	17859
824.949	17821
825.089	17836
825.228	17786
825.368	17817
825.508	17547
825.648	17509
825.787	17535
825.927	17524
826.067	17482
826.206	17524
826.346	17535
826.485	17482
826.625	17581
826.765	17646
826.904	17585
827.044	17402
827.183	17227
827.323	17345
827.462	17322
827.601	17277
827.741	17223
827.88	17250
828.02	17212
828.159	17254
828.298	17288
828.437	17273
828.577	17105
828.716	17311
828.855	17280
828.994	17010
829.134	17022
829.273	17086
829.412	16999
829.551	16923
829.69	16949
829.829	17029
829.968	17239
830.107	17079
830.246	17083
830.385	16904
830.524	16881
830.663	16790
830.802	16778
830.941	16679
831.08	16691
831.219	16771
831.357	16649
831.496	16866
831.635	16607
831.774	16538
831.913	16436
832.051	16470
832.19	16371
832.329	16459
832.467	16390
832.606	16265
832.744	16272
832.883	16390
833.022	16306
833.16	16196
833.299	16485
833.437	16299
833.576	16440
833.714	16363
833.852	16421
833.991	16440
834.129	16363
834.267	16504
834.406	16356
834.544	16455
834.682	16405
834.821	16318
834.959	16584
835.097	16382
835.235	16356
835.373	16497
835.511	16386
835.65	16379
835.788	16295
835.926	16280
836.064	16097
836.202	16143
836.34	16257
836.478	16363
836.615	16257
836.753	16360
836.891	16432
837.029	16333
837.167	16265
837.305	16181
837.443	16162
837.58	16200
837.718	16150
837.856	16204
837.993	16185
838.131	16154
838.269	16040
838.406	16131
838.544	16181
838.681	15945
838.819	15907
838.956	15751
839.094	15778
839.231	15854
839.369	15956
839.506	16139
839.643	15975
839.781	15709
839.918	15682
840.055	15785
840.193	15766
840.33	15720
840.467	15690
840.604	15762
840.742	16002
840.879	15724
841.016	15660
841.153	15660
841.29	15884
841.427	15812
841.564	15724
841.701	15812
841.838	15766
841.975	15648
842.112	15679
842.249	15580
842.385	15504
842.522	15747
842.659	15561
842.796	15424
842.933	15526
843.069	15561
843.206	15504
843.343	15671
843.479	15469
843.616	15576
843.752	15332
843.889	15332
844.025	15526
844.162	15325
844.298	15405
844.435	15332
844.571	15351
844.708	15340
844.844	15450
844.98	15481
845.117	15405
845.253	15199
845.389	15207
845.525	15226
845.661	15131
845.798	15070
845.934	15112
846.07	15112
846.206	15169
846.342	15279
846.478	14998
846.614	14883
846.75	14800
846.886	14853
847.022	14887
847.158	14963
847.294	14815
847.429	14944
847.565	14864
847.701	15104
847.837	14720
847.972	14568
848.108	14689
848.244	14621
848.379	14492
848.515	14484
848.65	14602
848.786	14412
848.921	14598
849.057	14610
849.192	14625
849.328	14454
849.463	14499
849.598	14461
849.734	14309
849.869	14347
850.004	14240
850.14	14324
850.275	14183
850.41	14275
850.545	14229
850.68	14214
850.815	14263
850.95	14301
851.085	14400
851.22	14377
851.355	14271
851.49	14206
851.625	14286
851.76	14271
851.895	14164
852.03	14142
852.165	14377
852.299	14404
852.434	14271
852.569	14336
852.703	14183
852.838	14366
852.973	14423
853.107	14404
853.242	14210
853.376	14115
853.511	14069
853.645	14058
853.78	14233
853.914	14084
854.048	14157
854.183	14027
854.317	14134
854.451	14362
854.585	14130
854.72	14126
854.854	14115
854.988	13986
855.122	14054
855.256	14027
855.39	14134
855.524	14225
855.658	14107
855.792	14145
855.926	14092
856.06	14199
856.194	14263
856.327	14126
856.461	14065
856.595	14069
856.729	14054
856.862	14282
856.996	14233
857.13	14168
857.263	14199
857.397	14275
857.53	14168
857.664	14309
857.797	14153
857.931	14271
858.064	14180
858.197	14191
858.331	14202
858.464	14145
858.597	14081
858.731	14123
858.864	14081
858.997	14084
859.13	14210
859.263	14176
859.396	14275
859.529	14199
859.662	14043
859.795	14046
859.928	14161
860.061	14187
860.194	14294
860.327	14191
860.46	14199
860.592	14259
860.725	14252
860.858	14176
860.99	14111
861.123	14107
861.256	14119
861.388	14096
861.521	14857
861.653	14035
861.786	13951
861.918	14020
862.05	14107
862.183	14142
862.315	14157
862.447	14161
862.58	14039
862.712	13917
862.844	13913
862.976	13955
863.108	13940
863.24	14423
863.372	13894
863.504	13970
863.636	13932
863.768	14012
863.9	13894
864.032	13890
864.164	13845
864.296	13951
864.428	13963
864.559	14084
864.691	14001
864.823	13967
864.954	14046
865.086	13967
865.217	13959
865.349	13864
865.48	13928
865.612	13868
865.743	14043
865.875	13940
866.006	13871
866.137	13871
866.269	13856
866.4	13940
866.531	13902
866.662	13818
866.793	13814
866.924	13852
867.055	13837
867.186	13913
867.317	13909
867.448	13849
867.579	13818
867.71	13909
867.841	13753
867.972	13890
868.103	13883
868.233	13871
868.364	13860
868.495	13997
868.625	14225
868.756	14301
868.886	14046
869.017	14195
869.147	14183
869.278	14301
869.408	14244
869.539	14153
869.669	14278
869.799	14282
869.929	14176
870.06	14339
870.19	14412
870.32	14438
870.45	14499
870.58	14560
870.71	14689
870.84	14583
870.97	14613
871.1	14594
871.23	14731
871.36	14746
871.489	14686
871.619	14746
871.749	14754
871.879	14735
872.008	14849
872.138	14781
872.267	14762
872.397	14602
872.526	14552
872.656	14670
872.785	14610
872.915	14800
873.044	14941
873.173	14769
873.303	14788
873.432	14876
873.561	14838
873.69	14864
873.819	14807
873.948	14899
874.077	14887
874.206	14708
874.335	14849
874.464	15001
874.593	15093
874.722	14986
874.851	15184
874.979	15074
875.108	15135
875.237	15138
875.365	15074
875.494	15085
875.623	15211
875.751	15074
875.88	15252
876.008	15268
876.136	15367
876.265	15462
876.393	15656
876.521	15698
876.65	15603
876.778	15747
876.906	15481
877.034	15458
877.162	15454
877.29	15420
877.418	15477
877.546	15561
877.674	15485
877.802	15523
877.93	15584
878.058	15572
878.185	15450
878.313	15545
878.441	15576
878.568	15355
878.696	15473
878.824	15469
878.951	15572
879.079	15705
879.206	15846
879.333	15720
879.461	15580
879.588	15675
879.715	15728
879.842	15892
879.97	15762
880.097	15420
880.224	15336
880.351	15462
880.478	15481
880.605	15405
880.732	15374
880.859	15610
880.986	15458
881.112	15542
881.239	15214
881.366	15081
881.493	15089
881.619	15043
881.746	15085
881.872	15116
881.999	14975
882.125	14914
882.252	15055
882.378	15093
882.505	15283
882.631	14979
882.757	14815
882.883	14986
883.01	14925
883.136	14834
883.262	14739
883.388	14708
883.514	14921
883.64	14880
883.766	14804
883.892	14667
884.018	14705
884.143	14887
884.269	14971
884.395	14811
884.52	14541
884.646	14541
884.772	14495
884.897	14499
885.023	14590
885.148	14716
885.274	14762
885.399	14636
885.524	14606
885.65	14549
885.775	14522
885.9	14564
886.025	14651
886.15	14575
886.275	14522
886.4	14488
886.525	14686
886.65	14400
886.775	14583
886.9	14674
887.025	14826
887.149	14537
887.274	14404
887.399	14370
887.523	14343
887.648	14332
887.773	14294
887.897	14549
888.021	14423
888.146	14347
888.27	14488
888.395	14575
888.519	14492
888.643	14457
888.767	14457
888.891	14377
889.015	14324
889.139	14225
889.263	14149
889.387	14374
889.511	14454
889.635	14332
889.759	14259
889.883	14290
890.006	14328
890.13	14271
890.254	14248
890.377	14225
890.501	14088
890.624	14123
890.748	14153
890.871	14035
890.995	13940
891.118	13833
891.241	14005
891.364	13951
891.488	14092
891.611	13925
891.734	14005
891.857	13970
891.98	13940
892.103	14035
892.226	14008
892.349	13963
892.471	13784
892.594	13849
892.717	13978
892.839	13894
892.962	13982
893.085	14046
893.207	13932
893.33	13875
893.452	14039
893.575	13986
893.697	13917
893.819	14111
893.941	14206
894.064	14161
894.186	13940
894.308	14001
894.43	14077
894.552	14267
894.674	14103
894.796	13925
894.918	14046
895.04	13967
895.161	14145
895.283	14107
895.405	13913
895.526	14100
895.648	14103
895.769	14126
895.891	14130
896.012	14161
896.134	14214
896.255	14180
896.376	14142
896.498	14202
896.619	14187
896.74	14100
896.861	14233
896.982	14480
897.103	14560
897.224	14415
897.345	14442
897.466	14431
897.587	14362
897.708	14484
897.828	14457
897.949	14396
898.07	14336
898.19	14393
898.311	14511
898.431	14450
898.552	14556
898.672	14598
898.792	14541
898.913	14560
899.033	14412
899.153	14309
899.273	14221
899.393	14305
899.513	14347
899.633	14339
899.753	14389
899.873	14301
899.993	14404
900.113	14355
900.232	14385
900.352	14305
900.472	14282
900.591	14233
900.711	14385
900.83	14149
900.95	14328
901.069	14328
901.189	14145
901.308	13925
901.427	13898
901.546	13902
901.665	13852
901.784	13986
901.904	13719
902.023	13689
902.141	13537
902.26	13422
902.379	13506
902.498	13476
902.617	13460
902.735	13575
902.854	13415
902.973	13392
903.091	13217
903.21	13187
903.328	13194
903.446	13183
903.565	13069
903.683	13076
903.801	12981
903.919	12996
904.038	13046
904.156	12924
904.274	12981
904.392	12878
904.51	12795
904.627	12795
904.745	12878
904.863	12890
904.981	12692
905.098	12532
905.216	12490
905.334	12509
905.451	12521
905.569	12486
905.686	12665
905.803	12639
905.921	12323
906.038	12513
906.155	12384
906.272	12216
906.389	12247
906.506	12175
906.623	12251
906.74	12095
906.857	12102
906.974	12110
907.091	12266
907.208	12194
907.324	12201
907.441	12041
907.557	11942
907.674	11870
907.79	11843
907.907	11904
908.023	11882
908.139	11794
908.256	11843
908.372	11764
908.488	11779
908.604	11680
908.72	11646
908.836	11589
908.952	11600
909.068	11638
909.184	11802
909.3	11638
909.415	11783
909.531	11608
909.647	11486
909.762	11459
909.878	11444
909.993	11497
910.108	11383
910.224	11444
910.339	11414
910.454	11318
910.57	11189
910.685	11242
910.8	11452
910.915	11459
911.03	11288
911.145	11113
911.259	11143
911.374	11113
911.489	11128
911.604	11060
911.718	10980
911.833	10873
911.947	10839
912.062	10816
912.176	10923
912.291	10889
912.405	10889
912.519	11018
912.633	11193
912.748	11102
912.862	10850
912.976	10767
913.09	10558
913.204	10694
913.318	10835
913.431	10771
913.545	10866
913.659	10881
913.772	10771
913.886	10710
914	10603
914.113	10725
914.226	10831
914.34	10733
914.453	10535
914.566	10771
914.68	10531
914.793	10512
914.906	10371
915.019	10436
915.132	10405
915.245	10402
915.358	10413
915.47	10379
915.583	10371
915.696	10432
915.809	10531
915.921	10580
916.034	10352
916.146	10291
916.259	10287
916.371	10485
916.483	10341
916.595	10306
916.708	10318
916.82	10325
916.932	10379
917.044	10280
917.156	10291
917.268	10230
917.38	10185
917.491	10227
917.603	10287
917.715	10299
917.826	10344
917.938	10196
918.049	10128
918.161	10268
918.272	10424
918.384	10363
918.495	10196
918.606	10055
918.717	10154
918.828	10139
918.939	10177
919.05	10025
919.161	10063
919.272	9835
919.383	9979
919.494	10181
919.604	10363
919.715	10147
919.826	10048
919.936	10048
920.047	10230
920.157	10246
920.267	10348
920.378	10192
920.488	10116
920.598	10299
920.708	10504
920.818	10333
920.928	10249
921.038	10493
921.148	10470
921.258	10162
921.368	10105
921.477	10017
921.587	10006
921.697	9869
921.806	10048
921.916	9869
922.025	9720
922.134	9717
922.244	9625
922.353	9732
922.462	9610
922.571	9504
922.68	9306
922.789	9332
922.898	9439
923.007	9218
923.116	9447
923.224	9401
923.333	9401
923.442	9287
923.55	9214
923.659	9298
923.767	9313
923.876	9256
923.984	9336
924.092	9203
924.201	9211
924.309	9211
924.417	9283
924.525	9154
924.633	9176
924.741	10059
924.849	9081
924.956	9192
925.064	9081
925.172	8975
925.279	8994
925.387	9051
925.494	9131
925.602	9211
925.709	9093
925.816	9009
925.924	9024
926.031	9093
926.138	9074
926.245	9066
926.352	8994
926.459	9081
926.566	9180
926.673	9009
926.779	8925
926.886	8895
926.993	8819
927.099	8735
927.206	8781
927.312	8644
927.419	8758
927.525	8735
927.631	8769
927.737	8663
927.843	8674
927.95	8518
928.056	8636
928.162	8693
928.267	8678
928.373	9332
928.479	8773
928.585	8507
928.69	8648
928.796	8708
928.901	8575
929.007	8503
929.112	8602
929.218	8522
929.323	8511
929.428	8492
929.533	8530
929.638	8389
929.743	8457
929.848	8549
929.953	8446
930.058	8469
930.163	8267
930.267	8244
930.372	8412
930.477	8229
930.581	8389
930.685	8305
930.79	8202
930.894	8252
930.998	8172
931.103	8358
931.207	7993
931.311	7883
931.415	7890
931.519	7696
931.623	7670
