Data from test_V78500241_878.txt Node
Date: Fri Mar 25 14:39:49 CST 2022
User: usil
Spectrometer: V785-0024
Trigger mode: 0
Integration Time (sec): 4.000000E-1
Scans to average: 1
Nonlinearity correction enabled: false
Boxcar width: 0
Storing dark spectrum: false
XAxis mode: Wavelengths
Number of Pixels in Spectrum: 1024
>>>>>Begin Spectral Data<<<<<
801.071	25613
801.214	25407
801.356	25225
801.499	25118
801.641	24897
801.783	24837
801.926	24909
802.068	24688
802.211	24639
802.353	24669
802.496	24555
802.638	24399
802.78	24384
802.923	24330
803.065	24171
803.208	24167
803.35	24388
803.492	24300
803.635	24555
803.777	24182
803.919	24315
804.061	24627
804.204	24357
804.346	24285
804.488	24338
804.63	24308
804.773	24228
804.915	24213
805.057	24445
805.199	24414
805.341	24308
805.483	24509
805.626	24479
805.768	24418
805.91	24479
806.052	24422
806.194	24509
806.336	24707
806.478	24677
806.62	24783
806.762	24985
806.904	25206
807.046	25400
807.188	25506
807.33	25696
807.472	25913
807.614	26043
807.756	26317
807.898	26811
808.04	27165
808.182	27766
808.324	28885
808.465	29733
808.607	30943
808.749	31890
808.891	32590
809.033	32689
809.174	31932
809.316	30856
809.458	29733
809.6	28592
809.741	27789
809.883	27096
810.025	26674
810.166	26393
810.308	26111
810.45	25822
810.591	25734
810.733	25476
810.875	25209
811.016	24989
811.158	24882
811.299	25008
811.441	25148
811.582	24943
811.724	24753
811.865	24772
812.007	24760
812.148	24722
812.29	24802
812.431	24886
812.573	25008
812.714	25076
812.855	25160
812.997	25107
813.138	25225
813.279	25183
813.421	25084
813.562	24981
813.703	24886
813.845	24726
813.986	24391
814.127	24190
814.268	24201
814.41	24102
814.551	24110
814.692	24110
814.833	23897
814.974	23973
815.115	24007
815.256	23878
815.397	23779
815.539	23851
815.68	23703
815.821	23627
815.962	23691
816.103	23684
816.244	23562
816.385	23341
816.526	23448
816.666	23258
816.807	23140
816.948	23193
817.089	23288
817.23	23181
817.371	23014
817.512	23014
817.653	22976
817.793	22980
817.934	23006
818.075	23033
818.216	23048
818.356	22843
818.497	22911
818.638	22687
818.778	22729
818.919	22664
819.06	22664
819.2	22759
819.341	22957
819.481	22797
819.622	23094
819.762	23197
819.903	23113
820.043	23060
820.184	23083
820.324	22881
820.465	23113
820.605	23022
820.746	22968
820.886	22767
821.026	22934
821.167	22778
821.307	22782
821.447	22835
821.588	22664
821.728	22607
821.868	22398
822.008	22215
822.149	22162
822.289	22348
822.429	22032
822.569	21930
822.709	21918
822.849	21778
822.99	21743
823.13	21656
823.27	21622
823.41	21523
823.55	21519
823.69	21534
823.83	21447
823.97	21488
824.11	21348
824.25	21252
824.389	21321
824.529	21359
824.669	21344
824.809	21401
824.949	21298
825.089	21351
825.228	21298
825.368	21131
825.508	21104
825.648	21127
825.787	21150
825.927	21154
826.067	21032
826.206	21119
826.346	21169
826.485	21180
826.625	20952
826.765	21230
826.904	21104
827.044	20880
827.183	20842
827.323	20640
827.462	20811
827.601	20594
827.741	20781
827.88	20720
828.02	20594
828.159	20609
828.298	20785
828.437	20899
828.577	20659
828.716	20682
828.855	20556
828.994	20408
829.134	20457
829.273	20480
829.412	20328
829.551	20336
829.69	20347
829.829	20404
829.968	20511
830.107	20507
830.246	20396
830.385	20336
830.524	20271
830.663	20161
830.802	20202
830.941	20012
831.08	19913
831.219	20153
831.357	20069
831.496	20202
831.635	19993
831.774	19986
831.913	19879
832.051	19788
832.19	19826
832.329	19890
832.467	19712
832.606	19643
832.744	19830
832.883	19731
833.022	19822
833.16	19890
833.299	19928
833.437	19940
833.576	19997
833.714	19959
833.852	20103
833.991	20054
834.129	20122
834.267	20039
834.406	20111
834.544	20145
834.682	20058
834.821	19970
834.959	19986
835.097	19723
835.235	19871
835.373	19811
835.511	19936
835.65	19616
835.788	19635
835.926	19533
836.064	19491
836.202	19392
836.34	19594
836.478	19605
836.615	19575
836.753	19537
836.891	19533
837.029	19586
837.167	19495
837.305	19331
837.443	19354
837.58	19362
837.718	19476
837.856	19430
837.993	19365
838.131	19327
838.269	19263
838.406	19346
838.544	19221
838.681	19031
838.819	18939
838.956	18806
839.094	18825
839.231	18840
839.369	18989
839.506	19251
839.643	19110
839.781	18802
839.918	18726
840.055	18745
840.193	18821
840.33	18810
840.467	18817
840.604	18798
840.742	19000
840.879	18631
841.016	18623
841.153	18677
841.29	18966
841.427	18882
841.564	18810
841.701	18779
841.838	18760
841.975	18688
842.112	18665
842.249	18589
842.385	18547
842.522	18616
842.659	18509
842.796	18509
842.933	18593
843.069	18502
843.206	18426
843.343	18601
843.479	18582
843.616	18681
843.752	18426
843.889	18346
844.025	18582
844.162	18559
844.298	18528
844.435	18521
844.571	18509
844.708	18669
844.844	18901
844.98	19046
845.117	19156
845.253	19457
845.389	19925
845.525	20887
845.661	22710
845.798	25034
845.934	26887
846.07	27553
846.206	27230
846.342	25890
846.478	23687
846.614	21603
846.75	20111
846.886	19331
847.022	18848
847.158	18551
847.294	18296
847.429	18152
847.565	18022
847.701	18247
847.837	17756
847.972	17710
848.108	17813
848.244	17710
848.379	17459
848.515	17463
848.65	17414
848.786	17532
848.921	17364
849.057	17554
849.192	17558
849.328	17490
849.463	17440
849.598	17436
849.734	17368
849.869	17280
850.004	17189
850.14	17189
850.275	17261
850.41	17094
850.545	17105
850.68	17155
850.815	17159
850.95	17094
851.085	17334
851.22	17299
851.355	17136
851.49	17060
851.625	17178
851.76	17124
851.895	17010
852.03	17064
852.165	17064
852.299	17151
852.434	17178
852.569	17159
852.703	17162
852.838	17227
852.973	17284
853.107	17273
853.242	17128
853.376	17147
853.511	16972
853.645	17105
853.78	17208
853.914	17200
854.048	17105
854.183	17109
854.317	17086
854.451	17216
854.585	17067
854.72	17056
854.854	17124
854.988	16991
855.122	17094
855.256	16972
855.39	16984
855.524	17204
855.658	16953
855.792	17010
855.926	17048
856.06	17105
856.194	17018
856.327	16999
856.461	16949
856.595	16839
856.729	16995
856.862	17102
856.996	17045
857.13	17064
857.263	17003
857.397	17067
857.53	17071
857.664	16991
857.797	17048
857.931	17109
858.064	17041
858.197	17113
858.331	16923
858.464	16858
858.597	16816
858.731	16816
858.864	16850
858.997	16828
859.13	17037
859.263	17022
859.396	17003
859.529	16877
859.662	16839
859.795	16786
859.928	16957
860.061	17048
860.194	17067
860.327	16877
860.46	16949
860.592	16968
860.725	17086
860.858	17094
860.99	16915
861.123	16793
861.256	16778
861.388	16972
861.521	17433
861.653	16782
861.786	16675
861.918	16824
862.05	16835
862.183	16831
862.315	16908
862.447	16892
862.58	16801
862.712	16672
862.844	16618
862.976	16740
863.108	16584
863.24	17113
863.372	16519
863.504	16618
863.636	16603
863.768	16744
863.9	16561
864.032	16713
864.164	16569
864.296	16637
864.428	16706
864.559	16679
864.691	16717
864.823	16649
864.954	16634
865.086	16592
865.217	16637
865.349	16493
865.48	16519
865.612	16580
865.743	16660
865.875	16535
866.006	16569
866.137	16615
866.269	16504
866.4	16554
866.531	16466
866.662	16462
866.793	16535
866.924	16519
867.055	16565
867.186	16542
867.317	16516
867.448	16504
867.579	16493
867.71	16314
867.841	16535
867.972	16630
868.103	16577
868.233	16599
868.364	16577
868.495	16592
868.625	16790
868.756	16809
868.886	16782
869.017	16763
869.147	16877
869.278	16938
869.408	16889
869.539	16824
869.669	16862
869.799	16790
869.929	16968
870.06	16976
870.19	17048
870.32	17109
870.45	17140
870.58	17212
870.71	17326
870.84	17341
870.97	17292
871.1	17208
871.23	17364
871.36	17379
871.489	17326
871.619	17349
871.749	17474
871.879	17547
872.008	17505
872.138	17402
872.267	17410
872.397	17395
872.526	17185
872.656	17303
872.785	17307
872.915	17471
873.044	17638
873.173	17509
873.303	17589
873.432	17452
873.561	17524
873.69	17627
873.819	17558
873.948	17703
874.077	17570
874.206	17562
874.335	17581
874.464	17741
874.593	17889
874.722	17843
874.851	17946
874.979	17870
875.108	17984
875.237	17942
875.365	17870
875.494	17764
875.623	17973
875.751	17889
875.88	18076
876.008	18136
876.136	18171
876.265	18369
876.393	18509
876.521	18525
876.65	18574
876.778	18525
876.906	18445
877.034	18311
877.162	18452
877.29	18589
877.418	18566
877.546	18677
877.674	18696
877.802	18757
877.93	18783
878.058	18760
878.185	18722
878.313	18977
878.441	19103
878.568	19053
878.696	19316
878.824	19655
878.951	19989
879.079	20727
879.206	21386
879.333	22036
879.461	22577
879.588	22965
879.715	22930
879.842	22862
879.97	22074
880.097	21180
880.224	20450
880.351	20138
880.478	19955
880.605	19689
880.732	19578
880.859	19620
880.986	19422
881.112	19339
881.239	19202
881.366	19099
881.493	19084
881.619	18981
881.746	18935
881.872	19008
881.999	19027
882.125	19031
882.252	19076
882.378	19137
882.505	19145
882.631	19065
882.757	18753
882.883	18947
883.01	18905
883.136	18875
883.262	18700
883.388	18597
883.514	18890
883.64	18890
883.766	18844
883.892	18612
884.018	18658
884.143	18798
884.269	18871
884.395	18620
884.52	18521
884.646	18513
884.772	18464
884.897	18467
885.023	18566
885.148	18700
885.274	18563
885.399	18490
885.524	18418
885.65	18414
885.775	18330
885.9	18270
886.025	18365
886.15	18224
886.275	18155
886.4	18045
886.525	18091
886.65	17996
886.775	17954
886.9	18060
887.025	18205
887.149	17999
887.274	17676
887.399	17634
887.523	17539
887.648	17657
887.773	17463
887.897	17703
888.021	17657
888.146	17573
888.27	17653
888.395	17509
888.519	17554
888.643	17509
888.767	17615
888.891	17383
889.015	17216
889.139	17322
889.263	17311
889.387	17337
889.511	17467
889.635	17383
889.759	17128
889.883	17223
890.006	17193
890.13	17254
890.254	17181
890.377	17064
890.501	16987
890.624	17037
890.748	17006
890.871	16911
890.995	16763
891.118	16687
891.241	16744
891.364	16824
891.488	16801
891.611	16736
891.734	16801
891.857	16839
891.98	16733
892.103	16869
892.226	16698
892.349	16641
892.471	16542
892.594	16584
892.717	16611
892.839	16561
892.962	16687
893.085	16729
893.207	16660
893.33	16523
893.452	16527
893.575	16687
893.697	16569
893.819	16687
893.941	16809
894.064	16763
894.186	16550
894.308	16440
894.43	16607
894.552	16736
894.674	16691
894.796	16348
894.918	16622
895.04	16523
895.161	16615
895.283	16565
895.405	16390
895.526	16546
895.648	16542
895.769	16577
895.891	16596
896.012	16713
896.134	16656
896.255	16694
896.376	16577
896.498	16603
896.619	16675
896.74	16584
896.861	16630
896.982	16843
897.103	17170
897.224	16889
897.345	16862
897.466	16828
897.587	16862
897.708	16984
897.828	16900
897.949	16744
898.07	16710
898.19	16744
898.311	16957
898.431	16919
898.552	16835
898.672	16957
898.792	16919
898.913	16984
899.033	16774
899.153	16793
899.273	16668
899.393	16763
899.513	16790
899.633	16729
899.753	16824
899.873	16729
899.993	16713
900.113	16691
900.232	16736
900.352	16622
900.472	16596
900.591	16656
900.711	16542
900.83	16462
900.95	16687
901.069	16698
901.189	16565
901.308	16215
901.427	16204
901.546	16162
901.665	16234
901.784	16211
901.904	16040
902.023	15968
902.141	15720
902.26	15762
902.379	15747
902.498	15584
902.617	15622
902.735	15751
902.854	15629
902.973	15675
903.091	15447
903.21	15298
903.328	15317
903.446	15279
903.565	15188
903.683	15256
903.801	15028
903.919	15188
904.038	15142
904.156	14918
904.274	15017
904.392	14944
904.51	14944
904.627	14960
904.745	14975
904.863	14937
904.981	14712
905.098	14602
905.216	14549
905.334	14579
905.451	14617
905.569	14552
905.686	14708
905.803	14560
905.921	14396
906.038	14423
906.155	14465
906.272	14286
906.389	14317
906.506	14202
906.623	14115
906.74	14001
906.857	14027
906.974	14126
907.091	14130
907.208	14225
907.324	14103
907.441	14001
907.557	13887
907.674	13860
907.79	13742
907.907	13811
908.023	13833
908.139	13753
908.256	13791
908.372	13681
908.488	13712
908.604	13525
908.72	13556
908.836	13613
908.952	13594
909.068	13586
909.184	13636
909.3	13605
909.415	13620
909.531	13548
909.647	13388
909.762	13312
909.878	13221
909.993	13304
910.108	13324
910.224	13251
910.339	13251
910.454	13236
910.57	13103
910.685	13091
910.8	13251
910.915	13346
911.03	13095
911.145	13038
911.259	13012
911.374	12951
911.489	12951
911.604	12787
911.718	12745
911.833	12722
911.947	12547
912.062	12566
912.176	12654
912.291	12669
912.405	12604
912.519	12837
912.633	12825
912.748	12760
912.862	12688
912.976	12490
913.09	12399
913.204	12506
913.318	12506
913.431	12639
913.545	12703
913.659	12665
913.772	12597
913.886	12399
914	12357
914.113	12479
914.226	12517
914.34	12494
914.453	12285
914.566	12506
914.68	12422
914.793	12270
914.906	12140
915.019	12076
915.132	12034
915.245	12007
915.358	12163
915.47	12060
915.583	12197
915.696	12148
915.809	12308
915.921	12243
916.034	12072
916.146	12064
916.259	12041
916.371	12102
916.483	12163
916.595	11973
916.708	12060
916.82	12064
916.932	12003
917.044	11946
917.156	12068
917.268	11851
917.38	11939
917.491	11870
917.603	11874
917.715	11954
917.826	11996
917.938	11882
918.049	11783
918.161	11794
918.272	11992
918.384	11965
918.495	11908
918.606	11653
918.717	11634
918.828	11688
918.939	11794
919.05	11604
919.161	11630
919.272	11486
919.383	11501
919.494	11783
919.604	11988
919.715	11832
919.826	11558
919.936	11672
920.047	11783
920.157	11604
920.267	11912
920.378	11699
920.488	11775
920.598	11828
920.708	11958
920.818	11843
920.928	11851
921.038	12045
921.148	11931
921.258	11707
921.368	11573
921.477	11562
921.587	11429
921.697	11391
921.806	11429
921.916	11376
922.025	11261
922.134	11212
922.244	11105
922.353	11181
922.462	11018
922.571	11006
922.68	10858
922.789	10805
922.898	10957
923.007	10793
923.116	10881
923.224	10793
923.333	10847
923.442	10679
923.55	10710
923.659	10717
923.767	10763
923.876	10672
923.984	10710
924.092	10668
924.201	10767
924.309	10778
924.417	10729
924.525	10535
924.633	10596
924.741	11486
924.849	10428
924.956	10588
925.064	10402
925.172	10341
925.279	10394
925.387	10436
925.494	10485
925.602	10569
925.709	10485
925.816	10337
925.924	10352
926.031	10417
926.138	10352
926.245	10421
926.352	10352
926.459	10489
926.566	10470
926.673	10386
926.779	10227
926.886	10223
926.993	10059
927.099	10086
927.206	10044
927.312	10013
927.419	10074
927.525	10044
927.631	10093
927.737	9972
927.843	9983
927.95	9892
928.056	9922
928.162	9968
928.267	9975
928.373	10580
928.479	10071
928.585	9850
928.69	9888
928.796	9983
928.901	9934
929.007	9682
929.112	9861
929.218	9797
929.323	9755
929.428	9762
929.533	9903
929.638	9686
929.743	9747
929.848	9728
929.953	9709
930.058	9603
930.163	9519
930.267	9545
930.372	9599
930.477	9477
930.581	9686
930.685	9504
930.79	9389
930.894	9420
930.998	9382
931.103	9530
931.207	9230
931.311	9184
931.415	9001
931.519	8868
931.623	8826
