Data from test_V78500241_3191.txt Node
Date: Fri Mar 25 14:55:56 CST 2022
User: usil
Spectrometer: V785-0024
Trigger mode: 0
Integration Time (sec): 4.000000E-1
Scans to average: 1
Nonlinearity correction enabled: false
Boxcar width: 0
Storing dark spectrum: false
XAxis mode: Wavelengths
Number of Pixels in Spectrum: 1024
>>>>>Begin Spectral Data<<<<<
801.071	22025
801.214	22006
801.356	21622
801.499	21671
801.641	21412
801.783	21378
801.926	21313
802.068	21401
802.211	21302
802.353	21188
802.496	20944
802.638	20887
802.78	20769
802.923	20739
803.065	20594
803.208	20636
803.35	20807
803.492	20750
803.635	20849
803.777	20712
803.919	20861
804.061	21184
804.204	20883
804.346	20697
804.488	20530
804.63	20762
804.773	20629
804.915	20629
805.057	20640
805.199	20511
805.341	20598
805.483	20739
805.626	20750
805.768	20492
805.91	20651
806.052	20564
806.194	20564
806.336	20758
806.478	20735
806.62	20705
806.762	20632
806.904	20876
807.046	20971
807.188	21119
807.33	21032
807.472	21013
807.614	20853
807.756	20891
807.898	20853
808.04	20769
808.182	20689
808.324	20689
808.465	20739
808.607	20956
808.749	20975
808.891	21131
809.033	21070
809.174	21058
809.316	20986
809.458	21017
809.6	20979
809.741	21024
809.883	21150
810.025	21195
810.166	21154
810.308	21108
810.45	21085
810.591	21077
810.733	20899
810.875	20796
811.016	20697
811.158	20609
811.299	20864
811.441	20849
811.582	20914
811.724	20792
811.865	20876
812.007	20826
812.148	20712
812.29	20800
812.431	20826
812.573	21123
812.714	21135
812.855	21401
812.997	21351
813.138	21454
813.279	21359
813.421	21370
813.562	21226
813.703	20986
813.845	20864
813.986	20750
814.127	20419
814.268	20259
814.41	20438
814.551	20282
814.692	20381
814.833	20119
814.974	20176
815.115	20225
815.256	20271
815.397	20286
815.539	20259
815.68	20050
815.821	19967
815.962	20050
816.103	20039
816.244	19959
816.385	19712
816.526	19738
816.666	19658
816.807	19438
816.948	19620
817.089	19605
817.23	19533
817.371	19491
817.512	19407
817.653	19411
817.793	19392
817.934	19396
818.075	19449
818.216	19430
818.356	19308
818.497	19266
818.638	19107
818.778	19175
818.919	19133
819.06	19156
819.2	19369
819.341	19213
819.481	19354
819.622	19422
819.762	19727
819.903	19597
820.043	19392
820.184	19491
820.324	19407
820.465	19483
820.605	19320
820.746	19365
820.886	19301
821.026	19445
821.167	19255
821.307	19499
821.447	19255
821.588	19171
821.728	19076
821.868	18943
822.008	18837
822.149	18787
822.289	18829
822.429	18555
822.569	18426
822.709	18532
822.849	18380
822.99	18376
823.13	18277
823.27	18289
823.41	18083
823.55	18110
823.69	18235
823.83	18117
823.97	18083
824.11	18026
824.25	17809
824.389	17824
824.529	17893
824.669	17828
824.809	17996
824.949	17977
825.089	17946
825.228	17916
825.368	17699
825.508	17638
825.648	17611
825.787	17649
825.927	17722
826.067	17585
826.206	17608
826.346	17695
826.485	17760
826.625	17611
826.765	17824
826.904	17668
827.044	17478
827.183	17337
827.323	17459
827.462	17356
827.601	17345
827.741	17311
827.88	17414
828.02	17242
828.159	17364
828.298	17391
828.437	17330
828.577	17326
828.716	17482
828.855	17258
828.994	17109
829.134	17071
829.273	17265
829.412	17006
829.551	16995
829.69	17147
829.829	17029
829.968	17193
830.107	17075
830.246	17132
830.385	17022
830.524	16961
830.663	16896
830.802	16820
830.941	16778
831.08	16767
831.219	16782
831.357	16752
831.496	16953
831.635	16694
831.774	16668
831.913	16565
832.051	16584
832.19	16512
832.329	16622
832.467	16459
832.606	16360
832.744	16352
832.883	16459
833.022	16344
833.16	16402
833.299	16375
833.437	16363
833.576	16485
833.714	16535
833.852	16561
833.991	16466
834.129	16573
834.267	16550
834.406	16428
834.544	16497
834.682	16485
834.821	16459
834.959	16599
835.097	16428
835.235	16500
835.373	16466
835.511	16489
835.65	16333
835.788	16386
835.926	16249
836.064	16131
836.202	16204
836.34	16432
836.478	16367
836.615	16386
836.753	16382
836.891	16519
837.029	16341
837.167	16402
837.305	16287
837.443	16299
837.58	16200
837.718	16447
837.856	16242
837.993	16116
838.131	16249
838.269	16272
838.406	16219
838.544	16154
838.681	16002
838.819	15964
838.956	15728
839.094	15884
839.231	15865
839.369	16013
839.506	16135
839.643	15979
839.781	15785
839.918	15747
840.055	15846
840.193	15835
840.33	15850
840.467	15732
840.604	15816
840.742	16055
840.879	15625
841.016	15637
841.153	15717
841.29	16002
841.427	15861
841.564	15808
841.701	15781
841.838	15797
841.975	15728
842.112	15717
842.249	15580
842.385	15530
842.522	15682
842.659	15576
842.796	15606
842.933	15629
843.069	15481
843.206	15622
843.343	15511
843.479	15641
843.616	15663
843.752	15416
843.889	15397
844.025	15462
844.162	15336
844.298	15462
844.435	15351
844.571	15313
844.708	15336
844.844	15572
844.98	15447
845.117	15416
845.253	15310
845.389	15184
845.525	15218
845.661	15218
845.798	15116
845.934	15203
846.07	15176
846.206	15169
846.342	15325
846.478	15108
846.614	14967
846.75	14963
846.886	14929
847.022	15051
847.158	14910
847.294	14891
847.429	14857
847.565	14887
847.701	15222
847.837	14712
847.972	14689
848.108	14845
848.244	14758
848.379	14602
848.515	14503
848.65	14499
848.786	14499
848.921	14503
849.057	14636
849.192	14606
849.328	14571
849.463	14552
849.598	14507
849.734	14404
849.869	14362
850.004	14400
850.14	14415
850.275	14377
850.41	14218
850.545	14286
850.68	14263
850.815	14267
850.95	14225
851.085	14556
851.22	14347
851.355	14317
851.49	14332
851.625	14240
851.76	14301
851.895	14214
852.03	14134
852.165	14240
852.299	14385
852.434	14351
852.569	14202
852.703	14385
852.838	14381
852.973	14427
853.107	14412
853.242	14271
853.376	14298
853.511	14073
853.645	14172
853.78	14252
853.914	14180
854.048	14065
854.183	14081
854.317	14218
854.451	14374
854.585	14183
854.72	14126
854.854	14191
854.988	14149
855.122	14157
855.256	13993
855.39	14115
855.524	14252
855.658	14126
855.792	14195
855.926	14191
856.06	14225
856.194	14305
856.327	14161
856.461	14183
856.595	14123
856.729	14119
856.862	14301
856.996	14199
857.13	14240
857.263	14263
857.397	14271
857.53	14168
857.664	14275
857.797	14256
857.931	14393
858.064	14233
858.197	14305
858.331	14172
858.464	14111
858.597	14081
858.731	14199
858.864	14180
858.997	14103
859.13	14225
859.263	14180
859.396	14298
859.529	14119
859.662	14199
859.795	14081
859.928	14191
860.061	14259
860.194	14366
860.327	14221
860.46	14123
860.592	14259
860.725	14275
860.858	14259
860.99	14164
861.123	14058
861.256	14031
861.388	14180
861.521	15020
861.653	14073
861.786	13932
861.918	14073
862.05	14145
862.183	14138
862.315	14107
862.447	14218
862.58	14180
862.712	13902
862.844	13845
862.976	14027
863.108	14001
863.24	14294
863.372	13955
863.504	13887
863.636	13989
863.768	14039
863.9	14046
864.032	13879
864.164	13947
864.296	13944
864.428	14092
864.559	14005
864.691	14027
864.823	13982
864.954	14035
865.086	14016
865.217	14016
865.349	13887
865.48	13921
865.612	13925
865.743	14027
865.875	13890
866.006	13841
866.137	14016
866.269	13894
866.4	14008
866.531	13879
866.662	13856
866.793	13830
866.924	13940
867.055	13963
867.186	13928
867.317	13928
867.448	13746
867.579	13906
867.71	13883
867.841	13807
867.972	14024
868.103	13940
868.233	13875
868.364	13986
868.495	14031
868.625	14161
868.756	14240
868.886	14119
869.017	14157
869.147	14195
869.278	14259
869.408	14210
869.539	14191
869.669	14233
869.799	14164
869.929	14347
870.06	14362
870.19	14507
870.32	14492
870.45	14511
870.58	14625
870.71	14682
870.84	14682
870.97	14606
871.1	14560
871.23	14807
871.36	14804
871.489	14724
871.619	14769
871.749	14800
871.879	14849
872.008	14948
872.138	14845
872.267	14811
872.397	14674
872.526	14670
872.656	14590
872.785	14594
872.915	14941
873.044	14902
873.173	14777
873.303	14895
873.432	14838
873.561	14834
873.69	14872
873.819	14773
873.948	14925
874.077	14948
874.206	14781
874.335	14861
874.464	14956
874.593	15161
874.722	15112
874.851	15176
874.979	15123
875.108	15233
875.237	15112
875.365	15081
875.494	15211
875.623	15195
875.751	15135
875.88	15283
876.008	15287
876.136	15359
876.265	15599
876.393	15724
876.521	15698
876.65	15625
876.778	15682
876.906	15557
877.034	15663
877.162	15614
877.29	15450
877.418	15587
877.546	15504
877.674	15557
877.802	15553
877.93	15603
878.058	15587
878.185	15401
878.313	15447
878.441	15557
878.568	15302
878.696	15530
878.824	15698
878.951	15671
879.079	15759
879.206	15926
879.333	15701
879.461	15728
879.588	15625
879.715	15785
879.842	15850
879.97	15564
880.097	15466
880.224	15443
880.351	15507
880.478	15447
880.605	15336
880.732	15325
880.859	15644
880.986	15405
881.112	15458
881.239	15310
881.366	15313
881.493	15116
881.619	15131
881.746	15119
881.872	15062
881.999	14963
882.125	15005
882.252	15112
882.378	15146
882.505	15131
882.631	14895
882.757	14883
882.883	14944
883.01	14910
883.136	14724
883.262	14644
883.388	14769
883.514	14986
883.64	14910
883.766	14823
883.892	14708
884.018	14705
884.143	14910
884.269	14902
884.395	14716
884.52	14473
884.646	14621
884.772	14511
884.897	14533
885.023	14686
885.148	14678
885.274	14838
885.399	14754
885.524	14613
885.65	14556
885.775	14693
885.9	14644
886.025	14708
886.15	14659
886.275	14511
886.4	14575
886.525	14564
886.65	14511
886.775	14514
886.9	14705
887.025	14853
887.149	14625
887.274	14537
887.399	14358
887.523	14385
887.648	14336
887.773	14294
887.897	14381
888.021	14617
888.146	14446
888.27	14492
888.395	14530
888.519	14389
888.643	14450
888.767	14541
888.891	14332
889.015	14362
889.139	14355
889.263	14168
889.387	14355
889.511	14377
889.635	14476
889.759	14355
889.883	14347
890.006	14351
890.13	14438
890.254	14225
890.377	14324
890.501	14031
890.624	14164
890.748	14191
890.871	14130
890.995	13963
891.118	13856
891.241	14027
891.364	13974
891.488	14130
891.611	13944
891.734	14050
891.857	14103
891.98	14027
892.103	14111
892.226	14035
892.349	14001
892.471	13871
892.594	14046
892.717	14024
892.839	13978
892.962	13974
893.085	14069
893.207	14092
893.33	13894
893.452	14054
893.575	14005
893.697	13967
893.819	14183
893.941	14347
894.064	14176
894.186	13974
894.308	13936
894.43	14164
894.552	14187
894.674	14180
894.796	13993
894.918	14012
895.04	13963
895.161	14168
895.283	14240
895.405	14043
895.526	14149
895.648	14103
895.769	14210
895.891	14229
896.012	14218
896.134	14218
896.255	14267
896.376	14138
896.498	14183
896.619	14248
896.74	14126
896.861	14202
896.982	14621
897.103	14674
897.224	14469
897.345	14374
897.466	14347
897.587	14442
897.708	14640
897.828	14442
897.949	14370
898.07	14317
898.19	14488
898.311	14564
898.431	14484
898.552	14492
898.672	14621
898.792	14640
898.913	14602
899.033	14492
899.153	14336
899.273	14309
899.393	14393
899.513	14450
899.633	14324
899.753	14362
899.873	14385
899.993	14446
900.113	14317
900.232	14427
900.352	14339
900.472	14381
900.591	14210
900.711	14317
900.83	14229
900.95	14294
901.069	14328
901.189	14149
901.308	13967
901.427	13978
901.546	13894
901.665	13909
901.784	13993
901.904	13723
902.023	13780
902.141	13613
902.26	13491
902.379	13590
902.498	13556
902.617	13575
902.735	13605
902.854	13476
902.973	13331
903.091	13183
903.21	13221
903.328	13221
903.446	13088
903.565	13095
903.683	13095
903.801	12989
903.919	13110
904.038	13095
904.156	12871
904.274	12977
904.392	12993
904.51	12856
904.627	12863
904.745	12886
904.863	12996
904.981	12741
905.098	12521
905.216	12608
905.334	12612
905.451	12551
905.569	12555
905.686	12528
905.803	12593
905.921	12418
906.038	12486
906.155	12403
906.272	12205
906.389	12285
906.506	12175
906.623	12117
906.74	12270
906.857	12049
906.974	11984
907.091	12342
907.208	12327
907.324	12266
907.441	12129
907.557	11923
907.674	11923
907.79	11836
907.907	11866
908.023	11889
908.139	12038
908.256	11889
908.372	11824
908.488	11824
908.604	11741
908.72	11665
908.836	11623
908.952	11611
909.068	11680
909.184	11870
909.3	11691
909.415	11756
909.531	11638
909.647	11467
909.762	11448
909.878	11360
909.993	11493
910.108	11455
910.224	11406
910.339	11539
910.454	11334
910.57	11235
910.685	11197
910.8	11532
910.915	11459
911.03	11311
911.145	11166
911.259	11109
911.374	11216
911.489	11041
911.604	11105
911.718	10915
911.833	10946
911.947	10850
912.062	10733
912.176	10904
912.291	10961
912.405	10896
912.519	11079
912.633	11128
912.748	11006
912.862	10858
912.976	10801
913.09	10725
913.204	10771
913.318	10824
913.431	10915
913.545	10923
913.659	10915
913.772	10812
913.886	10656
914	10683
914.113	10698
914.226	10767
914.34	10793
914.453	10504
914.566	10778
914.68	10679
914.793	10660
914.906	10447
915.019	10348
915.132	10379
915.245	10367
915.358	10409
915.47	10447
915.583	10459
915.696	10485
915.809	10558
915.921	10569
916.034	10428
916.146	10424
916.259	10333
916.371	10512
916.483	10451
916.595	10265
916.708	10314
916.82	10333
916.932	10436
917.044	10356
917.156	10318
917.268	10181
917.38	10295
917.491	10306
917.603	10363
917.715	10348
917.826	10352
917.938	10284
918.049	10139
918.161	10253
918.272	10363
918.384	10386
918.495	10272
918.606	10139
918.717	10147
918.828	10162
918.939	10169
919.05	10086
919.161	10097
919.272	9956
919.383	10025
919.494	10169
919.604	10306
919.715	10128
919.826	10044
919.936	10154
920.047	10268
920.157	10188
920.267	10447
920.378	10207
920.488	10112
920.598	10379
920.708	10443
920.818	10337
920.928	10379
921.038	10516
921.148	10424
921.258	10211
921.368	10051
921.477	10093
921.587	10021
921.697	9895
921.806	9975
921.916	9926
922.025	9759
922.134	9759
922.244	9720
922.353	9804
922.462	9557
922.571	9538
922.68	9393
922.789	9367
922.898	9424
923.007	9321
923.116	9431
923.224	9386
923.333	9386
923.442	9370
923.55	9249
923.659	9359
923.767	9378
923.876	9298
923.984	9424
924.092	9249
924.201	9260
924.309	9291
924.417	9272
924.525	9275
924.633	9268
924.741	10112
924.849	8994
924.956	9218
925.064	9100
925.172	8948
925.279	8986
925.387	9036
925.494	9074
925.602	9237
925.709	9165
925.816	9009
925.924	9074
926.031	9184
926.138	9081
926.245	9070
926.352	8982
926.459	9081
926.566	9112
926.673	9032
926.779	8971
926.886	8944
926.993	8826
927.099	8758
927.206	8758
927.312	8781
927.419	8785
927.525	8838
927.631	8861
927.737	8743
927.843	8674
927.95	8552
928.056	8659
928.162	8644
928.267	8781
928.373	9313
928.479	8785
928.585	8537
928.69	8686
928.796	8708
928.901	8632
929.007	8450
929.112	8560
929.218	8549
929.323	8473
929.428	8476
929.533	8610
929.638	8457
929.743	8469
929.848	8552
929.953	8484
930.058	8366
930.163	8320
930.267	8301
930.372	8476
930.477	8259
930.581	8473
930.685	8423
930.79	8214
930.894	8259
930.998	8199
931.103	8362
931.207	7997
931.311	7963
931.415	7845
931.519	7719
931.623	7750
