Data from test_V78500241_3135.txt Node
Date: Fri Mar 25 14:55:32 CST 2022
User: usil
Spectrometer: V785-0024
Trigger mode: 0
Integration Time (sec): 4.000000E-1
Scans to average: 1
Nonlinearity correction enabled: false
Boxcar width: 0
Storing dark spectrum: false
XAxis mode: Wavelengths
Number of Pixels in Spectrum: 1024
>>>>>Begin Spectral Data<<<<<
801.071	22143
801.214	21998
801.356	21819
801.499	21496
801.641	21450
801.783	21329
801.926	21564
802.068	21485
802.211	21355
802.353	21199
802.496	21032
802.638	20762
802.78	20845
802.923	20842
803.065	20651
803.208	20587
803.35	20758
803.492	20804
803.635	20857
803.777	20842
803.919	20796
804.061	21017
804.204	20963
804.346	20724
804.488	20606
804.63	20701
804.773	20632
804.915	20739
805.057	20769
805.199	20518
805.341	20587
805.483	20781
805.626	20701
805.768	20533
805.91	20594
806.052	20701
806.194	20533
806.336	20838
806.478	20587
806.62	20533
806.762	20678
806.904	20788
807.046	21066
807.188	21001
807.33	20895
807.472	20990
807.614	21039
807.756	20842
807.898	20785
808.04	20686
808.182	20689
808.324	20807
808.465	20826
808.607	20826
808.749	20979
808.891	21214
809.033	21150
809.174	21051
809.316	21047
809.458	21066
809.6	20834
809.741	21024
809.883	21077
810.025	21226
810.166	21142
810.308	21241
810.45	21150
810.591	21028
810.733	20880
810.875	20826
811.016	20842
811.158	20743
811.299	20750
811.441	20937
811.582	20948
811.724	20792
811.865	20819
812.007	20823
812.148	20659
812.29	20727
812.431	20921
812.573	21100
812.714	21093
812.855	21294
812.997	21336
813.138	21515
813.279	21382
813.421	21260
813.562	21207
813.703	21062
813.845	20883
813.986	20686
814.127	20663
814.268	20431
814.41	20336
814.551	20339
814.692	20393
814.833	20286
814.974	20343
815.115	20332
815.256	20248
815.397	20317
815.539	20191
815.68	20088
815.821	20016
815.962	20020
816.103	19951
816.244	19928
816.385	19746
816.526	19795
816.666	19616
816.807	19556
816.948	19518
817.089	19540
817.23	19460
817.371	19373
817.512	19384
817.653	19441
817.793	19358
817.934	19472
818.075	19445
818.216	19480
818.356	19502
818.497	19221
818.638	19076
818.778	19141
818.919	19148
819.06	19255
819.2	19263
819.341	19339
819.481	19346
819.622	19407
819.762	19616
819.903	19506
820.043	19559
820.184	19476
820.324	19388
820.465	19552
820.605	19521
820.746	19403
820.886	19255
821.026	19415
821.167	19324
821.307	19449
821.447	19308
821.588	19228
821.728	19133
821.868	18878
822.008	18859
822.149	18814
822.289	18833
822.429	18555
822.569	18566
822.709	18509
822.849	18357
822.99	18338
823.13	18342
823.27	18296
823.41	18110
823.55	18083
823.69	18053
823.83	18220
823.97	18140
824.11	17855
824.25	17874
824.389	17931
824.529	17973
824.669	17874
824.809	17984
824.949	18007
825.089	17965
825.228	17916
825.368	17661
825.508	17786
825.648	17676
825.787	17646
825.927	17786
826.067	17611
826.206	17592
826.346	17710
826.485	17680
826.625	17604
826.765	17722
826.904	17687
827.044	17444
827.183	17383
827.323	17288
827.462	17429
827.601	17379
827.741	17356
827.88	17410
828.02	17296
828.159	17315
828.298	17417
828.437	17471
828.577	17258
828.716	17395
828.855	17364
828.994	17178
829.134	17102
829.273	17193
829.412	17143
829.551	17064
829.69	17083
829.829	17185
829.968	17242
830.107	17166
830.246	17170
830.385	17185
830.524	16980
830.663	16930
830.802	16892
830.941	16763
831.08	16721
831.219	16790
831.357	16885
831.496	16957
831.635	16713
831.774	16645
831.913	16588
832.051	16569
832.19	16645
832.329	16656
832.467	16478
832.606	16325
832.744	16512
832.883	16371
833.022	16299
833.16	16363
833.299	16485
833.437	16421
833.576	16504
833.714	16462
833.852	16470
833.991	16531
834.129	16531
834.267	16512
834.406	16516
834.544	16455
834.682	16508
834.821	16440
834.959	16588
835.097	16462
835.235	16504
835.373	16512
835.511	16489
835.65	16318
835.788	16421
835.926	16246
836.064	16234
836.202	16230
836.34	16367
836.478	16474
836.615	16382
836.753	16417
836.891	16569
837.029	16440
837.167	16299
837.305	16230
837.443	16265
837.58	16272
837.718	16386
837.856	16196
837.993	16181
838.131	16215
838.269	16246
838.406	16131
838.544	16120
838.681	15884
838.819	15892
838.956	15770
839.094	15819
839.231	15804
839.369	15899
839.506	16234
839.643	15953
839.781	15797
839.918	15717
840.055	15865
840.193	15732
840.33	15800
840.467	15793
840.604	15838
840.742	15987
840.879	15682
841.016	15808
841.153	15675
841.29	15907
841.427	15827
841.564	15812
841.701	15774
841.838	15759
841.975	15751
842.112	15671
842.249	15515
842.385	15534
842.522	15736
842.659	15603
842.796	15618
842.933	15637
843.069	15534
843.206	15591
843.343	15663
843.479	15507
843.616	15690
843.752	15283
843.889	15386
844.025	15511
844.162	15374
844.298	15428
844.435	15317
844.571	15332
844.708	15416
844.844	15587
844.98	15622
845.117	15504
845.253	15287
845.389	15222
845.525	15230
845.661	15241
845.798	15108
845.934	15245
846.07	15093
846.206	15195
846.342	15268
846.478	15085
846.614	15001
846.75	14819
846.886	14925
847.022	14994
847.158	14975
847.294	14906
847.429	14895
847.565	14883
847.701	15199
847.837	14705
847.972	14632
848.108	14815
848.244	14724
848.379	14583
848.515	14606
848.65	14488
848.786	14495
848.921	14552
849.057	14621
849.192	14632
849.328	14625
849.463	14575
849.598	14560
849.734	14469
849.869	14324
850.004	14377
850.14	14324
850.275	14172
850.41	14271
850.545	14252
850.68	14233
850.815	14427
850.95	14343
851.085	14450
851.22	14419
851.355	14328
851.49	14290
851.625	14282
851.76	14317
851.895	14088
852.03	14191
852.165	14263
852.299	14351
852.434	14294
852.569	14370
852.703	14229
852.838	14309
852.973	14408
853.107	14488
853.242	14229
853.376	14233
853.511	14119
853.645	14111
853.78	14259
853.914	14199
854.048	14103
854.183	14115
854.317	14180
854.451	14256
854.585	14031
854.72	14161
854.854	14191
854.988	14088
855.122	14062
855.256	14020
855.39	14195
855.524	14317
855.658	14229
855.792	14161
855.926	14187
856.06	14237
856.194	14259
856.327	14130
856.461	14046
856.595	14058
856.729	14229
856.862	14252
856.996	14191
857.13	14294
857.263	14339
857.397	14313
857.53	14183
857.664	14244
857.797	14256
857.931	14320
858.064	14221
858.197	14294
858.331	14134
858.464	14195
858.597	14107
858.731	14100
858.864	14123
858.997	14180
859.13	14218
859.263	14218
859.396	14244
859.529	14142
859.662	14187
859.795	14126
859.928	14218
860.061	14389
860.194	14298
860.327	14229
860.46	14081
860.592	14286
860.725	14248
860.858	14195
860.99	14149
861.123	14077
861.256	14084
861.388	14191
861.521	14830
861.653	14016
861.786	13978
861.918	14138
862.05	13993
862.183	14088
862.315	14161
862.447	14153
862.58	14088
862.712	13947
862.844	13879
862.976	13947
863.108	13944
863.24	14229
863.372	13875
863.504	13993
863.636	13928
863.768	14001
863.9	14012
864.032	13818
864.164	13860
864.296	14001
864.428	14031
864.559	13989
864.691	14065
864.823	14008
864.954	13963
865.086	14096
865.217	13955
865.349	13909
865.48	13887
865.612	13940
865.743	14001
865.875	13970
866.006	13879
866.137	13913
866.269	13898
866.4	13951
866.531	13925
866.662	13883
866.793	13803
866.924	13917
867.055	13944
867.186	13993
867.317	13917
867.448	13845
867.579	13940
867.71	13909
867.841	13909
867.972	13982
868.103	13932
868.233	13959
868.364	13894
868.495	13959
868.625	14149
868.756	14305
868.886	14115
869.017	14180
869.147	14366
869.278	14317
869.408	14218
869.539	14176
869.669	14202
869.799	14225
869.929	14301
870.06	14332
870.19	14400
870.32	14454
870.45	14488
870.58	14651
870.71	14708
870.84	14705
870.97	14556
871.1	14590
871.23	14792
871.36	14826
871.489	14533
871.619	14746
871.749	14754
871.879	14842
872.008	14834
872.138	14853
872.267	14773
872.397	14678
872.526	14590
872.656	14568
872.785	14621
872.915	14891
873.044	14899
873.173	14861
873.303	14956
873.432	14921
873.561	14960
873.69	14982
873.819	14807
873.948	14887
874.077	14887
874.206	14842
874.335	14914
874.464	15051
874.593	15081
874.722	15161
874.851	15051
874.979	15195
875.108	15192
875.237	15005
875.365	15176
875.494	15146
875.623	15222
875.751	15150
875.88	15108
876.008	15348
876.136	15507
876.265	15584
876.393	15701
876.521	15622
876.65	15584
876.778	15595
876.906	15538
877.034	15488
877.162	15488
877.29	15473
877.418	15660
877.546	15504
877.674	15561
877.802	15675
877.93	15473
878.058	15492
878.185	15466
878.313	15595
878.441	15500
878.568	15454
878.696	15500
878.824	15633
878.951	15652
879.079	15724
879.206	15880
879.333	15652
879.461	15644
879.588	15629
879.715	15686
879.842	15865
879.97	15633
880.097	15428
880.224	15435
880.351	15477
880.478	15439
880.605	15439
880.732	15466
880.859	15599
880.986	15412
881.112	15477
881.239	15336
881.366	15226
881.493	15093
881.619	15112
881.746	15055
881.872	15013
881.999	15051
882.125	15074
882.252	15157
882.378	15055
882.505	15302
882.631	15009
882.757	14982
882.883	14910
883.01	14785
883.136	14872
883.262	14670
883.388	14712
883.514	14876
883.64	15013
883.766	14899
883.892	14708
884.018	14804
884.143	14899
884.269	15028
884.395	14610
884.52	14488
884.646	14522
884.772	14651
884.897	14518
885.023	14613
885.148	14659
885.274	14693
885.399	14651
885.524	14640
885.65	14625
885.775	14583
885.9	14568
886.025	14686
886.15	14651
886.275	14541
886.4	14461
886.525	14587
886.65	14541
886.775	14514
886.9	14644
887.025	14796
887.149	14640
887.274	14511
887.399	14442
887.523	14434
887.648	14415
887.773	14275
887.897	14514
888.021	14511
888.146	14374
888.27	14503
888.395	14541
888.519	14476
888.643	14568
888.767	14533
888.891	14370
889.015	14149
889.139	14313
889.263	14358
889.387	14427
889.511	14385
889.635	14400
889.759	14195
889.883	14343
890.006	14309
890.13	14343
890.254	14248
890.377	14256
890.501	14142
890.624	14024
890.748	14134
890.871	14058
890.995	13947
891.118	14012
891.241	13989
891.364	14005
891.488	14119
891.611	14027
891.734	14046
891.857	13959
891.98	14016
892.103	14027
892.226	14027
892.349	13967
892.471	13875
892.594	13944
892.717	14024
892.839	13963
892.962	14065
893.085	14050
893.207	13947
893.33	13917
893.452	13852
893.575	14039
893.697	14008
893.819	14248
893.941	14153
894.064	14240
894.186	13940
894.308	13970
894.43	14145
894.552	14195
894.674	14191
894.796	13906
894.918	14031
895.04	14062
895.161	14088
895.283	14176
895.405	13974
895.526	13963
895.648	14046
895.769	14138
895.891	14168
896.012	14244
896.134	14202
896.255	14294
896.376	14081
896.498	14195
896.619	14187
896.74	14168
896.861	14362
896.982	14522
897.103	14686
897.224	14415
897.345	14393
897.466	14339
897.587	14396
897.708	14549
897.828	14571
897.949	14446
898.07	14434
898.19	14438
898.311	14545
898.431	14412
898.552	14480
898.672	14648
898.792	14682
898.913	14606
899.033	14514
899.153	14423
899.273	14256
899.393	14442
899.513	14408
899.633	14347
899.753	14408
899.873	14324
899.993	14370
900.113	14423
900.232	14275
900.352	14396
900.472	14290
900.591	14123
900.711	14396
900.83	14183
900.95	14396
901.069	14408
901.189	14221
901.308	13982
901.427	13982
901.546	13982
901.665	13940
901.784	14031
901.904	13784
902.023	13708
902.141	13521
902.26	13491
902.379	13544
902.498	13510
902.617	13365
902.735	13594
902.854	13518
902.973	13396
903.091	13217
903.21	13187
903.328	13213
903.446	13209
903.565	13091
903.683	13095
903.801	12970
903.919	13076
904.038	13095
904.156	12901
904.274	13042
904.392	12894
904.51	12882
904.627	12977
904.745	12928
904.863	12916
904.981	12681
905.098	12589
905.216	12597
905.334	12570
905.451	12650
905.569	12483
905.686	12681
905.803	12593
905.921	12353
906.038	12460
906.155	12399
906.272	12315
906.389	12380
906.506	12239
906.623	12235
906.74	12106
906.857	12087
906.974	12201
907.091	12216
907.208	12289
907.324	12148
907.441	12117
907.557	11961
907.674	11847
907.79	11897
907.907	11904
908.023	11973
908.139	11980
908.256	11904
908.372	11954
908.488	11760
908.604	11718
908.72	11634
908.836	11623
908.952	11680
909.068	11756
909.184	11748
909.3	11748
909.415	11634
909.531	11668
909.647	11516
909.762	11520
909.878	11414
909.993	11505
910.108	11490
910.224	11353
910.339	11474
910.454	11345
910.57	11303
910.685	11193
910.8	11520
910.915	11505
911.03	11299
911.145	11128
911.259	11128
911.374	11159
911.489	11086
911.604	11067
911.718	10999
911.833	10839
911.947	10816
912.062	10744
912.176	10873
912.291	10953
912.405	10896
912.519	11181
912.633	11147
912.748	10961
912.862	10930
912.976	10805
913.09	10656
913.204	10778
913.318	10778
913.431	10869
913.545	10923
913.659	10949
913.772	10793
913.886	10675
914	10660
914.113	10736
914.226	10675
914.34	10656
914.453	10588
914.566	10778
914.68	10641
914.793	10535
914.906	10375
915.019	10398
915.132	10356
915.245	10375
915.358	10428
915.47	10382
915.583	10459
915.696	10466
915.809	10527
915.921	10615
916.034	10329
916.146	10382
916.259	10325
916.371	10440
916.483	10443
916.595	10363
916.708	10417
916.82	10371
916.932	10280
917.044	10310
917.156	10211
917.268	10204
917.38	10166
917.491	10188
917.603	10223
917.715	10375
917.826	10386
917.938	10196
918.049	10124
918.161	10287
918.272	10443
918.384	10337
918.495	10291
918.606	10169
918.717	10044
918.828	10109
918.939	10124
919.05	10063
919.161	10204
919.272	9937
919.383	9899
919.494	10261
919.604	10344
919.715	10158
919.826	10124
919.936	10150
920.047	10139
920.157	10204
920.267	10398
920.378	10204
920.488	10101
920.598	10299
920.708	10485
920.818	10306
920.928	10333
921.038	10504
921.148	10542
921.258	10227
921.368	10147
921.477	10017
921.587	9945
921.697	9876
921.806	10010
921.916	9861
922.025	9717
922.134	9705
922.244	9625
922.353	9804
922.462	9591
922.571	9637
922.68	9458
922.789	9310
922.898	9367
923.007	9412
923.116	9469
923.224	9443
923.333	9424
923.442	9332
923.55	9253
923.659	9275
923.767	9336
923.876	9294
923.984	9397
924.092	9089
924.201	9313
924.309	9249
924.417	9268
924.525	9272
924.633	9302
924.741	10162
924.849	9032
924.956	9226
925.064	9001
925.172	8982
925.279	8960
925.387	9009
925.494	9104
925.602	9203
925.709	9173
925.816	9039
925.924	9077
926.031	9199
926.138	9100
926.245	9085
926.352	8960
926.459	9157
926.566	9161
926.673	8975
926.779	8921
926.886	8937
926.993	8773
927.099	8788
927.206	8750
927.312	8766
927.419	8823
927.525	8743
927.631	8826
927.737	8693
927.843	8693
927.95	8571
928.056	8648
928.162	8705
928.267	8800
928.373	9264
928.479	8796
928.585	8511
928.69	8625
928.796	8746
928.901	8644
929.007	8377
929.112	8610
929.218	8579
929.323	8488
929.428	8503
929.533	8606
929.638	8484
929.743	8492
929.848	8632
929.953	8533
930.058	8374
930.163	8225
930.267	8317
930.372	8374
930.477	8324
930.581	8476
930.685	8313
930.79	8221
930.894	8240
930.998	8309
931.103	8328
931.207	8020
931.311	7974
931.415	7944
931.519	7757
931.623	7696
