Data from test_V78500241_3683.txt Node
Date: Fri Mar 25 14:59:21 CST 2022
User: usil
Spectrometer: V785-0024
Trigger mode: 0
Integration Time (sec): 4.000000E-1
Scans to average: 1
Nonlinearity correction enabled: false
Boxcar width: 0
Storing dark spectrum: false
XAxis mode: Wavelengths
Number of Pixels in Spectrum: 1024
>>>>>Begin Spectral Data<<<<<
801.071	21918
801.214	21835
801.356	21557
801.499	21496
801.641	21268
801.783	21230
801.926	21249
802.068	21074
802.211	21154
802.353	21017
802.496	20937
802.638	20773
802.78	20632
802.923	20659
803.065	20537
803.208	20556
803.35	20659
803.492	20644
803.635	20712
803.777	20640
803.919	20659
804.061	20956
804.204	20674
804.346	20511
804.488	20438
804.63	20640
804.773	20469
804.915	20522
805.057	20644
805.199	20442
805.341	20488
805.483	20609
805.626	20560
805.768	20465
805.91	20419
806.052	20533
806.194	20377
806.336	20651
806.478	20533
806.62	20412
806.762	20587
806.904	20667
807.046	20929
807.188	20750
807.33	20842
807.472	20823
807.614	20644
807.756	20792
807.898	20575
808.04	20480
808.182	20499
808.324	20537
808.465	20602
808.607	20861
808.749	20887
808.891	20956
809.033	20948
809.174	20944
809.316	20731
809.458	20743
809.6	20746
809.741	20880
809.883	20963
810.025	20975
810.166	21020
810.308	20960
810.45	20838
810.591	20914
810.733	20727
810.875	20674
811.016	20598
811.158	20480
811.299	20644
811.441	20655
811.582	20625
811.724	20511
811.865	20450
812.007	20613
812.148	20549
812.29	20613
812.431	20838
812.573	20815
812.714	21017
812.855	21142
812.997	21264
813.138	21329
813.279	21176
813.421	21142
813.562	20914
813.703	20811
813.845	20842
813.986	20446
814.127	20206
814.268	20122
814.41	20202
814.551	20073
814.692	20240
814.833	20050
814.974	20229
815.115	20149
815.256	20043
815.397	19925
815.539	20005
815.68	19940
815.821	19734
815.962	19917
816.103	19807
816.244	19639
816.385	19483
816.526	19567
816.666	19407
816.807	19308
816.948	19403
817.089	19346
817.23	19350
817.371	19240
817.512	19255
817.653	19270
817.793	19206
817.934	19247
818.075	19339
818.216	19449
818.356	19255
818.497	19072
818.638	18913
818.778	19107
818.919	19034
819.06	19050
819.2	19046
819.341	19122
819.481	19202
819.622	19301
819.762	19502
819.903	19362
820.043	19285
820.184	19316
820.324	19282
820.465	19381
820.605	19293
820.746	19263
820.886	19126
821.026	19236
821.167	19251
821.307	19304
821.447	19335
821.588	19152
821.728	19012
821.868	18798
822.008	18700
822.149	18616
822.289	18646
822.429	18509
822.569	18418
822.709	18403
822.849	18140
822.99	18155
823.13	18117
823.27	18167
823.41	18007
823.55	17935
823.69	18019
823.83	17996
823.97	17866
824.11	17840
824.25	17828
824.389	17756
824.529	17802
824.669	17748
824.809	17832
824.949	17779
825.089	17843
825.228	17889
825.368	17566
825.508	17547
825.648	17611
825.787	17619
825.927	17539
826.067	17474
826.206	17501
826.346	17600
826.485	17653
826.625	17573
826.765	17592
826.904	17524
827.044	17296
827.183	17269
827.323	17322
827.462	17269
827.601	17284
827.741	17258
827.88	17318
828.02	17098
828.159	17170
828.298	17303
828.437	17387
828.577	17299
828.716	17406
828.855	17242
828.994	17029
829.134	17105
829.273	17083
829.412	16965
829.551	16946
829.69	16976
829.829	17010
829.968	17159
830.107	16987
830.246	17079
830.385	16957
830.524	16881
830.663	16812
830.802	16729
830.941	16542
831.08	16653
831.219	16740
831.357	16721
831.496	16797
831.635	16603
831.774	16584
831.913	16516
832.051	16455
832.19	16424
832.329	16500
832.467	16402
832.606	16226
832.744	16367
832.883	16310
833.022	16314
833.16	16337
833.299	16318
833.437	16424
833.576	16421
833.714	16455
833.852	16485
833.991	16417
834.129	16424
834.267	16447
834.406	16352
834.544	16538
834.682	16432
834.821	16516
834.959	16405
835.097	16424
835.235	16462
835.373	16413
835.511	16295
835.65	16382
835.788	16287
835.926	16181
836.064	16025
836.202	16181
836.34	16322
836.478	16432
836.615	16272
836.753	16356
836.891	16424
837.029	16413
837.167	16204
837.305	16211
837.443	16139
837.58	16169
837.718	16306
837.856	16196
837.993	16249
838.131	16207
838.269	16097
838.406	16124
838.544	16086
838.681	15975
838.819	15869
838.956	15724
839.094	15743
839.231	15770
839.369	15941
839.506	16067
839.643	15956
839.781	15778
839.918	15755
840.055	15751
840.193	15690
840.33	15755
840.467	15690
840.604	15694
840.742	15945
840.879	15671
841.016	15667
841.153	15641
841.29	15873
841.427	15808
841.564	15816
841.701	15808
841.838	15656
841.975	15698
842.112	15694
842.249	15614
842.385	15485
842.522	15576
842.659	15492
842.796	15595
842.933	15580
843.069	15382
843.206	15545
843.343	15549
843.479	15523
843.616	15564
843.752	15252
843.889	15287
844.025	15496
844.162	15268
844.298	15374
844.435	15268
844.571	15313
844.708	15397
844.844	15545
844.98	15431
845.117	15450
845.253	15332
845.389	15298
845.525	15275
845.661	15256
845.798	15028
845.934	15074
846.07	15085
846.206	15188
846.342	15245
846.478	15146
846.614	14849
846.75	14823
846.886	14807
847.022	14994
847.158	14849
847.294	14845
847.429	15028
847.565	14868
847.701	15032
847.837	14651
847.972	14583
848.108	14754
848.244	14716
848.379	14629
848.515	14560
848.65	14560
848.786	14454
848.921	14434
849.057	14549
849.192	14511
849.328	14530
849.463	14549
849.598	14495
849.734	14480
849.869	14385
850.004	14317
850.14	14336
850.275	14275
850.41	14221
850.545	14336
850.68	14290
850.815	14317
850.95	14214
851.085	14549
851.22	14400
851.355	14313
851.49	14248
851.625	14180
851.76	14210
851.895	14157
852.03	14229
852.165	14294
852.299	14263
852.434	14294
852.569	14415
852.703	14286
852.838	14320
852.973	14374
853.107	14404
853.242	14218
853.376	14100
853.511	13963
853.645	14073
853.78	14313
853.914	14100
854.048	14123
854.183	14111
854.317	14088
854.451	14275
854.585	14088
854.72	13974
854.854	14103
854.988	14111
855.122	14050
855.256	14024
855.39	14115
855.524	14248
855.658	14187
855.792	14130
855.926	14210
856.06	14077
856.194	14229
856.327	14149
856.461	14024
856.595	14134
856.729	14115
856.862	14149
856.996	14191
857.13	14240
857.263	14233
857.397	14263
857.53	14191
857.664	14115
857.797	14233
857.931	14271
858.064	14317
858.197	14309
858.331	14035
858.464	14130
858.597	13993
858.731	14134
858.864	14187
858.997	14115
859.13	14233
859.263	14199
859.396	14267
859.529	14092
859.662	14065
859.795	14103
859.928	14221
860.061	14221
860.194	14324
860.327	14100
860.46	14096
860.592	14336
860.725	14275
860.858	14221
860.99	14081
861.123	14107
861.256	14050
861.388	14046
861.521	14785
861.653	14016
861.786	13974
861.918	13978
862.05	14130
862.183	14016
862.315	14119
862.447	14221
862.58	14084
862.712	13871
862.844	13871
862.976	14077
863.108	13986
863.24	14381
863.372	13799
863.504	13864
863.636	13803
863.768	13974
863.9	13875
864.032	13856
864.164	13868
864.296	13906
864.428	13974
864.559	13978
864.691	14050
864.823	13978
864.954	13997
865.086	13951
865.217	13887
865.349	13746
865.48	13913
865.612	13868
865.743	14043
865.875	13875
866.006	13868
866.137	13887
866.269	13898
866.4	13845
866.531	13890
866.662	13879
866.793	13750
866.924	13879
867.055	13986
867.186	13852
867.317	13822
867.448	13837
867.579	13833
867.71	13913
867.841	13791
867.972	13887
868.103	13894
868.233	13982
868.364	13909
868.495	13970
868.625	14126
868.756	14240
868.886	14027
869.017	14107
869.147	14183
869.278	14317
869.408	14161
869.539	14172
869.669	14278
869.799	14199
869.929	14259
870.06	14332
870.19	14518
870.32	14457
870.45	14438
870.58	14495
870.71	14583
870.84	14781
870.97	14568
871.1	14560
871.23	14739
871.36	14777
871.489	14602
871.619	14712
871.749	14731
871.879	14815
872.008	14758
872.138	14800
872.267	14701
872.397	14606
872.526	14613
872.656	14640
872.785	14598
872.915	14682
873.044	14838
873.173	14746
873.303	14807
873.432	14948
873.561	14857
873.69	14849
873.819	14792
873.948	14902
874.077	14735
874.206	14788
874.335	14754
874.464	14937
874.593	15062
874.722	15093
874.851	15108
874.979	15127
875.108	15165
875.237	15161
875.365	14979
875.494	15131
875.623	15249
875.751	15077
875.88	15207
876.008	15325
876.136	15363
876.265	15466
876.393	15759
876.521	15584
876.65	15618
876.778	15526
876.906	15606
877.034	15526
877.162	15488
877.29	15408
877.418	15694
877.546	15534
877.674	15538
877.802	15595
877.93	15473
878.058	15447
878.185	15481
878.313	15477
878.441	15599
878.568	15313
878.696	15439
878.824	15504
878.951	15519
879.079	15759
879.206	15876
879.333	15648
879.461	15485
879.588	15713
879.715	15717
879.842	15774
879.97	15667
880.097	15462
880.224	15412
880.351	15477
880.478	15382
880.605	15378
880.732	15431
880.859	15534
880.986	15355
881.112	15424
881.239	15260
881.366	15146
881.493	14982
881.619	14986
881.746	15089
881.872	15077
881.999	14941
882.125	14982
882.252	15154
882.378	15043
882.505	15112
882.631	15001
882.757	14788
882.883	14876
883.01	14914
883.136	14804
883.262	14754
883.388	14655
883.514	14845
883.64	14887
883.766	14895
883.892	14708
884.018	14705
884.143	14864
884.269	14914
884.395	14754
884.52	14556
884.646	14697
884.772	14598
884.897	14499
885.023	14602
885.148	14735
885.274	14670
885.399	14636
885.524	14575
885.65	14518
885.775	14564
885.9	14465
886.025	14632
886.15	14522
886.275	14480
886.4	14415
886.525	14583
886.65	14514
886.775	14469
886.9	14693
887.025	14792
887.149	14545
887.274	14385
887.399	14461
887.523	14259
887.648	14320
887.773	14305
887.897	14385
888.021	14488
888.146	14381
888.27	14530
888.395	14590
888.519	14522
888.643	14442
888.767	14423
888.891	14305
889.015	14286
889.139	14244
889.263	14138
889.387	14358
889.511	14495
889.635	14317
889.759	14259
889.883	14206
890.006	14267
890.13	14454
890.254	14199
890.377	14180
890.501	14058
890.624	14119
890.748	14077
890.871	14073
890.995	13871
891.118	13849
891.241	13963
891.364	13951
891.488	14046
891.611	14031
891.734	13997
891.857	13997
891.98	13940
892.103	14046
892.226	13993
892.349	13997
892.471	13860
892.594	13803
892.717	13909
892.839	13928
892.962	14001
893.085	13997
893.207	13959
893.33	13784
893.452	13906
893.575	13993
893.697	13944
893.819	14065
893.941	14221
894.064	14016
894.186	13799
894.308	13921
894.43	14043
894.552	14161
894.674	14081
894.796	13940
894.918	14092
895.04	14039
895.161	14069
895.283	14050
895.405	13970
895.526	14073
895.648	14088
895.769	14123
895.891	14119
896.012	14176
896.134	14240
896.255	14225
896.376	14016
896.498	14134
896.619	14191
896.74	14126
896.861	14176
896.982	14499
897.103	14625
897.224	14423
897.345	14427
897.466	14347
897.587	14450
897.708	14473
897.828	14465
897.949	14385
898.07	14377
898.19	14355
898.311	14636
898.431	14488
898.552	14545
898.672	14549
898.792	14640
898.913	14549
899.033	14415
899.153	14309
899.273	14282
899.393	14320
899.513	14366
899.633	14339
899.753	14366
899.873	14336
899.993	14412
900.113	14286
900.232	14419
900.352	14309
900.472	14256
900.591	14142
900.711	14218
900.83	14126
900.95	14271
901.069	14343
901.189	14126
901.308	13860
901.427	13837
901.546	13928
901.665	13951
901.784	13906
901.904	13715
902.023	13616
902.141	13491
902.26	13514
902.379	13559
902.498	13400
902.617	13304
902.735	13578
902.854	13548
902.973	13362
903.091	13213
903.21	13160
903.328	13198
903.446	13053
903.565	13019
903.683	13008
903.801	12943
903.919	12970
904.038	13019
904.156	12783
904.274	12875
904.392	12848
904.51	12875
904.627	12932
904.745	12924
904.863	12882
904.981	12681
905.098	12498
905.216	12551
905.334	12574
905.451	12536
905.569	12475
905.686	12559
905.803	12525
905.921	12410
906.038	12410
906.155	12365
906.272	12273
906.389	12270
906.506	12102
906.623	12159
906.74	12133
906.857	11996
906.974	12060
907.091	12155
907.208	12300
907.324	12102
907.441	12049
907.557	11863
907.674	11897
907.79	11836
907.907	11923
908.023	11946
908.139	11843
908.256	11786
908.372	11809
908.488	11821
908.604	11691
908.72	11634
908.836	11619
908.952	11467
909.068	11611
909.184	11729
909.3	11577
909.415	11672
909.531	11684
909.647	11402
909.762	11372
909.878	11398
909.993	11440
910.108	11303
910.224	11379
910.339	11551
910.454	11368
910.57	11307
910.685	11220
910.8	11501
910.915	11429
911.03	11334
911.145	11159
911.259	11185
911.374	11048
911.489	11075
911.604	10980
911.718	10908
911.833	10915
911.947	10714
912.062	10683
912.176	10839
912.291	10877
912.405	10923
912.519	11090
912.633	11162
912.748	11052
912.862	10835
912.976	10767
913.09	10706
913.204	10698
913.318	10752
913.431	10828
913.545	10820
913.659	10862
913.772	10835
913.886	10672
914	10675
914.113	10778
914.226	10774
914.34	10664
914.453	10618
914.566	10752
914.68	10516
914.793	10565
914.906	10394
915.019	10398
915.132	10325
915.245	10428
915.358	10375
915.47	10443
915.583	10443
915.696	10421
915.809	10512
915.921	10497
916.034	10344
916.146	10363
916.259	10322
916.371	10386
916.483	10375
916.595	10325
916.708	10329
916.82	10291
916.932	10242
917.044	10261
917.156	10318
917.268	10207
917.38	10181
917.491	10223
917.603	10242
917.715	10295
917.826	10291
917.938	10192
918.049	10128
918.161	10234
918.272	10390
918.384	10306
918.495	10280
918.606	10143
918.717	9994
918.828	10105
918.939	10097
919.05	10036
919.161	10188
919.272	9922
919.383	9960
919.494	10181
919.604	10246
919.715	10078
919.826	10051
919.936	10093
920.047	10169
920.157	10158
920.267	10333
920.378	10147
920.488	10162
920.598	10295
920.708	10500
920.818	10310
920.928	10306
921.038	10493
921.148	10443
921.258	10120
921.368	10109
921.477	9937
921.587	9915
921.697	9930
921.806	10082
921.916	9831
922.025	9724
922.134	9736
922.244	9648
922.353	9660
922.462	9603
922.571	9545
922.68	9405
922.789	9325
922.898	9443
923.007	9302
923.116	9378
923.224	9348
923.333	9329
923.442	9207
923.55	9233
923.659	9199
923.767	9325
923.876	9272
923.984	9306
924.092	9169
924.201	9264
924.309	9214
924.417	9253
924.525	9253
924.633	9260
924.741	9979
924.849	9009
924.956	9195
925.064	9062
925.172	8910
925.279	8975
925.387	8990
925.494	9058
925.602	9123
925.709	9138
925.816	8956
925.924	9020
926.031	9089
926.138	8986
926.245	9077
926.352	8941
926.459	9036
926.566	9176
926.673	8979
926.779	8834
926.886	8876
926.993	8781
927.099	8762
927.206	8743
927.312	8686
927.419	8845
927.525	8758
927.631	8838
927.737	8697
927.843	8659
927.95	8473
928.056	8636
928.162	8651
928.267	8720
928.373	9180
928.479	8758
928.585	8556
928.69	8644
928.796	8686
928.901	8579
929.007	8419
929.112	8533
929.218	8537
929.323	8484
929.428	8545
929.533	8568
929.638	8381
929.743	8431
929.848	8522
929.953	8442
930.058	8446
930.163	8244
930.267	8195
930.372	8389
930.477	8202
930.581	8446
930.685	8298
930.79	8153
930.894	8195
930.998	8176
931.103	8385
931.207	7978
931.311	7955
931.415	7887
931.519	7662
931.623	7719
