Data from test_V78500241_2664.txt Node
Date: Fri Mar 25 14:52:15 CST 2022
User: usil
Spectrometer: V785-0024
Trigger mode: 0
Integration Time (sec): 4.000000E-1
Scans to average: 1
Nonlinearity correction enabled: false
Boxcar width: 0
Storing dark spectrum: false
XAxis mode: Wavelengths
Number of Pixels in Spectrum: 1024
>>>>>Begin Spectral Data<<<<<
801.071	21903
801.214	21968
801.356	21698
801.499	21485
801.641	21447
801.783	21378
801.926	21412
802.068	21458
802.211	21241
802.353	21173
802.496	20845
802.638	20842
802.78	20708
802.923	20743
803.065	20545
803.208	20743
803.35	20819
803.492	20876
803.635	20765
803.777	20682
803.919	20754
804.061	21100
804.204	20701
804.346	20552
804.488	20560
804.63	20651
804.773	20526
804.915	20511
805.057	20724
805.199	20552
805.341	20636
805.483	20678
805.626	20701
805.768	20518
805.91	20533
806.052	20579
806.194	20533
806.336	20712
806.478	20598
806.62	20492
806.762	20609
806.904	20743
807.046	21020
807.188	20929
807.33	20979
807.472	20998
807.614	20792
807.756	20853
807.898	20568
808.04	20606
808.182	20560
808.324	20724
808.465	20667
808.607	20868
808.749	20925
808.891	21123
809.033	21237
809.174	20937
809.316	20910
809.458	20918
809.6	20906
809.741	21017
809.883	21058
810.025	21104
810.166	21131
810.308	21070
810.45	20963
810.591	21062
810.733	20830
810.875	20804
811.016	20568
811.158	20549
811.299	20830
811.441	20872
811.582	20826
811.724	20670
811.865	20625
812.007	20708
812.148	20663
812.29	20731
812.431	20849
812.573	21055
812.714	21146
812.855	21150
812.997	21252
813.138	21443
813.279	21336
813.421	21241
813.562	21089
813.703	21043
813.845	20830
813.986	20526
814.127	20507
814.268	20339
814.41	20317
814.551	20290
814.692	20191
814.833	20157
814.974	20240
815.115	20267
815.256	20107
815.397	20168
815.539	20157
815.68	20058
815.821	20016
815.962	20081
816.103	19875
816.244	19928
816.385	19753
816.526	19776
816.666	19518
816.807	19434
816.948	19457
817.089	19590
817.23	19495
817.371	19381
817.512	19339
817.653	19396
817.793	19301
817.934	19457
818.075	19346
818.216	19400
818.356	19346
818.497	19171
818.638	19122
818.778	19038
818.919	19126
819.06	19228
819.2	19297
819.341	19335
819.481	19213
819.622	19495
819.762	19582
819.903	19472
820.043	19468
820.184	19384
820.324	19331
820.465	19407
820.605	19377
820.746	19331
820.886	19362
821.026	19285
821.167	19266
821.307	19441
821.447	19396
821.588	19148
821.728	19179
821.868	18973
822.008	18810
822.149	18787
822.289	18779
822.429	18570
822.569	18509
822.709	18399
822.849	18376
822.99	18277
823.13	18186
823.27	18319
823.41	18167
823.55	17969
823.69	18114
823.83	18095
823.97	18045
824.11	17965
824.25	17946
824.389	17931
824.529	17836
824.669	17790
824.809	17946
824.949	18041
825.089	17790
825.228	17843
825.368	17748
825.508	17729
825.648	17634
825.787	17695
825.927	17729
826.067	17543
826.206	17642
826.346	17722
826.485	17646
826.625	17570
826.765	17805
826.904	17630
827.044	17387
827.183	17349
827.323	17303
827.462	17486
827.601	17364
827.741	17299
827.88	17436
828.02	17121
828.159	17284
828.298	17353
828.437	17299
828.577	17345
828.716	17539
828.855	17181
828.994	17094
829.134	17071
829.273	17079
829.412	17159
829.551	17105
829.69	17003
829.829	17105
829.968	17239
830.107	17045
830.246	17113
830.385	17041
830.524	17003
830.663	16900
830.802	16797
830.941	16835
831.08	16729
831.219	16858
831.357	16824
831.496	17064
831.635	16774
831.774	16672
831.913	16596
832.051	16573
832.19	16588
832.329	16626
832.467	16443
832.606	16417
832.744	16337
832.883	16356
833.022	16356
833.16	16409
833.299	16527
833.437	16523
833.576	16485
833.714	16485
833.852	16542
833.991	16500
834.129	16565
834.267	16508
834.406	16466
834.544	16538
834.682	16584
834.821	16569
834.959	16672
835.097	16478
835.235	16565
835.373	16626
835.511	16569
835.65	16447
835.788	16443
835.926	16344
836.064	16204
836.202	16272
836.34	16474
836.478	16512
836.615	16462
836.753	16493
836.891	16489
837.029	16500
837.167	16455
837.305	16318
837.443	16276
837.58	16314
837.718	16325
837.856	16169
837.993	16188
838.131	16306
838.269	16181
838.406	16253
838.544	16192
838.681	15956
838.819	16029
838.956	15873
839.094	15892
839.231	15850
839.369	16044
839.506	16284
839.643	16112
839.781	15930
839.918	15739
840.055	15857
840.193	15819
840.33	15793
840.467	15797
840.604	15907
840.742	16173
840.879	15713
841.016	15724
841.153	15895
841.29	15911
841.427	15869
841.564	15918
841.701	15907
841.838	15774
841.975	15766
842.112	15743
842.249	15644
842.385	15572
842.522	15789
842.659	15641
842.796	15633
842.933	15576
843.069	15603
843.206	15686
843.343	15720
843.479	15663
843.616	15743
843.752	15405
843.889	15386
844.025	15549
844.162	15348
844.298	15561
844.435	15431
844.571	15355
844.708	15454
844.844	15439
844.98	15595
845.117	15530
845.253	15408
845.389	15260
845.525	15329
845.661	15283
845.798	15207
845.934	15154
846.07	15203
846.206	15230
846.342	15348
846.478	15222
846.614	15013
846.75	14948
846.886	14914
847.022	15100
847.158	14948
847.294	14990
847.429	15138
847.565	14906
847.701	15287
847.837	14724
847.972	14708
848.108	14842
848.244	14754
848.379	14579
848.515	14530
848.65	14636
848.786	14583
848.921	14632
849.057	14678
849.192	14697
849.328	14663
849.463	14606
849.598	14579
849.734	14533
849.869	14446
850.004	14374
850.14	14427
850.275	14343
850.41	14221
850.545	14240
850.68	14339
850.815	14347
850.95	14336
851.085	14465
851.22	14393
851.355	14355
851.49	14294
851.625	14332
851.76	14324
851.895	14290
852.03	14210
852.165	14332
852.299	14427
852.434	14442
852.569	14381
852.703	14370
852.838	14465
852.973	14434
853.107	14518
853.242	14225
853.376	14240
853.511	14107
853.645	14161
853.78	14301
853.914	14202
854.048	14210
854.183	14210
854.317	14206
854.451	14347
854.585	14252
854.72	14153
854.854	14298
854.988	14225
855.122	14191
855.256	14039
855.39	14172
855.524	14305
855.658	14202
855.792	14275
855.926	14313
856.06	14332
856.194	14320
856.327	14164
856.461	14153
856.595	14221
856.729	14225
856.862	14377
856.996	14278
857.13	14126
857.263	14256
857.397	14362
857.53	14240
857.664	14298
857.797	14282
857.931	14271
858.064	14282
858.197	14396
858.331	14176
858.464	14145
858.597	14054
858.731	14195
858.864	14183
858.997	14142
859.13	14218
859.263	14282
859.396	14282
859.529	14195
859.662	14286
859.795	14183
859.928	14100
860.061	14317
860.194	14408
860.327	14278
860.46	14275
860.592	14393
860.725	14328
860.858	14267
860.99	14191
861.123	14145
861.256	14103
861.388	14221
861.521	14845
861.653	14069
861.786	14062
861.918	14115
862.05	14202
862.183	14210
862.315	14290
862.447	14244
862.58	14225
862.712	14035
862.844	13970
862.976	14005
863.108	14016
863.24	14377
863.372	13947
863.504	14035
863.636	13955
863.768	14024
863.9	13955
864.032	13932
864.164	14008
864.296	14012
864.428	14096
864.559	14100
864.691	14043
864.823	14058
864.954	14043
865.086	14020
865.217	13970
865.349	13947
865.48	13974
865.612	14012
865.743	14054
865.875	13909
866.006	13936
866.137	13974
866.269	14069
866.4	13967
866.531	14001
866.662	14001
866.793	13970
866.924	13917
867.055	13936
867.186	13974
867.317	13951
867.448	13898
867.579	13909
867.71	13902
867.841	13951
867.972	14084
868.103	14008
868.233	13997
868.364	14016
868.495	14069
868.625	14267
868.756	14358
868.886	14149
869.017	14221
869.147	14385
869.278	14396
869.408	14259
869.539	14111
869.669	14298
869.799	14267
869.929	14290
870.06	14389
870.19	14537
870.32	14640
870.45	14492
870.58	14667
870.71	14777
870.84	14746
870.97	14598
871.1	14636
871.23	14705
871.36	14777
871.489	14678
871.619	14845
871.749	14842
871.879	14975
872.008	14925
872.138	14800
872.267	14842
872.397	14720
872.526	14739
872.656	14598
872.785	14735
872.915	14883
873.044	14891
873.173	14914
873.303	14941
873.432	14906
873.561	15017
873.69	14853
873.819	14887
873.948	14982
874.077	14933
874.206	14910
874.335	14914
874.464	14998
874.593	15207
874.722	15203
874.851	15241
874.979	15222
875.108	15230
875.237	15169
875.365	15150
875.494	15192
875.623	15275
875.751	15226
875.88	15294
876.008	15374
876.136	15496
876.265	15584
876.393	15770
876.521	15724
876.65	15644
876.778	15629
876.906	15652
877.034	15564
877.162	15603
877.29	15622
877.418	15614
877.546	15637
877.674	15618
877.802	15637
877.93	15633
878.058	15599
878.185	15572
878.313	15492
878.441	15587
878.568	15466
878.696	15507
878.824	15747
878.951	15690
879.079	15846
879.206	15892
879.333	15857
879.461	15770
879.588	15606
879.715	15800
879.842	16013
879.97	15686
880.097	15359
880.224	15469
880.351	15492
880.478	15496
880.605	15473
880.732	15447
880.859	15720
880.986	15443
881.112	15523
881.239	15428
881.366	15260
881.493	15241
881.619	15024
881.746	15180
881.872	15104
881.999	15214
882.125	15142
882.252	15135
882.378	15119
882.505	15165
882.631	15085
882.757	14937
882.883	14982
883.01	14994
883.136	14868
883.262	14804
883.388	14800
883.514	14971
883.64	15055
883.766	14967
883.892	14765
884.018	14868
884.143	14960
884.269	15081
884.395	14712
884.52	14724
884.646	14667
884.772	14644
884.897	14446
885.023	14765
885.148	14743
885.274	14769
885.399	14735
885.524	14636
885.65	14587
885.775	14727
885.9	14613
886.025	14796
886.15	14651
886.275	14575
886.4	14598
886.525	14644
886.65	14640
886.775	14594
886.9	14754
887.025	14762
887.149	14716
887.274	14499
887.399	14431
887.523	14503
887.648	14404
887.773	14317
887.897	14556
888.021	14533
888.146	14465
888.27	14606
888.395	14526
888.519	14495
888.643	14594
888.767	14552
888.891	14347
889.015	14347
889.139	14423
889.263	14229
889.387	14442
889.511	14564
889.635	14488
889.759	14313
889.883	14362
890.006	14294
890.13	14400
890.254	14278
890.377	14332
890.501	14157
890.624	14149
890.748	14286
890.871	14035
890.995	14008
891.118	13955
891.241	14084
891.364	14039
891.488	14195
891.611	14020
891.734	14088
891.857	14092
891.98	14058
892.103	14126
892.226	14069
892.349	14081
892.471	13902
892.594	13997
892.717	14065
892.839	14024
892.962	14138
893.085	14050
893.207	14092
893.33	13967
893.452	13970
893.575	14176
893.697	14035
893.819	14259
893.941	14263
894.064	14100
894.186	14088
894.308	14008
894.43	14240
894.552	14286
894.674	14233
894.796	14035
894.918	14096
895.04	14149
895.161	14187
895.283	14195
895.405	14001
895.526	14103
895.648	14058
895.769	14225
895.891	14248
896.012	14237
896.134	14259
896.255	14240
896.376	14183
896.498	14294
896.619	14237
896.74	14145
896.861	14244
896.982	14594
897.103	14750
897.224	14495
897.345	14564
897.466	14442
897.587	14484
897.708	14594
897.828	14522
897.949	14374
898.07	14438
898.19	14385
898.311	14670
898.431	14480
898.552	14507
898.672	14689
898.792	14670
898.913	14571
899.033	14579
899.153	14389
899.273	14393
899.393	14370
899.513	14423
899.633	14362
899.753	14442
899.873	14370
899.993	14537
900.113	14351
900.232	14488
900.352	14366
900.472	14324
900.591	14275
900.711	14294
900.83	14233
900.95	14408
901.069	14355
901.189	14244
901.308	13967
901.427	13944
901.546	13970
901.665	13936
901.784	13963
901.904	13822
902.023	13719
902.141	13609
902.26	13594
902.379	13624
902.498	13529
902.617	13426
902.735	13521
902.854	13586
902.973	13426
903.091	13221
903.21	13156
903.328	13335
903.446	13179
903.565	13110
903.683	13137
903.801	13023
903.919	13038
904.038	13000
904.156	12989
904.274	12996
904.392	12894
904.51	12954
904.627	12852
904.745	12913
904.863	12890
904.981	12738
905.098	12642
905.216	12703
905.334	12597
905.451	12623
905.569	12570
905.686	12639
905.803	12582
905.921	12353
906.038	12559
906.155	12479
906.272	12365
906.389	12384
906.506	12205
906.623	12258
906.74	12201
906.857	12049
906.974	12068
907.091	12281
907.208	12323
907.324	12258
907.441	12175
907.557	11980
907.674	11954
907.79	11870
907.907	11935
908.023	11927
908.139	12011
908.256	11843
908.372	11904
908.488	11904
908.604	11748
908.72	11638
908.836	11729
908.952	11703
909.068	11764
909.184	11878
909.3	11680
909.415	11786
909.531	11699
909.647	11490
909.762	11554
909.878	11505
909.993	11474
910.108	11543
910.224	11463
910.339	11436
910.454	11478
910.57	11288
910.685	11337
910.8	11577
910.915	11417
911.03	11368
911.145	11124
911.259	11147
911.374	11307
911.489	11121
911.604	11117
911.718	10957
911.833	10949
911.947	10866
912.062	10721
912.176	10889
912.291	10923
912.405	10919
912.519	11140
912.633	11140
912.748	10995
912.862	10987
912.976	10850
913.09	10725
913.204	10748
913.318	10755
913.431	10953
913.545	10908
913.659	10881
913.772	10873
913.886	10755
914	10653
914.113	10805
914.226	10896
914.34	10729
914.453	10656
914.566	10752
914.68	10679
914.793	10641
914.906	10436
915.019	10428
915.132	10386
915.245	10424
915.358	10432
915.47	10531
915.583	10481
915.696	10455
915.809	10527
915.921	10683
916.034	10466
916.146	10367
916.259	10451
916.371	10512
916.483	10504
916.595	10405
916.708	10352
916.82	10394
916.932	10360
917.044	10390
917.156	10405
917.268	10234
917.38	10238
917.491	10287
917.603	10227
917.715	10367
917.826	10417
917.938	10238
918.049	10150
918.161	10318
918.272	10402
918.384	10409
918.495	10325
918.606	10234
918.717	10105
918.828	10139
918.939	10158
919.05	10086
919.161	10139
919.272	9915
919.383	10006
919.494	10101
919.604	10405
919.715	10227
919.826	10169
919.936	10185
920.047	10253
920.157	10097
920.267	10375
920.378	10234
920.488	10268
920.598	10413
920.708	10485
920.818	10470
920.928	10352
921.038	10500
921.148	10565
921.258	10249
921.368	10139
921.477	10013
921.587	10105
921.697	9991
921.806	10044
921.916	9949
922.025	9812
922.134	9774
922.244	9720
922.353	9759
922.462	9648
922.571	9519
922.68	9435
922.789	9389
922.898	9401
923.007	9408
923.116	9454
923.224	9473
923.333	9447
923.442	9291
923.55	9283
923.659	9302
923.767	9378
923.876	9275
923.984	9389
924.092	9268
924.201	9268
924.309	9382
924.417	9378
924.525	9294
924.633	9351
924.741	10044
924.849	9093
924.956	9203
925.064	9055
925.172	8960
925.279	9131
925.387	9104
925.494	9058
925.602	9253
925.709	9169
925.816	8982
925.924	9142
926.031	9214
926.138	9093
926.245	9165
926.352	8952
926.459	9211
926.566	9211
926.673	9070
926.779	8895
926.886	8925
926.993	8845
927.099	8849
927.206	8735
927.312	8796
927.419	8845
927.525	8842
927.631	8845
927.737	8766
927.843	8766
927.95	8613
928.056	8746
928.162	8708
928.267	8746
928.373	9321
928.479	8788
928.585	8556
928.69	8686
928.796	8758
928.901	8682
929.007	8503
929.112	8667
929.218	8583
929.323	8518
929.428	8537
929.533	8602
929.638	8469
929.743	8533
929.848	8564
929.953	8461
930.058	8427
930.163	8240
930.267	8279
930.372	8412
930.477	8328
930.581	8549
930.685	8336
930.79	8202
930.894	8221
930.998	8252
931.103	8396
931.207	8016
931.311	8035
931.415	7955
931.519	7772
931.623	7647
