Data from test_V78500241_1139.txt Node
Date: Fri Mar 25 14:41:38 CST 2022
User: usil
Spectrometer: V785-0024
Trigger mode: 0
Integration Time (sec): 4.000000E-1
Scans to average: 1
Nonlinearity correction enabled: false
Boxcar width: 0
Storing dark spectrum: false
XAxis mode: Wavelengths
Number of Pixels in Spectrum: 1024
>>>>>Begin Spectral Data<<<<<
801.071	22611
801.214	22451
801.356	22268
801.499	22082
801.641	22040
801.783	21968
801.926	21949
802.068	21728
802.211	21755
802.353	21759
802.496	21553
802.638	21405
802.78	21363
802.923	21317
803.065	21150
803.208	21260
803.35	21180
803.492	21237
803.635	21275
803.777	21119
803.919	21256
804.061	21713
804.204	21348
804.346	21268
804.488	21157
804.63	21100
804.773	21039
804.915	21150
805.057	21302
805.199	21180
805.341	21233
805.483	21241
805.626	21256
805.768	21142
805.91	21203
806.052	21192
806.194	21028
806.336	21393
806.478	21211
806.62	21154
806.762	21283
806.904	21386
807.046	21648
807.188	21595
807.33	21587
807.472	21656
807.614	21469
807.756	21511
807.898	21401
808.04	21325
808.182	21496
808.324	21336
808.465	21473
808.607	21705
808.749	21880
808.891	21808
809.033	21991
809.174	21934
809.316	21778
809.458	21724
809.6	21724
809.741	21797
809.883	21816
810.025	21873
810.166	21899
810.308	21736
810.45	21736
810.591	21713
810.733	21530
810.875	21481
811.016	21321
811.158	21340
811.299	21466
811.441	21553
811.582	21401
811.724	21344
811.865	21321
812.007	21378
812.148	21538
812.29	21329
812.431	21549
812.573	21671
812.714	21739
812.855	21895
812.997	21983
813.138	21998
813.279	21949
813.421	21865
813.562	21751
813.703	21591
813.845	21549
813.986	21321
814.127	21161
814.268	20998
814.41	21039
814.551	20956
814.692	20876
814.833	20918
814.974	20887
815.115	20823
815.256	20796
815.397	20823
815.539	20739
815.68	20731
815.821	20629
815.962	20781
816.103	20651
816.244	20480
816.385	20469
816.526	20514
816.666	20263
816.807	19978
816.948	20206
817.089	20172
817.23	20263
817.371	20073
817.512	20145
817.653	20096
817.793	20077
817.934	20164
818.075	20161
818.216	20107
818.356	19951
818.497	19978
818.638	19651
818.778	19757
818.919	19753
819.06	19784
819.2	19940
819.341	19928
819.481	19947
819.622	20062
819.762	20396
819.903	20157
820.043	20122
820.184	20145
820.324	20012
820.465	20115
820.605	20077
820.746	20100
820.886	19951
821.026	19894
821.167	20035
821.307	20161
821.447	20069
821.588	19860
821.728	19807
821.868	19677
822.008	19384
822.149	19525
822.289	19476
822.429	19240
822.569	19141
822.709	19095
822.849	18894
822.99	18928
823.13	19012
823.27	18878
823.41	18757
823.55	18787
823.69	18715
823.83	18802
823.97	18684
824.11	18544
824.25	18540
824.389	18563
824.529	18631
824.669	18559
824.809	18635
824.949	18623
825.089	18570
825.228	18540
825.368	18372
825.508	18414
825.648	18437
825.787	18289
825.927	18391
826.067	18289
826.206	18327
826.346	18315
826.485	18209
826.625	18281
826.765	18456
826.904	18361
827.044	18053
827.183	18003
827.323	17977
827.462	18114
827.601	18087
827.741	18049
827.88	17996
828.02	17958
828.159	17950
828.298	18015
828.437	18049
828.577	18034
828.716	18194
828.855	17908
828.994	17794
829.134	17741
829.273	17775
829.412	17703
829.551	17767
829.69	17668
829.829	17752
829.968	17832
830.107	17882
830.246	17847
830.385	17767
830.524	17649
830.663	17501
830.802	17509
830.941	17452
831.08	17395
831.219	17497
831.357	17368
831.496	17528
831.635	17459
831.774	17216
831.913	17246
832.051	17071
832.19	17105
832.329	17239
832.467	17071
832.606	17208
832.744	17048
832.883	17067
833.022	17204
833.16	17189
833.299	17136
833.437	17174
833.576	17140
833.714	17178
833.852	17174
833.991	17269
834.129	17166
834.267	17162
834.406	17155
834.544	17197
834.682	17216
834.821	17086
834.959	17307
835.097	17071
835.235	17136
835.373	17200
835.511	17155
835.65	17071
835.788	16980
835.926	16911
836.064	16930
836.202	16900
836.34	17170
836.478	17143
836.615	17067
836.753	17014
836.891	17200
837.029	17083
837.167	17185
837.305	17052
837.443	17018
837.58	16881
837.718	17083
837.856	16961
837.993	17033
838.131	16949
838.269	16889
838.406	16911
838.544	16866
838.681	16713
838.819	16588
838.956	16516
839.094	16470
839.231	16527
839.369	16618
839.506	16896
839.643	16702
839.781	16500
839.918	16466
840.055	16497
840.193	16474
840.33	16417
840.467	16558
840.604	16436
840.742	16752
840.879	16367
841.016	16356
841.153	16375
841.29	16569
841.427	16508
841.564	16379
841.701	16512
841.838	16481
841.975	16428
842.112	16390
842.249	16238
842.385	16139
842.522	16344
842.659	16325
842.796	16287
842.933	16329
843.069	16177
843.206	16169
843.343	16341
843.479	16188
843.616	16428
843.752	16097
843.889	16135
844.025	16177
844.162	15930
844.298	16074
844.435	16017
844.571	15991
844.708	16112
844.844	16196
844.98	16124
845.117	16131
845.253	15994
845.389	15964
845.525	16051
845.661	16097
845.798	16071
845.934	16223
846.07	16006
846.206	16188
846.342	16105
846.478	16048
846.614	15739
846.75	15656
846.886	15701
847.022	15759
847.158	15572
847.294	15606
847.429	15622
847.565	15625
847.701	15819
847.837	15363
847.972	15283
848.108	15439
848.244	15435
848.379	15199
848.515	15233
848.65	15154
848.786	15184
848.921	15119
849.057	15336
849.192	15214
849.328	15275
849.463	15203
849.598	15131
849.734	15131
849.869	14986
850.004	15085
850.14	14982
850.275	14842
850.41	14845
850.545	14834
850.68	14982
850.815	15039
850.95	14929
851.085	15047
851.22	14994
851.355	15032
851.49	14979
851.625	14948
851.76	14948
851.895	14880
852.03	14807
852.165	14929
852.299	14960
852.434	15039
852.569	15028
852.703	15009
852.838	15070
852.973	15180
853.107	15058
853.242	14948
853.376	14781
853.511	14663
853.645	14891
853.78	14880
853.914	14785
854.048	14746
854.183	14792
854.317	14815
854.451	14998
854.585	14735
854.72	14842
854.854	14796
854.988	14765
855.122	14811
855.256	14727
855.39	14727
855.524	14800
855.658	14864
855.792	14857
855.926	14857
856.06	14857
856.194	14990
856.327	14880
856.461	14853
856.595	14788
856.729	14758
856.862	14933
856.996	14925
857.13	14933
857.263	14921
857.397	14918
857.53	14849
857.664	14887
857.797	14941
857.931	14929
858.064	14849
858.197	15005
858.331	14750
858.464	14800
858.597	14731
858.731	14792
858.864	14880
858.997	14792
859.13	14773
859.263	14842
859.396	14815
859.529	14815
859.662	14826
859.795	14739
859.928	14906
860.061	15001
860.194	14994
860.327	14929
860.46	14834
860.592	14921
860.725	14857
860.858	14857
860.99	14792
861.123	14910
861.256	14842
861.388	14765
861.521	15507
861.653	14708
861.786	14678
861.918	14621
862.05	14743
862.183	14773
862.315	14815
862.447	14906
862.58	14823
862.712	14583
862.844	14579
862.976	14708
863.108	14629
863.24	15077
863.372	14522
863.504	14533
863.636	14640
863.768	14670
863.9	14575
864.032	14556
864.164	14590
864.296	14693
864.428	14716
864.559	14716
864.691	14670
864.823	14758
864.954	14621
865.086	14655
865.217	14613
865.349	14545
865.48	14693
865.612	14583
865.743	14689
865.875	14556
866.006	14564
866.137	14564
866.269	14602
866.4	14579
866.531	14575
866.662	14613
866.793	14507
866.924	14522
867.055	14640
867.186	14670
867.317	14499
867.448	14571
867.579	14511
867.71	14454
867.841	14480
867.972	14442
868.103	14583
868.233	14587
868.364	14625
868.495	14598
868.625	14731
868.756	14925
868.886	14705
869.017	14667
869.147	14838
869.278	14880
869.408	14914
869.539	14842
869.669	14956
869.799	14902
869.929	14842
870.06	14883
870.19	15203
870.32	15100
870.45	15203
870.58	15173
870.71	15252
870.84	15233
870.97	15169
871.1	15245
871.23	15378
871.36	15344
871.489	15268
871.619	15321
871.749	15382
871.879	15393
872.008	15477
872.138	15344
872.267	15378
872.397	15268
872.526	15097
872.656	15199
872.785	15199
872.915	15538
873.044	15553
873.173	15473
873.303	15538
873.432	15504
873.561	15542
873.69	15515
873.819	15492
873.948	15549
874.077	15466
874.206	15344
874.335	15523
874.464	15587
874.593	15717
874.722	15774
874.851	15804
874.979	15869
875.108	15941
875.237	15778
875.365	15686
875.494	15690
875.623	15907
875.751	15705
875.88	15732
876.008	15911
876.136	15945
876.265	16150
876.393	16318
876.521	16181
876.65	16192
876.778	16166
876.906	16200
877.034	16109
877.162	16147
877.29	16204
877.418	16169
877.546	16272
877.674	16204
877.802	16242
877.93	16226
878.058	16139
878.185	16013
878.313	16181
878.441	16101
878.568	16097
878.696	16090
878.824	16223
878.951	16363
879.079	16344
879.206	16565
879.333	16466
879.461	16390
879.588	16523
879.715	16527
879.842	16599
879.97	16432
880.097	16158
880.224	16055
880.351	16097
880.478	16116
880.605	15953
880.732	16147
880.859	16344
880.986	16101
881.112	16154
881.239	15926
881.366	15755
881.493	15781
881.619	15743
881.746	15713
881.872	15755
881.999	15679
882.125	15800
882.252	15880
882.378	15770
882.505	15797
882.631	15724
882.757	15504
882.883	15526
883.01	15519
883.136	15412
883.262	15363
883.388	15378
883.514	15485
883.64	15622
883.766	15443
883.892	15405
884.018	15408
884.143	15515
884.269	15618
884.395	15313
884.52	15264
884.646	15211
884.772	15154
884.897	15199
885.023	15218
885.148	15291
885.274	15424
885.399	15405
885.524	15313
885.65	15233
885.775	15306
885.9	15142
886.025	15325
886.15	15272
886.275	15207
886.4	15154
886.525	15188
886.65	15195
886.775	15150
886.9	15374
887.025	15443
887.149	15272
887.274	15024
887.399	15047
887.523	14967
887.648	14952
887.773	14994
887.897	15161
888.021	15138
888.146	14944
888.27	15188
888.395	15154
888.519	15051
888.643	15176
888.767	15070
888.891	14975
889.015	14929
889.139	14979
889.263	14883
889.387	14979
889.511	15024
889.635	15001
889.759	14887
889.883	14891
890.006	14918
890.13	14880
890.254	14788
890.377	14830
890.501	14731
890.624	14610
890.748	14815
890.871	14617
890.995	14484
891.118	14514
891.241	14594
891.364	14537
891.488	14697
891.611	14537
891.734	14587
891.857	14606
891.98	14549
892.103	14731
892.226	14625
892.349	14568
892.471	14434
892.594	14594
892.717	14689
892.839	14549
892.962	14545
893.085	14610
893.207	14564
893.33	14514
893.452	14518
893.575	14648
893.697	14541
893.819	14697
893.941	14773
894.064	14663
894.186	14507
894.308	14454
894.43	14651
894.552	14724
894.674	14625
894.796	14552
894.918	14541
895.04	14644
895.161	14613
895.283	14689
895.405	14667
895.526	14716
895.648	14644
895.769	14689
895.891	14788
896.012	14857
896.134	14735
896.255	14686
896.376	14667
896.498	14663
896.619	14826
896.74	14659
896.861	14849
896.982	15009
897.103	15154
897.224	14967
897.345	14925
897.466	14925
897.587	15036
897.708	15024
897.828	15211
897.949	14956
898.07	14788
898.19	14910
898.311	15062
898.431	15024
898.552	15036
898.672	15119
898.792	15131
898.913	15043
899.033	15089
899.153	14849
899.273	14880
899.393	14895
899.513	14948
899.633	14868
899.753	14937
899.873	14880
899.993	15013
900.113	14868
900.232	14963
900.352	14762
900.472	14731
900.591	14697
900.711	14838
900.83	14659
900.95	14845
901.069	14849
901.189	14807
901.308	14457
901.427	14404
901.546	14438
901.665	14484
901.784	14488
901.904	14298
902.023	14199
902.141	14103
902.26	14005
902.379	14119
902.498	13967
902.617	13913
902.735	14008
902.854	14027
902.973	13909
903.091	13708
903.21	13742
903.328	13582
903.446	13613
903.565	13533
903.683	13571
903.801	13434
903.919	13518
904.038	13529
904.156	13331
904.274	13400
904.392	13384
904.51	13384
904.627	13445
904.745	13419
904.863	13343
904.981	13156
905.098	12958
905.216	13072
905.334	13027
905.451	13012
905.569	12977
905.686	13042
905.803	13091
905.921	12886
906.038	12916
906.155	12844
906.272	12726
906.389	12776
906.506	12677
906.623	12650
906.74	12665
906.857	12662
906.974	12646
907.091	12684
907.208	12806
907.324	12631
907.441	12532
907.557	12353
907.674	12441
907.79	12414
907.907	12289
908.023	12376
908.139	12384
908.256	12346
908.372	12296
908.488	12235
908.604	12106
908.72	12117
908.836	12117
908.952	12064
909.068	12140
909.184	12319
909.3	12140
909.415	12235
909.531	12114
909.647	11946
909.762	11901
909.878	11893
909.993	11843
910.108	11847
910.224	11786
910.339	11901
910.454	11832
910.57	11805
910.685	11630
910.8	11958
910.915	11931
911.03	11809
911.145	11611
911.259	11630
911.374	11630
911.489	11543
911.604	11452
911.718	11250
911.833	11356
911.947	11178
912.062	11197
912.176	11322
912.291	11360
912.405	11307
912.519	11581
912.633	11558
912.748	11440
912.862	11391
912.976	11102
913.09	11105
913.204	11121
913.318	11220
913.431	11220
913.545	11277
913.659	11303
913.772	11235
913.886	11147
914	11048
914.113	11140
914.226	11258
914.34	11189
914.453	11003
914.566	11162
914.68	11098
914.793	11041
914.906	10778
915.019	10797
915.132	10774
915.245	10828
915.358	10938
915.47	10866
915.583	10835
915.696	10889
915.809	11029
915.921	11045
916.034	10885
916.146	10797
916.259	10801
916.371	10866
916.483	10828
916.595	10675
916.708	10774
916.82	10782
916.932	10691
917.044	10736
917.156	10755
917.268	10675
917.38	10649
917.491	10664
917.603	10687
917.715	10725
917.826	10721
917.938	10641
918.049	10558
918.161	10634
918.272	10805
918.384	10786
918.495	10675
918.606	10519
918.717	10398
918.828	10577
918.939	10561
919.05	10413
919.161	10542
919.272	10284
919.383	10390
919.494	10527
919.604	10683
919.715	10546
919.826	10451
919.936	10497
920.047	10641
920.157	10550
920.267	10778
920.378	10596
920.488	10512
920.598	10755
920.708	10839
920.818	10717
920.928	10809
921.038	10854
921.148	10892
921.258	10577
921.368	10459
921.477	10337
921.587	10379
921.697	10204
921.806	10432
921.916	10303
922.025	10082
922.134	10093
922.244	10010
922.353	10078
922.462	9934
922.571	9964
922.68	9762
922.789	9698
922.898	9743
923.007	9705
923.116	9827
923.224	9740
923.333	9709
923.442	9595
923.55	9603
923.659	9694
923.767	9720
923.876	9580
923.984	9663
924.092	9568
924.201	9671
924.309	9633
924.417	9618
924.525	9523
924.633	9587
924.741	10398
924.849	9351
924.956	9599
925.064	9420
925.172	9370
925.279	9374
925.387	9439
925.494	9389
925.602	9454
925.709	9545
925.816	9386
925.924	9378
926.031	9477
926.138	9416
926.245	9477
926.352	9401
926.459	9523
926.566	9511
926.673	9363
926.779	9321
926.886	9173
926.993	9169
927.099	9154
927.206	9070
927.312	9119
927.419	9150
927.525	9127
927.631	9116
927.737	9028
927.843	8956
927.95	8861
928.056	9028
928.162	9013
928.267	9047
928.373	9663
928.479	9051
928.585	8868
928.69	8998
928.796	9036
928.901	8956
929.007	8648
929.112	8918
929.218	8842
929.323	8861
929.428	8800
929.533	8937
929.638	8762
929.743	8800
929.848	8861
929.953	8815
930.058	8724
930.163	8503
930.267	8568
930.372	8686
930.477	8526
930.581	8731
930.685	8686
930.79	8522
930.894	8507
930.998	8484
931.103	8678
931.207	8320
931.311	8252
931.415	8149
931.519	7978
931.623	8039
