Data from test_V78500241_3716.txt Node
Date: Fri Mar 25 14:59:35 CST 2022
User: usil
Spectrometer: V785-0024
Trigger mode: 0
Integration Time (sec): 4.000000E-1
Scans to average: 1
Nonlinearity correction enabled: false
Boxcar width: 0
Storing dark spectrum: false
XAxis mode: Wavelengths
Number of Pixels in Spectrum: 1024
>>>>>Begin Spectral Data<<<<<
801.071	21915
801.214	21838
801.356	21507
801.499	21523
801.641	21340
801.783	21291
801.926	21264
802.068	21211
802.211	21195
802.353	21146
802.496	20838
802.638	20743
802.78	20648
802.923	20541
803.065	20514
803.208	20514
803.35	20609
803.492	20579
803.635	20746
803.777	20457
803.919	20613
804.061	21017
804.204	20678
804.346	20461
804.488	20522
804.63	20560
804.773	20556
804.915	20492
805.057	20590
805.199	20446
805.341	20514
805.483	20613
805.626	20575
805.768	20461
805.91	20541
806.052	20434
806.194	20389
806.336	20484
806.478	20454
806.62	20336
806.762	20594
806.904	20663
807.046	20815
807.188	20765
807.33	20864
807.472	20887
807.614	20765
807.756	20644
807.898	20568
808.04	20598
808.182	20476
808.324	20598
808.465	20560
808.607	20910
808.749	20838
808.891	21036
809.033	21005
809.174	20876
809.316	20861
809.458	20739
809.6	20777
809.741	20868
809.883	20990
810.025	21024
810.166	21017
810.308	21039
810.45	20910
810.591	20811
810.733	20746
810.875	20511
811.016	20446
811.158	20530
811.299	20621
811.441	20693
811.582	20689
811.724	20469
811.865	20488
812.007	20583
812.148	20590
812.29	20598
812.431	20830
812.573	20887
812.714	21100
812.855	21043
812.997	21104
813.138	21283
813.279	21203
813.421	21150
813.562	20952
813.703	20845
813.845	20629
813.986	20503
814.127	20267
814.268	20180
814.41	20191
814.551	20282
814.692	20138
814.833	20161
814.974	20115
815.115	20134
815.256	20054
815.397	20081
815.539	19970
815.68	19883
815.821	19830
815.962	19860
816.103	19917
816.244	19696
816.385	19662
816.526	19544
816.666	19407
816.807	19202
816.948	19373
817.089	19369
817.23	19217
817.371	19190
817.512	19232
817.653	19285
817.793	19206
817.934	19244
818.075	19285
818.216	19324
818.356	19236
818.497	19088
818.638	18973
818.778	18939
818.919	19027
819.06	19000
819.2	19141
819.341	19088
819.481	19164
819.622	19259
819.762	19480
819.903	19464
820.043	19369
820.184	19270
820.324	19263
820.465	19320
820.605	19126
820.746	19331
820.886	19095
821.026	19266
821.167	19259
821.307	19251
821.447	19232
821.588	19069
821.728	18932
821.868	18779
822.008	18589
822.149	18734
822.289	18631
822.429	18506
822.569	18365
822.709	18407
822.849	18247
822.99	18220
823.13	18171
823.27	18106
823.41	18007
823.55	17954
823.69	17973
823.83	18003
823.97	17821
824.11	17699
824.25	17699
824.389	17733
824.529	17779
824.669	17714
824.809	17687
824.949	17840
825.089	17821
825.228	17718
825.368	17581
825.508	17512
825.648	17562
825.787	17638
825.927	17619
826.067	17516
826.206	17505
826.346	17589
826.485	17646
826.625	17501
826.765	17543
826.904	17562
827.044	17299
827.183	17261
827.323	17178
827.462	17212
827.601	17231
827.741	17189
827.88	17246
828.02	17102
828.159	17220
828.298	17216
828.437	17242
828.577	17090
828.716	17349
828.855	17170
828.994	17025
829.134	17014
829.273	16896
829.412	16927
829.551	16900
829.69	16858
829.829	16965
829.968	17037
830.107	17071
830.246	16934
830.385	17029
830.524	16889
830.663	16866
830.802	16740
830.941	16603
831.08	16558
831.219	16713
831.357	16611
831.496	16831
831.635	16580
831.774	16558
831.913	16561
832.051	16375
832.19	16318
832.329	16333
832.467	16276
832.606	16242
832.744	16192
832.883	16284
833.022	16299
833.16	16310
833.299	16367
833.437	16306
833.576	16291
833.714	16363
833.852	16440
833.991	16386
834.129	16470
834.267	16474
834.406	16341
834.544	16398
834.682	16424
834.821	16325
834.959	16596
835.097	16356
835.235	16447
835.373	16405
835.511	16344
835.65	16261
835.788	16253
835.926	16219
836.064	16128
836.202	16109
836.34	16280
836.478	16333
836.615	16329
836.753	16246
836.891	16447
837.029	16314
837.167	16272
837.305	16177
837.443	16158
837.58	16139
837.718	16147
837.856	16238
837.993	16101
838.131	16120
838.269	16090
838.406	16051
838.544	15956
838.681	15857
838.819	15819
838.956	15633
839.094	15720
839.231	15812
839.369	15823
839.506	16101
839.643	15899
839.781	15648
839.918	15633
840.055	15675
840.193	15587
840.33	15660
840.467	15663
840.604	15736
840.742	15949
840.879	15530
841.016	15679
841.153	15701
841.29	15724
841.427	15663
841.564	15785
841.701	15644
841.838	15698
841.975	15530
842.112	15648
842.249	15564
842.385	15439
842.522	15599
842.659	15481
842.796	15386
842.933	15511
843.069	15401
843.206	15454
843.343	15530
843.479	15485
843.616	15580
843.752	15306
843.889	15256
844.025	15488
844.162	15351
844.298	15424
844.435	15237
844.571	15150
844.708	15363
844.844	15416
844.98	15336
845.117	15374
845.253	15294
845.389	15192
845.525	15264
845.661	15211
845.798	15077
845.934	15039
846.07	15066
846.206	15222
846.342	15226
846.478	15157
846.614	14979
846.75	14883
846.886	14758
847.022	14963
847.158	14777
847.294	14876
847.429	14902
847.565	14864
847.701	15062
847.837	14629
847.972	14590
848.108	14663
848.244	14644
848.379	14431
848.515	14499
848.65	14358
848.786	14461
848.921	14427
849.057	14587
849.192	14583
849.328	14438
849.463	14530
849.598	14419
849.734	14343
849.869	14324
850.004	14294
850.14	14252
850.275	14210
850.41	14126
850.545	14073
850.68	14191
850.815	14240
850.95	14111
851.085	14309
851.22	14275
851.355	14252
851.49	14088
851.625	14210
851.76	14176
851.895	14206
852.03	14092
852.165	14180
852.299	14256
852.434	14271
852.569	14214
852.703	14168
852.838	14237
852.973	14347
853.107	14355
853.242	14134
853.376	14161
853.511	14016
853.645	13997
853.78	14195
853.914	14050
854.048	14111
854.183	14050
854.317	14172
854.451	14225
854.585	14081
854.72	14115
854.854	14199
854.988	14024
855.122	13963
855.256	14001
855.39	14092
855.524	14111
855.658	14115
855.792	14103
855.926	14012
856.06	14168
856.194	14267
856.327	14062
856.461	14126
856.595	14039
856.729	14100
856.862	14130
856.996	14123
857.13	14286
857.263	14138
857.397	14180
857.53	14081
857.664	14164
857.797	14119
857.931	14286
858.064	14248
858.197	14123
858.331	14107
858.464	14050
858.597	14069
858.731	14077
858.864	14020
858.997	14100
859.13	14191
859.263	14058
859.396	14073
859.529	14039
859.662	14050
859.795	14027
859.928	14164
860.061	14317
860.194	14278
860.327	14153
860.46	14084
860.592	14191
860.725	14210
860.858	14244
860.99	14005
861.123	13989
861.256	14050
861.388	14145
861.521	14796
861.653	14054
861.786	13898
861.918	13974
862.05	13951
862.183	14077
862.315	14073
862.447	14138
862.58	13978
862.712	13902
862.844	13772
862.976	13970
863.108	13940
863.24	14313
863.372	13761
863.504	13860
863.636	13875
863.768	13902
863.9	13936
864.032	13860
864.164	13814
864.296	13822
864.428	13955
864.559	13909
864.691	14024
864.823	13947
864.954	14039
865.086	13818
865.217	13811
865.349	13814
865.48	13875
865.612	13826
865.743	13997
865.875	13799
866.006	13826
866.137	13814
866.269	13883
866.4	13833
866.531	13818
866.662	13753
866.793	13761
866.924	13693
867.055	13856
867.186	13906
867.317	13879
867.448	13784
867.579	13731
867.71	13723
867.841	13738
867.972	13856
868.103	13795
868.233	13928
868.364	13807
868.495	13970
868.625	14123
868.756	14244
868.886	14096
869.017	14027
869.147	14172
869.278	14206
869.408	14084
869.539	14153
869.669	14168
869.799	14172
869.929	14278
870.06	14290
870.19	14434
870.32	14518
870.45	14393
870.58	14450
870.71	14598
870.84	14568
870.97	14583
871.1	14533
871.23	14686
871.36	14777
871.489	14613
871.619	14708
871.749	14640
871.879	14849
872.008	14872
872.138	14895
872.267	14800
872.397	14610
872.526	14579
872.656	14480
872.785	14610
872.915	14826
873.044	14891
873.173	14781
873.303	14815
873.432	14785
873.561	14849
873.69	14754
873.819	14758
873.948	14876
874.077	14880
874.206	14845
874.335	14800
874.464	14967
874.593	15070
874.722	14994
874.851	15116
874.979	15119
875.108	15123
875.237	15081
875.365	15028
875.494	15043
875.623	15192
875.751	15138
875.88	15150
876.008	15336
876.136	15260
876.265	15591
876.393	15686
876.521	15713
876.65	15584
876.778	15633
876.906	15454
877.034	15515
877.162	15477
877.29	15492
877.418	15519
877.546	15519
877.674	15599
877.802	15545
877.93	15523
878.058	15481
878.185	15584
878.313	15523
878.441	15534
878.568	15473
878.696	15488
878.824	15504
878.951	15603
879.079	15755
879.206	15895
879.333	15717
879.461	15701
879.588	15686
879.715	15720
879.842	15888
879.97	15663
880.097	15367
880.224	15374
880.351	15416
880.478	15378
880.605	15329
880.732	15386
880.859	15667
880.986	15428
881.112	15405
881.239	15363
881.366	15154
881.493	15150
881.619	15127
881.746	15051
881.872	15058
881.999	15005
882.125	14998
882.252	15051
882.378	15047
882.505	15176
882.631	15058
882.757	14823
882.883	14842
883.01	14910
883.136	14864
883.262	14708
883.388	14674
883.514	14838
883.64	14883
883.766	14823
883.892	14705
884.018	14678
884.143	14921
884.269	14861
884.395	14716
884.52	14636
884.646	14571
884.772	14503
884.897	14511
885.023	14571
885.148	14594
885.274	14716
885.399	14758
885.524	14560
885.65	14446
885.775	14533
885.9	14564
886.025	14655
886.15	14560
886.275	14556
886.4	14476
886.525	14575
886.65	14522
886.775	14549
886.9	14705
887.025	14792
887.149	14442
887.274	14275
887.399	14396
887.523	14347
887.648	14252
887.773	14374
887.897	14564
888.021	14400
888.146	14385
888.27	14492
888.395	14499
888.519	14434
888.643	14469
888.767	14457
888.891	14263
889.015	14195
889.139	14275
889.263	14298
889.387	14438
889.511	14427
889.635	14385
889.759	14282
889.883	14248
890.006	14317
890.13	14446
890.254	14206
890.377	14271
890.501	14065
890.624	13989
890.748	14210
890.871	13906
890.995	13967
891.118	13917
891.241	14027
891.364	14012
891.488	14100
891.611	13970
891.734	13970
891.857	14043
891.98	14073
892.103	14027
892.226	14065
892.349	13982
892.471	13727
892.594	13898
892.717	13951
892.839	13925
892.962	13978
893.085	13970
893.207	13955
893.33	13830
893.452	13898
893.575	14020
893.697	14005
893.819	14202
893.941	14210
894.064	14191
894.186	13974
894.308	13993
894.43	14100
894.552	14225
894.674	14058
894.796	14005
894.918	14027
895.04	14005
895.161	14103
895.283	14024
895.405	13944
895.526	14142
895.648	14123
895.769	14081
895.891	14111
896.012	14176
896.134	14153
896.255	14176
896.376	14065
896.498	14126
896.619	14096
896.74	14183
896.861	14161
896.982	14408
897.103	14682
897.224	14358
897.345	14366
897.466	14370
897.587	14347
897.708	14549
897.828	14423
897.949	14396
898.07	14313
898.19	14301
898.311	14606
898.431	14446
898.552	14541
898.672	14594
898.792	14552
898.913	14446
899.033	14465
899.153	14263
899.273	14282
899.393	14343
899.513	14347
899.633	14377
899.753	14347
899.873	14298
899.993	14423
900.113	14374
900.232	14374
900.352	14343
900.472	14278
900.591	14183
900.711	14267
900.83	14126
900.95	14256
901.069	14301
901.189	14073
901.308	13928
901.427	13841
901.546	13944
901.665	13997
901.784	13902
901.904	13772
902.023	13731
902.141	13537
902.26	13407
902.379	13483
902.498	13510
902.617	13327
902.735	13468
902.854	13487
902.973	13369
903.091	13190
903.21	13187
903.328	13164
903.446	13057
903.565	13000
903.683	13023
903.801	12878
903.919	13088
904.038	12966
904.156	12913
904.274	12897
904.392	12829
904.51	12878
904.627	12825
904.745	12863
904.863	12962
904.981	12703
905.098	12555
905.216	12445
905.334	12570
905.451	12559
905.569	12563
905.686	12589
905.803	12513
905.921	12391
906.038	12464
906.155	12372
906.272	12270
906.389	12311
906.506	12167
906.623	12171
906.74	12152
906.857	12034
906.974	12083
907.091	12194
907.208	12308
907.324	12205
907.441	12068
907.557	11859
907.674	11874
907.79	11885
907.907	11859
908.023	11851
908.139	11836
908.256	11817
908.372	11840
908.488	11760
908.604	11676
908.72	11604
908.836	11611
908.952	11600
909.068	11676
909.184	11707
909.3	11657
909.415	11752
909.531	11577
909.647	11425
909.762	11486
909.878	11402
909.993	11501
910.108	11452
910.224	11406
910.339	11376
910.454	11341
910.57	11235
910.685	11189
910.8	11478
910.915	11379
911.03	11311
911.145	11170
911.259	11132
911.374	11098
911.489	11010
911.604	11003
911.718	10889
911.833	10896
911.947	10786
912.062	10725
912.176	10835
912.291	10927
912.405	10904
912.519	11086
912.633	11117
912.748	10991
912.862	10904
912.976	10778
913.09	10599
913.204	10664
913.318	10816
913.431	10831
913.545	10793
913.659	10824
913.772	10714
913.886	10656
914	10656
914.113	10744
914.226	10767
914.34	10698
914.453	10603
914.566	10759
914.68	10656
914.793	10599
914.906	10371
915.019	10432
915.132	10314
915.245	10348
915.358	10409
915.47	10447
915.583	10352
915.696	10413
915.809	10558
915.921	10481
916.034	10341
916.146	10306
916.259	10360
916.371	10516
916.483	10504
916.595	10257
916.708	10341
916.82	10344
916.932	10367
917.044	10333
917.156	10333
917.268	10230
917.38	10196
917.491	10219
917.603	10219
917.715	10287
917.826	10363
917.938	10196
918.049	10116
918.161	10276
918.272	10363
918.384	10409
918.495	10291
918.606	10074
918.717	10010
918.828	10128
918.939	10128
919.05	10074
919.161	10147
919.272	9899
919.383	9953
919.494	10162
919.604	10325
919.715	10101
919.826	10051
919.936	10120
920.047	10135
920.157	10177
920.267	10333
920.378	10131
920.488	10188
920.598	10333
920.708	10443
920.818	10363
920.928	10371
921.038	10447
921.148	10599
921.258	10166
921.368	10082
921.477	10010
921.587	9975
921.697	9892
921.806	10067
921.916	9827
922.025	9762
922.134	9709
922.244	9709
922.353	9793
922.462	9603
922.571	9564
922.68	9435
922.789	9374
922.898	9348
923.007	9310
923.116	9462
923.224	9370
923.333	9447
923.442	9260
923.55	9245
923.659	9291
923.767	9348
923.876	9237
923.984	9325
924.092	9138
924.201	9237
924.309	9310
924.417	9313
924.525	9283
924.633	9249
924.741	10055
924.849	9058
924.956	9207
925.064	9036
925.172	8948
925.279	8948
925.387	9089
925.494	9051
925.602	9142
925.709	9074
925.816	9001
925.924	9043
926.031	9154
926.138	8975
926.245	9047
926.352	9024
926.459	9070
926.566	9169
926.673	8963
926.779	8933
926.886	8921
926.993	8800
927.099	8815
927.206	8724
927.312	8674
927.419	8800
927.525	8750
927.631	8838
927.737	8762
927.843	8613
927.95	8541
928.056	8545
928.162	8670
928.267	8693
928.373	9291
928.479	8750
928.585	8560
928.69	8648
928.796	8686
928.901	8556
929.007	8434
929.112	8617
929.218	8579
929.323	8476
929.428	8465
929.533	8594
929.638	8377
929.743	8461
929.848	8526
929.953	8431
930.058	8427
930.163	8313
930.267	8290
930.372	8454
930.477	8157
930.581	8495
930.685	8362
930.79	8221
930.894	8229
930.998	8168
931.103	8324
931.207	7913
931.311	7841
931.415	7860
931.519	7628
931.623	7715
