Data from test_V78500241_2659.txt Node
Date: Fri Mar 25 14:52:13 CST 2022
User: usil
Spectrometer: V785-0024
Trigger mode: 0
Integration Time (sec): 4.000000E-1
Scans to average: 1
Nonlinearity correction enabled: false
Boxcar width: 0
Storing dark spectrum: false
XAxis mode: Wavelengths
Number of Pixels in Spectrum: 1024
>>>>>Begin Spectral Data<<<<<
801.071	22044
801.214	21770
801.356	21618
801.499	21720
801.641	21374
801.783	21405
801.926	21336
802.068	21283
802.211	21230
802.353	20967
802.496	21028
802.638	20861
802.78	20765
802.923	20849
803.065	20712
803.208	20617
803.35	20811
803.492	20819
803.635	20777
803.777	20667
803.919	20655
804.061	21036
804.204	20735
804.346	20568
804.488	20560
804.63	20625
804.773	20526
804.915	20674
805.057	20716
805.199	20621
805.341	20644
805.483	20769
805.626	20773
805.768	20488
805.91	20651
806.052	20655
806.194	20549
806.336	20724
806.478	20625
806.62	20438
806.762	20621
806.904	20796
807.046	20998
807.188	20967
807.33	20967
807.472	20979
807.614	20838
807.756	20762
807.898	20754
808.04	20712
808.182	20606
808.324	20606
808.465	20697
808.607	20849
808.749	20963
808.891	21112
809.033	21108
809.174	21081
809.316	20925
809.458	21043
809.6	20906
809.741	21058
809.883	20941
810.025	21230
810.166	21070
810.308	21173
810.45	21093
810.591	20948
810.733	20842
810.875	20735
811.016	20609
811.158	20587
811.299	20674
811.441	20811
811.582	20811
811.724	20762
811.865	20735
812.007	20769
812.148	20800
812.29	20735
812.431	20925
812.573	21066
812.714	21169
812.855	21332
812.997	21283
813.138	21378
813.279	21260
813.421	21207
813.562	21081
813.703	21032
813.845	20906
813.986	20549
814.127	20495
814.268	20278
814.41	20282
814.551	20263
814.692	20396
814.833	20271
814.974	20168
815.115	20256
815.256	20149
815.397	20210
815.539	20035
815.68	20012
815.821	19864
815.962	19940
816.103	19974
816.244	19856
816.385	19677
816.526	19723
816.666	19655
816.807	19518
816.948	19518
817.089	19510
817.23	19571
817.371	19381
817.512	19445
817.653	19362
817.793	19388
817.934	19407
818.075	19392
818.216	19377
818.356	19297
818.497	19217
818.638	18981
818.778	19088
818.919	19042
819.06	19110
819.2	19240
819.341	19335
819.481	19339
819.622	19483
819.762	19537
819.903	19537
820.043	19400
820.184	19324
820.324	19476
820.465	19434
820.605	19388
820.746	19327
820.886	19274
821.026	19365
821.167	19293
821.307	19445
821.447	19293
821.588	19251
821.728	19152
821.868	18920
822.008	18863
822.149	18795
822.289	18833
822.429	18623
822.569	18471
822.709	18513
822.849	18334
822.99	18209
823.13	18258
823.27	18281
823.41	18129
823.55	18060
823.69	18121
823.83	18163
823.97	18041
824.11	17878
824.25	17817
824.389	17885
824.529	17984
824.669	17790
824.809	17897
824.949	17950
825.089	17920
825.228	17828
825.368	17665
825.508	17604
825.648	17687
825.787	17710
825.927	17745
826.067	17665
826.206	17642
826.346	17649
826.485	17619
826.625	17646
826.765	17722
826.904	17638
827.044	17414
827.183	17444
827.323	17345
827.462	17387
827.601	17398
827.741	17261
827.88	17341
828.02	17185
828.159	17307
828.298	17383
828.437	17440
828.577	17280
828.716	17436
828.855	17239
828.994	17067
829.134	17090
829.273	17121
829.412	17048
829.551	17045
829.69	17045
829.829	17140
829.968	17227
830.107	17200
830.246	17181
830.385	17067
830.524	17010
830.663	16885
830.802	16915
830.941	16736
831.08	16713
831.219	16797
831.357	16786
831.496	16866
831.635	16736
831.774	16675
831.913	16675
832.051	16550
832.19	16535
832.329	16421
832.467	16508
832.606	16360
832.744	16519
832.883	16379
833.022	16459
833.16	16379
833.299	16379
833.437	16352
833.576	16470
833.714	16451
833.852	16402
833.991	16508
834.129	16656
834.267	16485
834.406	16421
834.544	16428
834.682	16512
834.821	16424
834.959	16611
835.097	16478
835.235	16607
835.373	16497
835.511	16519
835.65	16462
835.788	16367
835.926	16303
836.064	16207
836.202	16215
836.34	16417
836.478	16428
836.615	16318
836.753	16394
836.891	16504
837.029	16398
837.167	16447
837.305	16337
837.443	16280
837.58	16272
837.718	16382
837.856	16234
837.993	16257
838.131	16242
838.269	16181
838.406	16257
838.544	16177
838.681	16002
838.819	15968
838.956	15842
839.094	15808
839.231	15880
839.369	15960
839.506	16196
839.643	16158
839.781	15857
839.918	15778
840.055	15888
840.193	15831
840.33	15854
840.467	15899
840.604	15884
840.742	16086
840.879	15728
841.016	15766
841.153	15804
841.29	15907
841.427	15861
841.564	15880
841.701	15918
841.838	15762
841.975	15789
842.112	15755
842.249	15591
842.385	15663
842.522	15842
842.659	15625
842.796	15625
842.933	15614
843.069	15652
843.206	15553
843.343	15751
843.479	15595
843.616	15580
843.752	15393
843.889	15374
844.025	15523
844.162	15389
844.298	15549
844.435	15386
844.571	15321
844.708	15515
844.844	15511
844.98	15549
845.117	15568
845.253	15279
845.389	15382
845.525	15374
845.661	15203
845.798	15222
845.934	15249
846.07	15100
846.206	15310
846.342	15336
846.478	15150
846.614	15077
846.75	14960
846.886	14857
847.022	15093
847.158	14963
847.294	15024
847.429	15039
847.565	14925
847.701	15256
847.837	14815
847.972	14701
848.108	14811
848.244	14804
848.379	14625
848.515	14545
848.65	14499
848.786	14499
848.921	14606
849.057	14693
849.192	14621
849.328	14636
849.463	14629
849.598	14629
849.734	14545
849.869	14454
850.004	14434
850.14	14385
850.275	14377
850.41	14282
850.545	14294
850.68	14301
850.815	14324
850.95	14431
851.085	14530
851.22	14385
851.355	14259
851.49	14267
851.625	14210
851.76	14332
851.895	14259
852.03	14191
852.165	14290
852.299	14358
852.434	14355
852.569	14343
852.703	14400
852.838	14469
852.973	14571
853.107	14412
853.242	14259
853.376	14195
853.511	14103
853.645	14153
853.78	14339
853.914	14161
854.048	14176
854.183	14168
854.317	14362
854.451	14286
854.585	14252
854.72	14199
854.854	14320
854.988	14111
855.122	14164
855.256	14043
855.39	14164
855.524	14244
855.658	14237
855.792	14187
855.926	14225
856.06	14252
856.194	14267
856.327	14214
856.461	14145
856.595	14210
856.729	14225
856.862	14313
856.996	14214
857.13	14343
857.263	14298
857.397	14309
857.53	14237
857.664	14339
857.797	14309
857.931	14278
858.064	14294
858.197	14294
858.331	14187
858.464	14172
858.597	14145
858.731	14195
858.864	14199
858.997	14233
859.13	14267
859.263	14263
859.396	14336
859.529	14267
859.662	14153
859.795	14225
859.928	14290
860.061	14427
860.194	14408
860.327	14103
860.46	14278
860.592	14328
860.725	14309
860.858	14362
860.99	14225
861.123	14183
861.256	14187
861.388	14187
861.521	14834
861.653	14058
861.786	14031
861.918	14062
862.05	14176
862.183	14103
862.315	14180
862.447	14290
862.58	14176
862.712	14065
862.844	13959
862.976	13967
863.108	13963
863.24	14336
863.372	13932
863.504	14005
863.636	13986
863.768	14016
863.9	13982
864.032	13936
864.164	13955
864.296	14050
864.428	14100
864.559	14130
864.691	14153
864.823	14062
864.954	14050
865.086	14016
865.217	14084
865.349	13986
865.48	13921
865.612	14050
865.743	14183
865.875	13997
866.006	13993
866.137	14115
866.269	13940
866.4	13944
866.531	13959
866.662	13921
866.793	13944
866.924	14024
867.055	14035
867.186	13940
867.317	14050
867.448	13921
867.579	13913
867.71	13951
867.841	13951
867.972	13974
868.103	13883
868.233	14088
868.364	14069
868.495	14054
868.625	14187
868.756	14347
868.886	14145
869.017	14172
869.147	14328
869.278	14328
869.408	14191
869.539	14195
869.669	14282
869.799	14282
869.929	14423
870.06	14286
870.19	14617
870.32	14514
870.45	14560
870.58	14674
870.71	14705
870.84	14773
870.97	14568
871.1	14568
871.23	14861
871.36	14777
871.489	14765
871.619	14773
871.749	14762
871.879	14887
872.008	15017
872.138	14826
872.267	14796
872.397	14701
872.526	14724
872.656	14617
872.785	14663
872.915	14921
873.044	14910
873.173	14826
873.303	14963
873.432	14925
873.561	14952
873.69	14754
873.819	14872
873.948	14887
874.077	14963
874.206	14864
874.335	14933
874.464	15116
874.593	15222
874.722	15131
874.851	15154
874.979	15230
875.108	15218
875.237	15150
875.365	15066
875.494	15161
875.623	15287
875.751	15116
875.88	15249
876.008	15321
876.136	15428
876.265	15625
876.393	15766
876.521	15743
876.65	15652
876.778	15637
876.906	15629
877.034	15595
877.162	15675
877.29	15481
877.418	15504
877.546	15656
877.674	15557
877.802	15633
877.93	15523
878.058	15477
878.185	15500
878.313	15618
878.441	15667
878.568	15462
878.696	15599
878.824	15606
878.951	15705
879.079	15793
879.206	15899
879.333	15808
879.461	15728
879.588	15766
879.715	15762
879.842	15903
879.97	15644
880.097	15447
880.224	15416
880.351	15515
880.478	15523
880.605	15485
880.732	15488
880.859	15766
880.986	15485
881.112	15603
881.239	15359
881.366	15192
881.493	15207
881.619	15081
881.746	15108
881.872	15058
881.999	15077
882.125	15176
882.252	15173
882.378	15142
882.505	15325
882.631	15131
882.757	15036
882.883	15001
883.01	14998
883.136	14792
883.262	14777
883.388	14667
883.514	14944
883.64	15032
883.766	14948
883.892	14739
884.018	14739
884.143	14948
884.269	14982
884.395	14712
884.52	14480
884.646	14674
884.772	14556
884.897	14545
885.023	14697
885.148	14769
885.274	14899
885.399	14826
885.524	14636
885.65	14708
885.775	14674
885.9	14670
886.025	14746
886.15	14743
886.275	14693
886.4	14625
886.525	14644
886.65	14663
886.775	14583
886.9	14842
887.025	14861
887.149	14743
887.274	14396
887.399	14438
887.523	14503
887.648	14503
887.773	14336
887.897	14590
888.021	14575
888.146	14358
888.27	14541
888.395	14651
888.519	14568
888.643	14625
888.767	14556
888.891	14408
889.015	14332
889.139	14450
889.263	14362
889.387	14431
889.511	14606
889.635	14533
889.759	14195
889.883	14332
890.006	14374
890.13	14446
890.254	14267
890.377	14320
890.501	14233
890.624	14168
890.748	14248
890.871	14164
890.995	14142
891.118	13917
891.241	14039
891.364	14149
891.488	14164
891.611	14039
891.734	14084
891.857	14043
891.98	13986
892.103	14065
892.226	14100
892.349	13925
892.471	13833
892.594	14016
892.717	14130
892.839	13982
892.962	13989
893.085	14096
893.207	14107
893.33	13970
893.452	13944
893.575	14069
893.697	14008
893.819	14218
893.941	14294
894.064	14199
894.186	14081
894.308	14069
894.43	14058
894.552	14172
894.674	14164
894.796	14077
894.918	14084
895.04	14088
895.161	14199
895.283	14142
895.405	14134
895.526	14221
895.648	14237
895.769	14145
895.891	14301
896.012	14271
896.134	14267
896.255	14077
896.376	14183
896.498	14221
896.619	14271
896.74	14199
896.861	14267
896.982	14499
897.103	14693
897.224	14571
897.345	14412
897.466	14427
897.587	14438
897.708	14655
897.828	14495
897.949	14549
898.07	14408
898.19	14461
898.311	14594
898.431	14473
898.552	14625
898.672	14659
898.792	14674
898.913	14640
899.033	14492
899.153	14457
899.273	14347
899.393	14374
899.513	14400
899.633	14396
899.753	14381
899.873	14389
899.993	14484
900.113	14495
900.232	14492
900.352	14419
900.472	14309
900.591	14218
900.711	14317
900.83	14393
900.95	14423
901.069	14415
901.189	14324
901.308	13913
901.427	13887
901.546	13913
901.665	13993
901.784	13951
901.904	13822
902.023	13696
902.141	13597
902.26	13502
902.379	13544
902.498	13548
902.617	13411
902.735	13559
902.854	13552
902.973	13472
903.091	13236
903.21	13304
903.328	13331
903.446	13175
903.565	13084
903.683	13187
903.801	13080
903.919	13012
904.038	13145
904.156	12913
904.274	13023
904.392	12882
904.51	12947
904.627	12913
904.745	12920
904.863	12890
904.981	12726
905.098	12593
905.216	12555
905.334	12662
905.451	12642
905.569	12642
905.686	12662
905.803	12639
905.921	12418
906.038	12559
906.155	12433
906.272	12300
906.389	12365
906.506	12129
906.623	12152
906.74	12159
906.857	12072
906.974	12194
907.091	12296
907.208	12399
907.324	12232
907.441	12129
907.557	12087
907.674	11958
907.79	11904
907.907	11992
908.023	12053
908.139	11916
908.256	11901
908.372	11893
908.488	11863
908.604	11794
908.72	11733
908.836	11790
908.952	11665
909.068	11748
909.184	11836
909.3	11817
909.415	11813
909.531	11695
909.647	11512
909.762	11539
909.878	11436
909.993	11501
910.108	11410
910.224	11436
910.339	11558
910.454	11368
910.57	11288
910.685	11239
910.8	11543
910.915	11493
911.03	11391
911.145	11178
911.259	11113
911.374	11189
911.489	11105
911.604	11022
911.718	10938
911.833	11052
911.947	10797
912.062	10786
912.176	10930
912.291	10968
912.405	10987
912.519	11143
912.633	11128
912.748	11060
912.862	10968
912.976	10805
913.09	10744
913.204	10824
913.318	10854
913.431	11003
913.545	10923
913.659	11018
913.772	10812
913.886	10755
914	10687
914.113	10816
914.226	10885
914.34	10831
914.453	10687
914.566	10847
914.68	10687
914.793	10615
914.906	10485
915.019	10421
915.132	10447
915.245	10424
915.358	10470
915.47	10455
915.583	10527
915.696	10470
915.809	10599
915.921	10573
916.034	10462
916.146	10413
916.259	10325
916.371	10508
916.483	10497
916.595	10360
916.708	10341
916.82	10371
916.932	10325
917.044	10432
917.156	10344
917.268	10188
917.38	10249
917.491	10223
917.603	10299
917.715	10325
917.826	10424
917.938	10344
918.049	10188
918.161	10249
918.272	10474
918.384	10386
918.495	10318
918.606	10078
918.717	10082
918.828	10147
918.939	10139
919.05	10150
919.161	10173
919.272	9922
919.383	10044
919.494	10280
919.604	10379
919.715	10215
919.826	10055
919.936	10166
920.047	10223
920.157	10196
920.267	10436
920.378	10272
920.488	10162
920.598	10398
920.708	10527
920.818	10466
920.928	10375
921.038	10573
921.148	10519
921.258	10246
921.368	10112
921.477	9956
921.587	10067
921.697	9899
921.806	10082
921.916	9979
922.025	9755
922.134	9751
922.244	9732
922.353	9778
922.462	9644
922.571	9622
922.68	9500
922.789	9401
922.898	9485
923.007	9374
923.116	9496
923.224	9431
923.333	9367
923.442	9351
923.55	9302
923.659	9393
923.767	9363
923.876	9302
923.984	9325
924.092	9279
924.201	9332
924.309	9336
924.417	9344
924.525	9256
924.633	9192
924.741	9975
924.849	9097
924.956	9253
925.064	9074
925.172	8925
925.279	9070
925.387	9104
925.494	9119
925.602	9302
925.709	9108
925.816	9032
925.924	9112
926.031	9123
926.138	9108
926.245	9154
926.352	9062
926.459	9112
926.566	9184
926.673	9058
926.779	8929
926.886	8952
926.993	8823
927.099	8766
927.206	8739
927.312	8788
927.419	8792
927.525	8826
927.631	8872
927.737	8716
927.843	8693
927.95	8568
928.056	8708
928.162	8640
928.267	8735
928.373	9382
928.479	8811
928.585	8549
928.69	8689
928.796	8708
928.901	8556
929.007	8560
929.112	8610
929.218	8625
929.323	8571
929.428	8514
929.533	8655
929.638	8427
929.743	8511
929.848	8590
929.953	8476
930.058	8457
930.163	8256
930.267	8347
930.372	8442
930.477	8298
930.581	8457
930.685	8305
930.79	8180
930.894	8290
930.998	8210
931.103	8377
931.207	8069
931.311	8005
931.415	7898
931.519	7757
931.623	7731
