Data from test_V78500241_1676.txt Node
Date: Fri Mar 25 14:45:23 CST 2022
User: usil
Spectrometer: V785-0024
Trigger mode: 0
Integration Time (sec): 4.000000E-1
Scans to average: 1
Nonlinearity correction enabled: false
Boxcar width: 0
Storing dark spectrum: false
XAxis mode: Wavelengths
Number of Pixels in Spectrum: 1024
>>>>>Begin Spectral Data<<<<<
801.071	22348
801.214	22196
801.356	21994
801.499	21854
801.641	21648
801.783	21606
801.926	21747
802.068	21553
802.211	21595
802.353	21443
802.496	21222
802.638	21241
802.78	21131
802.923	21036
803.065	20902
803.208	20914
803.35	20979
803.492	20982
803.635	21058
803.777	20948
803.919	21211
804.061	21412
804.204	21066
804.346	20925
804.488	20872
804.63	20864
804.773	20910
804.915	21085
805.057	21112
805.199	20891
805.341	20971
805.483	21154
805.626	21024
805.768	20933
805.91	20921
806.052	20929
806.194	20849
806.336	21104
806.478	20769
806.62	20811
806.762	21070
806.904	21074
807.046	21386
807.188	21336
807.33	21230
807.472	21283
807.614	21138
807.756	21173
807.898	21005
808.04	20910
808.182	20895
808.324	21131
808.465	21058
808.607	21146
808.749	21298
808.891	21340
809.033	21431
809.174	21454
809.316	21416
809.458	21374
809.6	21226
809.741	21469
809.883	21355
810.025	21542
810.166	21469
810.308	21507
810.45	21450
810.591	21325
810.733	21032
810.875	21161
811.016	21039
811.158	20967
811.299	21131
811.441	21268
811.582	21154
811.724	21108
811.865	21051
812.007	21146
812.148	21005
812.29	21142
812.431	21207
812.573	21447
812.714	21443
812.855	21587
812.997	21671
813.138	21724
813.279	21591
813.421	21641
813.562	21473
813.703	21313
813.845	21283
813.986	20990
814.127	20731
814.268	20617
814.41	20674
814.551	20568
814.692	20655
814.833	20545
814.974	20598
815.115	20583
815.256	20537
815.397	20446
815.539	20609
815.68	20355
815.821	20206
815.962	20408
816.103	20313
816.244	20183
816.385	20077
816.526	20065
816.666	19852
816.807	19818
816.948	19689
817.089	19871
817.23	19788
817.371	19689
817.512	19704
817.653	19681
817.793	19700
817.934	19833
818.075	19871
818.216	19845
818.356	19708
818.497	19563
818.638	19472
818.778	19483
818.919	19468
819.06	19533
819.2	19601
819.341	19624
819.481	19658
819.622	19890
819.762	19932
819.903	19940
820.043	19769
820.184	19731
820.324	19670
820.465	19696
820.605	19852
820.746	19738
820.886	19620
821.026	19704
821.167	19655
821.307	19723
821.447	19723
821.588	19620
821.728	19449
821.868	19247
822.008	19110
822.149	19148
822.289	19099
822.429	18958
822.569	18859
822.709	18875
822.849	18696
822.99	18654
823.13	18536
823.27	18616
823.41	18342
823.55	18365
823.69	18418
823.83	18525
823.97	18304
824.11	18155
824.25	18171
824.389	18178
824.529	18228
824.669	18213
824.809	18304
824.949	18353
825.089	18270
825.228	18281
825.368	18049
825.508	17912
825.648	17980
825.787	18060
825.927	18045
826.067	17824
826.206	18015
826.346	17980
826.485	17912
826.625	17965
826.765	18019
826.904	18034
827.044	17752
827.183	17710
827.323	17570
827.462	17722
827.601	17703
827.741	17589
827.88	17695
828.02	17642
828.159	17737
828.298	17676
828.437	17741
828.577	17642
828.716	17855
828.855	17623
828.994	17436
829.134	17395
829.273	17581
829.412	17406
829.551	17417
829.69	17296
829.829	17402
829.968	17524
830.107	17482
830.246	17497
830.385	17425
830.524	17376
830.663	17170
830.802	17204
830.941	17056
831.08	17056
831.219	17136
831.357	17056
831.496	17216
831.635	16984
831.774	17029
831.913	16904
832.051	16748
832.19	16809
832.329	16793
832.467	16729
832.606	16668
832.744	16736
832.883	16725
833.022	16740
833.16	16733
833.299	16835
833.437	16675
833.576	16797
833.714	16847
833.852	16869
833.991	16797
834.129	16938
834.267	16877
834.406	16790
834.544	16801
834.682	16809
834.821	16774
834.959	16961
835.097	16790
835.235	16896
835.373	16793
835.511	16820
835.65	16588
835.788	16630
835.926	16565
836.064	16462
836.202	16531
836.34	16736
836.478	16687
836.615	16702
836.753	16615
836.891	16774
837.029	16694
837.167	16679
837.305	16523
837.443	16569
837.58	16500
837.718	16626
837.856	16550
837.993	16554
838.131	16497
838.269	16558
838.406	16440
838.544	16386
838.681	16215
838.819	16230
838.956	16074
839.094	16135
839.231	16234
839.369	16204
839.506	16436
839.643	16303
839.781	16139
839.918	16074
840.055	16048
840.193	16063
840.33	16109
840.467	16116
840.604	16154
840.742	16390
840.879	15956
841.016	15968
841.153	16029
841.29	16158
841.427	16147
841.564	16128
841.701	16135
841.838	16048
841.975	16101
842.112	16010
842.249	15922
842.385	15876
842.522	15987
842.659	15922
842.796	15857
842.933	15835
843.069	15888
843.206	15701
843.343	15945
843.479	15785
843.616	15892
843.752	15637
843.889	15603
844.025	15766
844.162	15648
844.298	15770
844.435	15682
844.571	15625
844.708	15694
844.844	15747
844.98	15812
845.117	15781
845.253	15641
845.389	15526
845.525	15553
845.661	15667
845.798	15447
845.934	15648
846.07	15435
846.206	15511
846.342	15561
846.478	15435
846.614	15233
846.75	15165
846.886	15116
847.022	15310
847.158	15218
847.294	15264
847.429	15218
847.565	15176
847.701	15466
847.837	14914
847.972	14941
848.108	14986
848.244	14963
848.379	14948
848.515	14800
848.65	14781
848.786	14845
848.921	14796
849.057	14830
849.192	14861
849.328	14880
849.463	14769
849.598	14701
849.734	14769
849.869	14693
850.004	14556
850.14	14659
850.275	14526
850.41	14499
850.545	14571
850.68	14552
850.815	14598
850.95	14617
851.085	14746
851.22	14655
851.355	14503
851.49	14514
851.625	14583
851.76	14507
851.895	14526
852.03	14446
852.165	14568
852.299	14522
852.434	14617
852.569	14541
852.703	14602
852.838	14655
852.973	14811
853.107	14712
853.242	14537
853.376	14457
853.511	14298
853.645	14381
853.78	14602
853.914	14389
854.048	14400
854.183	14461
854.317	14423
854.451	14575
854.585	14427
854.72	14343
854.854	14499
854.988	14332
855.122	14396
855.256	14191
855.39	14347
855.524	14610
855.658	14431
855.792	14495
855.926	14480
856.06	14419
856.194	14473
856.327	14545
856.461	14305
856.595	14404
856.729	14454
856.862	14522
856.996	14560
857.13	14533
857.263	14579
857.397	14594
857.53	14431
857.664	14511
857.797	14556
857.931	14514
858.064	14408
858.197	14579
858.331	14465
858.464	14400
858.597	14358
858.731	14438
858.864	14450
858.997	14560
859.13	14415
859.263	14522
859.396	14514
859.529	14438
859.662	14408
859.795	14434
859.928	14469
860.061	14610
860.194	14606
860.327	14522
860.46	14389
860.592	14522
860.725	14511
860.858	14583
860.99	14480
861.123	14305
861.256	14434
861.388	14530
861.521	14971
861.653	14313
861.786	14240
861.918	14252
862.05	14233
862.183	14393
862.315	14465
862.447	14492
862.58	14427
862.712	14309
862.844	14111
862.976	14347
863.108	14309
863.24	14678
863.372	14134
863.504	14290
863.636	14183
863.768	14221
863.9	14332
864.032	14229
864.164	14278
864.296	14206
864.428	14282
864.559	14256
864.691	14328
864.823	14252
864.954	14244
865.086	14176
865.217	14294
865.349	14206
865.48	14195
865.612	14191
865.743	14431
865.875	14199
866.006	14233
866.137	14119
866.269	14301
866.4	14229
866.531	14256
866.662	14115
866.793	14267
866.924	14221
867.055	14237
867.186	14221
867.317	14187
867.448	14157
867.579	14244
867.71	14233
867.841	14111
867.972	14229
868.103	14267
868.233	14168
868.364	14240
868.495	14320
868.625	14526
868.756	14590
868.886	14434
869.017	14476
869.147	14648
869.278	14644
869.408	14507
869.539	14560
869.669	14560
869.799	14549
869.929	14644
870.06	14606
870.19	14750
870.32	14788
870.45	14868
870.58	14941
870.71	15089
870.84	15028
870.97	14921
871.1	14853
871.23	15070
871.36	15070
871.489	15013
871.619	15017
871.749	14971
871.879	15093
872.008	15184
872.138	15165
872.267	15138
872.397	14971
872.526	14929
872.656	14895
872.785	14948
872.915	15142
873.044	15173
873.173	15146
873.303	15207
873.432	15192
873.561	15142
873.69	15211
873.819	15154
873.948	15176
874.077	15203
874.206	15066
874.335	15116
874.464	15351
874.593	15378
874.722	15359
874.851	15443
874.979	15424
875.108	15561
875.237	15435
875.365	15488
875.494	15363
875.623	15580
875.751	15450
875.88	15515
876.008	15557
876.136	15622
876.265	15835
876.393	15861
876.521	15998
876.65	15941
876.778	15975
876.906	15850
877.034	15686
877.162	15728
877.29	15785
877.418	15812
877.546	15926
877.674	15941
877.802	15930
877.93	15865
878.058	15831
878.185	15766
878.313	15907
878.441	15831
878.568	15793
878.696	15785
878.824	15895
878.951	15922
879.079	16048
879.206	16284
879.333	16059
879.461	15972
879.588	16021
879.715	16017
879.842	16158
879.97	15949
880.097	15667
880.224	15694
880.351	15720
880.478	15808
880.605	15713
880.732	15713
880.859	15964
880.986	15728
881.112	15835
881.239	15599
881.366	15420
881.493	15367
881.619	15317
881.746	15367
881.872	15382
881.999	15279
882.125	15245
882.252	15443
882.378	15424
882.505	15462
882.631	15348
882.757	15214
882.883	15245
883.01	15112
883.136	15199
883.262	15009
883.388	15020
883.514	15199
883.64	15127
883.766	15173
883.892	15039
884.018	15062
884.143	15081
884.269	15313
884.395	14899
884.52	14876
884.646	14883
884.772	14796
884.897	14838
885.023	14956
885.148	15039
885.274	15051
885.399	14910
885.524	14845
885.65	14830
885.775	14906
885.9	14891
886.025	15062
886.15	15013
886.275	14902
886.4	14785
886.525	14785
886.65	14842
886.775	14823
886.9	15017
887.025	15135
887.149	14883
887.274	14804
887.399	14670
887.523	14708
887.648	14670
887.773	14697
887.897	14861
888.021	14845
888.146	14644
888.27	14823
888.395	14857
888.519	14819
888.643	14777
888.767	14731
888.891	14617
889.015	14587
889.139	14556
889.263	14495
889.387	14632
889.511	14773
889.635	14659
889.759	14686
889.883	14621
890.006	14674
890.13	14708
890.254	14442
890.377	14507
890.501	14320
890.624	14389
890.748	14412
890.871	14442
890.995	14290
891.118	14176
891.241	14332
891.364	14267
891.488	14339
891.611	14221
891.734	14362
891.857	14210
891.98	14275
892.103	14412
892.226	14313
892.349	14282
892.471	14107
892.594	14180
892.717	14282
892.839	14191
892.962	14210
893.085	14290
893.207	14267
893.33	14103
893.452	14100
893.575	14427
893.697	14180
893.819	14419
893.941	14358
894.064	14434
894.186	14328
894.308	14332
894.43	14442
894.552	14537
894.674	14400
894.796	14164
894.918	14244
895.04	14290
895.161	14404
895.283	14362
895.405	14374
895.526	14381
895.648	14412
895.769	14446
895.891	14507
896.012	14450
896.134	14446
896.255	14396
896.376	14393
896.498	14461
896.619	14610
896.74	14461
896.861	14533
896.982	14777
897.103	14899
897.224	14758
897.345	14571
897.466	14651
897.587	14617
897.708	14864
897.828	14746
897.949	14689
898.07	14575
898.19	14754
898.311	14845
898.431	14682
898.552	14834
898.672	14842
898.792	14849
898.913	14777
899.033	14648
899.153	14648
899.273	14568
899.393	14541
899.513	14610
899.633	14602
899.753	14606
899.873	14644
899.993	14632
900.113	14670
900.232	14632
900.352	14648
900.472	14568
900.591	14366
900.711	14499
900.83	14415
900.95	14610
901.069	14556
901.189	14404
901.308	14126
901.427	14138
901.546	14153
901.665	14248
901.784	14286
901.904	14073
902.023	13932
902.141	13765
902.26	13803
902.379	13693
902.498	13704
902.617	13578
902.735	13704
902.854	13674
902.973	13655
903.091	13476
903.21	13495
903.328	13529
903.446	13487
903.565	13308
903.683	13396
903.801	13175
903.919	13278
904.038	13270
904.156	13110
904.274	13137
904.392	13129
904.51	13118
904.627	13114
904.745	13072
904.863	13221
904.981	12973
905.098	12844
905.216	12745
905.334	12852
905.451	12814
905.569	12760
905.686	12760
905.803	12779
905.921	12642
906.038	12745
906.155	12555
906.272	12532
906.389	12502
906.506	12388
906.623	12410
906.74	12384
906.857	12266
906.974	12350
907.091	12388
907.208	12460
907.324	12403
907.441	12330
907.557	12213
907.674	12136
907.79	12110
907.907	12064
908.023	12194
908.139	12171
908.256	12079
908.372	11996
908.488	12079
908.604	11878
908.72	11901
908.836	11927
908.952	11779
909.068	11942
909.184	11920
909.3	11904
909.415	11882
909.531	11901
909.647	11695
909.762	11589
909.878	11596
909.993	11691
910.108	11581
910.224	11604
910.339	11756
910.454	11604
910.57	11524
910.685	11368
910.8	11726
910.915	11634
911.03	11528
911.145	11334
911.259	11433
911.374	11433
911.489	11296
911.604	11284
911.718	11121
911.833	11151
911.947	11010
912.062	10957
912.176	11052
912.291	11071
912.405	11109
912.519	11372
912.633	11265
912.748	11162
912.862	11155
912.976	10984
913.09	10919
913.204	10968
913.318	10968
913.431	11064
913.545	11109
913.659	11132
913.772	10999
913.886	10847
914	10835
914.113	10957
914.226	10995
914.34	10946
914.453	10740
914.566	10908
914.68	10873
914.793	10816
914.906	10672
915.019	10584
915.132	10573
915.245	10603
915.358	10546
915.47	10634
915.583	10660
915.696	10607
915.809	10691
915.921	10759
916.034	10611
916.146	10508
916.259	10580
916.371	10649
916.483	10615
916.595	10478
916.708	10596
916.82	10542
916.932	10531
917.044	10523
917.156	10561
917.268	10413
917.38	10421
917.491	10356
917.603	10447
917.715	10538
917.826	10500
917.938	10500
918.049	10344
918.161	10443
918.272	10630
918.384	10535
918.495	10474
918.606	10333
918.717	10265
918.828	10352
918.939	10341
919.05	10227
919.161	10337
919.272	10097
919.383	10166
919.494	10451
919.604	10436
919.715	10409
919.826	10249
919.936	10314
920.047	10386
920.157	10341
920.267	10523
920.378	10462
920.488	10318
920.598	10462
920.708	10725
920.818	10474
920.928	10561
921.038	10653
921.148	10687
921.258	10394
921.368	10348
921.477	10196
921.587	10154
921.697	10059
921.806	10242
921.916	10051
922.025	9842
922.134	9876
922.244	9835
922.353	9869
922.462	9774
922.571	9701
922.68	9553
922.789	9584
922.898	9553
923.007	9591
923.116	9648
923.224	9618
923.333	9580
923.442	9496
923.55	9408
923.659	9412
923.767	9644
923.876	9519
923.984	9500
924.092	9428
924.201	9500
924.309	9408
924.417	9443
924.525	9412
924.633	9420
924.741	10348
924.849	9264
924.956	9344
925.064	9203
925.172	9085
925.279	9146
925.387	9249
925.494	9195
925.602	9355
925.709	9306
925.816	9146
925.924	9207
926.031	9287
926.138	9245
926.245	9214
926.352	9154
926.459	9233
926.566	9279
926.673	9211
926.779	9081
926.886	9108
926.993	9001
927.099	8914
927.206	8842
927.312	8849
927.419	9017
927.525	8948
927.631	9017
927.737	8826
927.843	8796
927.95	8651
928.056	8842
928.162	8815
928.267	8899
928.373	9405
928.479	8921
928.585	8670
928.69	8811
928.796	8842
928.901	8731
929.007	8590
929.112	8743
929.218	8701
929.323	8659
929.428	8606
929.533	8800
929.638	8568
929.743	8697
929.848	8705
929.953	8636
930.058	8522
930.163	8446
930.267	8484
930.372	8549
930.477	8415
930.581	8598
930.685	8492
930.79	8279
930.894	8389
930.998	8381
931.103	8545
931.207	8123
931.311	8103
931.415	8069
931.519	7849
931.623	7902
