Data from test_V78500241_2523.txt Node
Date: Fri Mar 25 14:51:16 CST 2022
User: usil
Spectrometer: V785-0024
Trigger mode: 0
Integration Time (sec): 4.000000E-1
Scans to average: 1
Nonlinearity correction enabled: false
Boxcar width: 0
Storing dark spectrum: false
XAxis mode: Wavelengths
Number of Pixels in Spectrum: 1024
>>>>>Begin Spectral Data<<<<<
801.071	22131
801.214	21968
801.356	21614
801.499	21641
801.641	21420
801.783	21435
801.926	21523
802.068	21317
802.211	21218
802.353	21298
802.496	21104
802.638	20918
802.78	20895
802.923	20788
803.065	20682
803.208	20678
803.35	20716
803.492	20891
803.635	20929
803.777	20727
803.919	20872
804.061	21051
804.204	20823
804.346	20777
804.488	20636
804.63	20705
804.773	20644
804.915	20621
805.057	20769
805.199	20625
805.341	20743
805.483	20746
805.626	20781
805.768	20587
805.91	20667
806.052	20594
806.194	20590
806.336	20868
806.478	20613
806.62	20541
806.762	20659
806.904	20762
807.046	21039
807.188	20960
807.33	20979
807.472	21096
807.614	20899
807.756	20994
807.898	20739
808.04	20743
808.182	20762
808.324	20743
808.465	20758
808.607	21036
808.749	21077
808.891	21184
809.033	21184
809.174	21161
809.316	21043
809.458	21058
809.6	20941
809.741	21051
809.883	21135
810.025	21222
810.166	21157
810.308	21169
810.45	21218
810.591	21108
810.733	20910
810.875	20811
811.016	20842
811.158	20800
811.299	20876
811.441	21009
811.582	20910
811.724	20864
811.865	20697
812.007	20842
812.148	20785
812.29	20853
812.431	20921
812.573	21047
812.714	21272
812.855	21184
812.997	21355
813.138	21507
813.279	21275
813.421	21279
813.562	21283
813.703	21055
813.845	20933
813.986	20617
814.127	20511
814.268	20347
814.41	20434
814.551	20328
814.692	20450
814.833	20343
814.974	20282
815.115	20278
815.256	20199
815.397	20172
815.539	20119
815.68	20111
815.821	20043
815.962	20183
816.103	20176
816.244	19928
816.385	19837
816.526	19879
816.666	19662
816.807	19616
816.948	19533
817.089	19563
817.23	19556
817.371	19559
817.512	19510
817.653	19559
817.793	19464
817.934	19506
818.075	19510
818.216	19468
818.356	19464
818.497	19327
818.638	19061
818.778	19202
818.919	19179
819.06	19240
819.2	19228
819.341	19324
819.481	19331
819.622	19521
819.762	19613
819.903	19628
820.043	19632
820.184	19499
820.324	19426
820.465	19434
820.605	19464
820.746	19445
820.886	19373
821.026	19426
821.167	19502
821.307	19537
821.447	19384
821.588	19327
821.728	19244
821.868	19012
822.008	18798
822.149	18791
822.289	18905
822.429	18597
822.569	18604
822.709	18692
822.849	18384
822.99	18296
823.13	18315
823.27	18319
823.41	18152
823.55	18152
823.69	18239
823.83	18190
823.97	18106
824.11	17958
824.25	17863
824.389	17920
824.529	18038
824.669	18007
824.809	18155
824.949	18057
825.089	17992
825.228	18030
825.368	17863
825.508	17794
825.648	17775
825.787	17737
825.927	17786
826.067	17767
826.206	17619
826.346	17733
826.485	17729
826.625	17695
826.765	17851
826.904	17805
827.044	17467
827.183	17471
827.323	17387
827.462	17490
827.601	17471
827.741	17391
827.88	17509
828.02	17318
828.159	17360
828.298	17417
828.437	17417
828.577	17296
828.716	17562
828.855	17383
828.994	17208
829.134	17181
829.273	17227
829.412	17178
829.551	17136
829.69	17197
829.829	17200
829.968	17337
830.107	17277
830.246	17136
830.385	17132
830.524	17006
830.663	16976
830.802	16915
830.941	16835
831.08	16782
831.219	16889
831.357	16767
831.496	17025
831.635	16786
831.774	16740
831.913	16622
832.051	16630
832.19	16580
832.329	16645
832.467	16432
832.606	16451
832.744	16436
832.883	16432
833.022	16386
833.16	16504
833.299	16630
833.437	16523
833.576	16519
833.714	16527
833.852	16493
833.991	16542
834.129	16584
834.267	16626
834.406	16615
834.544	16500
834.682	16573
834.821	16599
834.959	16702
835.097	16371
835.235	16599
835.373	16535
835.511	16516
835.65	16440
835.788	16390
835.926	16386
836.064	16226
836.202	16249
836.34	16474
836.478	16519
836.615	16504
836.753	16489
836.891	16554
837.029	16474
837.167	16455
837.305	16402
837.443	16390
837.58	16367
837.718	16390
837.856	16306
837.993	16348
838.131	16428
838.269	16234
838.406	16325
838.544	16169
838.681	15949
838.819	15983
838.956	15850
839.094	15880
839.231	15846
839.369	16063
839.506	16200
839.643	16143
839.781	15903
839.918	15804
840.055	15903
840.193	15945
840.33	15800
840.467	15915
840.604	15846
840.742	16135
840.879	15759
841.016	15842
841.153	15823
841.29	16010
841.427	15838
841.564	15968
841.701	15895
841.838	15762
841.975	15724
842.112	15797
842.249	15690
842.385	15629
842.522	15869
842.659	15618
842.796	15648
842.933	15675
843.069	15584
843.206	15656
843.343	15713
843.479	15629
843.616	15584
843.752	15424
843.889	15450
844.025	15572
844.162	15321
844.298	15450
844.435	15450
844.571	15325
844.708	15466
844.844	15663
844.98	15561
845.117	15648
845.253	15344
845.389	15188
845.525	15469
845.661	15355
845.798	15195
845.934	15329
846.07	15165
846.206	15359
846.342	15321
846.478	15192
846.614	15020
846.75	14933
846.886	14990
847.022	15020
847.158	14948
847.294	15085
847.429	14994
847.565	14941
847.701	15245
847.837	14720
847.972	14720
848.108	14785
848.244	14883
848.379	14621
848.515	14663
848.65	14655
848.786	14571
848.921	14590
849.057	14693
849.192	14781
849.328	14602
849.463	14670
849.598	14560
849.734	14579
849.869	14495
850.004	14476
850.14	14351
850.275	14336
850.41	14294
850.545	14469
850.68	14336
850.815	14423
850.95	14355
851.085	14511
851.22	14503
851.355	14495
851.49	14427
851.625	14313
851.76	14343
851.895	14252
852.03	14225
852.165	14366
852.299	14332
852.434	14514
852.569	14457
852.703	14434
852.838	14461
852.973	14473
853.107	14454
853.242	14298
853.376	14282
853.511	14183
853.645	14256
853.78	14324
853.914	14252
854.048	14088
854.183	14180
854.317	14233
854.451	14358
854.585	14138
854.72	14233
854.854	14328
854.988	14187
855.122	14305
855.256	14062
855.39	14229
855.524	14301
855.658	14237
855.792	14145
855.926	14301
856.06	14263
856.194	14385
856.327	14244
856.461	14149
856.595	14275
856.729	14259
856.862	14351
856.996	14282
857.13	14374
857.263	14362
857.397	14408
857.53	14267
857.664	14358
857.797	14336
857.931	14328
858.064	14278
858.197	14328
858.331	14214
858.464	14301
858.597	14244
858.731	14290
858.864	14233
858.997	14153
859.13	14214
859.263	14317
859.396	14358
859.529	14195
859.662	14161
859.795	14145
859.928	14252
860.061	14393
860.194	14404
860.327	14267
860.46	14282
860.592	14377
860.725	14339
860.858	14366
860.99	14237
861.123	14183
861.256	14244
861.388	14172
861.521	14838
861.653	14073
861.786	14092
861.918	14126
862.05	14145
862.183	14263
862.315	14157
862.447	14294
862.58	14244
862.712	14043
862.844	13970
862.976	14073
863.108	14012
863.24	14366
863.372	14005
863.504	14043
863.636	14008
863.768	14005
863.9	13993
864.032	14062
864.164	14092
864.296	14058
864.428	14081
864.559	14073
864.691	14043
864.823	14077
864.954	14058
865.086	14054
865.217	14043
865.349	13989
865.48	14005
865.612	14020
865.743	14130
865.875	14050
866.006	14024
866.137	14096
866.269	14065
866.4	14088
866.531	14046
866.662	13894
866.793	13860
866.924	13925
867.055	14103
867.186	14012
867.317	13978
867.448	13963
867.579	13986
867.71	13932
867.841	13856
867.972	14050
868.103	13970
868.233	14145
868.364	13993
868.495	14088
868.625	14275
868.756	14404
868.886	14191
869.017	14176
869.147	14473
869.278	14336
869.408	14294
869.539	14317
869.669	14389
869.799	14320
869.929	14400
870.06	14450
870.19	14560
870.32	14518
870.45	14537
870.58	14644
870.71	14762
870.84	14720
870.97	14549
871.1	14655
871.23	14830
871.36	14853
871.489	14731
871.619	14785
871.749	14880
871.879	14902
872.008	14902
872.138	14857
872.267	14807
872.397	14739
872.526	14689
872.656	14670
872.785	14670
872.915	14796
873.044	14998
873.173	14975
873.303	14941
873.432	15024
873.561	15074
873.69	14944
873.819	14823
873.948	15005
874.077	14952
874.206	14804
874.335	14982
874.464	15070
874.593	15138
874.722	15108
874.851	15192
874.979	15325
875.108	15241
875.237	15154
875.365	15089
875.494	15211
875.623	15321
875.751	15184
875.88	15173
876.008	15393
876.136	15389
876.265	15675
876.393	15720
876.521	15690
876.65	15732
876.778	15637
876.906	15610
877.034	15660
877.162	15644
877.29	15504
877.418	15542
877.546	15606
877.674	15660
877.802	15694
877.93	15603
878.058	15572
878.185	15496
878.313	15656
878.441	15542
878.568	15454
878.696	15591
878.824	15625
878.951	15698
879.079	15808
879.206	15987
879.333	15774
879.461	15739
879.588	15736
879.715	15823
879.842	15972
879.97	15793
880.097	15488
880.224	15492
880.351	15625
880.478	15530
880.605	15447
880.732	15515
880.859	15724
880.986	15595
881.112	15561
881.239	15298
881.366	15329
881.493	15188
881.619	15188
881.746	15112
881.872	15180
881.999	15062
882.125	15165
882.252	15279
882.378	15226
882.505	15321
882.631	14994
882.757	15001
882.883	15062
883.01	15070
883.136	14925
883.262	14861
883.388	14796
883.514	14986
883.64	14975
883.766	14929
883.892	14815
884.018	14804
884.143	14944
884.269	15074
884.395	14693
884.52	14568
884.646	14549
884.772	14648
884.897	14530
885.023	14556
885.148	14769
885.274	14785
885.399	14826
885.524	14636
885.65	14655
885.775	14678
885.9	14689
886.025	14754
886.15	14815
886.275	14602
886.4	14598
886.525	14560
886.65	14575
886.775	14579
886.9	14834
887.025	14880
887.149	14678
887.274	14541
887.399	14511
887.523	14374
887.648	14431
887.773	14427
887.897	14560
888.021	14594
888.146	14419
888.27	14549
888.395	14632
888.519	14594
888.643	14556
888.767	14602
888.891	14503
889.015	14286
889.139	14415
889.263	14305
889.387	14393
889.511	14457
889.635	14507
889.759	14366
889.883	14286
890.006	14503
890.13	14438
890.254	14332
890.377	14396
890.501	14176
890.624	14237
890.748	14328
890.871	14077
890.995	14077
891.118	13947
891.241	14012
891.364	14119
891.488	14130
891.611	14069
891.734	14164
891.857	14092
891.98	13986
892.103	14134
892.226	14138
892.349	14065
892.471	13917
892.594	14039
892.717	14134
892.839	14001
892.962	14020
893.085	14111
893.207	14039
893.33	13982
893.452	13909
893.575	14115
893.697	14031
893.819	14233
893.941	14286
894.064	14183
894.186	14065
894.308	13963
894.43	14278
894.552	14301
894.674	14210
894.796	14050
894.918	14046
895.04	14058
895.161	14100
895.283	14134
895.405	14046
895.526	14107
895.648	14161
895.769	14149
895.891	14199
896.012	14339
896.134	14145
896.255	14259
896.376	14210
896.498	14218
896.619	14298
896.74	14221
896.861	14393
896.982	14602
897.103	14651
897.224	14579
897.345	14560
897.466	14514
897.587	14469
897.708	14621
897.828	14526
897.949	14507
898.07	14374
898.19	14564
898.311	14617
898.431	14469
898.552	14655
898.672	14663
898.792	14727
898.913	14617
899.033	14480
899.153	14457
899.273	14400
899.393	14457
899.513	14438
899.633	14438
899.753	14431
899.873	14442
899.993	14423
900.113	14423
900.232	14473
900.352	14427
900.472	14415
900.591	14278
900.711	14309
900.83	14324
900.95	14332
901.069	14393
901.189	14305
901.308	14092
901.427	13906
901.546	13989
901.665	13940
901.784	14016
901.904	13879
902.023	13830
902.141	13639
902.26	13559
902.379	13624
902.498	13544
902.617	13552
902.735	13525
902.854	13567
902.973	13559
903.091	13263
903.21	13202
903.328	13251
903.446	13278
903.565	13118
903.683	13247
903.801	13091
903.919	13050
904.038	13118
904.156	12954
904.274	13008
904.392	12897
904.51	12935
904.627	12913
904.745	12947
904.863	12977
904.981	12787
905.098	12593
905.216	12700
905.334	12711
905.451	12681
905.569	12612
905.686	12662
905.803	12684
905.921	12494
906.038	12471
906.155	12479
906.272	12350
906.389	12350
906.506	12239
906.623	12258
906.74	12175
906.857	12114
906.974	12167
907.091	12213
907.208	12304
907.324	12251
907.441	12197
907.557	11920
907.674	12015
907.79	11798
907.907	11973
908.023	11980
908.139	11954
908.256	11935
908.372	11965
908.488	11851
908.604	11726
908.72	11558
908.836	11745
908.952	11729
909.068	11668
909.184	11931
909.3	11760
909.415	11745
909.531	11821
909.647	11520
909.762	11562
909.878	11440
909.993	11562
910.108	11467
910.224	11455
910.339	11440
910.454	11379
910.57	11277
910.685	11280
910.8	11486
910.915	11524
911.03	11383
911.145	11235
911.259	11239
911.374	11155
911.489	11170
911.604	11052
911.718	10946
911.833	11022
911.947	10854
912.062	10809
912.176	10938
912.291	10942
912.405	10995
912.519	11155
912.633	11117
912.748	10999
912.862	10873
912.976	10843
913.09	10668
913.204	10790
913.318	10881
913.431	10949
913.545	10946
913.659	10934
913.772	10847
913.886	10687
914	10755
914.113	10767
914.226	10885
914.34	10801
914.453	10717
914.566	10759
914.68	10736
914.793	10573
914.906	10493
915.019	10417
915.132	10405
915.245	10451
915.358	10500
915.47	10474
915.583	10478
915.696	10573
915.809	10622
915.921	10622
916.034	10470
916.146	10394
916.259	10333
916.371	10527
916.483	10455
916.595	10318
916.708	10379
916.82	10455
916.932	10341
917.044	10386
917.156	10440
917.268	10242
917.38	10341
917.491	10280
917.603	10329
917.715	10371
917.826	10386
917.938	10238
918.049	10177
918.161	10287
918.272	10405
918.384	10363
918.495	10352
918.606	10207
918.717	10124
918.828	10173
918.939	10196
919.05	10162
919.161	10116
919.272	10025
919.383	10090
919.494	10265
919.604	10417
919.715	10249
919.826	10211
919.936	10169
920.047	10295
920.157	10234
920.267	10341
920.378	10238
920.488	10032
920.598	10379
920.708	10447
920.818	10268
920.928	10329
921.038	10630
921.148	10500
921.258	10188
921.368	10196
921.477	10082
921.587	9968
921.697	9915
921.806	10097
921.916	9975
922.025	9865
922.134	9747
922.244	9720
922.353	9838
922.462	9686
922.571	9549
922.68	9401
922.789	9431
922.898	9492
923.007	9332
923.116	9477
923.224	9500
923.333	9443
923.442	9363
923.55	9351
923.659	9367
923.767	9386
923.876	9336
923.984	9386
924.092	9279
924.201	9256
924.309	9321
924.417	9325
924.525	9279
924.633	9275
924.741	10177
924.849	9108
924.956	9173
925.064	9047
925.172	9051
925.279	9104
925.387	9146
925.494	9116
925.602	9203
925.709	9146
925.816	9081
925.924	9169
926.031	9184
926.138	9074
926.245	9097
926.352	9127
926.459	9214
926.566	9180
926.673	9043
926.779	8941
926.886	8914
926.993	8902
927.099	8800
927.206	8796
927.312	8804
927.419	8750
927.525	8758
927.631	8842
927.737	8788
927.843	8678
927.95	8629
928.056	8754
928.162	8708
928.267	8766
928.373	9336
928.479	8826
928.585	8583
928.69	8731
928.796	8746
928.901	8594
929.007	8503
929.112	8590
929.218	8602
929.323	8511
929.428	8598
929.533	8682
929.638	8469
929.743	8533
929.848	8590
929.953	8446
930.058	8427
930.163	8279
930.267	8309
930.372	8412
930.477	8317
930.581	8438
930.685	8366
930.79	8191
930.894	8286
930.998	8237
931.103	8423
931.207	8100
931.311	8039
931.415	8005
931.519	7792
931.623	7769
