Data from test_V78500241_493.txt Node
Date: Fri Mar 25 14:37:09 CST 2022
User: usil
Spectrometer: V785-0024
Trigger mode: 0
Integration Time (sec): 4.000000E-1
Scans to average: 1
Nonlinearity correction enabled: false
Boxcar width: 0
Storing dark spectrum: false
XAxis mode: Wavelengths
Number of Pixels in Spectrum: 1024
>>>>>Begin Spectral Data<<<<<
801.071	26583
801.214	26602
801.356	26294
801.499	26237
801.641	26176
801.783	26130
801.926	26161
802.068	26027
802.211	25887
802.353	25784
802.496	25670
802.638	25605
802.78	25689
802.923	25563
803.065	25426
803.208	25552
803.35	25540
803.492	25658
803.635	25803
803.777	25628
803.919	25552
804.061	25932
804.204	25765
804.346	25529
804.488	25464
804.63	25457
804.773	25373
804.915	25506
805.057	25681
805.199	25476
805.341	25582
805.483	25696
805.626	25658
805.768	25590
805.91	25567
806.052	25575
806.194	25552
806.336	25727
806.478	25506
806.62	25537
806.762	25674
806.904	25925
807.046	26229
807.188	26088
807.33	26001
807.472	26202
807.614	25978
807.756	25963
807.898	25970
808.04	25947
808.182	25917
808.324	26134
808.465	26172
808.607	26343
808.749	26530
808.891	26640
809.033	26861
809.174	26602
809.316	26385
809.458	26431
809.6	26290
809.741	26370
809.883	26229
810.025	26286
810.166	26320
810.308	26328
810.45	26206
810.591	26168
810.733	26183
810.875	26001
811.016	25795
811.158	25750
811.299	26016
811.441	26027
811.582	26020
811.724	26046
811.865	25879
812.007	25875
812.148	25966
812.29	26024
812.431	26012
812.573	26111
812.714	26256
812.855	26366
812.997	26568
813.138	26701
813.279	26469
813.421	26343
813.562	26332
813.703	26126
813.845	26157
813.986	25799
814.127	25491
814.268	25563
814.41	25445
814.551	25491
814.692	25453
814.833	25335
814.974	25453
815.115	25346
815.256	25183
815.397	25308
815.539	25221
815.68	25141
815.821	25129
815.962	25274
816.103	25152
816.244	24905
816.385	24852
816.526	24863
816.666	24757
816.807	24612
816.948	24631
817.089	24665
817.23	24555
817.371	24650
817.512	24540
817.653	24612
817.793	24388
817.934	24486
818.075	24509
818.216	24551
818.356	24456
818.497	24414
818.638	24266
818.778	24258
818.919	24197
819.06	24186
819.2	24410
819.341	24498
819.481	24445
819.622	24551
819.762	24730
819.903	24681
820.043	24582
820.184	24593
820.324	24719
820.465	24703
820.605	24627
820.746	24498
820.886	24350
821.026	24525
821.167	24521
821.307	24513
821.447	24388
821.588	24296
821.728	24152
821.868	23954
822.008	23874
822.149	23779
822.289	23843
822.429	23547
822.569	23509
822.709	23471
822.849	23356
822.99	23421
823.13	23220
823.27	23303
823.41	23044
823.55	23204
823.69	23124
823.83	23105
823.97	23022
824.11	22790
824.25	22896
824.389	22930
824.529	22824
824.669	22702
824.809	22976
824.949	22885
825.089	22995
825.228	22946
825.368	22656
825.508	22618
825.648	22797
825.787	22729
825.927	22759
826.067	22622
826.206	22588
826.346	22656
826.485	22729
826.625	22618
826.765	22752
826.904	22683
827.044	22440
827.183	22287
827.323	22276
827.462	22314
827.601	22421
827.741	22379
827.88	22295
828.02	22246
828.159	22299
828.298	22421
828.437	22325
828.577	22261
828.716	22440
828.855	22314
828.994	22036
829.134	21964
829.273	22006
829.412	21983
829.551	21895
829.69	22013
829.829	22021
829.968	22158
830.107	22090
830.246	21979
830.385	21949
830.524	21842
830.663	21842
830.802	21694
830.941	21583
831.08	21530
831.219	21705
831.357	21599
831.496	21831
831.635	21625
831.774	21515
831.913	21336
832.051	21268
832.19	21401
832.329	21256
832.467	21306
832.606	21226
832.744	21150
832.883	21310
833.022	21256
833.16	21272
833.299	21332
833.437	21321
833.576	21306
833.714	21344
833.852	21348
833.991	21344
834.129	21313
834.267	21317
834.406	21188
834.544	21302
834.682	21214
834.821	21298
834.959	21359
835.097	21222
835.235	21275
835.373	21268
835.511	21233
835.65	21017
835.788	21119
835.926	20979
836.064	20891
836.202	20956
836.34	21051
836.478	21161
836.615	21089
836.753	21127
836.891	21169
837.029	21230
837.167	20929
837.305	21055
837.443	20960
837.58	20838
837.718	20998
837.856	21017
837.993	20891
838.131	20960
838.269	20864
838.406	20785
838.544	20815
838.681	20648
838.819	20701
838.956	20404
839.094	20366
839.231	20450
839.369	20655
839.506	20758
839.643	20651
839.781	20362
839.918	20278
840.055	20347
840.193	20404
840.33	20221
840.467	20309
840.604	20278
840.742	20454
840.879	20199
841.016	20301
841.153	20199
841.29	20465
841.427	20324
841.564	20381
841.701	20336
841.838	20237
841.975	20210
842.112	20126
842.249	20107
842.385	20115
842.522	20305
842.659	20107
842.796	20046
842.933	20035
843.069	19997
843.206	19982
843.343	20115
843.479	20073
843.616	20073
843.752	19909
843.889	19776
844.025	19932
844.162	19807
844.298	19830
844.435	19875
844.571	19772
844.708	19776
844.844	19989
844.98	19982
845.117	19913
845.253	19887
845.389	19772
845.525	19928
845.661	19925
845.798	20046
845.934	20183
846.07	20214
846.206	20271
846.342	20320
846.478	19997
846.614	19693
846.75	19377
846.886	19415
847.022	19388
847.158	19354
847.294	19263
847.429	19274
847.565	19194
847.701	19384
847.837	18966
847.972	18913
848.108	19023
848.244	19053
848.379	18905
848.515	18840
848.65	18776
848.786	18913
848.921	18741
849.057	18863
849.192	18924
849.328	18989
849.463	18821
849.598	18692
849.734	18700
849.869	18681
850.004	18684
850.14	18566
850.275	18578
850.41	18414
850.545	18486
850.68	18551
850.815	18559
850.95	18623
851.085	18772
851.22	18597
851.355	18589
851.49	18338
851.625	18506
851.76	18559
851.895	18365
852.03	18357
852.165	18544
852.299	18616
852.434	18483
852.569	18627
852.703	18506
852.838	18608
852.973	18738
853.107	18673
853.242	18494
853.376	18426
853.511	18273
853.645	18410
853.78	18513
853.914	18346
854.048	18403
854.183	18407
854.317	18445
854.451	18452
854.585	18365
854.72	18357
854.854	18506
854.988	18308
855.122	18433
855.256	18315
855.39	18456
855.524	18555
855.658	18460
855.792	18422
855.926	18475
856.06	18490
856.194	18479
856.327	18410
856.461	18323
856.595	18281
856.729	18338
856.862	18486
856.996	18437
857.13	18483
857.263	18380
857.397	18555
857.53	18334
857.664	18338
857.797	18319
857.931	18483
858.064	18384
858.197	18555
858.331	18380
858.464	18384
858.597	18216
858.731	18357
858.864	18308
858.997	18311
859.13	18456
859.263	18361
859.396	18422
859.529	18464
859.662	18220
859.795	18296
859.928	18254
860.061	18327
860.194	18460
860.327	18266
860.46	18391
860.592	18403
860.725	18479
860.858	18350
860.99	18308
861.123	18258
861.256	18201
861.388	18357
861.521	19160
861.653	18174
861.786	18266
861.918	18163
862.05	18361
862.183	18350
862.315	18334
862.447	18391
862.58	18159
862.712	18148
862.844	18019
862.976	18125
863.108	18159
863.24	18578
863.372	18072
863.504	18095
863.636	18015
863.768	18140
863.9	17984
864.032	17927
864.164	18022
864.296	18106
864.428	18133
864.559	18091
864.691	18034
864.823	18091
864.954	17977
865.086	17996
865.217	17939
865.349	17904
865.48	18026
865.612	17969
865.743	18091
865.875	17996
866.006	18034
866.137	17946
866.269	17931
866.4	18045
866.531	17866
866.662	17866
866.793	17863
866.924	17961
867.055	18053
867.186	17920
867.317	17771
867.448	17798
867.579	17885
867.71	17954
867.841	17870
867.972	17958
868.103	17863
868.233	17897
868.364	17958
868.495	18015
868.625	18110
868.756	18174
868.886	18034
869.017	18167
869.147	18216
869.278	18365
869.408	18205
869.539	18129
869.669	18220
869.799	18243
869.929	18273
870.06	18361
870.19	18498
870.32	18407
870.45	18433
870.58	18464
870.71	18642
870.84	18536
870.97	18490
871.1	18460
871.23	18692
871.36	18661
871.489	18700
871.619	18696
871.749	18631
871.879	18692
872.008	18821
872.138	18692
872.267	18871
872.397	18749
872.526	18677
872.656	18528
872.785	18741
872.915	18783
873.044	18829
873.173	18840
873.303	18791
873.432	18821
873.561	18821
873.69	18795
873.819	18821
873.948	18837
874.077	18741
874.206	18840
874.335	18810
874.464	18954
874.593	19107
874.722	18977
874.851	19198
874.979	19171
875.108	19164
875.237	19069
875.365	18943
875.494	19027
875.623	19057
875.751	19137
875.88	19103
876.008	19228
876.136	19175
876.265	19495
876.393	19575
876.521	19586
876.65	19468
876.778	19521
876.906	19388
877.034	19483
877.162	19476
877.29	19285
877.418	19449
877.546	19514
877.674	19499
877.802	19331
877.93	19571
878.058	19434
878.185	19331
878.313	19525
878.441	19480
878.568	19396
878.696	19502
878.824	19556
878.951	19715
879.079	19750
879.206	19978
879.333	19913
879.461	19868
879.588	19921
879.715	19993
879.842	20031
879.97	19753
880.097	19548
880.224	19537
880.351	19468
880.478	19441
880.605	19400
880.732	19384
880.859	19632
880.986	19499
881.112	19343
881.239	19247
881.366	19244
881.493	19099
881.619	19076
881.746	19046
881.872	19019
881.999	19042
882.125	18973
882.252	19171
882.378	19072
882.505	19038
882.631	18878
882.757	18741
882.883	18951
883.01	18802
883.136	18783
883.262	18639
883.388	18623
883.514	18787
883.64	18791
883.766	18688
883.892	18551
884.018	18570
884.143	18696
884.269	18863
884.395	18589
884.52	18498
884.646	18494
884.772	18467
884.897	18342
885.023	18410
885.148	18532
885.274	18547
885.399	18475
885.524	18433
885.65	18433
885.775	18441
885.9	18486
886.025	18509
886.15	18407
886.275	18353
886.4	18251
886.525	18414
886.65	18338
886.775	18228
886.9	18445
887.025	18612
887.149	18369
887.274	18197
887.399	18087
887.523	18205
887.648	18205
887.773	18110
887.897	18129
888.021	18140
888.146	18060
888.27	18224
888.395	18319
888.519	18117
888.643	18098
888.767	18053
888.891	18079
889.015	17927
889.139	17996
889.263	17954
889.387	18098
889.511	18159
889.635	18083
889.759	17794
889.883	17939
890.006	17969
890.13	18034
890.254	17855
890.377	17863
890.501	17722
890.624	17668
890.748	17821
890.871	17661
890.995	17566
891.118	17532
891.241	17547
891.364	17547
891.488	17714
891.611	17497
891.734	17665
891.857	17615
891.98	17490
892.103	17676
892.226	17619
892.349	17551
892.471	17341
892.594	17577
892.717	17512
892.839	17421
892.962	17455
893.085	17653
893.207	17467
893.33	17368
893.452	17368
893.575	17539
893.697	17551
893.819	17581
893.941	17661
894.064	17653
894.186	17478
894.308	17421
894.43	17642
894.552	17604
894.674	17501
894.796	17463
894.918	17490
895.04	17497
895.161	17634
895.283	17467
895.405	17535
895.526	17528
895.648	17455
895.769	17467
895.891	17573
896.012	17653
896.134	17539
896.255	17638
896.376	17463
896.498	17600
896.619	17592
896.74	17695
896.861	17642
896.982	17946
897.103	18213
897.224	17840
897.345	17760
897.466	17809
897.587	17851
897.708	17946
897.828	17904
897.949	17851
898.07	17611
898.19	17729
898.311	17931
898.431	17741
898.552	17805
898.672	17954
898.792	17870
898.913	17828
899.033	17748
899.153	17543
899.273	17539
899.393	17577
899.513	17600
899.633	17668
899.753	17570
899.873	17642
899.993	17657
900.113	17558
900.232	17501
900.352	17463
900.472	17505
900.591	17436
900.711	17452
900.83	17410
900.95	17539
901.069	17505
901.189	17406
901.308	17128
901.427	17037
901.546	16976
901.665	17128
901.784	17086
901.904	16877
902.023	16976
902.141	16607
902.26	16561
902.379	16683
902.498	16561
902.617	16500
902.735	16500
902.854	16645
902.973	16519
903.091	16287
903.21	16246
903.328	16295
903.446	16204
903.565	16154
903.683	16120
903.801	15975
903.919	16067
904.038	16051
904.156	15838
904.274	15899
904.392	15823
904.51	15918
904.627	15720
904.745	15861
904.863	15789
904.981	15762
905.098	15542
905.216	15504
905.334	15667
905.451	15545
905.569	15507
905.686	15526
905.803	15473
905.921	15363
906.038	15454
906.155	15291
906.272	15245
906.389	15249
906.506	15009
906.623	15108
906.74	15017
906.857	15077
906.974	15001
907.091	15150
907.208	15203
907.324	14960
907.441	14937
907.557	14883
907.674	14754
907.79	14712
907.907	14838
908.023	14800
908.139	14792
908.256	14708
908.372	14697
908.488	14606
908.604	14564
908.72	14465
908.836	14549
908.952	14434
909.068	14579
909.184	14602
909.3	14404
909.415	14533
909.531	14461
909.647	14267
909.762	14218
909.878	14233
909.993	14130
910.108	14164
910.224	14229
910.339	14248
910.454	14149
910.57	14103
910.685	13887
910.8	14259
910.915	14157
911.03	14024
911.145	13849
911.259	13841
911.374	13906
911.489	13708
911.604	13772
911.718	13674
911.833	13559
911.947	13480
912.062	13548
912.176	13537
912.291	13502
912.405	13495
912.519	13803
912.633	13860
912.748	13639
912.862	13655
912.976	13419
913.09	13251
913.204	13362
913.318	13441
913.431	13529
913.545	13601
913.659	13582
913.772	13460
913.886	13335
914	13301
914.113	13282
914.226	13407
914.34	13377
914.453	13194
914.566	13396
914.68	13141
914.793	13126
914.906	13015
915.019	12897
915.132	12897
915.245	12958
915.358	12985
915.47	12973
915.583	12852
915.696	13019
915.809	13034
915.921	13118
916.034	12939
916.146	12814
916.259	12890
916.371	12981
916.483	12871
916.595	12795
916.708	12875
916.82	12859
916.932	12776
917.044	12734
917.156	12741
917.268	12650
917.38	12700
917.491	12597
917.603	12700
917.715	12768
917.826	12768
917.938	12574
918.049	12517
918.161	12654
918.272	12662
918.384	12817
918.495	12559
918.606	12448
918.717	12353
918.828	12483
918.939	12445
919.05	12441
919.161	12391
919.272	12319
919.383	12289
919.494	12490
919.604	12585
919.715	12479
919.826	12418
919.936	12475
920.047	12464
920.157	12422
920.267	12673
920.378	12490
920.488	12437
920.598	12677
920.708	12795
920.818	12555
920.928	12612
921.038	12776
921.148	12764
921.258	12448
921.368	12296
921.477	12251
921.587	12163
921.697	12106
921.806	12251
921.916	12102
922.025	11927
922.134	11912
922.244	11783
922.353	11996
922.462	11745
922.571	11703
922.68	11547
922.789	11467
922.898	11600
923.007	11478
923.116	11604
923.224	11615
923.333	11509
923.442	11433
923.55	11433
923.659	11417
923.767	11490
923.876	11398
923.984	11421
924.092	11330
924.201	11455
924.309	11379
924.417	11345
924.525	11265
924.633	11311
924.741	12190
924.849	11109
924.956	11307
925.064	11166
925.172	11064
925.279	11060
925.387	11136
925.494	11140
925.602	11265
925.709	11185
925.816	11041
925.924	11071
926.031	11223
926.138	10972
926.245	11109
926.352	11075
926.459	11174
926.566	11147
926.673	10991
926.779	10915
926.886	10801
926.993	10843
927.099	10744
927.206	10660
927.312	10668
927.419	10812
927.525	10698
927.631	10797
927.737	10550
927.843	10634
927.95	10500
928.056	10634
928.162	10584
928.267	10615
928.373	11056
928.479	10710
928.585	10485
928.69	10546
928.796	10641
928.901	10500
929.007	10367
929.112	10367
929.218	10455
929.323	10333
929.428	10375
929.533	10424
929.638	10284
929.743	10314
929.848	10394
929.953	10284
930.058	10219
930.163	10082
930.267	10139
930.372	10227
930.477	10093
930.581	10253
930.685	10143
930.79	9903
930.894	10013
930.998	9922
931.103	10173
931.207	9751
931.311	9644
931.415	9637
931.519	9420
931.623	9458
