Data from test_V78500241_824.txt Node
Date: Fri Mar 25 14:39:27 CST 2022
User: usil
Spectrometer: V785-0024
Trigger mode: 0
Integration Time (sec): 4.000000E-1
Scans to average: 1
Nonlinearity correction enabled: false
Boxcar width: 0
Storing dark spectrum: false
XAxis mode: Wavelengths
Number of Pixels in Spectrum: 1024
>>>>>Begin Spectral Data<<<<<
801.071	26168
801.214	26199
801.356	25788
801.499	25803
801.641	25613
801.783	25453
801.926	25537
802.068	25514
802.211	25331
802.353	25449
802.496	25050
802.638	25141
802.78	25164
802.923	25023
803.065	25099
803.208	25031
803.35	25061
803.492	25088
803.635	25251
803.777	25232
803.919	25099
804.061	25426
804.204	25232
804.346	25145
804.488	25027
804.63	25244
804.773	25042
804.915	25274
805.057	25441
805.199	25285
805.341	25377
805.483	25548
805.626	25647
805.768	25495
805.91	25609
806.052	25738
806.194	25613
806.336	26046
806.478	26058
806.62	26157
806.762	26385
806.904	26754
807.046	27241
807.188	27188
807.33	27576
807.472	28067
807.614	28443
807.756	29147
807.898	29794
808.04	30711
808.182	32328
808.324	34101
808.465	36049
808.607	38412
808.749	40459
808.891	41706
809.033	41676
809.174	40519
809.316	38667
809.458	36060
809.6	33743
809.741	31989
809.883	30570
810.025	29558
810.166	28831
810.308	28375
810.45	27747
810.591	27485
810.733	27039
810.875	26549
811.016	26320
811.158	26278
811.299	26282
811.441	26237
811.582	26142
811.724	26012
811.865	25776
812.007	25799
812.148	25708
812.29	25731
812.431	25772
812.573	25860
812.714	25955
812.855	26115
812.997	26081
813.138	26187
813.279	26119
813.421	25902
813.562	25871
813.703	25704
813.845	25422
813.986	25263
814.127	25012
814.268	24867
814.41	24882
814.551	24696
814.692	24886
814.833	24658
814.974	24715
815.115	24806
815.256	24585
815.397	24414
815.539	24445
815.68	24502
815.821	24273
815.962	24361
816.103	24384
816.244	24296
816.385	24106
816.526	23965
816.666	23813
816.807	23733
816.948	23824
817.089	23805
817.23	23828
817.371	23775
817.512	23771
817.653	23581
817.793	23672
817.934	23653
818.075	23604
818.216	23687
818.356	23573
818.497	23630
818.638	23356
818.778	23193
818.919	23398
819.06	23444
819.2	23467
819.341	23554
819.481	23600
819.622	23665
819.762	23897
819.903	23638
820.043	23668
820.184	23585
820.324	23554
820.465	23646
820.605	23528
820.746	23600
820.886	23372
821.026	23391
821.167	23501
821.307	23436
821.447	23337
821.588	23326
821.728	23170
821.868	22930
822.008	22965
822.149	22839
822.289	22694
822.429	22554
822.569	22542
822.709	22527
822.849	22295
822.99	22299
823.13	22337
823.27	22169
823.41	21991
823.55	21979
823.69	22059
823.83	22147
823.97	21934
824.11	21785
824.25	21774
824.389	21869
824.529	21808
824.669	21736
824.809	21899
824.949	21903
825.089	21907
825.228	21732
825.368	21656
825.508	21652
825.648	21488
825.787	21717
825.927	21701
826.067	21698
826.206	21660
826.346	21739
826.485	21690
826.625	21629
826.765	21728
826.904	21682
827.044	21310
827.183	21378
827.323	21256
827.462	21317
827.601	21272
827.741	21233
827.88	21321
828.02	21123
828.159	21313
828.298	21317
828.437	21218
828.577	21127
828.716	21283
828.855	21157
828.994	20975
829.134	21009
829.273	21036
829.412	20944
829.551	20826
829.69	20849
829.829	20887
829.968	21028
830.107	20986
830.246	20902
830.385	20811
830.524	20796
830.663	20712
830.802	20667
830.941	20518
831.08	20522
831.219	20648
831.357	20655
831.496	20712
831.635	20564
831.774	20343
831.913	20454
832.051	20438
832.19	20336
832.329	20446
832.467	20381
832.606	20240
832.744	20237
832.883	20446
833.022	20484
833.16	20514
833.299	20511
833.437	20613
833.576	20724
833.714	20796
833.852	20967
833.991	21093
834.129	21157
834.267	21116
834.406	20982
834.544	21028
834.682	20967
834.821	20861
834.959	21005
835.097	20617
835.235	20678
835.373	20625
835.511	20518
835.65	20389
835.788	20389
835.926	20039
836.064	20050
836.202	19986
836.34	20126
836.478	20240
836.615	20122
836.753	20077
836.891	20134
837.029	20084
837.167	20050
837.305	19890
837.443	19936
837.58	19856
837.718	19970
837.856	19936
837.993	19879
838.131	19932
838.269	19868
838.406	19753
838.544	19681
838.681	19601
838.819	19620
838.956	19358
839.094	19255
839.231	19381
839.369	19441
839.506	19704
839.643	19605
839.781	19419
839.918	19339
840.055	19346
840.193	19407
840.33	19304
840.467	19213
840.604	19392
840.742	19582
840.879	19110
841.016	19278
841.153	19183
841.29	19362
841.427	19297
841.564	19381
841.701	19373
841.838	19339
841.975	19263
842.112	19198
842.249	19023
842.385	19107
842.522	19293
842.659	19156
842.796	19126
842.933	19209
843.069	19103
843.206	19084
843.343	19122
843.479	19244
843.616	19209
843.752	19038
843.889	19034
844.025	19304
844.162	19031
844.298	19339
844.435	19308
844.571	19400
844.708	19616
844.844	20100
844.98	20229
845.117	20640
845.253	21131
845.389	22257
845.525	24722
845.661	28596
845.798	33294
845.934	36890
846.07	38465
846.206	37788
846.342	34691
846.478	29889
846.614	25647
846.75	22957
846.886	21462
847.022	20446
847.158	19928
847.294	19373
847.429	19164
847.565	18875
847.701	19122
847.837	18616
847.972	18365
848.108	18418
848.244	18486
848.379	18174
848.515	18167
848.65	18133
848.786	18098
848.921	18076
849.057	18110
849.192	18182
849.328	18114
849.463	18114
849.598	17912
849.734	17836
849.869	17836
850.004	17748
850.14	17870
850.275	17703
850.41	17668
850.545	17623
850.68	17737
850.815	17642
850.95	17649
851.085	17931
851.22	17790
851.355	17779
851.49	17668
851.625	17642
851.76	17737
851.895	17554
852.03	17737
852.165	17870
852.299	17802
852.434	17824
852.569	17726
852.703	17737
852.838	17851
852.973	17961
853.107	17916
853.242	17813
853.376	17779
853.511	17623
853.645	17805
853.78	17897
853.914	17779
854.048	17786
854.183	17805
854.317	17916
854.451	18015
854.585	17847
854.72	17817
854.854	17954
854.988	17649
855.122	17714
855.256	17649
855.39	17733
855.524	17741
855.658	17680
855.792	17733
855.926	17646
856.06	17691
856.194	17783
856.327	17474
856.461	17535
856.595	17570
856.729	17627
856.862	17585
856.996	17516
857.13	17657
857.263	17680
857.397	17619
857.53	17512
857.664	17577
857.797	17642
857.931	17562
858.064	17604
858.197	17528
858.331	17436
858.464	17452
858.597	17455
858.731	17410
858.864	17474
858.997	17444
859.13	17471
859.263	17471
859.396	17532
859.529	17417
859.662	17372
859.795	17280
859.928	17478
860.061	17570
860.194	17562
860.327	17398
860.46	17410
860.592	17577
860.725	17524
860.858	17528
860.99	17448
861.123	17330
861.256	17322
861.388	17402
861.521	17908
861.653	17284
861.786	17155
861.918	17303
862.05	17315
862.183	17459
862.315	17410
862.447	17402
862.58	17330
862.712	17220
862.844	17132
862.976	17200
863.108	17284
863.24	17505
863.372	17083
863.504	17200
863.636	17113
863.768	17258
863.9	17170
864.032	17162
864.164	17136
864.296	17094
864.428	17208
864.559	17239
864.691	17250
864.823	17254
864.954	17265
865.086	17162
865.217	17064
865.349	17098
865.48	17075
865.612	17075
865.743	17258
865.875	17155
866.006	16991
866.137	17170
866.269	17166
866.4	17102
866.531	17060
866.662	16946
866.793	16949
866.924	17033
867.055	17071
867.186	16984
867.317	17071
867.448	16999
867.579	16999
867.71	16972
867.841	16972
867.972	17071
868.103	17037
868.233	17090
868.364	17048
868.495	17117
868.625	17334
868.756	17406
868.886	17292
869.017	17280
869.147	17440
869.278	17421
869.408	17292
869.539	17353
869.669	17417
869.799	17417
869.929	17501
870.06	17315
870.19	17756
870.32	17642
870.45	17653
870.58	17779
870.71	17786
870.84	17824
870.97	17764
871.1	17748
871.23	17980
871.36	17988
871.489	17885
871.619	17878
871.749	18003
871.879	18026
872.008	18091
872.138	18045
872.267	18079
872.397	17824
872.526	17866
872.656	17809
872.785	17893
872.915	18091
873.044	18117
873.173	18152
873.303	18148
873.432	18125
873.561	18270
873.69	18129
873.819	18254
873.948	18323
874.077	18315
874.206	18167
874.335	18289
874.464	18342
874.593	18532
874.722	18623
874.851	18601
874.979	18631
875.108	18635
875.237	18597
875.365	18623
875.494	18635
875.623	18825
875.751	18631
875.88	18852
876.008	18985
876.136	19019
876.265	19449
876.393	19502
876.521	19571
876.65	19407
876.778	19422
876.906	19381
877.034	19460
877.162	19457
877.29	19430
877.418	19681
877.546	19639
877.674	19704
877.802	19852
877.93	19959
878.058	19925
878.185	20027
878.313	20400
878.441	20522
878.568	20731
878.696	21310
878.824	21732
878.951	22702
879.079	23718
879.206	25327
879.333	26537
879.461	27755
879.588	28592
879.715	28622
879.842	27998
879.97	26568
880.097	25031
880.224	23851
880.351	23136
880.478	22508
880.605	22025
880.732	21789
880.859	21869
880.986	21572
881.112	21416
881.239	21317
881.366	21119
881.493	21032
881.619	21074
881.746	21077
881.872	21104
881.999	20982
882.125	21207
882.252	21214
882.378	21154
882.505	21321
882.631	21142
882.757	21036
882.883	21131
883.01	21020
883.136	20929
883.262	20902
883.388	20834
883.514	21017
883.64	20880
883.766	20925
883.892	20746
884.018	20739
884.143	20952
884.269	20967
884.395	20762
884.52	20712
884.646	20705
884.772	20663
884.897	20514
885.023	20674
885.148	20746
885.274	20830
885.399	20773
885.524	20374
885.65	20374
885.775	20587
885.9	20271
886.025	20263
886.15	20191
886.275	19944
886.4	19818
886.525	19738
886.65	19548
886.775	19578
886.9	19681
887.025	19693
887.149	19392
887.274	19198
887.399	19080
887.523	19000
887.648	18943
887.773	18973
887.897	18954
888.021	18924
888.146	18658
888.27	18802
888.395	18909
888.519	18779
888.643	18726
888.767	18593
888.891	18486
889.015	18506
889.139	18369
889.263	18330
889.387	18441
889.511	18502
889.635	18460
889.759	18209
889.883	18144
890.006	18178
890.13	18342
890.254	18159
890.377	18091
890.501	17935
890.624	17821
890.748	17996
890.871	17824
890.995	17722
891.118	17653
891.241	17665
891.364	17668
891.488	17779
891.611	17547
891.734	17611
891.857	17589
891.98	17585
892.103	17539
892.226	17558
892.349	17478
892.471	17311
892.594	17467
892.717	17433
892.839	17436
892.962	17379
893.085	17455
893.207	17402
893.33	17174
893.452	17170
893.575	17258
893.697	17147
893.819	17433
893.941	17398
894.064	17353
894.186	17212
894.308	17220
894.43	17349
894.552	17284
894.674	17254
894.796	17098
894.918	17200
895.04	17075
895.161	17162
895.283	17189
895.405	17102
895.526	17159
895.648	17166
895.769	17075
895.891	17022
896.012	17128
896.134	17174
896.255	17128
896.376	17075
896.498	17041
896.619	17147
896.74	17147
896.861	17162
896.982	17383
897.103	17558
897.224	17349
897.345	17414
897.466	17132
897.587	17166
897.708	17406
897.828	17391
897.949	17231
898.07	17136
898.19	17181
898.311	17356
898.431	17208
898.552	17360
898.672	17337
898.792	17231
898.913	17402
899.033	17162
899.153	17121
899.273	17018
899.393	17094
899.513	17181
899.633	17132
899.753	17193
899.873	17045
899.993	17178
900.113	17033
900.232	17132
900.352	17003
900.472	17086
900.591	16892
900.711	16946
900.83	16965
900.95	17037
901.069	17105
901.189	16953
901.308	16702
901.427	16577
901.546	16554
901.665	16558
901.784	16561
901.904	16363
902.023	16341
902.141	16158
902.26	16131
902.379	16158
902.498	15964
902.617	15903
902.735	16105
902.854	15998
902.973	15880
903.091	15709
903.21	15717
903.328	15739
903.446	15618
903.565	15564
903.683	15462
903.801	15428
903.919	15507
904.038	15473
904.156	15405
904.274	15359
904.392	15214
904.51	15268
904.627	15142
904.745	15340
904.863	15249
904.981	15001
905.098	14872
905.216	15005
905.334	14963
905.451	14902
905.569	14826
905.686	14872
905.803	14990
905.921	14648
906.038	14781
906.155	14667
906.272	14655
906.389	14507
906.506	14381
906.623	14393
906.74	14469
906.857	14393
906.974	14370
907.091	14465
907.208	14575
907.324	14431
907.441	14366
907.557	14183
907.674	14130
907.79	14054
907.907	14046
908.023	14119
908.139	14084
908.256	14054
908.372	14103
908.488	13967
908.604	13875
908.72	13921
908.836	13890
908.952	13822
909.068	13814
909.184	13898
909.3	13795
909.415	14005
909.531	13875
909.647	13590
909.762	13594
909.878	13529
909.993	13670
910.108	13658
910.224	13647
910.339	13559
910.454	13441
910.57	13373
910.685	13422
910.8	13518
910.915	13529
911.03	13403
911.145	13274
911.259	13206
911.374	13312
911.489	13247
911.604	13107
911.718	12996
911.833	13015
911.947	12985
912.062	12810
912.176	13027
912.291	12905
912.405	13015
912.519	13228
912.633	13247
912.748	13046
912.862	12939
912.976	12833
913.09	12703
913.204	12829
913.318	12875
913.431	12878
913.545	12890
913.659	12981
913.772	12867
913.886	12631
914	12707
914.113	12814
914.226	12722
914.34	12829
914.453	12665
914.566	12802
914.68	12578
914.793	12635
914.906	12513
915.019	12418
915.132	12350
915.245	12407
915.358	12475
915.47	12475
915.583	12426
915.696	12513
915.809	12544
915.921	12623
916.034	12365
916.146	12346
916.259	12391
916.371	12525
916.483	12361
916.595	12311
916.708	12365
916.82	12338
916.932	12270
917.044	12327
917.156	12315
917.268	12159
917.38	12194
917.491	12216
917.603	12327
917.715	12251
917.826	12228
917.938	12213
918.049	12076
918.161	12129
918.272	12205
918.384	12201
918.495	12140
918.606	12026
918.717	11954
918.828	11961
918.939	11908
919.05	11893
919.161	11912
919.272	11714
919.383	11859
919.494	11954
919.604	12194
919.715	11950
919.826	11908
919.936	11901
920.047	12007
920.157	11954
920.267	12098
920.378	11988
920.488	11923
920.598	12148
920.708	12285
920.818	12076
920.928	12152
921.038	12289
921.148	12243
921.258	11946
921.368	11859
921.477	11798
921.587	11710
921.697	11649
921.806	11767
921.916	11627
922.025	11383
922.134	11379
922.244	11330
922.353	11421
922.462	11322
922.571	11155
922.68	11170
922.789	11025
922.898	11079
923.007	11014
923.116	11083
923.224	11098
923.333	11086
923.442	10862
923.55	10976
923.659	11006
923.767	11014
923.876	10927
923.984	10908
924.092	10877
924.201	10961
924.309	10839
924.417	10904
924.525	10866
924.633	10812
924.741	11752
924.849	10641
924.956	10755
925.064	10656
925.172	10554
925.279	10645
925.387	10649
925.494	10683
925.602	10729
925.709	10774
925.816	10599
925.924	10706
926.031	10725
926.138	10596
926.245	10687
926.352	10550
926.459	10634
926.566	10694
926.673	10462
926.779	10478
926.886	10382
926.993	10303
927.099	10344
927.206	10261
927.312	10272
927.419	10428
927.525	10272
927.631	10295
927.737	10253
927.843	10204
927.95	10097
928.056	10200
928.162	10139
928.267	10227
928.373	10835
928.479	10265
928.585	10010
928.69	10120
928.796	10147
928.901	10082
929.007	9895
929.112	10013
929.218	10002
929.323	10017
929.428	9930
929.533	10093
929.638	9861
929.743	9945
929.848	9941
929.953	9956
930.058	9838
930.163	9709
930.267	9660
930.372	9865
930.477	9644
930.581	9953
930.685	9747
930.79	9572
930.894	9652
930.998	9599
931.103	9686
931.207	9306
931.311	9370
931.415	9256
931.519	9051
931.623	9001
