Data from test_V78500241_934.txt Node
Date: Fri Mar 25 14:40:13 CST 2022
User: usil
Spectrometer: V785-0024
Trigger mode: 0
Integration Time (sec): 4.000000E-1
Scans to average: 1
Nonlinearity correction enabled: false
Boxcar width: 0
Storing dark spectrum: false
XAxis mode: Wavelengths
Number of Pixels in Spectrum: 1024
>>>>>Begin Spectral Data<<<<<
801.071	24555
801.214	24391
801.356	24038
801.499	23988
801.641	24026
801.783	23805
801.926	23737
802.068	23703
802.211	23592
802.353	23619
802.496	23478
802.638	23318
802.78	23303
802.923	23212
803.065	23204
803.208	23204
803.35	23121
803.492	23242
803.635	23261
803.777	23140
803.919	23208
804.061	23570
804.204	23242
804.346	23128
804.488	23136
804.63	23185
804.773	23121
804.915	23242
805.057	23223
805.199	23162
805.341	23311
805.483	23299
805.626	23208
805.768	23223
805.91	23166
806.052	23231
806.194	23250
806.336	23497
806.478	23303
806.62	23334
806.762	23566
806.904	23733
807.046	23824
807.188	23893
807.33	23851
807.472	24053
807.614	23958
807.756	24155
807.898	24117
808.04	24205
808.182	24544
808.324	24798
808.465	25388
808.607	25868
808.749	26145
808.891	26450
809.033	26453
809.174	26149
809.316	25940
809.458	25381
809.6	25015
809.741	24875
809.883	24490
810.025	24437
810.166	24323
810.308	24224
810.45	24015
810.591	24114
810.733	23859
810.875	23638
811.016	23547
811.158	23539
811.299	23600
811.441	23592
811.582	23638
811.724	23429
811.865	23398
812.007	23414
812.148	23474
812.29	23379
812.431	23619
812.573	23805
812.714	23859
812.855	23870
812.997	23920
813.138	24155
813.279	24026
813.421	23977
813.562	23973
813.703	23676
813.845	23661
813.986	23261
814.127	23056
814.268	22942
814.41	23048
814.551	22976
814.692	23124
814.833	22877
814.974	22839
815.115	22965
815.256	22763
815.397	22778
815.539	22843
815.68	22603
815.821	22607
815.962	22637
816.103	22637
816.244	22478
816.385	22348
816.526	22542
816.666	22177
816.807	21991
816.948	22112
817.089	22284
817.23	22055
817.371	22200
817.512	22006
817.653	22044
817.793	21991
817.934	22074
818.075	22067
818.216	21953
818.356	22021
818.497	21785
818.638	21778
818.778	21785
818.919	21732
819.06	21793
819.2	21850
819.341	21819
819.481	21964
819.622	22086
819.762	22344
819.903	22143
820.043	22006
820.184	22101
820.324	21953
820.465	22032
820.605	21998
820.746	21854
820.886	21831
821.026	21968
821.167	21831
821.307	21991
821.447	21861
821.588	21728
821.728	21507
821.868	21568
822.008	21355
822.149	21351
822.289	21405
822.429	21116
822.569	20986
822.709	21085
822.849	20765
822.99	20857
823.13	20758
823.27	20857
823.41	20644
823.55	20522
823.69	20598
823.83	20667
823.97	20560
824.11	20503
824.25	20275
824.389	20381
824.529	20427
824.669	20400
824.809	20541
824.949	20560
825.089	20511
825.228	20454
825.368	20248
825.508	20172
825.648	20278
825.787	20142
825.927	20301
826.067	20172
826.206	20115
826.346	20191
826.485	20221
826.625	20229
826.765	20332
826.904	20180
827.044	20077
827.183	19822
827.323	19712
827.462	20005
827.601	19906
827.741	19795
827.88	19833
828.02	19719
828.159	19742
828.298	19868
828.437	19936
828.577	19772
828.716	19963
828.855	19826
828.994	19746
829.134	19594
829.273	19628
829.412	19556
829.551	19518
829.69	19613
829.829	19571
829.968	19734
830.107	19559
830.246	19632
830.385	19426
830.524	19502
830.663	19422
830.802	19324
830.941	19103
831.08	19145
831.219	19183
831.357	19213
831.496	19354
831.635	19213
831.774	19118
831.913	19080
832.051	18943
832.19	18966
832.329	18939
832.467	18852
832.606	18734
832.744	18882
832.883	18814
833.022	18859
833.16	18760
833.299	18916
833.437	18890
833.576	18943
833.714	18875
833.852	18966
833.991	18932
834.129	19110
834.267	19091
834.406	18928
834.544	18951
834.682	18977
834.821	18886
834.959	19171
835.097	18981
835.235	18913
835.373	18810
835.511	18970
835.65	18768
835.788	18802
835.926	18547
836.064	18525
836.202	18574
836.34	18719
836.478	18696
836.615	18749
836.753	18722
836.891	18814
837.029	18802
837.167	18707
837.305	18692
837.443	18570
837.58	18513
837.718	18620
837.856	18635
837.993	18528
838.131	18525
838.269	18479
838.406	18391
838.544	18395
838.681	18159
838.819	18285
838.956	18079
839.094	18076
839.231	18068
839.369	18194
839.506	18414
839.643	18315
839.781	18095
839.918	17931
840.055	18106
840.193	18121
840.33	17935
840.467	18068
840.604	17992
840.742	18292
840.879	17931
841.016	17931
841.153	17946
841.29	18190
841.427	18125
841.564	18007
841.701	17965
841.838	17863
841.975	17958
842.112	17961
842.249	17775
842.385	17790
842.522	17969
842.659	17775
842.796	17866
842.933	17718
843.069	17783
843.206	17668
843.343	17904
843.479	17817
843.616	17901
843.752	17581
843.889	17566
844.025	17684
844.162	17604
844.298	17699
844.435	17653
844.571	17592
844.708	17752
844.844	17931
844.98	18030
845.117	17977
845.253	17935
845.389	18106
845.525	18437
845.661	19084
845.798	19814
845.934	20598
846.07	20754
846.206	20739
846.342	20263
846.478	19403
846.614	18544
846.75	17961
846.886	17577
847.022	17585
847.158	17349
847.294	17296
847.429	17254
847.565	17235
847.701	17364
847.837	16980
847.972	16896
848.108	16999
848.244	16889
848.379	16717
848.515	16721
848.65	16740
848.786	16691
848.921	16809
849.057	16793
849.192	16793
849.328	16790
849.463	16736
849.598	16710
849.734	16626
849.869	16645
850.004	16360
850.14	16512
850.275	16481
850.41	16318
850.545	16375
850.68	16466
850.815	16497
850.95	16596
851.085	16653
851.22	16538
851.355	16481
851.49	16390
851.625	16341
851.76	16455
851.895	16341
852.03	16272
852.165	16451
852.299	16592
852.434	16535
852.569	16508
852.703	16451
852.838	16474
852.973	16634
853.107	16588
853.242	16508
853.376	16333
853.511	16226
853.645	16337
853.78	16440
853.914	16470
854.048	16219
854.183	16249
854.317	16344
854.451	16558
854.585	16382
854.72	16276
854.854	16322
854.988	16291
855.122	16303
855.256	16131
855.39	16268
855.524	16352
855.658	16352
855.792	16261
855.926	16322
856.06	16344
856.194	16272
856.327	16310
856.461	16246
856.595	16223
856.729	16261
856.862	16379
856.996	16367
857.13	16375
857.263	16481
857.397	16394
857.53	16204
857.664	16287
857.797	16325
857.931	16363
858.064	16375
858.197	16363
858.331	16310
858.464	16181
858.597	16147
858.731	16246
858.864	16223
858.997	16295
859.13	16265
859.263	16303
859.396	16360
859.529	16196
859.662	16261
859.795	16238
859.928	16257
860.061	16344
860.194	16303
860.327	16272
860.46	16181
860.592	16318
860.725	16386
860.858	16299
860.99	16280
861.123	16207
861.256	16196
861.388	16268
861.521	16831
861.653	16131
861.786	16093
861.918	16177
862.05	16097
862.183	16242
862.315	16185
862.447	16246
862.58	16249
862.712	16055
862.844	15930
862.976	16044
863.108	15994
863.24	16573
863.372	15873
863.504	15983
863.636	16067
863.768	15945
863.9	16055
864.032	15819
864.164	16036
864.296	16044
864.428	16029
864.559	16063
864.691	16124
864.823	15979
864.954	16013
865.086	16082
865.217	15937
865.349	15880
865.48	15975
865.612	16010
865.743	16093
865.875	15888
866.006	15857
866.137	15903
866.269	15899
866.4	15903
866.531	16006
866.662	15873
866.793	15926
866.924	15915
867.055	15960
867.186	15934
867.317	15892
867.448	15736
867.579	15895
867.71	15873
867.841	15880
867.972	15960
868.103	15823
868.233	15892
868.364	15907
868.495	16036
868.625	16120
868.756	16306
868.886	16025
869.017	16093
869.147	16379
869.278	16299
869.408	16181
869.539	16143
869.669	16272
869.799	16112
869.929	16276
870.06	16242
870.19	16531
870.32	16436
870.45	16538
870.58	16656
870.71	16694
870.84	16645
870.97	16592
871.1	16531
871.23	16721
871.36	16710
871.489	16664
871.619	16698
871.749	16729
871.879	16816
872.008	16801
872.138	16763
872.267	16812
872.397	16717
872.526	16550
872.656	16451
872.785	16580
872.915	16710
873.044	16915
873.173	16706
873.303	16854
873.432	16911
873.561	16896
873.69	16885
873.819	16793
873.948	16984
874.077	16736
874.206	16687
874.335	16805
874.464	17022
874.593	17113
874.722	17121
874.851	17166
874.979	17067
875.108	17223
875.237	17189
875.365	17128
875.494	17143
875.623	17334
875.751	17102
875.88	17204
876.008	17391
876.136	17360
876.265	17684
876.393	17714
876.521	17676
876.65	17714
876.778	17695
876.906	17589
877.034	17687
877.162	17661
877.29	17589
877.418	17691
877.546	17585
877.674	17798
877.802	17714
877.93	17783
878.058	17748
878.185	17748
878.313	17863
878.441	17779
878.568	17653
878.696	17931
878.824	18076
878.951	18247
879.079	18551
879.206	18920
879.333	18996
879.461	19015
879.588	19301
879.715	19346
879.842	19384
879.97	18932
880.097	18502
880.224	18251
880.351	18171
880.478	17988
880.605	17893
880.732	17855
880.859	18114
880.986	17851
881.112	17904
881.239	17710
881.366	17592
881.493	17562
881.619	17444
881.746	17448
881.872	17532
881.999	17429
882.125	17406
882.252	17596
882.378	17516
882.505	17714
882.631	17459
882.757	17155
882.883	17288
883.01	17284
883.136	17311
883.262	17075
883.388	17223
883.514	17288
883.64	17303
883.766	17254
883.892	17090
884.018	17181
884.143	17299
884.269	17406
884.395	17079
884.52	16942
884.646	17067
884.772	16949
884.897	16812
885.023	16904
885.148	17060
885.274	17113
885.399	17052
885.524	17060
885.65	16980
885.775	16889
885.9	16927
886.025	17109
886.15	16824
886.275	16896
886.4	16702
886.525	16717
886.65	16740
886.775	16706
886.9	16866
887.025	17025
887.149	16839
887.274	16546
887.399	16512
887.523	16542
887.648	16542
887.773	16497
887.897	16615
888.021	16538
888.146	16455
888.27	16554
888.395	16679
888.519	16440
888.643	16584
888.767	16508
888.891	16398
889.015	16246
889.139	16341
889.263	16268
889.387	16428
889.511	16523
889.635	16352
889.759	16280
889.883	16223
890.006	16348
890.13	16360
890.254	16128
890.377	16257
890.501	16025
890.624	16067
890.748	16029
890.871	15937
890.995	15793
891.118	15755
891.241	15854
891.364	15907
891.488	15941
891.611	15816
891.734	15861
891.857	15991
891.98	15812
892.103	15991
892.226	15842
892.349	15732
892.471	15751
892.594	15899
892.717	15930
892.839	15823
892.962	15823
893.085	15945
893.207	15880
893.33	15732
893.452	15785
893.575	15934
893.697	15835
893.819	15991
893.941	16013
894.064	15926
894.186	15717
894.308	15751
894.43	15953
894.552	15941
894.674	15846
894.796	15747
894.918	15850
895.04	15800
895.161	15895
895.283	15926
895.405	15804
895.526	15816
895.648	15804
895.769	15945
895.891	15983
896.012	16059
896.134	15994
896.255	15956
896.376	15873
896.498	15972
896.619	15953
896.74	15998
896.861	16017
896.982	16284
897.103	16443
897.224	16207
897.345	16268
897.466	16154
897.587	16150
897.708	16268
897.828	16242
897.949	16200
898.07	16067
898.19	16131
898.311	16276
898.431	16253
898.552	16211
898.672	16367
898.792	16344
898.913	16367
899.033	16101
899.153	16071
899.273	15987
899.393	16002
899.513	16158
899.633	16078
899.753	16147
899.873	16109
899.993	16086
900.113	15991
900.232	16025
900.352	16124
900.472	15987
900.591	15880
900.711	15949
900.83	15953
900.95	16048
901.069	16017
901.189	15907
901.308	15656
901.427	15549
901.546	15614
901.665	15530
901.784	15530
901.904	15370
902.023	15329
902.141	15097
902.26	15218
902.379	15100
902.498	15169
902.617	15097
902.735	15169
902.854	15089
902.973	15074
903.091	14849
903.21	14777
903.328	14853
903.446	14754
903.565	14644
903.683	14686
903.801	14499
903.919	14590
904.038	14571
904.156	14431
904.274	14492
904.392	14438
904.51	14389
904.627	14396
904.745	14393
904.863	14446
904.981	14240
905.098	14161
905.216	14119
905.334	14062
905.451	14103
905.569	13906
905.686	14054
905.803	14050
905.921	13902
906.038	13970
906.155	13894
906.272	13689
906.389	13799
906.506	13655
906.623	13666
906.74	13712
906.857	13518
906.974	13597
907.091	13681
907.208	13799
907.324	13620
907.441	13544
907.557	13350
907.674	13358
907.79	13259
907.907	13304
908.023	13415
908.139	13266
908.256	13308
908.372	13289
908.488	13247
908.604	13171
908.72	13053
908.836	12962
908.952	13004
909.068	13122
909.184	13164
909.3	13038
909.415	13107
909.531	13080
909.647	12837
909.762	12882
909.878	12810
909.993	12817
910.108	12882
910.224	12772
910.339	12909
910.454	12730
910.57	12711
910.685	12555
910.8	12867
910.915	12806
911.03	12544
911.145	12498
911.259	12448
911.374	12490
911.489	12521
911.604	12350
911.718	12235
911.833	12319
911.947	12152
912.062	12034
912.176	12171
912.291	12251
912.405	12213
912.519	12388
912.633	12395
912.748	12216
912.862	12163
912.976	12072
913.09	12034
913.204	12057
913.318	12045
913.431	12163
913.545	12232
913.659	12167
913.772	12041
913.886	12034
914	11992
914.113	12019
914.226	12121
914.34	12030
914.453	11821
914.566	11961
914.68	11893
914.793	11870
914.906	11672
915.019	11699
915.132	11657
915.245	11649
915.358	11653
915.47	11688
915.583	11718
915.696	11733
915.809	11805
915.921	11927
916.034	11691
916.146	11581
916.259	11585
916.371	11634
916.483	11707
916.595	11649
916.708	11688
916.82	11562
916.932	11608
917.044	11585
917.156	11505
917.268	11532
917.38	11501
917.491	11463
917.603	11524
917.715	11570
917.826	11547
917.938	11570
918.049	11417
918.161	11429
918.272	11539
918.384	11566
918.495	11459
918.606	11311
918.717	11318
918.828	11356
918.939	11296
919.05	11242
919.161	11239
919.272	11147
919.383	11143
919.494	11471
919.604	11638
919.715	11280
919.826	11185
919.936	11326
920.047	11455
920.157	11307
920.267	11566
920.378	11410
920.488	11284
920.598	11471
920.708	11684
920.818	11474
920.928	11497
921.038	11623
921.148	11573
921.258	11364
921.368	11250
921.477	11193
921.587	11178
921.697	11071
921.806	11220
921.916	11064
922.025	10816
922.134	10938
922.244	10725
922.353	10812
922.462	10786
922.571	10634
922.68	10538
922.789	10440
922.898	10519
923.007	10417
923.116	10493
923.224	10497
923.333	10535
923.442	10413
923.55	10314
923.659	10413
923.767	10413
923.876	10371
923.984	10386
924.092	10390
924.201	10386
924.309	10348
924.417	10318
924.525	10299
924.633	10265
924.741	10938
924.849	10086
924.956	10249
925.064	10074
925.172	9964
925.279	10036
925.387	10166
925.494	10150
925.602	10249
925.709	10211
925.816	10021
925.924	10112
926.031	10207
926.138	10158
926.245	10116
926.352	10036
926.459	10109
926.566	10207
926.673	9975
926.779	9941
926.886	9949
926.993	9789
927.099	9690
927.206	9675
927.312	9800
927.419	9804
927.525	9762
927.631	9869
927.737	9720
927.843	9637
927.95	9675
928.056	9564
928.162	9648
928.267	9686
928.373	10249
928.479	9728
928.585	9515
928.69	9644
928.796	9610
928.901	9580
929.007	9370
929.112	9542
929.218	9526
929.323	9450
929.428	9473
929.533	9523
929.638	9450
929.743	9439
929.848	9526
929.953	9370
930.058	9435
930.163	9135
930.267	9192
930.372	9428
930.477	9135
930.581	9393
930.685	9268
930.79	9119
930.894	9093
930.998	9097
931.103	9195
931.207	8998
931.311	8857
931.415	8796
931.519	8564
931.623	8518
