Data from test_V78500241_1233.txt Node
Date: Fri Mar 25 14:42:18 CST 2022
User: usil
Spectrometer: V785-0024
Trigger mode: 0
Integration Time (sec): 4.000000E-1
Scans to average: 1
Nonlinearity correction enabled: false
Boxcar width: 0
Storing dark spectrum: false
XAxis mode: Wavelengths
Number of Pixels in Spectrum: 1024
>>>>>Begin Spectral Data<<<<<
801.071	22489
801.214	22318
801.356	22093
801.499	21994
801.641	21766
801.783	21800
801.926	21865
802.068	21781
802.211	21648
802.353	21557
802.496	21458
802.638	21230
802.78	21138
802.923	21192
803.065	21062
803.208	21051
803.35	21070
803.492	21173
803.635	21268
803.777	21066
803.919	21100
804.061	21473
804.204	21233
804.346	21047
804.488	20918
804.63	21058
804.773	20891
804.915	21093
805.057	21112
805.199	21127
805.341	21013
805.483	21112
805.626	21055
805.768	21009
805.91	21062
806.052	20971
806.194	20891
806.336	21245
806.478	20998
806.62	20925
806.762	21104
806.904	21313
807.046	21401
807.188	21405
807.33	21405
807.472	21526
807.614	21249
807.756	21389
807.898	21302
808.04	21100
808.182	21150
808.324	21260
808.465	21275
808.607	21306
808.749	21496
808.891	21614
809.033	21564
809.174	21564
809.316	21336
809.458	21401
809.6	21393
809.741	21462
809.883	21614
810.025	21686
810.166	21622
810.308	21595
810.45	21466
810.591	21477
810.733	21306
810.875	21249
811.016	21173
811.158	21032
811.299	21344
811.441	21245
811.582	21203
811.724	21260
811.865	21047
812.007	21184
812.148	21176
812.29	21302
812.431	21287
812.573	21500
812.714	21561
812.855	21717
812.997	21739
813.138	21903
813.279	21785
813.421	21755
813.562	21576
813.703	21428
813.845	21340
813.986	21055
814.127	20948
814.268	20853
814.41	20819
814.551	20788
814.692	20739
814.833	20743
814.974	20613
815.115	20659
815.256	20549
815.397	20495
815.539	20602
815.68	20465
815.821	20446
815.962	20556
816.103	20594
816.244	20336
816.385	20252
816.526	20271
816.666	20005
816.807	19898
816.948	19879
817.089	19974
817.23	20001
817.371	19868
817.512	19932
817.653	19776
817.793	19795
817.934	19913
818.075	19986
818.216	19951
818.356	19864
818.497	19689
818.638	19563
818.778	19658
818.919	19529
819.06	19605
819.2	19662
819.341	19742
819.481	19807
819.622	19845
819.762	19970
819.903	19982
820.043	19902
820.184	19989
820.324	19833
820.465	19883
820.605	19936
820.746	19909
820.886	19795
821.026	19852
821.167	19837
821.307	19883
821.447	19845
821.588	19746
821.728	19548
821.868	19502
822.008	19282
822.149	19312
822.289	19297
822.429	19004
822.569	18909
822.709	19034
822.849	18791
822.99	18661
823.13	18760
823.27	18719
823.41	18642
823.55	18566
823.69	18559
823.83	18540
823.97	18547
824.11	18350
824.25	18251
824.389	18327
824.529	18422
824.669	18384
824.809	18372
824.949	18452
825.089	18456
825.228	18304
825.368	18159
825.508	18148
825.648	18292
825.787	18186
825.927	18114
826.067	18136
826.206	18194
826.346	18209
826.485	18159
826.625	18155
826.765	18285
826.904	18251
827.044	17961
827.183	17790
827.323	17939
827.462	17912
827.601	17912
827.741	17802
827.88	17916
828.02	17710
828.159	17923
828.298	17866
828.437	17931
828.577	17760
828.716	17961
828.855	17764
828.994	17672
829.134	17638
829.273	17695
829.412	17562
829.551	17570
829.69	17760
829.829	17733
829.968	17676
830.107	17672
830.246	17687
830.385	17448
830.524	17528
830.663	17433
830.802	17383
830.941	17318
831.08	17223
831.219	17303
831.357	17231
831.496	17463
831.635	17090
831.774	17212
831.913	17113
832.051	16900
832.19	16972
832.329	17041
832.467	16930
832.606	16831
832.744	16805
832.883	16968
833.022	16930
833.16	16892
833.299	16923
833.437	16923
833.576	16953
833.714	16854
833.852	17029
833.991	17056
834.129	17075
834.267	17143
834.406	17045
834.544	16930
834.682	16991
834.821	16900
834.959	17098
835.097	16942
835.235	16984
835.373	16968
835.511	17064
835.65	16843
835.788	16854
835.926	16637
836.064	16755
836.202	16752
836.34	16866
836.478	16900
836.615	16793
836.753	16927
836.891	16911
837.029	16896
837.167	16847
837.305	16694
837.443	16683
837.58	16782
837.718	16759
837.856	16812
837.993	16694
838.131	16782
838.269	16736
838.406	16759
838.544	16637
838.681	16481
838.819	16474
838.956	16287
839.094	16246
839.231	16344
839.369	16432
839.506	16694
839.643	16580
839.781	16284
839.918	16390
840.055	16314
840.193	16299
840.33	16276
840.467	16242
840.604	16318
840.742	16569
840.879	16162
841.016	16265
841.153	16204
841.29	16375
841.427	16386
841.564	16382
841.701	16382
841.838	16120
841.975	16192
842.112	16249
842.249	16196
842.385	16059
842.522	16261
842.659	16059
842.796	16032
842.933	16086
843.069	16048
843.206	15953
843.343	16158
843.479	16036
843.616	15998
843.752	15907
843.889	15937
844.025	16124
844.162	15789
844.298	15899
844.435	15854
844.571	15857
844.708	15983
844.844	16124
844.98	16048
845.117	16055
845.253	15819
845.389	15819
845.525	15861
845.661	15854
845.798	15766
845.934	15838
846.07	15732
846.206	15759
846.342	15915
846.478	15656
846.614	15507
846.75	15370
846.886	15450
847.022	15591
847.158	15431
847.294	15466
847.429	15431
847.565	15336
847.701	15622
847.837	15165
847.972	15218
848.108	15325
848.244	15233
848.379	15085
848.515	15070
848.65	15074
848.786	15051
848.921	15062
849.057	15116
849.192	15157
849.328	15013
849.463	15024
849.598	14952
849.734	15005
849.869	14902
850.004	14826
850.14	14777
850.275	14845
850.41	14819
850.545	14682
850.68	14887
850.815	14796
850.95	14899
851.085	14921
851.22	14883
851.355	14788
851.49	14792
851.625	14705
851.76	14731
851.895	14724
852.03	14765
852.165	14800
852.299	14823
852.434	14918
852.569	14842
852.703	14880
852.838	14826
852.973	14834
853.107	14838
853.242	14762
853.376	14678
853.511	14621
853.645	14564
853.78	14762
853.914	14731
854.048	14667
854.183	14659
854.317	14708
854.451	14880
854.585	14663
854.72	14552
854.854	14712
854.988	14590
855.122	14686
855.256	14537
855.39	14636
855.524	14712
855.658	14678
855.792	14659
855.926	14663
856.06	14712
856.194	14788
856.327	14758
856.461	14590
856.595	14625
856.729	14659
856.862	14773
856.996	14697
857.13	14720
857.263	14743
857.397	14830
857.53	14682
857.664	14754
857.797	14727
857.931	14796
858.064	14720
858.197	14735
858.331	14724
858.464	14648
858.597	14602
858.731	14708
858.864	14640
858.997	14564
859.13	14651
859.263	14667
859.396	14754
859.529	14583
859.662	14667
859.795	14579
859.928	14610
860.061	14807
860.194	14777
860.327	14705
860.46	14579
860.592	14754
860.725	14853
860.858	14834
860.99	14632
861.123	14621
861.256	14621
861.388	14686
861.521	15291
861.653	14602
861.786	14530
861.918	14560
862.05	14602
862.183	14556
862.315	14651
862.447	14640
862.58	14617
862.712	14381
862.844	14343
862.976	14465
863.108	14507
863.24	14960
863.372	14389
863.504	14404
863.636	14469
863.768	14442
863.9	14408
864.032	14374
864.164	14381
864.296	14415
864.428	14541
864.559	14461
864.691	14583
864.823	14568
864.954	14503
865.086	14454
865.217	14362
865.349	14275
865.48	14480
865.612	14484
865.743	14533
865.875	14434
866.006	14381
866.137	14457
866.269	14419
866.4	14499
866.531	14339
866.662	14263
866.793	14454
866.924	14446
867.055	14427
867.186	14446
867.317	14377
867.448	14252
867.579	14362
867.71	14282
867.841	14298
867.972	14419
868.103	14374
868.233	14427
868.364	14404
868.495	14442
868.625	14594
868.756	14727
868.886	14568
869.017	14575
869.147	14750
869.278	14792
869.408	14735
869.539	14701
869.669	14712
869.799	14655
869.929	14845
870.06	14811
870.19	15074
870.32	14929
870.45	14994
870.58	15017
870.71	15192
870.84	15165
870.97	15081
871.1	15009
871.23	15195
871.36	15287
871.489	15093
871.619	15207
871.749	15264
871.879	15275
872.008	15344
872.138	15176
872.267	15252
872.397	15150
872.526	15077
872.656	15074
872.785	15173
872.915	15313
873.044	15367
873.173	15283
873.303	15291
873.432	15310
873.561	15340
873.69	15287
873.819	15313
873.948	15397
874.077	15317
874.206	15272
874.335	15188
874.464	15462
874.593	15530
874.722	15576
874.851	15751
874.979	15603
875.108	15694
875.237	15587
875.365	15485
875.494	15686
875.623	15694
875.751	15690
875.88	15614
876.008	15747
876.136	15827
876.265	16051
876.393	16185
876.521	16059
876.65	16116
876.778	16071
876.906	16017
877.034	16097
877.162	16021
877.29	16048
877.418	16093
877.546	16017
877.674	16040
877.802	15983
877.93	16101
878.058	15941
878.185	15884
878.313	16025
878.441	16059
878.568	15873
878.696	15926
878.824	16116
878.951	16109
879.079	16128
879.206	16314
879.333	16207
879.461	16078
879.588	16257
879.715	16226
879.842	16394
879.97	16158
880.097	15762
880.224	15892
880.351	15975
880.478	15979
880.605	15911
880.732	15968
880.859	16021
880.986	15941
881.112	15964
881.239	15781
881.366	15686
881.493	15682
881.619	15572
881.746	15568
881.872	15504
881.999	15629
882.125	15492
882.252	15599
882.378	15656
882.505	15724
882.631	15428
882.757	15367
882.883	15405
883.01	15374
883.136	15332
883.262	15283
883.388	15169
883.514	15386
883.64	15458
883.766	15321
883.892	15184
884.018	15199
884.143	15291
884.269	15416
884.395	15077
884.52	15085
884.646	14986
884.772	14975
884.897	14994
885.023	14975
885.148	15104
885.274	15283
885.399	15165
885.524	15108
885.65	15119
885.775	15085
885.9	15146
886.025	15222
886.15	15081
886.275	15116
886.4	14971
886.525	15058
886.65	14990
886.775	15013
886.9	15116
887.025	15397
887.149	15009
887.274	14899
887.399	14838
887.523	14765
887.648	14804
887.773	14788
887.897	14921
888.021	14918
888.146	14960
888.27	14998
888.395	14963
888.519	14849
888.643	15005
888.767	14952
888.891	14861
889.015	14701
889.139	14689
889.263	14705
889.387	14792
889.511	14944
889.635	14861
889.759	14731
889.883	14716
890.006	14731
890.13	14750
890.254	14708
890.377	14724
890.501	14480
890.624	14473
890.748	14632
890.871	14545
890.995	14412
891.118	14286
891.241	14454
891.364	14381
891.488	14670
891.611	14419
891.734	14488
891.857	14488
891.98	14400
892.103	14560
892.226	14442
892.349	14507
892.471	14195
892.594	14362
892.717	14438
892.839	14427
892.962	14419
893.085	14427
893.207	14454
893.33	14324
893.452	14313
893.575	14438
893.697	14461
893.819	14499
893.941	14674
894.064	14530
894.186	14461
894.308	14396
894.43	14526
894.552	14564
894.674	14640
894.796	14366
894.918	14446
895.04	14488
895.161	14488
895.283	14480
895.405	14438
895.526	14556
895.648	14465
895.769	14480
895.891	14560
896.012	14602
896.134	14644
896.255	14568
896.376	14454
896.498	14560
896.619	14705
896.74	14469
896.861	14625
896.982	14876
897.103	15009
897.224	14883
897.345	14743
897.466	14819
897.587	14826
897.708	14986
897.828	14868
897.949	14815
898.07	14621
898.19	14765
898.311	14963
898.431	14864
898.552	14777
898.672	14960
898.792	14960
898.913	14902
899.033	14788
899.153	14701
899.273	14648
899.393	14735
899.513	14762
899.633	14724
899.753	14750
899.873	14613
899.993	14857
900.113	14720
900.232	14727
900.352	14781
900.472	14636
900.591	14549
900.711	14575
900.83	14606
900.95	14674
901.069	14731
901.189	14632
901.308	14396
901.427	14256
901.546	14362
901.665	14309
901.784	14290
901.904	14275
902.023	14088
902.141	13811
902.26	13871
902.379	13883
902.498	13814
902.617	13757
902.735	13887
902.854	13803
902.973	13803
903.091	13563
903.21	13639
903.328	13537
903.446	13514
903.565	13381
903.683	13491
903.801	13358
903.919	13400
904.038	13460
904.156	13217
904.274	13293
904.392	13179
904.51	13274
904.627	13156
904.745	13350
904.863	13282
904.981	13008
905.098	12894
905.216	12924
905.334	12993
905.451	12928
905.569	12871
905.686	13004
905.803	12863
905.921	12787
906.038	12859
906.155	12726
906.272	12601
906.389	12730
906.506	12483
906.623	12551
906.74	12525
906.857	12445
906.974	12494
907.091	12566
907.208	12681
907.324	12597
907.441	12334
907.557	12209
907.674	12311
907.79	12159
907.907	12178
908.023	12292
908.139	12308
908.256	12213
908.372	12251
908.488	12163
908.604	12079
908.72	11973
908.836	11992
908.952	11969
909.068	12038
909.184	12140
909.3	11916
909.415	12041
909.531	12038
909.647	11729
909.762	11771
909.878	11722
909.993	11798
910.108	11771
910.224	11729
910.339	11798
910.454	11623
910.57	11615
910.685	11581
910.8	11912
910.915	11726
911.03	11627
911.145	11474
911.259	11474
911.374	11482
911.489	11398
911.604	11402
911.718	11269
911.833	11250
911.947	11121
912.062	11025
912.176	11239
912.291	11189
912.405	11231
912.519	11387
912.633	11524
912.748	11376
912.862	11231
912.976	11166
913.09	11060
913.204	11060
913.318	11071
913.431	11223
913.545	11212
913.659	11231
913.772	11117
913.886	10938
914	11018
914.113	11067
914.226	11113
914.34	11014
914.453	10976
914.566	11121
914.68	10885
914.793	10904
914.906	10763
915.019	10687
915.132	10649
915.245	10736
915.358	10774
915.47	10725
915.583	10725
915.696	10759
915.809	10873
915.921	10790
916.034	10725
916.146	10710
916.259	10630
916.371	10889
916.483	10645
916.595	10698
916.708	10596
916.82	10664
916.932	10596
917.044	10542
917.156	10599
917.268	10523
917.38	10565
917.491	10512
917.603	10478
917.715	10607
917.826	10687
917.938	10527
918.049	10493
918.161	10523
918.272	10702
918.384	10615
918.495	10489
918.606	10413
918.717	10417
918.828	10424
918.939	10405
919.05	10371
919.161	10470
919.272	10185
919.383	10310
919.494	10519
919.604	10683
919.715	10390
919.826	10413
919.936	10428
920.047	10512
920.157	10451
920.267	10698
920.378	10485
920.488	10451
920.598	10679
920.708	10691
920.818	10637
920.928	10660
921.038	10721
921.148	10755
921.258	10409
921.368	10428
921.477	10280
921.587	10299
921.697	10135
921.806	10299
921.916	10185
922.025	9991
922.134	10002
922.244	9922
922.353	10010
922.462	9831
922.571	9770
922.68	9629
922.789	9629
922.898	9675
923.007	9599
923.116	9705
923.224	9641
923.333	9648
923.442	9580
923.55	9447
923.659	9595
923.767	9663
923.876	9477
923.984	9618
924.092	9469
924.201	9595
924.309	9507
924.417	9515
924.525	9450
924.633	9519
924.741	10242
924.849	9332
924.956	9462
925.064	9302
925.172	9207
925.279	9245
925.387	9370
925.494	9348
925.602	9458
925.709	9294
925.816	9283
925.924	9264
926.031	9389
926.138	9325
926.245	9351
926.352	9211
926.459	9359
926.566	9450
926.673	9287
926.779	9211
926.886	9214
926.993	9020
927.099	9009
927.206	9028
927.312	8998
927.419	9089
927.525	9009
927.631	9013
927.737	8963
927.843	8895
927.95	8796
928.056	8944
928.162	8948
928.267	8933
928.373	9606
928.479	8975
928.585	8762
928.69	8864
928.796	8990
928.901	8842
929.007	8731
929.112	8861
929.218	8800
929.323	8727
929.428	8705
929.533	8895
929.638	8678
929.743	8724
929.848	8804
929.953	8746
930.058	8621
930.163	8415
930.267	8518
930.372	8648
930.477	8431
930.581	8667
930.685	8537
930.79	8450
930.894	8461
930.998	8415
931.103	8549
931.207	8244
931.311	8214
931.415	8096
931.519	7944
931.623	7970
