Data from test_V78500241_408.txt Node
Date: Fri Mar 25 14:36:33 CST 2022
User: usil
Spectrometer: V785-0024
Trigger mode: 0
Integration Time (sec): 4.000000E-1
Scans to average: 1
Nonlinearity correction enabled: false
Boxcar width: 0
Storing dark spectrum: false
XAxis mode: Wavelengths
Number of Pixels in Spectrum: 1024
>>>>>Begin Spectral Data<<<<<
801.071	26731
801.214	26522
801.356	26271
801.499	26256
801.641	26043
801.783	26054
801.926	26111
802.068	26031
802.211	25902
802.353	25932
802.496	25913
802.638	25731
802.78	25624
802.923	25518
803.065	25757
803.208	25476
803.35	25590
803.492	25693
803.635	25643
803.777	25635
803.919	25845
804.061	25906
804.204	25746
804.346	25487
804.488	25506
804.63	25563
804.773	25533
804.915	25578
805.057	25685
805.199	25628
805.341	25632
805.483	25643
805.626	25590
805.768	25609
805.91	25658
806.052	25651
806.194	25476
806.336	25776
806.478	25632
806.62	25666
806.762	25666
806.904	25932
807.046	26172
807.188	26073
807.33	25986
807.472	26210
807.614	26054
807.756	25845
807.898	25898
808.04	25734
808.182	25647
808.324	25772
808.465	25849
808.607	25959
808.749	26263
808.891	26286
809.033	26339
809.174	26404
809.316	26172
809.458	26122
809.6	26043
809.741	26084
809.883	26240
810.025	26286
810.166	26343
810.308	26214
810.45	26172
810.591	26206
810.733	26012
810.875	25944
811.016	25879
811.158	25993
811.299	25997
811.441	26259
811.582	26058
811.724	26050
811.865	25890
812.007	25883
812.148	26012
812.29	26073
812.431	26020
812.573	26278
812.714	26263
812.855	26377
812.997	26537
813.138	26705
813.279	26564
813.421	26507
813.562	26336
813.703	26275
813.845	26187
813.986	25849
814.127	25616
814.268	25445
814.41	25681
814.551	25457
814.692	25518
814.833	25426
814.974	25525
815.115	25453
815.256	25289
815.397	25228
815.539	25308
815.68	25209
815.821	25206
815.962	25251
816.103	25221
816.244	25095
816.385	24954
816.526	24989
816.666	24821
816.807	24479
816.948	24840
817.089	24821
817.23	24738
817.371	24711
817.512	24502
817.653	24627
817.793	24635
817.934	24623
818.075	24608
818.216	24696
818.356	24616
818.497	24604
818.638	24327
818.778	24422
818.919	24391
819.06	24426
819.2	24448
819.341	24456
819.481	24483
819.622	24650
819.762	24909
819.903	24932
820.043	24741
820.184	24620
820.324	24627
820.465	24681
820.605	24559
820.746	24654
820.886	24502
821.026	24601
821.167	24559
821.307	24578
821.447	24593
821.588	24414
821.728	24300
821.868	24235
822.008	23965
822.149	24026
822.289	23779
822.429	23714
822.569	23691
822.709	23608
822.849	23440
822.99	23459
823.13	23387
823.27	23372
823.41	23292
823.55	23223
823.69	23250
823.83	23296
823.97	23166
824.11	23052
824.25	23022
824.389	23094
824.529	23208
824.669	22938
824.809	23090
824.949	23098
825.089	23083
825.228	22961
825.368	22767
825.508	22900
825.648	22896
825.787	22820
825.927	22828
826.067	22622
826.206	22759
826.346	22793
826.485	22839
826.625	22793
826.765	23006
826.904	22850
827.044	22531
827.183	22493
827.323	22508
827.462	22485
827.601	22455
827.741	22390
827.88	22440
828.02	22356
828.159	22436
828.298	22356
828.437	22474
828.577	22386
828.716	22500
828.855	22272
828.994	22169
829.134	22154
829.273	22185
829.412	22082
829.551	22090
829.69	22063
829.829	22192
829.968	22181
830.107	22215
830.246	22169
830.385	22128
830.524	22036
830.663	21850
830.802	21793
830.941	21743
831.08	21720
831.219	21873
831.357	21755
831.496	21823
831.635	21709
831.774	21694
831.913	21530
832.051	21473
832.19	21481
832.329	21500
832.467	21386
832.606	21256
832.744	21336
832.883	21344
833.022	21340
833.16	21454
833.299	21370
833.437	21310
833.576	21370
833.714	21355
833.852	21504
833.991	21515
834.129	21500
834.267	21420
834.406	21397
834.544	21389
834.682	21363
834.821	21428
834.959	21519
835.097	21241
835.235	21317
835.373	21412
835.511	21386
835.65	21195
835.788	21249
835.926	21005
836.064	20986
836.202	21085
836.34	21188
836.478	21268
836.615	21275
836.753	21165
836.891	21329
837.029	21245
837.167	21180
837.305	21104
837.443	21093
837.58	21028
837.718	21222
837.856	21096
837.993	21047
838.131	21108
838.269	20956
838.406	20902
838.544	20815
838.681	20606
838.819	20769
838.956	20503
839.094	20598
839.231	20541
839.369	20724
839.506	20857
839.643	20769
839.781	20552
839.918	20454
840.055	20419
840.193	20400
840.33	20476
840.467	20461
840.604	20564
840.742	20750
840.879	20286
841.016	20339
841.153	20381
841.29	20461
841.427	20450
841.564	20488
841.701	20484
841.838	20427
841.975	20282
842.112	20218
842.249	20256
842.385	20149
842.522	20278
842.659	20278
842.796	20084
842.933	20210
843.069	20111
843.206	20172
843.343	20275
843.479	20157
843.616	20096
843.752	19909
843.889	19989
844.025	20092
844.162	19921
844.298	20065
844.435	19955
844.571	19814
844.708	19993
844.844	19974
844.98	20092
845.117	19955
845.253	19852
845.389	19890
845.525	19875
845.661	19845
845.798	19731
845.934	19689
846.07	19643
846.206	19571
846.342	19780
846.478	19818
846.614	19575
846.75	19263
846.886	19571
847.022	19403
847.158	19510
847.294	19419
847.429	19339
847.565	19316
847.701	19582
847.837	18985
847.972	19038
848.108	19217
848.244	19228
848.379	19027
848.515	18993
848.65	18981
848.786	18894
848.921	18962
849.057	19129
849.192	19000
849.328	18928
849.463	18943
849.598	18909
849.734	18916
849.869	18745
850.004	18707
850.14	18757
850.275	18661
850.41	18536
850.545	18627
850.68	18665
850.815	18730
850.95	18658
851.085	18798
851.22	18802
851.355	18829
851.49	18707
851.625	18555
851.76	18730
851.895	18452
852.03	18509
852.165	18684
852.299	18719
852.434	18620
852.569	18734
852.703	18692
852.838	18821
852.973	18875
853.107	18844
853.242	18658
853.376	18559
853.511	18471
853.645	18437
853.78	18665
853.914	18525
854.048	18597
854.183	18369
854.317	18513
854.451	18532
854.585	18559
854.72	18490
854.854	18684
854.988	18426
855.122	18471
855.256	18391
855.39	18384
855.524	18483
855.658	18437
855.792	18479
855.926	18464
856.06	18570
856.194	18528
856.327	18426
856.461	18441
856.595	18369
856.729	18460
856.862	18589
856.996	18513
857.13	18448
857.263	18513
857.397	18528
857.53	18445
857.664	18525
857.797	18521
857.931	18616
858.064	18338
858.197	18521
858.331	18483
858.464	18441
858.597	18342
858.731	18448
858.864	18547
858.997	18330
859.13	18395
859.263	18365
859.396	18532
859.529	18380
859.662	18372
859.795	18407
859.928	18380
860.061	18585
860.194	18639
860.327	18452
860.46	18528
860.592	18464
860.725	18612
860.858	18528
860.99	18448
861.123	18350
861.256	18350
861.388	18418
861.521	19206
861.653	18338
861.786	18220
861.918	18292
862.05	18475
862.183	18399
862.315	18540
862.447	18540
862.58	18410
862.712	18376
862.844	18155
862.976	18251
863.108	18213
863.24	18528
863.372	18129
863.504	18163
863.636	18163
863.768	18251
863.9	18114
864.032	18155
864.164	18144
864.296	18133
864.428	18174
864.559	18243
864.691	18220
864.823	18281
864.954	18152
865.086	18076
865.217	18163
865.349	17961
865.48	18091
865.612	18121
865.743	18163
865.875	18068
866.006	17992
866.137	18102
866.269	18091
866.4	18022
866.531	18098
866.662	18034
866.793	17939
866.924	18015
867.055	17988
867.186	18045
867.317	17992
867.448	17912
867.579	17965
867.71	17843
867.841	18015
867.972	17927
868.103	18026
868.233	18038
868.364	18064
868.495	18129
868.625	18201
868.756	18353
868.886	18213
869.017	18277
869.147	18399
869.278	18300
869.408	18330
869.539	18174
869.669	18296
869.799	18289
869.929	18380
870.06	18395
870.19	18642
870.32	18486
870.45	18646
870.58	18654
870.71	18722
870.84	18703
870.97	18620
871.1	18604
871.23	18787
871.36	18840
871.489	18768
871.619	18825
871.749	18806
871.879	18817
872.008	18886
872.138	18863
872.267	18852
872.397	18878
872.526	18639
872.656	18669
872.785	18726
872.915	18882
873.044	18757
873.173	18753
873.303	18867
873.432	19012
873.561	18924
873.69	18878
873.819	18863
873.948	18920
874.077	18905
874.206	18825
874.335	18886
874.464	18981
874.593	19042
874.722	19114
874.851	19266
874.979	19183
875.108	19133
875.237	19099
875.365	18871
875.494	19126
875.623	19050
875.751	19080
875.88	19217
876.008	19308
876.136	19308
876.265	19601
876.393	19734
876.521	19696
876.65	19613
876.778	19556
876.906	19582
877.034	19434
877.162	19434
877.29	19480
877.418	19594
877.546	19499
877.674	19556
877.802	19510
877.93	19674
878.058	19453
878.185	19384
878.313	19624
878.441	19540
878.568	19346
878.696	19476
878.824	19510
878.951	19537
879.079	19651
879.206	19887
879.333	19811
879.461	19662
879.588	19719
879.715	19693
879.842	19898
879.97	19700
880.097	19373
880.224	19179
880.351	19419
880.478	19396
880.605	19278
880.732	19350
880.859	19582
880.986	19422
881.112	19415
881.239	19244
881.366	19297
881.493	19053
881.619	18973
881.746	19042
881.872	18962
881.999	18894
882.125	18863
882.252	19057
882.378	19076
882.505	19114
882.631	19042
882.757	18753
882.883	18844
883.01	18806
883.136	18757
883.262	18646
883.388	18719
883.514	18878
883.64	18825
883.766	18684
883.892	18426
884.018	18593
884.143	18707
884.269	18852
884.395	18471
884.52	18437
884.646	18525
884.772	18388
884.897	18361
885.023	18422
885.148	18521
885.274	18620
885.399	18582
885.524	18441
885.65	18544
885.775	18426
885.9	18426
886.025	18559
886.15	18414
886.275	18323
886.4	18220
886.525	18292
886.65	18319
886.775	18281
886.9	18433
887.025	18700
887.149	18289
887.274	18270
887.399	18194
887.523	18209
887.648	18159
887.773	18148
887.897	18281
888.021	18247
888.146	18174
888.27	18201
888.395	18334
888.519	18292
888.643	18235
888.767	18209
888.891	18148
889.015	18003
889.139	18136
889.263	18026
889.387	18064
889.511	18281
889.635	18144
889.759	17946
889.883	18034
890.006	18072
890.13	18095
890.254	17840
890.377	17878
890.501	17790
890.624	17703
890.748	17775
890.871	17691
890.995	17684
891.118	17497
891.241	17653
891.364	17733
891.488	17699
891.611	17611
891.734	17619
891.857	17672
891.98	17630
892.103	17699
892.226	17729
892.349	17558
892.471	17417
892.594	17501
892.717	17604
892.839	17608
892.962	17551
893.085	17703
893.207	17535
893.33	17524
893.452	17330
893.575	17646
893.697	17539
893.819	17627
893.941	17703
894.064	17714
894.186	17577
894.308	17505
894.43	17562
894.552	17687
894.674	17657
894.796	17528
894.918	17524
895.04	17665
895.161	17672
895.283	17596
895.405	17554
895.526	17554
895.648	17554
895.769	17684
895.891	17638
896.012	17821
896.134	17714
896.255	17630
896.376	17566
896.498	17745
896.619	17767
896.74	17718
896.861	17817
896.982	18087
897.103	18098
897.224	17916
897.345	17874
897.466	17836
897.587	17954
897.708	17961
897.828	17920
897.949	17786
898.07	17649
898.19	17805
898.311	17935
898.431	17847
898.552	17954
898.672	18060
898.792	18060
898.913	17996
899.033	17764
899.153	17611
899.273	17539
899.393	17653
899.513	17646
899.633	17695
899.753	17630
899.873	17611
899.993	17737
900.113	17596
900.232	17589
900.352	17627
900.472	17551
900.591	17455
900.711	17551
900.83	17474
900.95	17524
901.069	17676
901.189	17433
901.308	17254
901.427	17048
901.546	16980
901.665	17197
901.784	17181
901.904	17010
902.023	16873
902.141	16683
902.26	16702
902.379	16862
902.498	16736
902.617	16702
902.735	16634
902.854	16641
902.973	16596
903.091	16314
903.21	16246
903.328	16310
903.446	16265
903.565	16143
903.683	16173
903.801	16071
903.919	16162
904.038	16211
904.156	15949
904.274	16010
904.392	15964
904.51	15842
904.627	16032
904.745	15907
904.863	15987
904.981	15728
905.098	15637
905.216	15652
905.334	15618
905.451	15564
905.569	15705
905.686	15545
905.803	15648
905.921	15389
906.038	15500
906.155	15428
906.272	15237
906.389	15321
906.506	15127
906.623	15173
906.74	15146
906.857	15116
906.974	15127
907.091	15192
907.208	15321
907.324	15097
907.441	15085
907.557	14853
907.674	14883
907.79	14834
907.907	14880
908.023	14906
908.139	14845
908.256	14838
908.372	14762
908.488	14807
908.604	14587
908.72	14541
908.836	14610
908.952	14579
909.068	14507
909.184	14617
909.3	14556
909.415	14602
909.531	14537
909.647	14347
909.762	14355
909.878	14294
909.993	14309
910.108	14240
910.224	14271
910.339	14187
910.454	14161
910.57	14123
910.685	14100
910.8	14313
910.915	14275
911.03	14134
911.145	13890
911.259	13925
911.374	13951
911.489	13795
911.604	13845
911.718	13636
911.833	13753
911.947	13597
912.062	13559
912.176	13670
912.291	13624
912.405	13666
912.519	13818
912.633	13761
912.748	13761
912.862	13605
912.976	13499
913.09	13400
913.204	13400
913.318	13514
913.431	13715
913.545	13525
913.659	13586
913.772	13464
913.886	13350
914	13343
914.113	13324
914.226	13460
914.34	13331
914.453	13187
914.566	13358
914.68	13282
914.793	13247
914.906	13099
915.019	12951
915.132	12966
915.245	12932
915.358	13076
915.47	12966
915.583	13046
915.696	13031
915.809	13206
915.921	13171
916.034	13000
916.146	13015
916.259	12894
916.371	12958
916.483	13015
916.595	12894
916.708	12905
916.82	12966
916.932	12894
917.044	12871
917.156	12905
917.268	12749
917.38	12707
917.491	12711
917.603	12662
917.715	12719
917.826	12802
917.938	12642
918.049	12544
918.161	12700
918.272	12852
918.384	12840
918.495	12715
918.606	12521
918.717	12407
918.828	12513
918.939	12486
919.05	12395
919.161	12536
919.272	12308
919.383	12437
919.494	12544
919.604	12681
919.715	12498
919.826	12433
919.936	12414
920.047	12521
920.157	12490
920.267	12654
920.378	12521
920.488	12471
920.598	12776
920.708	12673
920.818	12551
920.928	12700
921.038	12772
921.148	12650
921.258	12517
921.368	12372
921.477	12258
921.587	12315
921.697	12102
921.806	12209
921.916	12152
922.025	12041
922.134	11996
922.244	11870
922.353	12022
922.462	11821
922.571	11760
922.68	11589
922.789	11566
922.898	11604
923.007	11509
923.116	11680
923.224	11608
923.333	11615
923.442	11505
923.55	11414
923.659	11410
923.767	11528
923.876	11410
923.984	11474
924.092	11360
924.201	11436
924.309	11417
924.417	11326
924.525	11395
924.633	11322
924.741	12254
924.849	11083
924.956	11307
925.064	11193
925.172	11048
925.279	11159
925.387	11140
925.494	11140
925.602	11284
925.709	11208
925.816	11022
925.924	11162
926.031	11201
926.138	11094
926.245	11193
926.352	10999
926.459	11143
926.566	11239
926.673	11075
926.779	10953
926.886	10881
926.993	10774
927.099	10790
927.206	10748
927.312	10698
927.419	10797
927.525	10698
927.631	10831
927.737	10687
927.843	10626
927.95	10523
928.056	10523
928.162	10626
928.267	10694
928.373	11269
928.479	10683
928.585	10459
928.69	10558
928.796	10660
928.901	10550
929.007	10367
929.112	10440
929.218	10523
929.323	10363
929.428	10398
929.533	10546
929.638	10299
929.743	10314
929.848	10424
929.953	10287
930.058	10238
930.163	10074
930.267	10101
930.372	10204
930.477	10029
930.581	10310
930.685	10158
930.79	10105
930.894	10006
930.998	9983
931.103	10124
931.207	9690
931.311	9660
931.415	9637
931.519	9420
931.623	9374
