Data from test_V78500241_1249.txt Node
Date: Fri Mar 25 14:42:24 CST 2022
User: usil
Spectrometer: V785-0024
Trigger mode: 0
Integration Time (sec): 4.000000E-1
Scans to average: 1
Nonlinearity correction enabled: false
Boxcar width: 0
Storing dark spectrum: false
XAxis mode: Wavelengths
Number of Pixels in Spectrum: 1024
>>>>>Begin Spectral Data<<<<<
801.071	22379
801.214	22223
801.356	22082
801.499	21926
801.641	21800
801.783	21743
801.926	21857
802.068	21694
802.211	21545
802.353	21580
802.496	21272
802.638	21302
802.78	21268
802.923	21180
803.065	21085
803.208	21085
803.35	21131
803.492	21169
803.635	21329
803.777	21055
803.919	21142
804.061	21473
804.204	21127
804.346	20899
804.488	21058
804.63	20963
804.773	20975
804.915	21028
805.057	21074
805.199	21081
805.341	21195
805.483	21150
805.626	21100
805.768	21043
805.91	20963
806.052	20994
806.194	20933
806.336	21161
806.478	20986
806.62	20990
806.762	21093
806.904	21123
807.046	21408
807.188	21291
807.33	21283
807.472	21473
807.614	21340
807.756	21355
807.898	21226
808.04	21070
808.182	21192
808.324	21211
808.465	21165
808.607	21283
808.749	21507
808.891	21591
809.033	21656
809.174	21530
809.316	21386
809.458	21496
809.6	21397
809.741	21485
809.883	21625
810.025	21656
810.166	21496
810.308	21622
810.45	21553
810.591	21291
810.733	21207
810.875	21344
811.016	21184
811.158	21203
811.299	21317
811.441	21218
811.582	21272
811.724	21275
811.865	21279
812.007	21195
812.148	21203
812.29	21195
812.431	21408
812.573	21466
812.714	21538
812.855	21728
812.997	21705
813.138	21873
813.279	21850
813.421	21698
813.562	21549
813.703	21572
813.845	21329
813.986	21112
814.127	20944
814.268	20777
814.41	20777
814.551	20678
814.692	20842
814.833	20507
814.974	20655
815.115	20708
815.256	20594
815.397	20560
815.539	20659
815.68	20450
815.821	20332
815.962	20594
816.103	20408
816.244	20248
816.385	20229
816.526	20233
816.666	20001
816.807	19864
816.948	19917
817.089	19947
817.23	19909
817.371	19993
817.512	19921
817.653	19917
817.793	19818
817.934	19906
818.075	19868
818.216	19936
818.356	19902
818.497	19734
818.638	19449
818.778	19590
818.919	19594
819.06	19632
819.2	19734
819.341	19628
819.481	19696
819.622	20031
819.762	20100
819.903	19902
820.043	19932
820.184	19826
820.324	19883
820.465	19906
820.605	19883
820.746	19788
820.886	19723
821.026	19803
821.167	19898
821.307	19970
821.447	19780
821.588	19852
821.728	19567
821.868	19540
822.008	19396
822.149	19369
822.289	19217
822.429	19027
822.569	18954
822.709	19012
822.849	18783
822.99	18844
823.13	18642
823.27	18738
823.41	18711
823.55	18639
823.69	18623
823.83	18631
823.97	18555
824.11	18426
824.25	18498
824.389	18376
824.529	18467
824.669	18410
824.809	18475
824.949	18388
825.089	18544
825.228	18471
825.368	18216
825.508	18239
825.648	18110
825.787	18239
825.927	18228
826.067	18117
826.206	18102
826.346	18178
826.485	18087
826.625	18129
826.765	18262
826.904	18178
827.044	17901
827.183	17912
827.323	17859
827.462	17935
827.601	17836
827.741	17809
827.88	17798
828.02	17722
828.159	17828
828.298	17809
828.437	17889
828.577	17802
828.716	17908
828.855	17805
828.994	17520
829.134	17638
829.273	17653
829.412	17528
829.551	17570
829.69	17436
829.829	17642
829.968	17627
830.107	17657
830.246	17680
830.385	17642
830.524	17471
830.663	17474
830.802	17303
830.941	17246
831.08	17086
831.219	17250
831.357	17326
831.496	17417
831.635	17242
831.774	17151
831.913	17029
832.051	16885
832.19	16972
832.329	17113
832.467	17067
832.606	16881
832.744	17029
832.883	16957
833.022	16752
833.16	16930
833.299	17056
833.437	16892
833.576	16999
833.714	16930
833.852	17006
833.991	17025
834.129	16949
834.267	16968
834.406	17067
834.544	16980
834.682	16946
834.821	16896
834.959	17128
835.097	16946
835.235	17064
835.373	17048
835.511	17071
835.65	17006
835.788	16812
835.926	16782
836.064	16740
836.202	16698
836.34	16934
836.478	16949
836.615	16850
836.753	16946
836.891	17067
837.029	16839
837.167	16862
837.305	16790
837.443	16706
837.58	16672
837.718	16908
837.856	16763
837.993	16679
838.131	16752
838.269	16687
838.406	16672
838.544	16596
838.681	16489
838.819	16535
838.956	16303
839.094	16341
839.231	16367
839.369	16459
839.506	16656
839.643	16630
839.781	16329
839.918	16253
840.055	16333
840.193	16325
840.33	16337
840.467	16356
840.604	16329
840.742	16592
840.879	16204
841.016	16139
841.153	16265
841.29	16394
841.427	16280
841.564	16303
841.701	16360
841.838	16268
841.975	16150
842.112	16211
842.249	16025
842.385	16082
842.522	16325
842.659	16097
842.796	16063
842.933	15975
843.069	16010
843.206	16105
843.343	16173
843.479	16131
843.616	16116
843.752	15804
843.889	15903
844.025	16044
844.162	15899
844.298	15987
844.435	15854
844.571	15812
844.708	15949
844.844	16032
844.98	16051
845.117	15949
845.253	15865
845.389	15854
845.525	15895
845.661	15759
845.798	15778
845.934	15835
846.07	15766
846.206	15884
846.342	15876
846.478	15690
846.614	15477
846.75	15412
846.886	15435
847.022	15580
847.158	15481
847.294	15454
847.429	15435
847.565	15393
847.701	15694
847.837	15233
847.972	15135
848.108	15237
848.244	15302
848.379	15077
848.515	15020
848.65	14967
848.786	15055
848.921	15123
849.057	15123
849.192	15074
849.328	15005
849.463	15066
849.598	15020
849.734	14910
849.869	14979
850.004	14815
850.14	14956
850.275	14902
850.41	14674
850.545	14735
850.68	14830
850.815	14788
850.95	14735
851.085	14967
851.22	14910
851.355	14823
851.49	14819
851.625	14701
851.76	14777
851.895	14731
852.03	14598
852.165	14811
852.299	14727
852.434	14887
852.569	14864
852.703	14895
852.838	14838
852.973	15001
853.107	14906
853.242	14689
853.376	14617
853.511	14632
853.645	14598
853.78	14773
853.914	14621
854.048	14579
854.183	14644
854.317	14663
854.451	14811
854.585	14667
854.72	14621
854.854	14670
854.988	14575
855.122	14739
855.256	14537
855.39	14575
855.524	14735
855.658	14727
855.792	14735
855.926	14663
856.06	14651
856.194	14731
856.327	14514
856.461	14632
856.595	14640
856.729	14598
856.862	14849
856.996	14667
857.13	14686
857.263	14823
857.397	14777
857.53	14716
857.664	14682
857.797	14731
857.931	14800
858.064	14625
858.197	14735
858.331	14701
858.464	14556
858.597	14473
858.731	14720
858.864	14651
858.997	14655
859.13	14575
859.263	14712
859.396	14796
859.529	14674
859.662	14632
859.795	14621
859.928	14727
860.061	14792
860.194	14868
860.327	14727
860.46	14655
860.592	14712
860.725	14746
860.858	14788
860.99	14667
861.123	14549
861.256	14587
861.388	14667
861.521	15363
861.653	14552
861.786	14438
861.918	14492
862.05	14571
862.183	14640
862.315	14655
862.447	14686
862.58	14632
862.712	14507
862.844	14393
862.976	14511
863.108	14476
863.24	14819
863.372	14396
863.504	14457
863.636	14355
863.768	14495
863.9	14400
864.032	14377
864.164	14492
864.296	14610
864.428	14533
864.559	14610
864.691	14499
864.823	14488
864.954	14385
865.086	14442
865.217	14427
865.349	14370
865.48	14400
865.612	14438
865.743	14644
865.875	14473
866.006	14393
866.137	14492
866.269	14431
866.4	14442
866.531	14400
866.662	14362
866.793	14419
866.924	14415
867.055	14400
867.186	14317
867.317	14446
867.448	14290
867.579	14465
867.71	14328
867.841	14324
867.972	14461
868.103	14309
868.233	14400
868.364	14495
868.495	14469
868.625	14678
868.756	14724
868.886	14533
869.017	14648
869.147	14853
869.278	14777
869.408	14708
869.539	14640
869.669	14785
869.799	14655
869.929	14857
870.06	14712
870.19	15066
870.32	14872
870.45	15055
870.58	15058
870.71	15131
870.84	15169
870.97	15070
871.1	15036
871.23	15287
871.36	15256
871.489	15138
871.619	15116
871.749	15154
871.879	15176
872.008	15329
872.138	15173
872.267	15310
872.397	15039
872.526	15062
872.656	15047
872.785	15180
872.915	15298
873.044	15332
873.173	15389
873.303	15321
873.432	15313
873.561	15405
873.69	15180
873.819	15302
873.948	15412
874.077	15188
874.206	15268
874.335	15367
874.464	15458
874.593	15576
874.722	15530
874.851	15652
874.979	15618
875.108	15637
875.237	15568
875.365	15534
875.494	15652
875.623	15739
875.751	15496
875.88	15622
876.008	15709
876.136	15880
876.265	16006
876.393	16173
876.521	16112
876.65	16211
876.778	16032
876.906	15972
877.034	15968
877.162	16013
877.29	15895
877.418	16036
877.546	15994
877.674	16078
877.802	16074
877.93	16010
878.058	15937
878.185	15960
878.313	16017
878.441	16006
878.568	15888
878.696	16021
878.824	16006
878.951	16154
879.079	16276
879.206	16436
879.333	16299
879.461	16162
879.588	16295
879.715	16253
879.842	16379
879.97	16105
880.097	15842
880.224	15892
880.351	16036
880.478	15857
880.605	15865
880.732	15846
880.859	16188
880.986	15994
881.112	15873
881.239	15720
881.366	15736
881.493	15629
881.619	15595
881.746	15660
881.872	15447
881.999	15572
882.125	15553
882.252	15557
882.378	15568
882.505	15641
882.631	15591
882.757	15382
882.883	15443
883.01	15367
883.136	15393
883.262	15222
883.388	15135
883.514	15416
883.64	15382
883.766	15431
883.892	15142
884.018	15260
884.143	15359
884.269	15450
884.395	15070
884.52	15043
884.646	15070
884.772	15005
884.897	15017
885.023	15009
885.148	15146
885.274	15173
885.399	15123
885.524	15032
885.65	15051
885.775	15142
885.9	14899
886.025	15180
886.15	15119
886.275	14986
886.4	14948
886.525	15077
886.65	14960
886.775	14937
886.9	15123
887.025	15317
887.149	15066
887.274	14937
887.399	14838
887.523	14826
887.648	14720
887.773	14724
887.897	14880
888.021	14944
888.146	14838
888.27	15047
888.395	15135
888.519	14975
888.643	15100
888.767	14948
888.891	14777
889.015	14746
889.139	14819
889.263	14743
889.387	14819
889.511	14967
889.635	14925
889.759	14746
889.883	14686
890.006	14800
890.13	14925
890.254	14568
890.377	14667
890.501	14541
890.624	14488
890.748	14526
890.871	14530
890.995	14454
891.118	14328
891.241	14473
891.364	14556
891.488	14522
891.611	14434
891.734	14427
891.857	14537
891.98	14587
892.103	14537
892.226	14465
892.349	14412
892.471	14256
892.594	14438
892.717	14412
892.839	14328
892.962	14400
893.085	14465
893.207	14412
893.33	14320
893.452	14374
893.575	14495
893.697	14347
893.819	14503
893.941	14587
894.064	14568
894.186	14457
894.308	14469
894.43	14556
894.552	14651
894.674	14564
894.796	14328
894.918	14492
895.04	14442
895.161	14545
895.283	14549
895.405	14537
895.526	14587
895.648	14484
895.769	14564
895.891	14503
896.012	14720
896.134	14651
896.255	14579
896.376	14663
896.498	14564
896.619	14674
896.74	14587
896.861	14659
896.982	14937
897.103	15058
897.224	14861
897.345	14891
897.466	14727
897.587	14838
897.708	14948
897.828	14933
897.949	14777
898.07	14705
898.19	14838
898.311	15100
898.431	14864
898.552	14921
898.672	15043
898.792	15070
898.913	14899
899.033	14864
899.153	14773
899.273	14758
899.393	14800
899.513	14861
899.633	14750
899.753	14842
899.873	14712
899.993	14781
900.113	14781
900.232	14800
900.352	14750
900.472	14610
900.591	14606
900.711	14693
900.83	14495
900.95	14735
901.069	14697
901.189	14556
901.308	14423
901.427	14248
901.546	14415
901.665	14355
901.784	14275
901.904	14092
902.023	14138
902.141	13963
902.26	13894
902.379	13947
902.498	13890
902.617	13811
902.735	13849
902.854	13852
902.973	13822
903.091	13552
903.21	13605
903.328	13636
903.446	13438
903.565	13525
903.683	13533
903.801	13369
903.919	13480
904.038	13407
904.156	13228
904.274	13358
904.392	13160
904.51	13190
904.627	13274
904.745	13403
904.863	13316
904.981	13076
905.098	12856
905.216	13019
905.334	12894
905.451	12905
905.569	12909
905.686	12928
905.803	12947
905.921	12738
906.038	12753
906.155	12776
906.272	12654
906.389	12688
906.506	12532
906.623	12471
906.74	12448
906.857	12399
906.974	12319
907.091	12646
907.208	12707
907.324	12517
907.441	12486
907.557	12247
907.674	12194
907.79	12129
907.907	12247
908.023	12247
908.139	12270
908.256	12251
908.372	12186
908.488	12163
908.604	12053
908.72	12041
908.836	11958
908.952	11965
909.068	12068
909.184	12041
909.3	12007
909.415	12045
909.531	12019
909.647	11691
909.762	11813
909.878	11756
909.993	11688
910.108	11790
910.224	11703
910.339	11741
910.454	11695
910.57	11630
910.685	11638
910.8	11828
910.915	11802
911.03	11668
911.145	11414
911.259	11414
911.374	11497
911.489	11455
911.604	11345
911.718	11193
911.833	11345
911.947	11136
912.062	11128
912.176	11201
912.291	11227
912.405	11269
912.519	11471
912.633	11429
912.748	11334
912.862	11223
912.976	11109
913.09	10938
913.204	11048
913.318	11128
913.431	11242
913.545	11261
913.659	11280
913.772	11128
913.886	11083
914	10999
914.113	11064
914.226	11136
914.34	11098
914.453	11045
914.566	11079
914.68	10942
914.793	10911
914.906	10801
915.019	10653
915.132	10683
915.245	10656
915.358	10824
915.47	10729
915.583	10824
915.696	10774
915.809	10927
915.921	10809
916.034	10740
916.146	10698
916.259	10725
916.371	10873
916.483	10816
916.595	10607
916.708	10660
916.82	10634
916.932	10645
917.044	10660
917.156	10691
917.268	10546
917.38	10584
917.491	10584
917.603	10607
917.715	10691
917.826	10698
917.938	10634
918.049	10474
918.161	10531
918.272	10774
918.384	10710
918.495	10607
918.606	10485
918.717	10352
918.828	10519
918.939	10493
919.05	10405
919.161	10379
919.272	10265
919.383	10303
919.494	10489
919.604	10649
919.715	10542
919.826	10436
919.936	10489
920.047	10535
920.157	10462
920.267	10675
920.378	10489
920.488	10447
920.598	10710
920.708	10801
920.818	10656
920.928	10664
921.038	10759
921.148	10771
921.258	10455
921.368	10432
921.477	10314
921.587	10287
921.697	10192
921.806	10287
921.916	10211
922.025	10074
922.134	9960
922.244	9899
922.353	10017
922.462	9842
922.571	9835
922.68	9701
922.789	9641
922.898	9709
923.007	9641
923.116	9747
923.224	9641
923.333	9656
923.442	9618
923.55	9580
923.659	9614
923.767	9701
923.876	9629
923.984	9690
924.092	9454
924.201	9618
924.309	9572
924.417	9568
924.525	9488
924.633	9542
924.741	10314
924.849	9291
924.956	9469
925.064	9344
925.172	9283
925.279	9298
925.387	9382
925.494	9302
925.602	9496
925.709	9443
925.816	9351
925.924	9363
926.031	9538
926.138	9359
926.245	9363
926.352	9237
926.459	9397
926.566	9485
926.673	9298
926.779	9188
926.886	9173
926.993	9070
927.099	9062
927.206	8986
927.312	9013
927.419	9085
927.525	9081
927.631	9077
927.737	8952
927.843	8941
927.95	8876
928.056	8960
928.162	8906
928.267	9013
928.373	9633
928.479	9055
928.585	8796
928.69	8982
928.796	8918
928.901	8864
929.007	8724
929.112	8838
929.218	8781
929.323	8807
929.428	8766
929.533	8929
929.638	8708
929.743	8785
929.848	8750
929.953	8739
930.058	8674
930.163	8469
930.267	8556
930.372	8598
930.477	8511
930.581	8701
930.685	8659
930.79	8450
930.894	8484
930.998	8412
931.103	8697
931.207	8267
931.311	8237
931.415	8187
931.519	7989
931.623	7936
