Data from test_V78500241_2733.txt Node
Date: Fri Mar 25 14:52:44 CST 2022
User: usil
Spectrometer: V785-0024
Trigger mode: 0
Integration Time (sec): 4.000000E-1
Scans to average: 1
Nonlinearity correction enabled: false
Boxcar width: 0
Storing dark spectrum: false
XAxis mode: Wavelengths
Number of Pixels in Spectrum: 1024
>>>>>Begin Spectral Data<<<<<
801.071	22196
801.214	22017
801.356	21838
801.499	21641
801.641	21466
801.783	21325
801.926	21431
802.068	21291
802.211	21310
802.353	21173
802.496	20986
802.638	20994
802.78	20952
802.923	20819
803.065	20807
803.208	20758
803.35	20807
803.492	20815
803.635	21036
803.777	20663
803.919	20785
804.061	21028
804.204	20815
804.346	20758
804.488	20598
804.63	20644
804.773	20712
804.915	20689
805.057	20788
805.199	20701
805.341	20864
805.483	20735
805.626	20781
805.768	20693
805.91	20613
806.052	20590
806.194	20689
806.336	20868
806.478	20621
806.62	20602
806.762	20674
806.904	20910
807.046	21116
807.188	21020
807.33	20910
807.472	20986
807.614	20815
807.756	21032
807.898	20788
808.04	20735
808.182	20804
808.324	20777
808.465	20807
808.607	20960
808.749	21161
808.891	21070
809.033	21218
809.174	21055
809.316	21043
809.458	21039
809.6	20929
809.741	21096
809.883	21043
810.025	21195
810.166	21275
810.308	21119
810.45	21131
810.591	20979
810.733	20804
810.875	20785
811.016	20598
811.158	20549
811.299	20834
811.441	20921
811.582	20982
811.724	20792
811.865	20788
812.007	20777
812.148	20842
812.29	20788
812.431	20986
812.573	21108
812.714	21199
812.855	21192
812.997	21313
813.138	21496
813.279	21420
813.421	21317
813.562	21268
813.703	21051
813.845	20979
813.986	20571
814.127	20560
814.268	20431
814.41	20271
814.551	20252
814.692	20408
814.833	20377
814.974	20259
815.115	20256
815.256	20199
815.397	20164
815.539	20237
815.68	20183
815.821	20062
815.962	20069
816.103	19993
816.244	19986
816.385	19765
816.526	19704
816.666	19556
816.807	19491
816.948	19559
817.089	19533
817.23	19487
817.371	19441
817.512	19529
817.653	19529
817.793	19377
817.934	19365
818.075	19533
818.216	19365
818.356	19445
818.497	19225
818.638	19114
818.778	19240
818.919	19190
819.06	19209
819.2	19247
819.341	19331
819.481	19434
819.622	19510
819.762	19715
819.903	19548
820.043	19575
820.184	19415
820.324	19472
820.465	19544
820.605	19419
820.746	19365
820.886	19274
821.026	19441
821.167	19434
821.307	19377
821.447	19362
821.588	19263
821.728	19168
821.868	19061
822.008	18924
822.149	18867
822.289	18913
822.429	18597
822.569	18502
822.709	18372
822.849	18323
822.99	18395
823.13	18445
823.27	18353
823.41	18186
823.55	18049
823.69	18129
823.83	18171
823.97	18098
824.11	17923
824.25	17946
824.389	17859
824.529	17992
824.669	17927
824.809	18015
824.949	17939
825.089	17996
825.228	17942
825.368	17752
825.508	17627
825.648	17691
825.787	17775
825.927	17786
826.067	17786
826.206	17722
826.346	17680
826.485	17786
826.625	17707
826.765	17714
826.904	17756
827.044	17566
827.183	17467
827.323	17288
827.462	17391
827.601	17284
827.741	17330
827.88	17402
828.02	17463
828.159	17410
828.298	17509
828.437	17520
828.577	17330
828.716	17547
828.855	17315
828.994	17239
829.134	17159
829.273	17185
829.412	17056
829.551	17033
829.69	17132
829.829	17159
829.968	17311
830.107	17261
830.246	17105
830.385	17071
830.524	17033
830.663	16927
830.802	16900
830.941	16740
831.08	16786
831.219	16843
831.357	16782
831.496	17037
831.635	16744
831.774	16793
831.913	16755
832.051	16527
832.19	16588
832.329	16660
832.467	16523
832.606	16360
832.744	16443
832.883	16356
833.022	16363
833.16	16405
833.299	16489
833.437	16481
833.576	16538
833.714	16493
833.852	16550
833.991	16402
834.129	16592
834.267	16596
834.406	16561
834.544	16459
834.682	16538
834.821	16451
834.959	16641
835.097	16478
835.235	16615
835.373	16603
835.511	16497
835.65	16440
835.788	16455
835.926	16371
836.064	16265
836.202	16234
836.34	16485
836.478	16558
836.615	16382
836.753	16489
836.891	16531
837.029	16455
837.167	16451
837.305	16398
837.443	16379
837.58	16238
837.718	16535
837.856	16261
837.993	16234
838.131	16284
838.269	16181
838.406	16261
838.544	16230
838.681	16128
838.819	16010
838.956	15930
839.094	15823
839.231	15922
839.369	16086
839.506	16344
839.643	16173
839.781	15937
839.918	15827
840.055	15915
840.193	15808
840.33	15800
840.467	15819
840.604	15911
840.742	16109
840.879	15759
841.016	15747
841.153	15736
841.29	15998
841.427	15953
841.564	15899
841.701	15918
841.838	15865
841.975	15800
842.112	15842
842.249	15679
842.385	15660
842.522	15808
842.659	15686
842.796	15622
842.933	15644
843.069	15648
843.206	15564
843.343	15759
843.479	15686
843.616	15686
843.752	15504
843.889	15492
844.025	15587
844.162	15389
844.298	15549
844.435	15526
844.571	15359
844.708	15458
844.844	15679
844.98	15606
845.117	15576
845.253	15428
845.389	15214
845.525	15321
845.661	15393
845.798	15135
845.934	15184
846.07	15146
846.206	15344
846.342	15275
846.478	15241
846.614	15066
846.75	14944
846.886	14868
847.022	15020
847.158	14899
847.294	15150
847.429	15028
847.565	14967
847.701	15325
847.837	14739
847.972	14670
848.108	14823
848.244	14857
848.379	14674
848.515	14629
848.65	14507
848.786	14606
848.921	14568
849.057	14674
849.192	14636
849.328	14659
849.463	14560
849.598	14617
849.734	14537
849.869	14442
850.004	14396
850.14	14355
850.275	14324
850.41	14244
850.545	14400
850.68	14473
850.815	14393
850.95	14499
851.085	14568
851.22	14530
851.355	14385
851.49	14404
851.625	14336
851.76	14393
851.895	14180
852.03	14305
852.165	14355
852.299	14423
852.434	14412
852.569	14438
852.703	14488
852.838	14412
852.973	14488
853.107	14514
853.242	14313
853.376	14259
853.511	14119
853.645	14263
853.78	14358
853.914	14172
854.048	14202
854.183	14278
854.317	14252
854.451	14442
854.585	14199
854.72	14164
854.854	14336
854.988	14202
855.122	14309
855.256	14275
855.39	14180
855.524	14298
855.658	14320
855.792	14317
855.926	14301
856.06	14294
856.194	14358
856.327	14267
856.461	14214
856.595	14233
856.729	14301
856.862	14351
856.996	14206
857.13	14404
857.263	14377
857.397	14366
857.53	14267
857.664	14298
857.797	14339
857.931	14423
858.064	14324
858.197	14320
858.331	14294
858.464	14172
858.597	14161
858.731	14240
858.864	14275
858.997	14244
859.13	14320
859.263	14339
859.396	14324
859.529	14172
859.662	14233
859.795	14172
859.928	14259
860.061	14514
860.194	14427
860.327	14343
860.46	14187
860.592	14339
860.725	14355
860.858	14393
860.99	14309
861.123	14202
861.256	14199
861.388	14229
861.521	14998
861.653	14092
861.786	14183
861.918	14100
862.05	14229
862.183	14199
862.315	14328
862.447	14339
862.58	14210
862.712	14043
862.844	13925
862.976	14103
863.108	14054
863.24	14488
863.372	13989
863.504	13955
863.636	13967
863.768	14130
863.9	13974
864.032	13978
864.164	13982
864.296	14073
864.428	14149
864.559	14237
864.691	14145
864.823	14142
864.954	14119
865.086	14111
865.217	14024
865.349	14046
865.48	14031
865.612	14107
865.743	14157
865.875	14016
866.006	13951
866.137	14008
866.269	14035
866.4	13970
866.531	14008
866.662	13993
866.793	13986
866.924	13898
867.055	14020
867.186	14039
867.317	13993
867.448	13875
867.579	14046
867.71	13993
867.841	13898
867.972	13974
868.103	13944
868.233	13944
868.364	14027
868.495	14084
868.625	14339
868.756	14362
868.886	14153
869.017	14339
869.147	14355
869.278	14366
869.408	14252
869.539	14271
869.669	14400
869.799	14271
869.929	14446
870.06	14320
870.19	14651
870.32	14598
870.45	14663
870.58	14663
870.71	14811
870.84	14743
870.97	14648
871.1	14686
871.23	14758
871.36	14823
871.489	14739
871.619	14864
871.749	14895
871.879	14910
872.008	14933
872.138	14883
872.267	14819
872.397	14750
872.526	14739
872.656	14648
872.785	14777
872.915	15013
873.044	14883
873.173	14857
873.303	15009
873.432	15020
873.561	14979
873.69	14883
873.819	14899
873.948	14979
874.077	14986
874.206	14937
874.335	14963
874.464	14990
874.593	15241
874.722	15116
874.851	15230
874.979	15214
875.108	15195
875.237	15226
875.365	15176
875.494	15279
875.623	15325
875.751	15260
875.88	15264
876.008	15382
876.136	15515
876.265	15709
876.393	15759
876.521	15732
876.65	15663
876.778	15686
876.906	15656
877.034	15587
877.162	15591
877.29	15576
877.418	15580
877.546	15682
877.674	15572
877.802	15523
877.93	15686
878.058	15644
878.185	15534
878.313	15614
878.441	15580
878.568	15553
878.696	15599
878.824	15637
878.951	15720
879.079	15812
879.206	16002
879.333	15789
879.461	15747
879.588	15736
879.715	15793
879.842	15991
879.97	15884
880.097	15469
880.224	15549
880.351	15557
880.478	15530
880.605	15507
880.732	15401
880.859	15705
880.986	15523
881.112	15526
881.239	15412
881.366	15294
881.493	15138
881.619	15161
881.746	15211
881.872	15104
881.999	15024
882.125	15024
882.252	15199
882.378	15142
882.505	15313
882.631	15142
882.757	14914
882.883	14963
883.01	15032
883.136	14918
883.262	14880
883.388	14815
883.514	14918
883.64	14975
883.766	14929
883.892	14807
884.018	14765
884.143	14891
884.269	15051
884.395	14758
884.52	14762
884.646	14648
884.772	14602
884.897	14549
885.023	14689
885.148	14807
885.274	14845
885.399	14708
885.524	14716
885.65	14602
885.775	14769
885.9	14682
886.025	14743
886.15	14765
886.275	14629
886.4	14632
886.525	14621
886.65	14682
886.775	14678
886.9	14788
887.025	14967
887.149	14659
887.274	14511
887.399	14393
887.523	14526
887.648	14393
887.773	14377
887.897	14537
888.021	14575
888.146	14484
888.27	14610
888.395	14632
888.519	14530
888.643	14545
888.767	14613
888.891	14454
889.015	14393
889.139	14454
889.263	14328
889.387	14385
889.511	14655
889.635	14522
889.759	14362
889.883	14362
890.006	14396
890.13	14533
890.254	14259
890.377	14446
890.501	14221
890.624	14210
890.748	14202
890.871	14134
890.995	14001
891.118	14054
891.241	14065
891.364	14062
891.488	14191
891.611	14050
891.734	14073
891.857	14126
891.98	14107
892.103	14134
892.226	14157
892.349	14039
892.471	13944
892.594	13902
892.717	14020
892.839	14027
892.962	14096
893.085	14134
893.207	14069
893.33	13986
893.452	14073
893.575	14065
893.697	14035
893.819	14233
893.941	14248
894.064	14347
894.186	14088
894.308	14012
894.43	14168
894.552	14286
894.674	14294
894.796	14016
894.918	14153
895.04	14077
895.161	14286
895.283	14286
895.405	14199
895.526	14199
895.648	14077
895.769	14191
895.891	14240
896.012	14195
896.134	14278
896.255	14256
896.376	14278
896.498	14286
896.619	14305
896.74	14343
896.861	14229
896.982	14613
897.103	14724
897.224	14518
897.345	14484
897.466	14446
897.587	14503
897.708	14571
897.828	14587
897.949	14370
898.07	14404
898.19	14537
898.311	14590
898.431	14590
898.552	14651
898.672	14781
898.792	14655
898.913	14579
899.033	14621
899.153	14537
899.273	14362
899.393	14355
899.513	14514
899.633	14484
899.753	14419
899.873	14412
899.993	14499
900.113	14377
900.232	14419
900.352	14366
900.472	14362
900.591	14237
900.711	14324
900.83	14244
900.95	14336
901.069	14358
901.189	14214
901.308	14024
901.427	13932
901.546	13947
901.665	14039
901.784	14020
901.904	13830
902.023	13849
902.141	13696
902.26	13597
902.379	13696
902.498	13556
902.617	13449
902.735	13590
902.854	13613
902.973	13411
903.091	13343
903.21	13198
903.328	13331
903.446	13209
903.565	13103
903.683	13206
903.801	13061
903.919	13228
904.038	13080
904.156	12916
904.274	13107
904.392	12951
904.51	12962
904.627	12913
904.745	12993
904.863	12924
904.981	12734
905.098	12631
905.216	12585
905.334	12650
905.451	12566
905.569	12627
905.686	12662
905.803	12650
905.921	12528
906.038	12540
906.155	12403
906.272	12353
906.389	12456
906.506	12178
906.623	12243
906.74	12220
906.857	12102
906.974	12194
907.091	12235
907.208	12342
907.324	12254
907.441	12087
907.557	12022
907.674	11969
907.79	11935
907.907	11931
908.023	11927
908.139	11920
908.256	11946
908.372	11897
908.488	11889
908.604	11771
908.72	11710
908.836	11771
908.952	11714
909.068	11771
909.184	11863
909.3	11741
909.415	11779
909.531	11764
909.647	11543
909.762	11493
909.878	11421
909.993	11463
910.108	11520
910.224	11387
910.339	11501
910.454	11398
910.57	11364
910.685	11345
910.8	11528
910.915	11482
911.03	11414
911.145	11273
911.259	11151
911.374	11178
911.489	11143
911.604	11121
911.718	10930
911.833	11018
911.947	10946
912.062	10763
912.176	10934
912.291	10949
912.405	10911
912.519	11193
912.633	11193
912.748	10984
912.862	10934
912.976	10839
913.09	10717
913.204	10835
913.318	10797
913.431	10949
913.545	10900
913.659	10908
913.772	10835
913.886	10660
914	10710
914.113	10850
914.226	10877
914.34	10774
914.453	10622
914.566	10771
914.68	10672
914.793	10691
914.906	10481
915.019	10451
915.132	10367
915.245	10440
915.358	10481
915.47	10519
915.583	10500
915.696	10542
915.809	10565
915.921	10641
916.034	10428
916.146	10455
916.259	10451
916.371	10394
916.483	10500
916.595	10386
916.708	10421
916.82	10451
916.932	10371
917.044	10398
917.156	10413
917.268	10276
917.38	10348
917.491	10223
917.603	10356
917.715	10398
917.826	10440
917.938	10356
918.049	10185
918.161	10322
918.272	10360
918.384	10394
918.495	10310
918.606	10154
918.717	10093
918.828	10166
918.939	10234
919.05	10086
919.161	10200
919.272	9987
919.383	10067
919.494	10211
919.604	10379
919.715	10215
919.826	10154
919.936	10150
920.047	10265
920.157	10246
920.267	10386
920.378	10188
920.488	10166
920.598	10363
920.708	10523
920.818	10367
920.928	10390
921.038	10550
921.148	10508
921.258	10230
921.368	10097
921.477	10078
921.587	10025
921.697	9930
921.806	9998
921.916	9918
922.025	9804
922.134	9781
922.244	9709
922.353	9808
922.462	9622
922.571	9572
922.68	9424
922.789	9431
922.898	9405
923.007	9408
923.116	9473
923.224	9420
923.333	9473
923.442	9367
923.55	9302
923.659	9367
923.767	9424
923.876	9260
923.984	9378
924.092	9241
924.201	9283
924.309	9306
924.417	9332
924.525	9287
924.633	9268
924.741	10051
924.849	9009
924.956	9256
925.064	9157
925.172	9020
925.279	9085
925.387	9146
925.494	9138
925.602	9218
925.709	9119
925.816	9070
925.924	9020
926.031	9176
926.138	9150
926.245	9169
926.352	8994
926.459	9180
926.566	9218
926.673	9039
926.779	9032
926.886	8895
926.993	8796
927.099	8796
927.206	8807
927.312	8796
927.419	8823
927.525	8838
927.631	8910
927.737	8796
927.843	8701
927.95	8632
928.056	8769
928.162	8731
928.267	8769
928.373	9306
928.479	8823
928.585	8457
928.69	8773
928.796	8766
928.901	8625
929.007	8488
929.112	8579
929.218	8526
929.323	8579
929.428	8541
929.533	8644
929.638	8465
929.743	8549
929.848	8629
929.953	8571
930.058	8450
930.163	8298
930.267	8336
930.372	8438
930.477	8275
930.581	8522
930.685	8396
930.79	8252
930.894	8183
930.998	8218
931.103	8328
931.207	8054
931.311	7963
931.415	7875
931.519	7780
931.623	7746
