Data from test_V78500241_977.txt Node
Date: Fri Mar 25 14:40:31 CST 2022
User: usil
Spectrometer: V785-0024
Trigger mode: 0
Integration Time (sec): 4.000000E-1
Scans to average: 1
Nonlinearity correction enabled: false
Boxcar width: 0
Storing dark spectrum: false
XAxis mode: Wavelengths
Number of Pixels in Spectrum: 1024
>>>>>Begin Spectral Data<<<<<
801.071	23254
801.214	23170
801.356	22999
801.499	22881
801.641	22729
801.783	22740
801.926	22615
802.068	22436
802.211	22493
802.353	22402
802.496	22303
802.638	22272
802.78	22147
802.923	22131
803.065	21972
803.208	21956
803.35	21941
803.492	22082
803.635	22067
803.777	22029
803.919	21998
804.061	22413
804.204	22021
804.346	22044
804.488	21835
804.63	21915
804.773	21903
804.915	22109
805.057	22051
805.199	21895
805.341	22120
805.483	22150
805.626	22097
805.768	21934
805.91	21960
806.052	22101
806.194	22017
806.336	22230
806.478	22029
806.62	22032
806.762	22154
806.904	22341
807.046	22523
807.188	22634
807.33	22402
807.472	22535
807.614	22516
807.756	22801
807.898	22615
808.04	22618
808.182	22843
808.324	23056
808.465	23364
808.607	23615
808.749	23965
808.891	24064
809.033	24091
809.174	23935
809.316	23661
809.458	23516
809.6	23162
809.741	23010
809.883	22843
810.025	22984
810.166	22976
810.308	22847
810.45	22713
810.591	22706
810.733	22481
810.875	22310
811.016	22310
811.158	22246
811.299	22390
811.441	22299
811.582	22394
811.724	22124
811.865	22177
812.007	22143
812.148	22272
812.29	22188
812.431	22344
812.573	22615
812.714	22622
812.855	22710
812.997	22904
813.138	22946
813.279	22763
813.421	22634
813.562	22702
813.703	22481
813.845	22394
813.986	22200
814.127	21808
814.268	21895
814.41	21819
814.551	21667
814.692	21846
814.833	21667
814.974	21701
815.115	21686
815.256	21629
815.397	21633
815.539	21572
815.68	21477
815.821	21363
815.962	21408
816.103	21424
816.244	21313
816.385	21249
816.526	21188
816.666	21081
816.807	20906
816.948	20899
817.089	20975
817.23	20906
817.371	20982
817.512	20857
817.653	20849
817.793	20792
817.934	20921
818.075	20933
818.216	20902
818.356	20773
818.497	20731
818.638	20549
818.778	20530
818.919	20404
819.06	20480
819.2	20682
819.341	20743
819.481	20731
819.622	20788
819.762	21089
819.903	20971
820.043	20830
820.184	20906
820.324	20891
820.465	20982
820.605	20891
820.746	20895
820.886	20667
821.026	20826
821.167	20792
821.307	20796
821.447	20731
821.588	20590
821.728	20594
821.868	20370
822.008	20183
822.149	20218
822.289	20119
822.429	19849
822.569	19890
822.709	19772
822.849	19845
822.99	19757
823.13	19696
823.27	19651
823.41	19491
823.55	19525
823.69	19472
823.83	19521
823.97	19430
824.11	19308
824.25	19247
824.389	19160
824.529	19358
824.669	19350
824.809	19343
824.949	19335
825.089	19343
825.228	19354
825.368	19034
825.508	19008
825.648	19118
825.787	19012
825.927	19107
826.067	19004
826.206	19088
826.346	19175
826.485	19145
826.625	19057
826.765	19168
826.904	18993
827.044	18882
827.183	18768
827.323	18646
827.462	18783
827.601	18669
827.741	18760
827.88	18825
828.02	18578
828.159	18707
828.298	18711
828.437	18745
828.577	18772
828.716	18810
828.855	18707
828.994	18631
829.134	18540
829.273	18486
829.412	18395
829.551	18353
829.69	18372
829.829	18540
829.968	18589
830.107	18452
830.246	18380
830.385	18437
830.524	18407
830.663	18357
830.802	18178
830.941	18079
831.08	18045
831.219	18129
831.357	18045
831.496	18281
831.635	18114
831.774	18030
831.913	17946
832.051	17885
832.19	17764
832.329	17859
832.467	17863
832.606	17733
832.744	17714
832.883	17752
833.022	17676
833.16	17802
833.299	17798
833.437	17901
833.576	17798
833.714	17859
833.852	17866
833.991	17923
834.129	17961
834.267	17950
834.406	17939
834.544	17908
834.682	17821
834.821	17916
834.959	17908
835.097	17870
835.235	17901
835.373	17855
835.511	17851
835.65	17691
835.788	17718
835.926	17573
836.064	17501
836.202	17608
836.34	17760
836.478	17809
836.615	17627
836.753	17745
836.891	17745
837.029	17695
837.167	17737
837.305	17592
837.443	17592
837.58	17562
837.718	17592
837.856	17600
837.993	17551
838.131	17543
838.269	17497
838.406	17414
838.544	17486
838.681	17246
838.819	17265
838.956	17098
839.094	17075
839.231	17109
839.369	17151
839.506	17364
839.643	17246
839.781	17151
839.918	17041
840.055	17109
840.193	17075
840.33	16995
840.467	16995
840.604	17029
840.742	17318
840.879	16858
841.016	17048
841.153	16976
841.29	17162
841.427	17033
841.564	17136
841.701	17064
841.838	16972
841.975	16843
842.112	16915
842.249	16938
842.385	16797
842.522	17132
842.659	16957
842.796	16801
842.933	16839
843.069	16812
843.206	16786
843.343	16923
843.479	16854
843.616	16828
843.752	16630
843.889	16531
844.025	16767
844.162	16535
844.298	16710
844.435	16603
844.571	16626
844.708	16672
844.844	16828
844.98	16782
845.117	16862
845.253	16748
845.389	16820
845.525	17147
845.661	17452
845.798	17916
845.934	18353
846.07	18376
846.206	18304
846.342	18133
846.478	17520
846.614	17117
846.75	16577
846.886	16455
847.022	16375
847.158	16329
847.294	16204
847.429	16261
847.565	16105
847.701	16379
847.837	15854
847.972	16017
848.108	16010
848.244	16029
848.379	15800
848.515	15713
848.65	15747
848.786	15804
848.921	15717
849.057	15930
849.192	15823
849.328	15755
849.463	15892
849.598	15797
849.734	15690
849.869	15515
850.004	15523
850.14	15568
850.275	15561
850.41	15447
850.545	15336
850.68	15450
850.815	15584
850.95	15511
851.085	15755
851.22	15576
851.355	15515
851.49	15545
851.625	15488
851.76	15431
851.895	15397
852.03	15469
852.165	15618
852.299	15477
852.434	15568
852.569	15545
852.703	15523
852.838	15526
852.973	15660
853.107	15675
853.242	15439
853.376	15340
853.511	15359
853.645	15272
853.78	15500
853.914	15405
854.048	15378
854.183	15408
854.317	15428
854.451	15614
854.585	15439
854.72	15367
854.854	15294
854.988	15275
855.122	15405
855.256	15348
855.39	15382
855.524	15420
855.658	15488
855.792	15370
855.926	15397
856.06	15374
856.194	15576
856.327	15485
856.461	15222
856.595	15348
856.729	15428
856.862	15439
856.996	15416
857.13	15492
857.263	15477
857.397	15424
857.53	15492
857.664	15447
857.797	15393
857.931	15511
858.064	15378
858.197	15542
858.331	15283
858.464	15374
858.597	15203
858.731	15264
858.864	15401
858.997	15332
859.13	15378
859.263	15389
859.396	15408
859.529	15287
859.662	15275
859.795	15272
859.928	15424
860.061	15416
860.194	15504
860.327	15420
860.46	15306
860.592	15450
860.725	15538
860.858	15500
860.99	15393
861.123	15241
861.256	15302
861.388	15317
861.521	16040
861.653	15176
861.786	15116
861.918	15173
862.05	15302
862.183	15287
862.315	15382
862.447	15279
862.58	15291
862.712	15112
862.844	15077
862.976	15097
863.108	15116
863.24	15519
863.372	14967
863.504	15077
863.636	15138
863.768	15180
863.9	15081
864.032	15070
864.164	15036
864.296	15085
864.428	15256
864.559	15097
864.691	15233
864.823	15142
864.954	15100
865.086	15180
865.217	15036
865.349	15024
865.48	15123
865.612	15154
865.743	15268
865.875	15051
866.006	14944
866.137	15100
866.269	15077
866.4	15119
866.531	15051
866.662	15032
866.793	15077
866.924	15036
867.055	15089
867.186	15085
867.317	14998
867.448	14979
867.579	15058
867.71	14891
867.841	15055
867.972	15058
868.103	15085
868.233	15066
868.364	15032
868.495	15020
868.625	15355
868.756	15363
868.886	15245
869.017	15344
869.147	15424
869.278	15507
869.408	15325
869.539	15317
869.669	15374
869.799	15329
869.929	15439
870.06	15462
870.19	15675
870.32	15587
870.45	15587
870.58	15637
870.71	15835
870.84	15892
870.97	15686
871.1	15694
871.23	15804
871.36	15781
871.489	15812
871.619	15838
871.749	15899
871.879	15934
872.008	15975
872.138	15888
872.267	15892
872.397	15766
872.526	15679
872.656	15739
872.785	15876
872.915	16021
873.044	15907
873.173	15968
873.303	16074
873.432	15956
873.561	16063
873.69	15972
873.819	15998
873.948	16128
874.077	15953
874.206	16002
874.335	16006
874.464	16036
874.593	16207
874.722	16185
874.851	16318
874.979	16325
875.108	16337
875.237	16143
875.365	16112
875.494	16284
875.623	16375
875.751	16382
875.88	16299
876.008	16478
876.136	16542
876.265	16713
876.393	16915
876.521	16778
876.65	16793
876.778	16729
876.906	16668
877.034	16736
877.162	16782
877.29	16725
877.418	16706
877.546	16729
877.674	16774
877.802	16744
877.93	16748
878.058	16710
878.185	16721
878.313	16809
878.441	16919
878.568	16641
878.696	16820
878.824	16953
878.951	17159
879.079	17337
879.206	17562
879.333	17581
879.461	17509
879.588	17836
879.715	17828
879.842	17950
879.97	17478
880.097	17178
880.224	17105
880.351	16980
880.478	16877
880.605	16919
880.732	16801
880.859	17022
880.986	16934
881.112	16736
881.239	16630
881.366	16470
881.493	16443
881.619	16367
881.746	16424
881.872	16322
881.999	16443
882.125	16375
882.252	16565
882.378	16573
882.505	16523
882.631	16379
882.757	16310
882.883	16390
883.01	16261
883.136	16272
883.262	16211
883.388	16074
883.514	16337
883.64	16303
883.766	16253
883.892	16067
884.018	16051
884.143	16177
884.269	16287
884.395	16074
884.52	15972
884.646	15979
884.772	15903
884.897	15899
885.023	16044
885.148	16029
885.274	16067
885.399	16093
885.524	15998
885.65	15987
885.775	15968
885.9	15930
886.025	16071
886.15	15907
886.275	15854
886.4	15770
886.525	15838
886.65	15873
886.775	15819
886.9	15934
887.025	16124
887.149	15899
887.274	15641
887.399	15542
887.523	15523
887.648	15595
887.773	15549
887.897	15679
888.021	15618
888.146	15625
888.27	15739
888.395	15759
888.519	15705
888.643	15701
888.767	15622
888.891	15549
889.015	15443
889.139	15504
889.263	15412
889.387	15610
889.511	15595
889.635	15637
889.759	15439
889.883	15359
890.006	15496
890.13	15424
890.254	15389
890.377	15279
890.501	15184
890.624	15214
890.748	15294
890.871	15112
890.995	15100
891.118	14971
891.241	15100
891.364	15028
891.488	15233
891.611	15100
891.734	15100
891.857	15157
891.98	15116
892.103	15146
892.226	15154
892.349	14994
892.471	15013
892.594	14979
892.717	15199
892.839	15070
892.962	15058
893.085	15135
893.207	15036
893.33	14845
893.452	14937
893.575	15062
893.697	15036
893.819	15176
893.941	15283
894.064	15089
894.186	14982
894.308	14979
894.43	15203
894.552	15268
894.674	15127
894.796	15017
894.918	15066
895.04	15036
895.161	15135
895.283	15207
895.405	15081
895.526	15074
895.648	15108
895.769	15024
895.891	15207
896.012	15184
896.134	15173
896.255	15192
896.376	15150
896.498	15260
896.619	15173
896.74	15184
896.861	15207
896.982	15545
897.103	15603
897.224	15481
897.345	15359
897.466	15306
897.587	15389
897.708	15599
897.828	15504
897.949	15370
898.07	15294
898.19	15359
898.311	15568
898.431	15428
898.552	15534
898.672	15595
898.792	15557
898.913	15637
899.033	15466
899.153	15344
899.273	15222
899.393	15329
899.513	15458
899.633	15431
899.753	15359
899.873	15374
899.993	15439
900.113	15378
900.232	15378
900.352	15287
900.472	15306
900.591	15222
900.711	15195
900.83	15214
900.95	15340
901.069	15283
901.189	15017
901.308	15081
901.427	14853
901.546	14811
901.665	14902
901.784	14963
901.904	14735
902.023	14727
902.141	14423
902.26	14442
902.379	14537
902.498	14484
902.617	14423
902.735	14488
902.854	14431
902.973	14278
903.091	14202
903.21	14111
903.328	14107
903.446	14069
903.565	13970
903.683	14008
903.801	13852
903.919	14031
904.038	13887
904.156	13799
904.274	13906
904.392	13807
904.51	13685
904.627	13818
904.745	13864
904.863	13715
904.981	13586
905.098	13426
905.216	13400
905.334	13392
905.451	13457
905.569	13403
905.686	13422
905.803	13392
905.921	13308
906.038	13331
906.155	13240
906.272	13240
906.389	13110
906.506	13008
906.623	13008
906.74	13038
906.857	12901
906.974	12878
907.091	13099
907.208	13225
907.324	13103
907.441	12947
907.557	12730
907.674	12696
907.79	12665
907.907	12738
908.023	12776
908.139	12673
908.256	12734
908.372	12681
908.488	12730
908.604	12555
908.72	12479
908.836	12566
908.952	12372
909.068	12448
909.184	12627
909.3	12445
909.415	12547
909.531	12464
909.647	12311
909.762	12197
909.878	12262
909.993	12277
910.108	12262
910.224	12155
910.339	12273
910.454	12102
910.57	12102
910.685	12041
910.8	12270
910.915	12243
911.03	12159
911.145	12007
911.259	11885
911.374	12011
911.489	11821
911.604	11824
911.718	11665
911.833	11726
911.947	11512
912.062	11551
912.176	11661
912.291	11733
912.405	11726
912.519	11817
912.633	11851
912.748	11726
912.862	11699
912.976	11497
913.09	11410
913.204	11516
913.318	11474
913.431	11608
913.545	11661
913.659	11714
913.772	11608
913.886	11421
914	11345
914.113	11532
914.226	11482
914.34	11493
914.453	11398
914.566	11528
914.68	11406
914.793	11345
914.906	11143
915.019	11086
915.132	11022
915.245	11201
915.358	11105
915.47	11166
915.583	11170
915.696	11174
915.809	11288
915.921	11269
916.034	11124
916.146	11113
916.259	11113
916.371	11208
916.483	11178
916.595	11094
916.708	11094
916.82	11048
916.932	11029
917.044	11006
917.156	11037
917.268	10961
917.38	10961
917.491	10957
917.603	11037
917.715	10980
917.826	11178
917.938	10957
918.049	10847
918.161	11105
918.272	11147
918.384	11174
918.495	10991
918.606	10835
918.717	10733
918.828	10908
918.939	10938
919.05	10744
919.161	10824
919.272	10649
919.383	10721
919.494	10904
919.604	10972
919.715	10790
919.826	10793
919.936	10816
920.047	11041
920.157	10812
920.267	11102
920.378	10991
920.488	10816
920.598	11014
920.708	11223
920.818	11025
920.928	11064
921.038	11197
921.148	11178
921.258	10835
921.368	10820
921.477	10660
921.587	10615
921.697	10489
921.806	10752
921.916	10630
922.025	10542
922.134	10363
922.244	10352
922.353	10322
922.462	10299
922.571	10287
922.68	10040
922.789	10124
922.898	10147
923.007	10128
923.116	10074
923.224	10055
923.333	10139
923.442	10002
923.55	9956
923.659	9964
923.767	10002
923.876	9941
923.984	10040
924.092	9831
924.201	9930
924.309	9888
924.417	9922
924.525	9857
924.633	9838
924.741	10793
924.849	9671
924.956	9751
925.064	9663
925.172	9553
925.279	9671
925.387	9728
925.494	9671
925.602	9831
925.709	9743
925.816	9656
925.924	9644
926.031	9835
926.138	9679
926.245	9854
926.352	9625
926.459	9770
926.566	9800
926.673	9587
926.779	9515
926.886	9504
926.993	9439
927.099	9367
927.206	9325
927.312	9233
927.419	9492
927.525	9382
927.631	9443
927.737	9359
927.843	9260
927.95	9135
928.056	9264
928.162	9313
928.267	9332
928.373	9857
928.479	9332
928.585	9066
928.69	9294
928.796	9268
928.901	9310
929.007	9089
929.112	9230
929.218	9150
929.323	9062
929.428	9074
929.533	9222
929.638	9036
929.743	9036
929.848	9169
929.953	9100
930.058	8979
930.163	8773
930.267	8819
930.372	8941
930.477	8842
930.581	9123
930.685	8956
930.79	8769
930.894	8838
930.998	8800
931.103	8910
931.207	8583
931.311	8545
931.415	8465
931.519	8263
931.623	8290
