Data from test_V78500241_3397.txt Node
Date: Fri Mar 25 14:57:22 CST 2022
User: usil
Spectrometer: V785-0024
Trigger mode: 0
Integration Time (sec): 4.000000E-1
Scans to average: 1
Nonlinearity correction enabled: false
Boxcar width: 0
Storing dark spectrum: false
XAxis mode: Wavelengths
Number of Pixels in Spectrum: 1024
>>>>>Begin Spectral Data<<<<<
801.071	22025
801.214	21823
801.356	21606
801.499	21469
801.641	21294
801.783	21283
801.926	21378
802.068	21230
802.211	21188
802.353	21169
802.496	20910
802.638	20746
802.78	20758
802.923	20697
803.065	20590
803.208	20674
803.35	20659
803.492	20625
803.635	20781
803.777	20625
803.919	20606
804.061	20937
804.204	20648
804.346	20678
804.488	20549
804.63	20590
804.773	20568
804.915	20541
805.057	20648
805.199	20507
805.341	20564
805.483	20617
805.626	20686
805.768	20518
805.91	20579
806.052	20488
806.194	20404
806.336	20621
806.478	20476
806.62	20457
806.762	20541
806.904	20625
807.046	20872
807.188	20785
807.33	20800
807.472	20815
807.614	20819
807.756	20724
807.898	20670
808.04	20571
808.182	20609
808.324	20549
808.465	20659
808.607	20781
808.749	20895
808.891	20963
809.033	21058
809.174	20952
809.316	20804
809.458	20864
809.6	20785
809.741	20872
809.883	20823
810.025	20933
810.166	21001
810.308	20956
810.45	20944
810.591	20838
810.733	20655
810.875	20670
811.016	20541
811.158	20575
811.299	20670
811.441	20682
811.582	20720
811.724	20674
811.865	20560
812.007	20552
812.148	20545
812.29	20629
812.431	20777
812.573	20853
812.714	21062
812.855	21154
812.997	21123
813.138	21420
813.279	21226
813.421	21131
813.562	21074
813.703	20880
813.845	20838
813.986	20450
814.127	20271
814.268	20259
814.41	20172
814.551	20122
814.692	20161
814.833	20088
814.974	20054
815.115	20157
815.256	20115
815.397	20031
815.539	19959
815.68	19902
815.821	19849
815.962	19978
816.103	19894
816.244	19803
816.385	19708
816.526	19582
816.666	19548
816.807	19343
816.948	19480
817.089	19453
817.23	19350
817.371	19297
817.512	19293
817.653	19251
817.793	19244
817.934	19285
818.075	19274
818.216	19327
818.356	19316
818.497	19099
818.638	19088
818.778	18878
818.919	18993
819.06	19042
819.2	19179
819.341	19228
819.481	19190
819.622	19312
819.762	19525
819.903	19529
820.043	19365
820.184	19282
820.324	19225
820.465	19396
820.605	19312
820.746	19251
820.886	19148
821.026	19285
821.167	19285
821.307	19213
821.447	19114
821.588	19084
821.728	19019
821.868	18825
822.008	18715
822.149	18707
822.289	18635
822.429	18563
822.569	18338
822.709	18448
822.849	18205
822.99	18197
823.13	18159
823.27	18155
823.41	18007
823.55	17916
823.69	17969
823.83	17984
823.97	18003
824.11	17824
824.25	17786
824.389	17828
824.529	17836
824.669	17691
824.809	17893
824.949	17863
825.089	17783
825.228	17836
825.368	17570
825.508	17539
825.648	17505
825.787	17646
825.927	17638
826.067	17558
826.206	17627
826.346	17482
826.485	17501
826.625	17512
826.765	17611
826.904	17520
827.044	17341
827.183	17326
827.323	17239
827.462	17360
827.601	17200
827.741	17303
827.88	17280
828.02	17083
828.159	17250
828.298	17204
828.437	17334
828.577	17166
828.716	17372
828.855	17079
828.994	16972
829.134	17045
829.273	17003
829.412	17014
829.551	16892
829.69	17010
829.829	17022
829.968	17098
830.107	17014
830.246	17052
830.385	16957
830.524	16843
830.663	16831
830.802	16759
830.941	16675
831.08	16599
831.219	16645
831.357	16565
831.496	16877
831.635	16561
831.774	16554
831.913	16542
832.051	16352
832.19	16436
832.329	16512
832.467	16493
832.606	16363
832.744	16268
832.883	16204
833.022	16238
833.16	16303
833.299	16329
833.437	16421
833.576	16386
833.714	16390
833.852	16481
833.991	16512
834.129	16489
834.267	16413
834.406	16375
834.544	16413
834.682	16424
834.821	16455
834.959	16607
835.097	16367
835.235	16497
835.373	16421
835.511	16371
835.65	16352
835.788	16356
835.926	16360
836.064	16135
836.202	16207
836.34	16322
836.478	16348
836.615	16276
836.753	16352
836.891	16436
837.029	16459
837.167	16306
837.305	16246
837.443	16230
837.58	16173
837.718	16226
837.856	16128
837.993	16158
838.131	16223
838.269	16196
838.406	16166
838.544	16109
838.681	15846
838.819	15930
838.956	15808
839.094	15842
839.231	15762
839.369	15895
839.506	16166
839.643	16040
839.781	15865
839.918	15785
840.055	15846
840.193	15793
840.33	15724
840.467	15793
840.604	15880
840.742	16078
840.879	15755
841.016	15686
841.153	15584
841.29	15884
841.427	15808
841.564	15888
841.701	15785
841.838	15625
841.975	15618
842.112	15667
842.249	15580
842.385	15557
842.522	15770
842.659	15587
842.796	15515
842.933	15595
843.069	15572
843.206	15557
843.343	15599
843.479	15610
843.616	15545
843.752	15275
843.889	15397
844.025	15530
844.162	15397
844.298	15420
844.435	15283
844.571	15287
844.708	15466
844.844	15458
844.98	15500
845.117	15469
845.253	15325
845.389	15306
845.525	15313
845.661	15146
845.798	15218
845.934	15180
846.07	15089
846.206	15237
846.342	15302
846.478	15161
846.614	15013
846.75	14883
846.886	14834
847.022	15020
847.158	15047
847.294	14902
847.429	14902
847.565	14887
847.701	15097
847.837	14697
847.972	14705
848.108	14815
848.244	14765
848.379	14522
848.515	14526
848.65	14518
848.786	14583
848.921	14484
849.057	14579
849.192	14655
849.328	14526
849.463	14473
849.598	14518
849.734	14457
849.869	14385
850.004	14328
850.14	14305
850.275	14343
850.41	14180
850.545	14153
850.68	14328
850.815	14377
850.95	14271
851.085	14480
851.22	14393
851.355	14374
851.49	14263
851.625	14240
851.76	14172
851.895	14168
852.03	14244
852.165	14237
852.299	14317
852.434	14317
852.569	14305
852.703	14377
852.838	14358
852.973	14412
853.107	14476
853.242	14237
853.376	14191
853.511	14058
853.645	14172
853.78	14218
853.914	14153
854.048	14142
854.183	14024
854.317	14126
854.451	14423
854.585	14126
854.72	14134
854.854	14225
854.988	14020
855.122	14244
855.256	14024
855.39	14126
855.524	14199
855.658	14267
855.792	14180
855.926	14134
856.06	14229
856.194	14168
856.327	14206
856.461	14115
856.595	14172
856.729	14103
856.862	14206
856.996	14115
857.13	14191
857.263	14263
857.397	14374
857.53	14126
857.664	14206
857.797	14218
857.931	14221
858.064	14282
858.197	14259
858.331	14157
858.464	14065
858.597	14092
858.731	14153
858.864	14145
858.997	14161
859.13	14206
859.263	14263
859.396	14221
859.529	14100
859.662	14123
859.795	14123
859.928	14206
860.061	14298
860.194	14343
860.327	14202
860.46	14115
860.592	14161
860.725	14305
860.858	14267
860.99	13967
861.123	14107
861.256	14065
861.388	14210
861.521	14826
861.653	14046
861.786	13955
861.918	14043
862.05	14077
862.183	14088
862.315	14153
862.447	14130
862.58	14206
862.712	13967
862.844	13871
862.976	14016
863.108	13913
863.24	14336
863.372	13902
863.504	13959
863.636	13925
863.768	13974
863.9	13970
864.032	13833
864.164	14024
864.296	13936
864.428	13993
864.559	14081
864.691	14005
864.823	14043
864.954	14027
865.086	13947
865.217	13909
865.349	13753
865.48	13909
865.612	13887
865.743	13989
865.875	13967
866.006	13871
866.137	13936
866.269	13902
866.4	13936
866.531	13883
866.662	13833
866.793	13875
866.924	13871
867.055	13845
867.186	13852
867.317	13879
867.448	13841
867.579	13913
867.71	13864
867.841	13818
867.972	13944
868.103	13944
868.233	13906
868.364	13890
868.495	14111
868.625	14024
868.756	14275
868.886	14153
869.017	14145
869.147	14351
869.278	14237
869.408	14225
869.539	14115
869.669	14195
869.799	14168
869.929	14145
870.06	14370
870.19	14514
870.32	14484
870.45	14476
870.58	14583
870.71	14743
870.84	14804
870.97	14621
871.1	14594
871.23	14765
871.36	14705
871.489	14610
871.619	14678
871.749	14785
871.879	14765
872.008	14864
872.138	14735
872.267	14727
872.397	14670
872.526	14670
872.656	14651
872.785	14556
872.915	14792
873.044	14838
873.173	14838
873.303	14819
873.432	14868
873.561	14883
873.69	14746
873.819	14823
873.948	14952
874.077	14899
874.206	14743
874.335	14842
874.464	15020
874.593	15233
874.722	15051
874.851	15123
874.979	15104
875.108	15180
875.237	15100
875.365	14994
875.494	15062
875.623	15169
875.751	15051
875.88	15176
876.008	15249
876.136	15458
876.265	15530
876.393	15698
876.521	15610
876.65	15644
876.778	15572
876.906	15439
877.034	15458
877.162	15705
877.29	15534
877.418	15538
877.546	15545
877.674	15481
877.802	15557
877.93	15614
878.058	15515
878.185	15412
878.313	15481
878.441	15595
878.568	15439
878.696	15466
878.824	15545
878.951	15774
879.079	15736
879.206	15850
879.333	15641
879.461	15523
879.588	15637
879.715	15850
879.842	15816
879.97	15701
880.097	15370
880.224	15344
880.351	15416
880.478	15382
880.605	15439
880.732	15405
880.859	15603
880.986	15504
881.112	15485
881.239	15355
881.366	15150
881.493	15123
881.619	15085
881.746	15089
881.872	15081
881.999	15047
882.125	15020
882.252	15169
882.378	15032
882.505	15325
882.631	15070
882.757	14857
882.883	14963
883.01	14921
883.136	14800
883.262	14750
883.388	14785
883.514	14967
883.64	15039
883.766	14800
883.892	14773
884.018	14762
884.143	14906
884.269	15043
884.395	14663
884.52	14564
884.646	14640
884.772	14473
884.897	14518
885.023	14632
885.148	14705
885.274	14750
885.399	14754
885.524	14686
885.65	14640
885.775	14648
885.9	14594
886.025	14708
886.15	14674
886.275	14537
886.4	14476
886.525	14663
886.65	14465
886.775	14514
886.9	14663
887.025	14864
887.149	14610
887.274	14404
887.399	14313
887.523	14358
887.648	14343
887.773	14332
887.897	14499
888.021	14476
888.146	14473
888.27	14514
888.395	14678
888.519	14507
888.643	14564
888.767	14522
888.891	14282
889.015	14103
889.139	14366
889.263	14290
889.387	14450
889.511	14454
889.635	14415
889.759	14256
889.883	14176
890.006	14267
890.13	14332
890.254	14252
890.377	14214
890.501	14100
890.624	14081
890.748	14092
890.871	13974
890.995	14020
891.118	13864
891.241	13970
891.364	13955
891.488	14073
891.611	14050
891.734	14050
891.857	14073
891.98	14077
892.103	14024
892.226	14134
892.349	13913
892.471	13883
892.594	13887
892.717	13955
892.839	13959
892.962	14027
893.085	13982
893.207	14005
893.33	13940
893.452	13944
893.575	14062
893.697	13898
893.819	14130
893.941	14225
894.064	14138
894.186	13993
894.308	13909
894.43	14065
894.552	14206
894.674	14096
894.796	13978
894.918	14031
895.04	14001
895.161	14054
895.283	14237
895.405	14065
895.526	14031
895.648	14126
895.769	14153
895.891	14210
896.012	14168
896.134	14214
896.255	14096
896.376	14081
896.498	14111
896.619	14172
896.74	14161
896.861	14256
896.982	14526
897.103	14625
897.224	14446
897.345	14400
897.466	14355
897.587	14423
897.708	14587
897.828	14442
897.949	14454
898.07	14339
898.19	14431
898.311	14549
898.431	14404
898.552	14575
898.672	14526
898.792	14613
898.913	14499
899.033	14446
899.153	14492
899.273	14298
899.393	14301
899.513	14419
899.633	14366
899.753	14351
899.873	14362
899.993	14442
900.113	14377
900.232	14332
900.352	14282
900.472	14218
900.591	14111
900.711	14305
900.83	14168
900.95	14366
901.069	14290
901.189	14153
901.308	13925
901.427	13940
901.546	13879
901.665	13830
901.784	13818
901.904	13765
902.023	13715
902.141	13548
902.26	13502
902.379	13529
902.498	13506
902.617	13510
902.735	13597
902.854	13426
902.973	13407
903.091	13213
903.21	13168
903.328	13308
903.446	13091
903.565	13122
903.683	13110
903.801	12993
903.919	12985
904.038	13084
904.156	12916
904.274	12863
904.392	12882
904.51	12825
904.627	12806
904.745	12916
904.863	12878
904.981	12669
905.098	12532
905.216	12650
905.334	12547
905.451	12494
905.569	12456
905.686	12627
905.803	12517
905.921	12334
906.038	12391
906.155	12399
906.272	12216
906.389	12353
906.506	12064
906.623	12186
906.74	12110
906.857	12076
906.974	12041
907.091	12235
907.208	12144
907.324	12117
907.441	12060
907.557	11965
907.674	11851
907.79	11851
907.907	11866
908.023	12007
908.139	11878
908.256	11824
908.372	11779
908.488	11752
908.604	11695
908.72	11589
908.836	11699
908.952	11615
909.068	11680
909.184	11726
909.3	11722
909.415	11752
909.531	11688
909.647	11471
909.762	11433
909.878	11429
909.993	11486
910.108	11391
910.224	11414
910.339	11372
910.454	11326
910.57	11246
910.685	11204
910.8	11528
910.915	11425
911.03	11307
911.145	11117
911.259	11067
911.374	11071
911.489	11037
911.604	11056
911.718	10881
911.833	10915
911.947	10812
912.062	10664
912.176	10782
912.291	11010
912.405	10877
912.519	11048
912.633	11098
912.748	10949
912.862	10984
912.976	10797
913.09	10687
913.204	10771
913.318	10717
913.431	10824
913.545	10831
913.659	10976
913.772	10839
913.886	10694
914	10649
914.113	10763
914.226	10854
914.34	10710
914.453	10584
914.566	10698
914.68	10584
914.793	10546
914.906	10466
915.019	10443
915.132	10337
915.245	10398
915.358	10432
915.47	10386
915.583	10440
915.696	10421
915.809	10561
915.921	10523
916.034	10424
916.146	10284
916.259	10242
916.371	10489
916.483	10478
916.595	10280
916.708	10291
916.82	10417
916.932	10242
917.044	10405
917.156	10242
917.268	10207
917.38	10242
917.491	10227
917.603	10276
917.715	10310
917.826	10333
917.938	10215
918.049	10135
918.161	10238
918.272	10447
918.384	10303
918.495	10280
918.606	10055
918.717	10044
918.828	10154
918.939	10090
919.05	10093
919.161	10074
919.272	9994
919.383	9960
919.494	10200
919.604	10344
919.715	10158
919.826	10040
919.936	10150
920.047	10181
920.157	10067
920.267	10371
920.378	10169
920.488	10169
920.598	10306
920.708	10519
920.818	10360
920.928	10367
921.038	10470
921.148	10390
921.258	10173
921.368	10093
921.477	10013
921.587	9979
921.697	9934
921.806	10006
921.916	9987
922.025	9762
922.134	9751
922.244	9663
922.353	9713
922.462	9584
922.571	9534
922.68	9397
922.789	9408
922.898	9408
923.007	9363
923.116	9313
923.224	9370
923.333	9428
923.442	9306
923.55	9313
923.659	9287
923.767	9397
923.876	9226
923.984	9397
924.092	9199
924.201	9260
924.309	9298
924.417	9283
924.525	9195
924.633	9253
924.741	10116
924.849	9062
924.956	9218
925.064	9077
925.172	8937
925.279	8952
925.387	9024
925.494	9058
925.602	9218
925.709	9085
925.816	8967
925.924	9081
926.031	9173
926.138	9051
926.245	9089
926.352	8986
926.459	9074
926.566	9161
926.673	8960
926.779	8868
926.886	8895
926.993	8796
927.099	8773
927.206	8777
927.312	8697
927.419	8800
927.525	8758
927.631	8826
927.737	8708
927.843	8693
927.95	8571
928.056	8712
928.162	8701
928.267	8750
928.373	9294
928.479	8800
928.585	8621
928.69	8655
928.796	8689
928.901	8621
929.007	8454
929.112	8552
929.218	8594
929.323	8530
929.428	8415
929.533	8636
929.638	8438
929.743	8381
929.848	8533
929.953	8514
930.058	8400
930.163	8282
930.267	8206
930.372	8377
930.477	8282
930.581	8434
930.685	8290
930.79	8244
930.894	8240
930.998	8199
931.103	8389
931.207	7940
931.311	7955
931.415	7890
931.519	7693
931.623	7765
