Data from test_V78500241_3040.txt Node
Date: Fri Mar 25 14:54:53 CST 2022
User: usil
Spectrometer: V785-0024
Trigger mode: 0
Integration Time (sec): 4.000000E-1
Scans to average: 1
Nonlinearity correction enabled: false
Boxcar width: 0
Storing dark spectrum: false
XAxis mode: Wavelengths
Number of Pixels in Spectrum: 1024
>>>>>Begin Spectral Data<<<<<
801.071	22055
801.214	21876
801.356	21774
801.499	21629
801.641	21488
801.783	21481
801.926	21431
802.068	21389
802.211	21321
802.353	21355
802.496	21013
802.638	21039
802.78	20895
802.923	20883
803.065	20792
803.208	20708
803.35	20777
803.492	20979
803.635	20952
803.777	20667
803.919	20693
804.061	21211
804.204	20857
804.346	20804
804.488	20674
804.63	20849
804.773	20670
804.915	20853
805.057	20826
805.199	20746
805.341	20724
805.483	20804
805.626	20762
805.768	20689
805.91	20727
806.052	20830
806.194	20476
806.336	20769
806.478	20655
806.62	20697
806.762	20868
806.904	20800
807.046	21169
807.188	20967
807.33	21093
807.472	21055
807.614	20895
807.756	20956
807.898	20807
808.04	20788
808.182	20830
808.324	20811
808.465	20788
808.607	20971
808.749	21070
808.891	21192
809.033	21283
809.174	21138
809.316	20952
809.458	21085
809.6	21043
809.741	21237
809.883	21116
810.025	21195
810.166	21214
810.308	21252
810.45	21241
810.591	21032
810.733	21028
810.875	20944
811.016	20754
811.158	20632
811.299	21017
811.441	21005
811.582	20979
811.724	20929
811.865	20686
812.007	20739
812.148	20777
812.29	20800
812.431	21089
812.573	21230
812.714	21256
812.855	21397
812.997	21428
813.138	21530
813.279	21496
813.421	21283
813.562	21272
813.703	21096
813.845	21024
813.986	20769
814.127	20545
814.268	20575
814.41	20370
814.551	20385
814.692	20484
814.833	20404
814.974	20244
815.115	20370
815.256	20233
815.397	20252
815.539	20240
815.68	20256
815.821	20107
815.962	20134
816.103	20122
816.244	19913
816.385	19974
816.526	19791
816.666	19696
816.807	19506
816.948	19548
817.089	19590
817.23	19563
817.371	19502
817.512	19468
817.653	19559
817.793	19415
817.934	19460
818.075	19544
818.216	19525
818.356	19521
818.497	19354
818.638	19190
818.778	19247
818.919	19251
819.06	19236
819.2	19304
819.341	19350
819.481	19396
819.622	19533
819.762	19757
819.903	19567
820.043	19597
820.184	19575
820.324	19483
820.465	19635
820.605	19521
820.746	19407
820.886	19213
821.026	19415
821.167	19457
821.307	19647
821.447	19434
821.588	19289
821.728	19194
821.868	18932
822.008	18901
822.149	18977
822.289	18993
822.429	18658
822.569	18627
822.709	18547
822.849	18376
822.99	18388
823.13	18441
823.27	18338
823.41	18247
823.55	18026
823.69	18281
823.83	18163
823.97	18213
824.11	18007
824.25	17965
824.389	17874
824.529	18022
824.669	17939
824.809	18026
824.949	17988
825.089	17977
825.228	17946
825.368	17794
825.508	17623
825.648	17737
825.787	17783
825.927	17745
826.067	17752
826.206	17726
826.346	17741
826.485	17790
826.625	17699
826.765	17866
826.904	17783
827.044	17440
827.183	17551
827.323	17486
827.462	17410
827.601	17467
827.741	17391
827.88	17429
828.02	17307
828.159	17562
828.298	17493
828.437	17535
828.577	17425
828.716	17459
828.855	17353
828.994	17227
829.134	17094
829.273	17299
829.412	17045
829.551	17056
829.69	17193
829.829	17185
829.968	17353
830.107	17162
830.246	17159
830.385	17200
830.524	17037
830.663	16984
830.802	16869
830.941	16733
831.08	16816
831.219	16828
831.357	16809
831.496	16999
831.635	16782
831.774	16649
831.913	16733
832.051	16641
832.19	16573
832.329	16523
832.467	16493
832.606	16599
832.744	16516
832.883	16447
833.022	16356
833.16	16451
833.299	16417
833.437	16504
833.576	16538
833.714	16478
833.852	16531
833.991	16508
834.129	16531
834.267	16535
834.406	16451
834.544	16592
834.682	16516
834.821	16436
834.959	16660
835.097	16405
835.235	16607
835.373	16649
835.511	16573
835.65	16470
835.788	16459
835.926	16280
836.064	16280
836.202	16143
836.34	16504
836.478	16523
836.615	16284
836.753	16436
836.891	16481
837.029	16523
837.167	16344
837.305	16348
837.443	16344
837.58	16257
837.718	16356
837.856	16284
837.993	16215
838.131	16242
838.269	16306
838.406	16150
838.544	16192
838.681	16010
838.819	15953
838.956	15892
839.094	15857
839.231	15880
839.369	15911
839.506	16173
839.643	16071
839.781	15842
839.918	15713
840.055	15869
840.193	15751
840.33	15816
840.467	15739
840.604	15854
840.742	16074
840.879	15663
841.016	15774
841.153	15679
841.29	15857
841.427	15793
841.564	15751
841.701	15876
841.838	15812
841.975	15686
842.112	15698
842.249	15576
842.385	15606
842.522	15755
842.659	15538
842.796	15553
842.933	15530
843.069	15526
843.206	15610
843.343	15648
843.479	15538
843.616	15603
843.752	15348
843.889	15351
844.025	15447
844.162	15344
844.298	15488
844.435	15348
844.571	15344
844.708	15412
844.844	15515
844.98	15526
845.117	15542
845.253	15405
845.389	15245
845.525	15344
845.661	15310
845.798	15070
845.934	15188
846.07	15195
846.206	15268
846.342	15287
846.478	15230
846.614	15013
846.75	15028
846.886	14861
847.022	15032
847.158	14918
847.294	14952
847.429	15005
847.565	14944
847.701	15131
847.837	14674
847.972	14701
848.108	14864
848.244	14861
848.379	14492
848.515	14564
848.65	14530
848.786	14511
848.921	14644
849.057	14716
849.192	14640
849.328	14587
849.463	14606
849.598	14541
849.734	14419
849.869	14427
850.004	14298
850.14	14370
850.275	14317
850.41	14244
850.545	14305
850.68	14385
850.815	14351
850.95	14259
851.085	14522
851.22	14385
851.355	14336
851.49	14290
851.625	14301
851.76	14267
851.895	14168
852.03	14187
852.165	14301
852.299	14275
852.434	14389
852.569	14415
852.703	14324
852.838	14396
852.973	14530
853.107	14442
853.242	14229
853.376	14221
853.511	14145
853.645	14126
853.78	14362
853.914	14157
854.048	14130
854.183	14210
854.317	14271
854.451	14412
854.585	14126
854.72	14195
854.854	14275
854.988	14138
855.122	14187
855.256	13944
855.39	14138
855.524	14195
855.658	14240
855.792	14263
855.926	14252
856.06	14309
856.194	14320
856.327	14065
856.461	14145
856.595	14149
856.729	14111
856.862	14164
856.996	14172
857.13	14320
857.263	14332
857.397	14259
857.53	14202
857.664	14332
857.797	14309
857.931	14240
858.064	14275
858.197	14336
858.331	14218
858.464	14130
858.597	14088
858.731	14271
858.864	14199
858.997	14240
859.13	14256
859.263	14237
859.396	14229
859.529	14164
859.662	14164
859.795	14164
859.928	14244
860.061	14355
860.194	14259
860.327	14172
860.46	14214
860.592	14305
860.725	14286
860.858	14305
860.99	14142
861.123	14100
861.256	14153
861.388	14176
861.521	14941
861.653	14001
861.786	14024
861.918	13982
862.05	14050
862.183	14161
862.315	14157
862.447	14187
862.58	14092
862.712	13963
862.844	13944
862.976	13997
863.108	13944
863.24	14423
863.372	13913
863.504	13898
863.636	13894
863.768	13982
863.9	13967
864.032	13875
864.164	13868
864.296	14008
864.428	14027
864.559	14088
864.691	14062
864.823	14043
864.954	14092
865.086	13974
865.217	14016
865.349	13868
865.48	13932
865.612	13982
865.743	14123
865.875	14001
866.006	13955
866.137	13967
866.269	13928
866.4	13993
866.531	13875
866.662	13974
866.793	13887
866.924	13860
867.055	13978
867.186	13932
867.317	13875
867.448	13788
867.579	13925
867.71	13906
867.841	13837
867.972	13917
868.103	13959
868.233	13963
868.364	14027
868.495	13997
868.625	14088
868.756	14252
868.886	14039
869.017	14187
869.147	14263
869.278	14336
869.408	14187
869.539	14282
869.669	14275
869.799	14214
869.929	14259
870.06	14320
870.19	14556
870.32	14526
870.45	14545
870.58	14716
870.71	14758
870.84	14697
870.97	14564
871.1	14556
871.23	14788
871.36	14777
871.489	14701
871.619	14765
871.749	14823
871.879	14811
872.008	14842
872.138	14807
872.267	14712
872.397	14686
872.526	14636
872.656	14541
872.785	14678
872.915	14933
873.044	14891
873.173	14792
873.303	14880
873.432	14857
873.561	14914
873.69	14807
873.819	14876
873.948	14750
874.077	14918
874.206	14807
874.335	14929
874.464	14933
874.593	15116
874.722	15108
874.851	15077
874.979	15176
875.108	15192
875.237	15017
875.365	15051
875.494	15127
875.623	15389
875.751	15169
875.88	15214
876.008	15287
876.136	15332
876.265	15481
876.393	15736
876.521	15625
876.65	15667
876.778	15587
876.906	15572
877.034	15568
877.162	15610
877.29	15340
877.418	15622
877.546	15629
877.674	15610
877.802	15576
877.93	15584
878.058	15515
878.185	15435
878.313	15591
878.441	15595
878.568	15450
878.696	15447
878.824	15610
878.951	15618
879.079	15850
879.206	15903
879.333	15778
879.461	15576
879.588	15637
879.715	15709
879.842	15835
879.97	15660
880.097	15367
880.224	15348
880.351	15466
880.478	15477
880.605	15317
880.732	15466
880.859	15713
880.986	15428
881.112	15424
881.239	15272
881.366	15211
881.493	15135
881.619	15089
881.746	15043
881.872	15013
881.999	15085
882.125	14990
882.252	15074
882.378	15233
882.505	15260
882.631	14979
882.757	14906
882.883	14910
883.01	14906
883.136	14876
883.262	14868
883.388	14777
883.514	14967
883.64	14956
883.766	14834
883.892	14746
884.018	14735
884.143	14906
884.269	15013
884.395	14590
884.52	14648
884.646	14644
884.772	14571
884.897	14499
885.023	14575
885.148	14655
885.274	14758
885.399	14686
885.524	14625
885.65	14708
885.775	14613
885.9	14518
886.025	14674
886.15	14613
886.275	14583
886.4	14514
886.525	14689
886.65	14400
886.775	14530
886.9	14712
887.025	14864
887.149	14564
887.274	14339
887.399	14396
887.523	14336
887.648	14412
887.773	14396
887.897	14621
888.021	14545
888.146	14370
888.27	14594
888.395	14610
888.519	14465
888.643	14469
888.767	14499
888.891	14385
889.015	14305
889.139	14332
889.263	14240
889.387	14374
889.511	14469
889.635	14522
889.759	14275
889.883	14259
890.006	14317
890.13	14362
890.254	14218
890.377	14218
890.501	14050
890.624	13978
890.748	14229
890.871	14092
890.995	13947
891.118	13974
891.241	14058
891.364	14073
891.488	14134
891.611	13993
891.734	14001
891.857	14046
891.98	14039
892.103	14138
892.226	14092
892.349	14039
892.471	13803
892.594	13963
892.717	13951
892.839	13955
892.962	14016
893.085	14020
893.207	14035
893.33	13906
893.452	13811
893.575	14039
893.697	13925
893.819	14157
893.941	14256
894.064	14103
894.186	14050
894.308	13928
894.43	14062
894.552	14195
894.674	14145
894.796	14073
894.918	14043
895.04	14084
895.161	14164
895.283	14084
895.405	14031
895.526	14210
895.648	14138
895.769	14138
895.891	14199
896.012	14252
896.134	14244
896.255	14180
896.376	14142
896.498	14187
896.619	14267
896.74	14119
896.861	14237
896.982	14564
897.103	14712
897.224	14415
897.345	14434
897.466	14339
897.587	14408
897.708	14579
897.828	14522
897.949	14450
898.07	14366
898.19	14389
898.311	14583
898.431	14385
898.552	14602
898.672	14659
898.792	14579
898.913	14632
899.033	14488
899.153	14404
899.273	14206
899.393	14370
899.513	14362
899.633	14480
899.753	14438
899.873	14408
899.993	14412
900.113	14362
900.232	14457
900.352	14415
900.472	14343
900.591	14259
900.711	14271
900.83	14252
900.95	14412
901.069	14473
901.189	14233
901.308	13967
901.427	13947
901.546	13963
901.665	13993
901.784	14050
901.904	13833
902.023	13746
902.141	13590
902.26	13616
902.379	13613
902.498	13525
902.617	13521
902.735	13510
902.854	13449
902.973	13472
903.091	13236
903.21	13251
903.328	13236
903.446	13145
903.565	13107
903.683	13076
903.801	13019
903.919	13114
904.038	13034
904.156	12932
904.274	12981
904.392	12985
904.51	12882
904.627	12909
904.745	12985
904.863	12962
904.981	12791
905.098	12517
905.216	12547
905.334	12612
905.451	12658
905.569	12563
905.686	12707
905.803	12620
905.921	12445
906.038	12540
906.155	12471
906.272	12273
906.389	12270
906.506	12171
906.623	12270
906.74	12235
906.857	12144
906.974	12133
907.091	12171
907.208	12292
907.324	12163
907.441	12068
907.557	11977
907.674	11923
907.79	11847
907.907	11908
908.023	11965
908.139	11969
908.256	11901
908.372	11851
908.488	11878
908.604	11710
908.72	11672
908.836	11710
908.952	11611
909.068	11707
909.184	11805
909.3	11684
909.415	11748
909.531	11634
909.647	11535
909.762	11387
909.878	11467
909.993	11391
910.108	11429
910.224	11406
910.339	11497
910.454	11337
910.57	11296
910.685	11220
910.8	11539
910.915	11417
911.03	11334
911.145	11128
911.259	11181
911.374	11189
911.489	10987
911.604	11071
911.718	10927
911.833	10957
911.947	10752
912.062	10729
912.176	10984
912.291	10980
912.405	10923
912.519	11109
912.633	11128
912.748	10976
912.862	10987
912.976	10755
913.09	10725
913.204	10778
913.318	10885
913.431	10942
913.545	10885
913.659	10957
913.772	10801
913.886	10744
914	10691
914.113	10786
914.226	10820
914.34	10801
914.453	10580
914.566	10801
914.68	10668
914.793	10573
914.906	10436
915.019	10424
915.132	10333
915.245	10360
915.358	10421
915.47	10489
915.583	10432
915.696	10424
915.809	10561
915.921	10611
916.034	10424
916.146	10375
916.259	10344
916.371	10470
916.483	10436
916.595	10318
916.708	10318
916.82	10337
916.932	10394
917.044	10344
917.156	10329
917.268	10192
917.38	10276
917.491	10223
917.603	10291
917.715	10333
917.826	10352
917.938	10272
918.049	10169
918.161	10223
918.272	10386
918.384	10413
918.495	10314
918.606	10196
918.717	9953
918.828	10093
918.939	10166
919.05	10059
919.161	10120
919.272	9983
919.383	10029
919.494	10268
919.604	10424
919.715	10185
919.826	10128
919.936	10112
920.047	10280
920.157	10162
920.267	10390
920.378	10196
920.488	10128
920.598	10363
920.708	10440
920.818	10440
920.928	10344
921.038	10493
921.148	10459
921.258	10257
921.368	10166
921.477	9979
921.587	9987
921.697	9899
921.806	9998
921.916	9983
922.025	9819
922.134	9713
922.244	9675
922.353	9800
922.462	9576
922.571	9549
922.68	9416
922.789	9329
922.898	9477
923.007	9344
923.116	9492
923.224	9389
923.333	9382
923.442	9344
923.55	9241
923.659	9291
923.767	9386
923.876	9332
923.984	9329
924.092	9237
924.201	9321
924.309	9310
924.417	9378
924.525	9180
924.633	9340
924.741	10147
924.849	9135
924.956	9199
925.064	9074
925.172	9009
925.279	8994
925.387	9093
925.494	9089
925.602	9192
925.709	9157
925.816	8994
925.924	9070
926.031	9192
926.138	9055
926.245	9085
926.352	9024
926.459	9188
926.566	9127
926.673	8986
926.779	8941
926.886	8921
926.993	8792
927.099	8777
927.206	8746
927.312	8788
927.419	8853
927.525	8811
927.631	8826
927.737	8689
927.843	8663
927.95	8693
928.056	8716
928.162	8743
928.267	8773
928.373	9192
928.479	8785
928.585	8522
928.69	8697
928.796	8697
928.901	8640
929.007	8465
929.112	8678
929.218	8560
929.323	8514
929.428	8507
929.533	8613
929.638	8408
929.743	8442
929.848	8530
929.953	8469
930.058	8434
930.163	8320
930.267	8271
930.372	8332
930.477	8248
930.581	8461
930.685	8324
930.79	8214
930.894	8172
930.998	8187
931.103	8317
931.207	7989
931.311	7997
931.415	7936
931.519	7712
931.623	7723
