Data from test_V78500241_1537.txt Node
Date: Fri Mar 25 14:44:25 CST 2022
User: usil
Spectrometer: V785-0024
Trigger mode: 0
Integration Time (sec): 4.000000E-1
Scans to average: 1
Nonlinearity correction enabled: false
Boxcar width: 0
Storing dark spectrum: false
XAxis mode: Wavelengths
Number of Pixels in Spectrum: 1024
>>>>>Begin Spectral Data<<<<<
801.071	22375
801.214	22268
801.356	22116
801.499	21975
801.641	21751
801.783	21766
801.926	21857
802.068	21629
802.211	21576
802.353	21564
802.496	21287
802.638	21416
802.78	21306
802.923	21184
803.065	21081
803.208	21104
803.35	21096
803.492	21131
803.635	21268
803.777	21104
803.919	21199
804.061	21458
804.204	21222
804.346	20914
804.488	20975
804.63	21062
804.773	20979
804.915	21150
805.057	21165
805.199	20960
805.341	21108
805.483	21199
805.626	21039
805.768	20929
805.91	21112
806.052	21100
806.194	20971
806.336	21226
806.478	20941
806.62	21104
806.762	21123
806.904	21180
807.046	21519
807.188	21485
807.33	21435
807.472	21504
807.614	21222
807.756	21351
807.898	21279
808.04	21237
808.182	21165
808.324	21291
808.465	21306
808.607	21580
808.749	21542
808.891	21610
809.033	21816
809.174	21694
809.316	21652
809.458	21496
809.6	21386
809.741	21530
809.883	21618
810.025	21747
810.166	21618
810.308	21526
810.45	21587
810.591	21500
810.733	21367
810.875	21249
811.016	21104
811.158	21222
811.299	21249
811.441	21420
811.582	21351
811.724	21249
811.865	21195
812.007	21256
812.148	21252
812.29	21351
812.431	21351
812.573	21519
812.714	21542
812.855	21698
812.997	21785
813.138	21907
813.279	21759
813.421	21850
813.562	21610
813.703	21382
813.845	21496
813.986	21154
814.127	20887
814.268	20826
814.41	20834
814.551	20667
814.692	20861
814.833	20625
814.974	20674
815.115	20750
815.256	20720
815.397	20727
815.539	20602
815.68	20533
815.821	20408
815.962	20495
816.103	20355
816.244	20320
816.385	20339
816.526	20187
816.666	20069
816.807	20020
816.948	20058
817.089	20050
817.23	19959
817.371	19883
817.512	19997
817.653	19947
817.793	19875
817.934	19871
818.075	19963
818.216	19967
818.356	19761
818.497	19784
818.638	19613
818.778	19548
818.919	19594
819.06	19624
819.2	19742
819.341	19803
819.481	19799
819.622	19894
819.762	20229
819.903	20039
820.043	19890
820.184	19871
820.324	19795
820.465	19978
820.605	20001
820.746	19746
820.886	19860
821.026	19837
821.167	19909
821.307	19932
821.447	19875
821.588	19647
821.728	19556
821.868	19525
822.008	19308
822.149	19316
822.289	19274
822.429	19027
822.569	19038
822.709	18932
822.849	18719
822.99	18764
823.13	18696
823.27	18578
823.41	18597
823.55	18669
823.69	18700
823.83	18528
823.97	18528
824.11	18388
824.25	18372
824.389	18380
824.529	18460
824.669	18429
824.809	18604
824.949	18475
825.089	18486
825.228	18357
825.368	18220
825.508	18232
825.648	18121
825.787	18251
825.927	18350
826.067	18068
826.206	18083
826.346	18155
826.485	18148
826.625	18251
826.765	18163
826.904	18083
827.044	17927
827.183	17893
827.323	17912
827.462	17946
827.601	17874
827.741	17699
827.88	17840
828.02	17680
828.159	17882
828.298	17863
828.437	17889
828.577	17748
828.716	17863
828.855	17802
828.994	17596
829.134	17509
829.273	17634
829.412	17501
829.551	17482
829.69	17455
829.829	17520
829.968	17547
830.107	17649
830.246	17566
830.385	17452
830.524	17440
830.663	17360
830.802	17273
830.941	17147
831.08	17159
831.219	17303
831.357	17174
831.496	17322
831.635	17132
831.774	17143
831.913	17060
832.051	16976
832.19	16949
832.329	16854
832.467	16991
832.606	16858
832.744	16797
832.883	16919
833.022	16839
833.16	16919
833.299	16923
833.437	16915
833.576	16889
833.714	16748
833.852	16900
833.991	16957
834.129	16927
834.267	16972
834.406	16923
834.544	16965
834.682	16949
834.821	16927
834.959	17060
835.097	16847
835.235	17037
835.373	16858
835.511	16820
835.65	16847
835.788	16744
835.926	16641
836.064	16531
836.202	16649
836.34	16797
836.478	16831
836.615	16793
836.753	16729
836.891	16961
837.029	16824
837.167	16691
837.305	16672
837.443	16615
837.58	16580
837.718	16645
837.856	16645
837.993	16687
838.131	16653
838.269	16485
838.406	16592
838.544	16432
838.681	16295
838.819	16341
838.956	16306
839.094	16128
839.231	16169
839.369	16341
839.506	16698
839.643	16478
839.781	16261
839.918	16071
840.055	16246
840.193	16090
840.33	16116
840.467	16287
840.604	16204
840.742	16535
840.879	16078
841.016	16128
841.153	16135
841.29	16306
841.427	16166
841.564	16325
841.701	16215
841.838	16188
841.975	16097
842.112	16112
842.249	15983
842.385	16006
842.522	16143
842.659	15983
842.796	15922
842.933	16002
843.069	16044
843.206	15903
843.343	16082
843.479	15915
843.616	16097
843.752	15827
843.889	15751
844.025	15945
844.162	15739
844.298	15873
844.435	15800
844.571	15728
844.708	15876
844.844	15903
844.98	15888
845.117	15857
845.253	15759
845.389	15671
845.525	15705
845.661	15671
845.798	15652
845.934	15827
846.07	15720
846.206	15690
846.342	15895
846.478	15720
846.614	15492
846.75	15313
846.886	15340
847.022	15462
847.158	15370
847.294	15321
847.429	15382
847.565	15344
847.701	15488
847.837	15146
847.972	15119
848.108	15195
848.244	15093
848.379	15009
848.515	14914
848.65	14914
848.786	14948
848.921	14864
849.057	14941
849.192	15047
849.328	14872
849.463	14986
849.598	14925
849.734	14853
849.869	14826
850.004	14720
850.14	14720
850.275	14674
850.41	14571
850.545	14606
850.68	14727
850.815	14644
850.95	14712
851.085	14807
851.22	14792
851.355	14720
851.49	14670
851.625	14629
851.76	14670
851.895	14636
852.03	14625
852.165	14583
852.299	14724
852.434	14731
852.569	14750
852.703	14792
852.838	14838
852.973	14815
853.107	14842
853.242	14724
853.376	14568
853.511	14450
853.645	14461
853.78	14724
853.914	14514
854.048	14590
854.183	14499
854.317	14533
854.451	14765
854.585	14480
854.72	14457
854.854	14598
854.988	14511
855.122	14511
855.256	14347
855.39	14484
855.524	14598
855.658	14659
855.792	14575
855.926	14682
856.06	14621
856.194	14743
856.327	14621
856.461	14560
856.595	14465
856.729	14457
856.862	14571
856.996	14598
857.13	14590
857.263	14537
857.397	14727
857.53	14632
857.664	14655
857.797	14568
857.931	14754
858.064	14556
858.197	14659
858.331	14587
858.464	14530
858.597	14473
858.731	14549
858.864	14511
858.997	14602
859.13	14522
859.263	14575
859.396	14640
859.529	14476
859.662	14549
859.795	14495
859.928	14537
860.061	14712
860.194	14788
860.327	14583
860.46	14556
860.592	14648
860.725	14640
860.858	14670
860.99	14602
861.123	14530
861.256	14587
861.388	14503
861.521	15150
861.653	14503
861.786	14404
861.918	14317
862.05	14457
862.183	14522
862.315	14530
862.447	14617
862.58	14514
862.712	14317
862.844	14164
862.976	14374
863.108	14355
863.24	14788
863.372	14267
863.504	14313
863.636	14415
863.768	14408
863.9	14332
864.032	14324
864.164	14362
864.296	14339
864.428	14465
864.559	14488
864.691	14393
864.823	14404
864.954	14476
865.086	14313
865.217	14351
865.349	14199
865.48	14454
865.612	14290
865.743	14404
865.875	14290
866.006	14282
866.137	14301
866.269	14389
866.4	14381
866.531	14351
866.662	14275
866.793	14275
866.924	14225
867.055	14301
867.186	14347
867.317	14336
867.448	14305
867.579	14332
867.71	14317
867.841	14126
867.972	14317
868.103	14381
868.233	14313
868.364	14362
868.495	14400
868.625	14461
868.756	14663
868.886	14541
869.017	14522
869.147	14640
869.278	14670
869.408	14537
869.539	14613
869.669	14587
869.799	14629
869.929	14705
870.06	14686
870.19	14876
870.32	14880
870.45	14982
870.58	15039
870.71	15074
870.84	15230
870.97	14902
871.1	14929
871.23	15135
871.36	15085
871.489	15055
871.619	15138
871.749	15097
871.879	15222
872.008	15214
872.138	15150
872.267	15169
872.397	15116
872.526	14963
872.656	15032
872.785	15062
872.915	15230
873.044	15298
873.173	15233
873.303	15184
873.432	15279
873.561	15389
873.69	15150
873.819	15222
873.948	15393
874.077	15264
874.206	15268
874.335	15264
874.464	15424
874.593	15542
874.722	15469
874.851	15572
874.979	15553
875.108	15534
875.237	15496
875.365	15416
875.494	15549
875.623	15644
875.751	15477
875.88	15606
876.008	15644
876.136	15789
876.265	15937
876.393	16131
876.521	16029
876.65	16025
876.778	16010
876.906	15945
877.034	15968
877.162	15899
877.29	15903
877.418	16017
877.546	15975
877.674	15918
877.802	16048
877.93	16055
878.058	15854
878.185	15873
878.313	15972
878.441	16013
878.568	15808
878.696	15865
878.824	15983
878.951	15979
879.079	16166
879.206	16265
879.333	16276
879.461	16021
879.588	16124
879.715	16238
879.842	16360
879.97	16067
880.097	15960
880.224	15918
880.351	15918
880.478	15941
880.605	15816
880.732	15869
880.859	15960
880.986	15842
881.112	15854
881.239	15698
881.366	15606
881.493	15553
881.619	15526
881.746	15466
881.872	15374
881.999	15447
882.125	15424
882.252	15538
882.378	15408
882.505	15576
882.631	15443
882.757	15260
882.883	15279
883.01	15199
883.136	15340
883.262	15146
883.388	15154
883.514	15340
883.64	15397
883.766	15188
883.892	15028
884.018	15165
884.143	15256
884.269	15386
884.395	14990
884.52	14971
884.646	15013
884.772	14956
884.897	14899
885.023	15028
885.148	15093
885.274	15154
885.399	15100
885.524	14963
885.65	14982
885.775	14971
885.9	15017
886.025	15058
886.15	15157
886.275	14994
886.4	14918
886.525	15028
886.65	14899
886.775	14861
886.9	14994
887.025	15195
887.149	14998
887.274	14815
887.399	14804
887.523	14842
887.648	14667
887.773	14788
887.897	14941
888.021	14804
888.146	14651
888.27	14887
888.395	15032
888.519	15009
888.643	14777
888.767	14864
888.891	14651
889.015	14636
889.139	14579
889.263	14571
889.387	14811
889.511	14937
889.635	14765
889.759	14678
889.883	14587
890.006	14632
890.13	14750
890.254	14667
890.377	14682
890.501	14370
890.624	14488
890.748	14552
890.871	14374
890.995	14370
891.118	14218
891.241	14305
891.364	14374
891.488	14431
891.611	14313
891.734	14294
891.857	14381
891.98	14366
892.103	14480
892.226	14457
892.349	14362
892.471	14134
892.594	14324
892.717	14355
892.839	14362
892.962	14362
893.085	14404
893.207	14370
893.33	14206
893.452	14244
893.575	14393
893.697	14324
893.819	14442
893.941	14606
894.064	14480
894.186	14370
894.308	14324
894.43	14423
894.552	14579
894.674	14473
894.796	14290
894.918	14332
895.04	14336
895.161	14533
895.283	14450
895.405	14404
895.526	14446
895.648	14389
895.769	14396
895.891	14450
896.012	14473
896.134	14629
896.255	14473
896.376	14419
896.498	14511
896.619	14522
896.74	14556
896.861	14575
896.982	14880
897.103	15123
897.224	14781
897.345	14712
897.466	14781
897.587	14731
897.708	14902
897.828	14883
897.949	14648
898.07	14701
898.19	14758
898.311	14872
898.431	14765
898.552	14819
898.672	14918
898.792	14883
898.913	14941
899.033	14811
899.153	14788
899.273	14712
899.393	14632
899.513	14697
899.633	14758
899.753	14773
899.873	14648
899.993	14712
900.113	14689
900.232	14815
900.352	14735
900.472	14640
900.591	14598
900.711	14640
900.83	14568
900.95	14621
901.069	14705
901.189	14587
901.308	14298
901.427	14237
901.546	14237
901.665	14252
901.784	14221
901.904	14149
902.023	13986
902.141	13940
902.26	13757
902.379	13890
902.498	13902
902.617	13700
902.735	13818
902.854	13807
902.973	13826
903.091	13597
903.21	13571
903.328	13563
903.446	13434
903.565	13472
903.683	13373
903.801	13331
903.919	13384
904.038	13362
904.156	13228
904.274	13217
904.392	13042
904.51	13194
904.627	13213
904.745	13164
904.863	13247
904.981	13023
905.098	12856
905.216	12939
905.334	12897
905.451	12970
905.569	12833
905.686	12935
905.803	12897
905.921	12730
906.038	12795
906.155	12639
906.272	12555
906.389	12631
906.506	12475
906.623	12536
906.74	12509
906.857	12353
906.974	12414
907.091	12502
907.208	12597
907.324	12452
907.441	12407
907.557	12235
907.674	12220
907.79	12213
907.907	12232
908.023	12273
908.139	12216
908.256	12140
908.372	12087
908.488	12083
908.604	12087
908.72	11961
908.836	11927
908.952	11923
909.068	12015
909.184	12087
909.3	11954
909.415	12133
909.531	11931
909.647	11756
909.762	11748
909.878	11710
909.993	11741
910.108	11718
910.224	11726
910.339	11718
910.454	11627
910.57	11554
910.685	11535
910.8	11874
910.915	11840
911.03	11577
911.145	11414
911.259	11463
911.374	11505
911.489	11345
911.604	11356
911.718	11212
911.833	11147
911.947	11113
912.062	11006
912.176	11147
912.291	11227
912.405	11117
912.519	11303
912.633	11353
912.748	11254
912.862	11159
912.976	11060
913.09	10908
913.204	11033
913.318	11022
913.431	11090
913.545	11151
913.659	11151
913.772	11113
913.886	10987
914	10881
914.113	10953
914.226	11010
914.34	10976
914.453	10923
914.566	11067
914.68	10949
914.793	10866
914.906	10691
915.019	10702
915.132	10611
915.245	10615
915.358	10649
915.47	10698
915.583	10687
915.696	10740
915.809	10843
915.921	10797
916.034	10733
916.146	10550
916.259	10599
916.371	10694
916.483	10733
916.595	10554
916.708	10596
916.82	10618
916.932	10630
917.044	10607
917.156	10584
917.268	10481
917.38	10554
917.491	10451
917.603	10519
917.715	10569
917.826	10561
917.938	10531
918.049	10394
918.161	10531
918.272	10622
918.384	10664
918.495	10500
918.606	10398
918.717	10344
918.828	10284
918.939	10424
919.05	10284
919.161	10428
919.272	10135
919.383	10314
919.494	10432
919.604	10558
919.715	10352
919.826	10291
919.936	10394
920.047	10462
920.157	10504
920.267	10519
920.378	10436
920.488	10409
920.598	10599
920.708	10786
920.818	10714
920.928	10577
921.038	10645
921.148	10752
921.258	10379
921.368	10291
921.477	10238
921.587	10238
921.697	10116
921.806	10249
921.916	10143
922.025	9945
922.134	9998
922.244	9892
922.353	9968
922.462	9850
922.571	9755
922.68	9610
922.789	9587
922.898	9644
923.007	9610
923.116	9633
923.224	9591
923.333	9652
923.442	9462
923.55	9496
923.659	9530
923.767	9629
923.876	9515
923.984	9622
924.092	9401
924.201	9439
924.309	9542
924.417	9458
924.525	9439
924.633	9462
924.741	10367
924.849	9260
924.956	9412
925.064	9226
925.172	9157
925.279	9184
925.387	9272
925.494	9336
925.602	9370
925.709	9367
925.816	9176
925.924	9340
926.031	9389
926.138	9298
926.245	9279
926.352	9192
926.459	9310
926.566	9397
926.673	9199
926.779	9097
926.886	9150
926.993	8967
927.099	8963
927.206	8834
927.312	8929
927.419	9039
927.525	9017
927.631	9077
927.737	8834
927.843	8883
927.95	8800
928.056	8826
928.162	8891
928.267	8853
928.373	9393
928.479	9036
928.585	8807
928.69	8868
928.796	8914
928.901	8777
929.007	8686
929.112	8716
929.218	8811
929.323	8648
929.428	8663
929.533	8800
929.638	8655
929.743	8731
929.848	8815
929.953	8674
930.058	8590
930.163	8415
930.267	8446
930.372	8617
930.477	8442
930.581	8659
930.685	8488
930.79	8393
930.894	8469
930.998	8446
931.103	8621
931.207	8233
931.311	8172
931.415	8149
931.519	7947
931.623	7982
