Data from test_V78500241_3192.txt Node
Date: Fri Mar 25 14:55:56 CST 2022
User: usil
Spectrometer: V785-0024
Trigger mode: 0
Integration Time (sec): 4.000000E-1
Scans to average: 1
Nonlinearity correction enabled: false
Boxcar width: 0
Storing dark spectrum: false
XAxis mode: Wavelengths
Number of Pixels in Spectrum: 1024
>>>>>Begin Spectral Data<<<<<
801.071	21998
801.214	21907
801.356	21557
801.499	21561
801.641	21344
801.783	21317
801.926	21439
802.068	21298
802.211	21355
802.353	21237
802.496	21005
802.638	20830
802.78	20796
802.923	20663
803.065	20708
803.208	20720
803.35	20777
803.492	20921
803.635	20826
803.777	20644
803.919	20739
804.061	20986
804.204	20826
804.346	20659
804.488	20609
804.63	20708
804.773	20708
804.915	20606
805.057	20697
805.199	20526
805.341	20625
805.483	20697
805.626	20746
805.768	20594
805.91	20754
806.052	20552
806.194	20480
806.336	20655
806.478	20739
806.62	20522
806.762	20674
806.904	20941
807.046	20994
807.188	20914
807.33	20937
807.472	20906
807.614	20792
807.756	20941
807.898	20800
808.04	20674
808.182	20701
808.324	20667
808.465	20758
808.607	20872
808.749	21055
808.891	21093
809.033	21146
809.174	21131
809.316	21043
809.458	21013
809.6	20952
809.741	21116
809.883	20960
810.025	21154
810.166	21161
810.308	21157
810.45	21055
810.591	20979
810.733	20819
810.875	20800
811.016	20644
811.158	20613
811.299	20758
811.441	20872
811.582	20864
811.724	20830
811.865	20758
812.007	20796
812.148	20701
812.29	20651
812.431	20906
812.573	21161
812.714	21119
812.855	21245
812.997	21306
813.138	21447
813.279	21378
813.421	21260
813.562	21226
813.703	20906
813.845	20842
813.986	20575
814.127	20503
814.268	20336
814.41	20393
814.551	20290
814.692	20347
814.833	20248
814.974	20309
815.115	20332
815.256	20126
815.397	20088
815.539	20187
815.68	20008
815.821	19959
815.962	20008
816.103	19982
816.244	19928
816.385	19875
816.526	19734
816.666	19597
816.807	19480
816.948	19369
817.089	19537
817.23	19495
817.371	19407
817.512	19578
817.653	19354
817.793	19396
817.934	19422
818.075	19518
818.216	19445
818.356	19358
818.497	19202
818.638	19088
818.778	19217
818.919	19088
819.06	19209
819.2	19217
819.341	19346
819.481	19362
819.622	19457
819.762	19609
819.903	19601
820.043	19506
820.184	19472
820.324	19411
820.465	19476
820.605	19464
820.746	19362
820.886	19202
821.026	19415
821.167	19381
821.307	19559
821.447	19308
821.588	19217
821.728	19076
821.868	18970
822.008	18905
822.149	18863
822.289	18776
822.429	18494
822.569	18532
822.709	18391
822.849	18247
822.99	18289
823.13	18300
823.27	18308
823.41	18152
823.55	18022
823.69	18152
823.83	18182
823.97	18087
824.11	17893
824.25	17775
824.389	17878
824.529	17935
824.669	17954
824.809	18011
824.949	17908
825.089	17961
825.228	17889
825.368	17661
825.508	17619
825.648	17665
825.787	17726
825.927	17589
826.067	17680
826.206	17615
826.346	17600
826.485	17646
826.625	17668
826.765	17764
826.904	17665
827.044	17440
827.183	17398
827.323	17265
827.462	17353
827.601	17303
827.741	17334
827.88	17334
828.02	17204
828.159	17296
828.298	17349
828.437	17360
828.577	17334
828.716	17539
828.855	17197
828.994	17159
829.134	17029
829.273	17159
829.412	17071
829.551	17010
829.69	16995
829.829	17208
829.968	17181
830.107	17185
830.246	17083
830.385	17098
830.524	16987
830.663	16923
830.802	16782
830.941	16702
831.08	16580
831.219	16790
831.357	16774
831.496	16866
831.635	16675
831.774	16599
831.913	16535
832.051	16538
832.19	16580
832.329	16634
832.467	16382
832.606	16341
832.744	16451
832.883	16462
833.022	16291
833.16	16402
833.299	16485
833.437	16375
833.576	16375
833.714	16462
833.852	16436
833.991	16531
834.129	16561
834.267	16596
834.406	16428
834.544	16577
834.682	16409
834.821	16455
834.959	16615
835.097	16421
835.235	16546
835.373	16596
835.511	16394
835.65	16348
835.788	16413
835.926	16246
836.064	16230
836.202	16112
836.34	16344
836.478	16474
836.615	16295
836.753	16337
836.891	16447
837.029	16310
837.167	16333
837.305	16356
837.443	16310
837.58	16173
837.718	16417
837.856	16242
837.993	16154
838.131	16196
838.269	16158
838.406	16139
838.544	16071
838.681	15968
838.819	15937
838.956	15739
839.094	15819
839.231	15804
839.369	15949
839.506	16204
839.643	16067
839.781	15911
839.918	15789
840.055	15766
840.193	15751
840.33	15736
840.467	15781
840.604	15785
840.742	15994
840.879	15629
841.016	15625
841.153	15599
841.29	15857
841.427	15812
841.564	15793
841.701	15846
841.838	15720
841.975	15648
842.112	15705
842.249	15530
842.385	15553
842.522	15793
842.659	15587
842.796	15648
842.933	15553
843.069	15568
843.206	15526
843.343	15591
843.479	15561
843.616	15584
843.752	15443
843.889	15272
844.025	15458
844.162	15306
844.298	15447
844.435	15332
844.571	15348
844.708	15447
844.844	15553
844.98	15454
845.117	15504
845.253	15287
845.389	15211
845.525	15386
845.661	15302
845.798	15108
845.934	15199
846.07	15123
846.206	15214
846.342	15260
846.478	15169
846.614	14990
846.75	14918
846.886	14872
847.022	15062
847.158	14979
847.294	15013
847.429	14861
847.565	14967
847.701	15169
847.837	14636
847.972	14552
848.108	14857
848.244	14765
848.379	14541
848.515	14461
848.65	14530
848.786	14541
848.921	14613
849.057	14651
849.192	14739
849.328	14610
849.463	14537
849.598	14507
849.734	14442
849.869	14301
850.004	14278
850.14	14400
850.275	14290
850.41	14271
850.545	14294
850.68	14282
850.815	14362
850.95	14240
851.085	14431
851.22	14374
851.355	14298
851.49	14336
851.625	14195
851.76	14138
851.895	14202
852.03	14214
852.165	14256
852.299	14294
852.434	14328
852.569	14336
852.703	14305
852.838	14305
852.973	14488
853.107	14442
853.242	14221
853.376	14145
853.511	14062
853.645	14054
853.78	14301
853.914	14187
854.048	14157
854.183	14130
854.317	14145
854.451	14320
854.585	14191
854.72	14153
854.854	14210
854.988	14111
855.122	14218
855.256	14062
855.39	14119
855.524	14290
855.658	14221
855.792	14229
855.926	14248
856.06	14240
856.194	14202
856.327	14069
856.461	14172
856.595	14123
856.729	14138
856.862	14172
856.996	14229
857.13	14290
857.263	14298
857.397	14366
857.53	14183
857.664	14214
857.797	14191
857.931	14313
858.064	14214
858.197	14267
858.331	14187
858.464	14138
858.597	14073
858.731	14225
858.864	14183
858.997	14142
859.13	14183
859.263	14218
859.396	14275
859.529	14103
859.662	14206
859.795	14126
859.928	14191
860.061	14385
860.194	14298
860.327	14233
860.46	14092
860.592	14263
860.725	14202
860.858	14320
860.99	14123
861.123	14153
861.256	14073
861.388	14149
861.521	14925
861.653	13970
861.786	14069
861.918	14065
862.05	14084
862.183	14119
862.315	14172
862.447	14218
862.58	14119
862.712	13955
862.844	13868
862.976	13917
863.108	13982
863.24	14263
863.372	13849
863.504	13883
863.636	13967
863.768	14031
863.9	13913
864.032	13951
864.164	13894
864.296	14035
864.428	13955
864.559	14027
864.691	14031
864.823	13936
864.954	13978
865.086	14058
865.217	13921
865.349	13841
865.48	13944
865.612	13932
865.743	14005
865.875	13822
866.006	13944
866.137	13970
866.269	13864
866.4	13864
866.531	13871
866.662	13875
866.793	13986
866.924	13947
867.055	13826
867.186	13959
867.317	13906
867.448	13928
867.579	13871
867.71	13791
867.841	13837
867.972	13921
868.103	13947
868.233	13921
868.364	13890
868.495	13959
868.625	14206
868.756	14202
868.886	14164
869.017	14180
869.147	14290
869.278	14317
869.408	14244
869.539	14187
869.669	14290
869.799	14248
869.929	14336
870.06	14263
870.19	14457
870.32	14473
870.45	14473
870.58	14499
870.71	14682
870.84	14651
870.97	14674
871.1	14522
871.23	14769
871.36	14785
871.489	14667
871.619	14739
871.749	14792
871.879	14792
872.008	14960
872.138	14746
872.267	14739
872.397	14705
872.526	14659
872.656	14651
872.785	14648
872.915	14754
873.044	14804
873.173	14724
873.303	14842
873.432	14887
873.561	14990
873.69	14785
873.819	14746
873.948	14910
874.077	14876
874.206	14861
874.335	14796
874.464	14975
874.593	15116
874.722	15123
874.851	15184
874.979	15249
875.108	15211
875.237	15157
875.365	15116
875.494	15195
875.623	15256
875.751	15116
875.88	15192
876.008	15329
876.136	15336
876.265	15530
876.393	15705
876.521	15637
876.65	15633
876.778	15606
876.906	15534
877.034	15530
877.162	15469
877.29	15488
877.418	15549
877.546	15618
877.674	15587
877.802	15580
877.93	15625
878.058	15469
878.185	15466
878.313	15553
878.441	15580
878.568	15332
878.696	15523
878.824	15637
878.951	15656
879.079	15724
879.206	15888
879.333	15816
879.461	15500
879.588	15656
879.715	15759
879.842	15865
879.97	15633
880.097	15382
880.224	15519
880.351	15481
880.478	15454
880.605	15348
880.732	15435
880.859	15625
880.986	15481
881.112	15435
881.239	15313
881.366	15192
881.493	15112
881.619	15150
881.746	15150
881.872	15104
881.999	15039
882.125	15074
882.252	15100
882.378	15058
882.505	15230
882.631	15020
882.757	14811
882.883	14933
883.01	14929
883.136	14842
883.262	14750
883.388	14670
883.514	14872
883.64	14914
883.766	14887
883.892	14705
884.018	14765
884.143	14902
884.269	14960
884.395	14571
884.52	14625
884.646	14632
884.772	14495
884.897	14495
885.023	14549
885.148	14632
885.274	14826
885.399	14693
885.524	14518
885.65	14587
885.775	14644
885.9	14594
886.025	14682
886.15	14648
886.275	14556
886.4	14476
886.525	14598
886.65	14473
886.775	14549
886.9	14693
887.025	14785
887.149	14632
887.274	14355
887.399	14454
887.523	14370
887.648	14317
887.773	14343
887.897	14518
888.021	14450
888.146	14362
888.27	14526
888.395	14575
888.519	14537
888.643	14503
888.767	14552
888.891	14343
889.015	14282
889.139	14370
889.263	14286
889.387	14423
889.511	14556
889.635	14484
889.759	14259
889.883	14286
890.006	14381
890.13	14419
890.254	14237
890.377	14206
890.501	14065
890.624	14077
890.748	14081
890.871	14035
890.995	14054
891.118	13902
891.241	14073
891.364	13951
891.488	14050
891.611	13963
891.734	13963
891.857	14077
891.98	14035
892.103	14058
892.226	14001
892.349	14084
892.471	13845
892.594	14081
892.717	14020
892.839	13989
892.962	13932
893.085	14164
893.207	13921
893.33	13837
893.452	13837
893.575	14134
893.697	13986
893.819	14206
893.941	14244
894.064	14157
894.186	13902
894.308	13997
894.43	14134
894.552	14214
894.674	14043
894.796	14001
894.918	13970
895.04	13978
895.161	14168
895.283	14039
895.405	14058
895.526	14043
895.648	14088
895.769	14096
895.891	14164
896.012	14221
896.134	14240
896.255	14180
896.376	14153
896.498	14221
896.619	14221
896.74	14199
896.861	14248
896.982	14492
897.103	14712
897.224	14469
897.345	14431
897.466	14366
897.587	14434
897.708	14522
897.828	14598
897.949	14434
898.07	14301
898.19	14332
898.311	14579
898.431	14465
898.552	14530
898.672	14549
898.792	14625
898.913	14545
899.033	14457
899.153	14419
899.273	14320
899.393	14309
899.513	14343
899.633	14347
899.753	14423
899.873	14339
899.993	14488
900.113	14351
900.232	14324
900.352	14400
900.472	14362
900.591	14252
900.711	14320
900.83	14343
900.95	14438
901.069	14362
901.189	14275
901.308	13993
901.427	13909
901.546	13974
901.665	14050
901.784	13917
901.904	13795
902.023	13742
902.141	13495
902.26	13457
902.379	13506
902.498	13514
902.617	13453
902.735	13457
902.854	13464
902.973	13396
903.091	13209
903.21	13232
903.328	13259
903.446	13141
903.565	13057
903.683	13046
903.801	12973
903.919	12973
904.038	13076
904.156	12954
904.274	12985
904.392	12802
904.51	12844
904.627	12875
904.745	12973
904.863	12878
904.981	12665
905.098	12551
905.216	12486
905.334	12646
905.451	12601
905.569	12486
905.686	12627
905.803	12452
905.921	12391
906.038	12494
906.155	12456
906.272	12243
906.389	12308
906.506	12163
906.623	12121
906.74	12178
906.857	12019
906.974	12038
907.091	12197
907.208	12308
907.324	12201
907.441	12167
907.557	11961
907.674	11916
907.79	11851
907.907	11840
908.023	11969
908.139	11897
908.256	11912
908.372	11828
908.488	11851
908.604	11688
908.72	11642
908.836	11668
908.952	11691
909.068	11695
909.184	11904
909.3	11646
909.415	11771
909.531	11676
909.647	11459
909.762	11398
909.878	11448
909.993	11497
910.108	11391
910.224	11467
910.339	11520
910.454	11387
910.57	11345
910.685	11311
910.8	11558
910.915	11429
911.03	11341
911.145	11223
911.259	11254
911.374	11132
911.489	11136
911.604	11003
911.718	10949
911.833	10911
911.947	10801
912.062	10805
912.176	10869
912.291	10908
912.405	10877
912.519	11143
912.633	11151
912.748	10999
912.862	10965
912.976	10831
913.09	10771
913.204	10752
913.318	10774
913.431	10923
913.545	10831
913.659	10862
913.772	10809
913.886	10710
914	10714
914.113	10866
914.226	10797
914.34	10778
914.453	10706
914.566	10782
914.68	10691
914.793	10565
914.906	10519
915.019	10440
915.132	10375
915.245	10500
915.358	10462
915.47	10497
915.583	10569
915.696	10512
915.809	10554
915.921	10706
916.034	10459
916.146	10436
916.259	10451
916.371	10519
916.483	10440
916.595	10322
916.708	10428
916.82	10470
916.932	10440
917.044	10409
917.156	10322
917.268	10227
917.38	10348
917.491	10325
917.603	10306
917.715	10451
917.826	10417
917.938	10322
918.049	10249
918.161	10276
918.272	10421
918.384	10341
918.495	10211
918.606	10185
918.717	10090
918.828	10234
918.939	10211
919.05	9998
919.161	10177
919.272	9975
919.383	10006
919.494	10219
919.604	10424
919.715	10261
919.826	10093
919.936	10196
920.047	10291
920.157	10192
920.267	10485
920.378	10196
920.488	10150
920.598	10466
920.708	10565
920.818	10360
920.928	10299
921.038	10588
921.148	10508
921.258	10238
921.368	10097
921.477	10036
921.587	10002
921.697	9888
921.806	10074
921.916	9945
922.025	9800
922.134	9770
922.244	9717
922.353	9789
922.462	9641
922.571	9603
922.68	9401
922.789	9389
922.898	9572
923.007	9382
923.116	9447
923.224	9401
923.333	9466
923.442	9370
923.55	9287
923.659	9363
923.767	9355
923.876	9374
923.984	9359
924.092	9195
924.201	9291
924.309	9302
924.417	9348
924.525	9291
924.633	9157
924.741	10128
924.849	9009
924.956	9264
925.064	9108
925.172	9013
925.279	9074
925.387	9154
925.494	9058
925.602	9207
925.709	9199
925.816	8998
925.924	9119
926.031	9176
926.138	9089
926.245	9157
926.352	9039
926.459	9097
926.566	9165
926.673	9077
926.779	9009
926.886	8891
926.993	8785
927.099	8887
927.206	8773
927.312	8788
927.419	8853
927.525	8834
927.631	8880
927.737	8648
927.843	8682
927.95	8629
928.056	8670
928.162	8773
928.267	8758
928.373	9222
928.479	8849
928.585	8564
928.69	8663
928.796	8762
928.901	8587
929.007	8488
929.112	8648
929.218	8568
929.323	8587
929.428	8537
929.533	8602
929.638	8461
929.743	8552
929.848	8499
929.953	8514
930.058	8461
930.163	8267
930.267	8313
930.372	8408
930.477	8279
930.581	8526
930.685	8442
930.79	8320
930.894	8305
930.998	8275
931.103	8461
931.207	8050
931.311	7978
931.415	7959
931.519	7738
931.623	7776
