Data from test_V78500241_2739.txt Node
Date: Fri Mar 25 14:52:47 CST 2022
User: usil
Spectrometer: V785-0024
Trigger mode: 0
Integration Time (sec): 4.000000E-1
Scans to average: 1
Nonlinearity correction enabled: false
Boxcar width: 0
Storing dark spectrum: false
XAxis mode: Wavelengths
Number of Pixels in Spectrum: 1024
>>>>>Begin Spectral Data<<<<<
801.071	21941
801.214	22025
801.356	21633
801.499	21583
801.641	21492
801.783	21416
801.926	21408
802.068	21412
802.211	21386
802.353	21188
802.496	20990
802.638	20941
802.78	21001
802.923	20861
803.065	20682
803.208	20712
803.35	20720
803.492	20956
803.635	20880
803.777	20830
803.919	20765
804.061	21055
804.204	20895
804.346	20762
804.488	20579
804.63	20727
804.773	20720
804.915	20636
805.057	20872
805.199	20632
805.341	20754
805.483	20883
805.626	20731
805.768	20663
805.91	20811
806.052	20659
806.194	20511
806.336	20838
806.478	20701
806.62	20655
806.762	20720
806.904	20933
807.046	21077
807.188	20853
807.33	21024
807.472	20921
807.614	20921
807.756	20937
807.898	20750
808.04	20746
808.182	20769
808.324	20804
808.465	20579
808.607	21013
808.749	21066
808.891	21116
809.033	21146
809.174	21123
809.316	20986
809.458	20925
809.6	21036
809.741	21020
809.883	20963
810.025	21272
810.166	21142
810.308	21169
810.45	21100
810.591	20925
810.733	21005
810.875	20769
811.016	20769
811.158	20594
811.299	20731
811.441	20921
811.582	20769
811.724	20708
811.865	20796
812.007	20819
812.148	20777
812.29	20914
812.431	20937
812.573	21116
812.714	21131
812.855	21386
812.997	21488
813.138	21477
813.279	21321
813.421	21226
813.562	21306
813.703	21024
813.845	20910
813.986	20651
814.127	20434
814.268	20389
814.41	20404
814.551	20317
814.692	20419
814.833	20305
814.974	20324
815.115	20332
815.256	20142
815.397	20221
815.539	20180
815.68	20016
815.821	20073
815.962	20062
816.103	20043
816.244	19951
816.385	19788
816.526	19814
816.666	19795
816.807	19449
816.948	19597
817.089	19620
817.23	19434
817.371	19495
817.512	19491
817.653	19457
817.793	19411
817.934	19422
818.075	19377
818.216	19506
818.356	19506
818.497	19285
818.638	18985
818.778	19164
818.919	19148
819.06	19171
819.2	19369
819.341	19304
819.481	19274
819.622	19578
819.762	19605
819.903	19571
820.043	19662
820.184	19514
820.324	19567
820.465	19575
820.605	19609
820.746	19571
820.886	19293
821.026	19339
821.167	19339
821.307	19476
821.447	19240
821.588	19255
821.728	19156
821.868	18962
822.008	18928
822.149	18837
822.289	18814
822.429	18528
822.569	18593
822.709	18551
822.849	18380
822.99	18357
823.13	18388
823.27	18224
823.41	18209
823.55	17973
823.69	18247
823.83	18197
823.97	18091
824.11	17931
824.25	17889
824.389	17965
824.529	17980
824.669	17817
824.809	18053
824.949	18030
825.089	17950
825.228	17878
825.368	17600
825.508	17760
825.648	17798
825.787	17733
825.927	17661
826.067	17604
826.206	17634
826.346	17680
826.485	17668
826.625	17676
826.765	17828
826.904	17608
827.044	17467
827.183	17493
827.323	17345
827.462	17455
827.601	17436
827.741	17402
827.88	17436
828.02	17250
828.159	17337
828.298	17372
828.437	17478
828.577	17402
828.716	17528
828.855	17429
828.994	17166
829.134	17223
829.273	17132
829.412	17155
829.551	17067
829.69	17227
829.829	17140
829.968	17334
830.107	17337
830.246	17227
830.385	17132
830.524	17143
830.663	17033
830.802	16866
830.941	16759
831.08	16694
831.219	16911
831.357	16889
831.496	17094
831.635	16725
831.774	16721
831.913	16683
832.051	16672
832.19	16554
832.329	16641
832.467	16489
832.606	16493
832.744	16436
832.883	16493
833.022	16440
833.16	16504
833.299	16466
833.437	16451
833.576	16474
833.714	16573
833.852	16447
833.991	16558
834.129	16542
834.267	16500
834.406	16512
834.544	16493
834.682	16474
834.821	16451
834.959	16649
835.097	16538
835.235	16565
835.373	16421
835.511	16569
835.65	16390
835.788	16356
835.926	16299
836.064	16196
836.202	16303
836.34	16417
836.478	16538
836.615	16363
836.753	16455
836.891	16535
837.029	16523
837.167	16462
837.305	16375
837.443	16371
837.58	16192
837.718	16367
837.856	16440
837.993	16280
838.131	16322
838.269	16280
838.406	16188
838.544	16112
838.681	16010
838.819	15972
838.956	15934
839.094	15823
839.231	15838
839.369	15972
839.506	16280
839.643	16067
839.781	15823
839.918	15747
840.055	15953
840.193	15842
840.33	15785
840.467	15873
840.604	15842
840.742	16048
840.879	15751
841.016	15823
841.153	15816
841.29	16025
841.427	15892
841.564	15922
841.701	15892
841.838	15808
841.975	15759
842.112	15705
842.249	15663
842.385	15633
842.522	15778
842.659	15713
842.796	15603
842.933	15667
843.069	15587
843.206	15637
843.343	15701
843.479	15637
843.616	15705
843.752	15408
843.889	15462
844.025	15557
844.162	15447
844.298	15599
844.435	15416
844.571	15310
844.708	15507
844.844	15542
844.98	15496
845.117	15534
845.253	15336
845.389	15272
845.525	15348
845.661	15264
845.798	15093
845.934	15268
846.07	15173
846.206	15176
846.342	15249
846.478	15203
846.614	15119
846.75	14982
846.886	14880
847.022	15119
847.158	14956
847.294	14971
847.429	15070
847.565	15047
847.701	15203
847.837	14811
847.972	14648
848.108	14887
848.244	14720
848.379	14602
848.515	14568
848.65	14568
848.786	14541
848.921	14560
849.057	14682
849.192	14670
849.328	14617
849.463	14701
849.598	14579
849.734	14575
849.869	14393
850.004	14377
850.14	14408
850.275	14332
850.41	14301
850.545	14332
850.68	14366
850.815	14415
850.95	14355
851.085	14537
851.22	14385
851.355	14393
851.49	14339
851.625	14415
851.76	14320
851.895	14225
852.03	14221
852.165	14339
852.299	14370
852.434	14415
852.569	14305
852.703	14484
852.838	14541
852.973	14549
853.107	14484
853.242	14305
853.376	14248
853.511	14145
853.645	14210
853.78	14294
853.914	14199
854.048	14187
854.183	14339
854.317	14305
854.451	14362
854.585	14229
854.72	14343
854.854	14259
854.988	14168
855.122	14206
855.256	14119
855.39	14267
855.524	14358
855.658	14298
855.792	14351
855.926	14389
856.06	14320
856.194	14404
856.327	14301
856.461	14282
856.595	14206
856.729	14183
856.862	14374
856.996	14362
857.13	14377
857.263	14358
857.397	14415
857.53	14271
857.664	14358
857.797	14347
857.931	14446
858.064	14301
858.197	14442
858.331	14271
858.464	14256
858.597	14202
858.731	14180
858.864	14259
858.997	14305
859.13	14271
859.263	14282
859.396	14328
859.529	14252
859.662	14317
859.795	14172
859.928	14252
860.061	14438
860.194	14427
860.327	14336
860.46	14244
860.592	14412
860.725	14370
860.858	14400
860.99	14183
861.123	14187
861.256	14199
861.388	14233
861.521	14811
861.653	14183
861.786	14103
861.918	14050
862.05	14187
862.183	14195
862.315	14210
862.447	14259
862.58	14134
862.712	14008
862.844	13947
862.976	14130
863.108	14119
863.24	14495
863.372	13951
863.504	14103
863.636	14039
863.768	14069
863.9	14100
864.032	13925
864.164	14077
864.296	14126
864.428	14145
864.559	14138
864.691	14062
864.823	13989
864.954	14084
865.086	14062
865.217	14043
865.349	13906
865.48	14058
865.612	14103
865.743	14229
865.875	14024
866.006	13974
866.137	14115
866.269	14062
866.4	13986
866.531	13997
866.662	13883
866.793	13936
866.924	13967
867.055	13986
867.186	14069
867.317	14050
867.448	13856
867.579	13940
867.71	14008
867.841	13925
867.972	14046
868.103	14016
868.233	14062
868.364	13997
868.495	14100
868.625	14229
868.756	14389
868.886	14130
869.017	14336
869.147	14408
869.278	14347
869.408	14324
869.539	14290
869.669	14343
869.799	14400
869.929	14518
870.06	14377
870.19	14651
870.32	14594
870.45	14568
870.58	14648
870.71	14667
870.84	14815
870.97	14697
871.1	14674
871.23	14823
871.36	14864
871.489	14853
871.619	14872
871.749	14910
871.879	14849
872.008	14960
872.138	14918
872.267	14910
872.397	14686
872.526	14724
872.656	14674
872.785	14693
872.915	14899
873.044	14933
873.173	14929
873.303	14891
873.432	15009
873.561	15020
873.69	14963
873.819	14933
873.948	15009
874.077	15005
874.206	14891
874.335	14967
874.464	15028
874.593	15173
874.722	15138
874.851	15127
874.979	15249
875.108	15325
875.237	15180
875.365	15100
875.494	15127
875.623	15306
875.751	15093
875.88	15294
876.008	15310
876.136	15435
876.265	15698
876.393	15774
876.521	15755
876.65	15675
876.778	15675
876.906	15614
877.034	15610
877.162	15633
877.29	15561
877.418	15660
877.546	15618
877.674	15580
877.802	15637
877.93	15652
878.058	15606
878.185	15610
878.313	15618
878.441	15629
878.568	15515
878.696	15610
878.824	15641
878.951	15709
879.079	15876
879.206	15903
879.333	15850
879.461	15644
879.588	15755
879.715	15873
879.842	15994
879.97	15701
880.097	15553
880.224	15416
880.351	15549
880.478	15557
880.605	15462
880.732	15412
880.859	15690
880.986	15492
881.112	15564
881.239	15416
881.366	15203
881.493	15283
881.619	15135
881.746	15218
881.872	15237
881.999	15066
882.125	15081
882.252	15138
882.378	15169
882.505	15268
882.631	15188
882.757	14933
882.883	15028
883.01	14990
883.136	14941
883.262	14804
883.388	14918
883.514	15051
883.64	14979
883.766	14937
883.892	14769
884.018	14788
884.143	14914
884.269	15131
884.395	14693
884.52	14682
884.646	14625
884.772	14564
884.897	14625
885.023	14746
885.148	14754
885.274	14781
885.399	14765
885.524	14644
885.65	14682
885.775	14674
885.9	14655
886.025	14765
886.15	14765
886.275	14541
886.4	14549
886.525	14640
886.65	14594
886.775	14644
886.9	14746
887.025	14933
887.149	14731
887.274	14598
887.399	14423
887.523	14522
887.648	14427
887.773	14495
887.897	14495
888.021	14526
888.146	14457
888.27	14606
888.395	14632
888.519	14507
888.643	14644
888.767	14507
888.891	14377
889.015	14324
889.139	14400
889.263	14301
889.387	14495
889.511	14537
889.635	14533
889.759	14377
889.883	14294
890.006	14434
890.13	14484
890.254	14355
890.377	14370
890.501	14202
890.624	14183
890.748	14320
890.871	14145
890.995	13955
891.118	14012
891.241	14031
891.364	14096
891.488	14126
891.611	14065
891.734	14035
891.857	14107
891.98	14157
892.103	14229
892.226	14115
892.349	14016
892.471	13887
892.594	14096
892.717	14069
892.839	14043
892.962	14035
893.085	14164
893.207	14016
893.33	13967
893.452	14035
893.575	14142
893.697	13967
893.819	14240
893.941	14317
894.064	14298
894.186	13970
894.308	14092
894.43	14229
894.552	14244
894.674	14157
894.796	14039
894.918	14164
895.04	14168
895.161	14191
895.283	14180
895.405	14016
895.526	14157
895.648	14119
895.769	14221
895.891	14328
896.012	14347
896.134	14233
896.255	14233
896.376	14225
896.498	14210
896.619	14180
896.74	14328
896.861	14267
896.982	14617
897.103	14689
897.224	14571
897.345	14431
897.466	14492
897.587	14522
897.708	14625
897.828	14533
897.949	14484
898.07	14412
898.19	14545
898.311	14644
898.431	14503
898.552	14575
898.672	14724
898.792	14705
898.913	14674
899.033	14564
899.153	14476
899.273	14400
899.393	14393
899.513	14408
899.633	14423
899.753	14465
899.873	14328
899.993	14473
900.113	14423
900.232	14423
900.352	14362
900.472	14263
900.591	14145
900.711	14313
900.83	14172
900.95	14415
901.069	14389
901.189	14271
901.308	14142
901.427	13967
901.546	14035
901.665	13967
901.784	13986
901.904	13940
902.023	13807
902.141	13575
902.26	13544
902.379	13586
902.498	13540
902.617	13491
902.735	13586
902.854	13491
902.973	13502
903.091	13312
903.21	13285
903.328	13240
903.446	13202
903.565	13221
903.683	13190
903.801	13031
903.919	13145
904.038	13099
904.156	12886
904.274	13015
904.392	12985
904.51	12878
904.627	12901
904.745	12981
904.863	12943
904.981	12730
905.098	12642
905.216	12604
905.334	12684
905.451	12639
905.569	12566
905.686	12650
905.803	12597
905.921	12422
906.038	12589
906.155	12445
906.272	12319
906.389	12369
906.506	12121
906.623	12300
906.74	12209
906.857	12129
906.974	12159
907.091	12285
907.208	12361
907.324	12357
907.441	12213
907.557	11977
907.674	12022
907.79	11942
907.907	11931
908.023	11992
908.139	12045
908.256	11832
908.372	11840
908.488	11821
908.604	11684
908.72	11714
908.836	11688
908.952	11653
909.068	11718
909.184	11832
909.3	11726
909.415	11779
909.531	11703
909.647	11520
909.762	11452
909.878	11524
909.993	11566
910.108	11516
910.224	11452
910.339	11501
910.454	11391
910.57	11208
910.685	11254
910.8	11543
910.915	11490
911.03	11322
911.145	11193
911.259	11166
911.374	11204
911.489	11121
911.604	11048
911.718	10900
911.833	10953
911.947	10953
912.062	10820
912.176	10949
912.291	10934
912.405	10869
912.519	11098
912.633	11147
912.748	10991
912.862	10953
912.976	10847
913.09	10588
913.204	10869
913.318	10835
913.431	10987
913.545	10938
913.659	10934
913.772	10854
913.886	10683
914	10694
914.113	10752
914.226	10763
914.34	10778
914.453	10679
914.566	10816
914.68	10729
914.793	10634
914.906	10561
915.019	10390
915.132	10405
915.245	10474
915.358	10470
915.47	10455
915.583	10485
915.696	10516
915.809	10596
915.921	10569
916.034	10440
916.146	10451
916.259	10375
916.371	10489
916.483	10455
916.595	10352
916.708	10421
916.82	10432
916.932	10386
917.044	10318
917.156	10272
917.268	10166
917.38	10284
917.491	10227
917.603	10284
917.715	10371
917.826	10417
917.938	10223
918.049	10147
918.161	10284
918.272	10447
918.384	10462
918.495	10329
918.606	10196
918.717	10093
918.828	10215
918.939	10192
919.05	10063
919.161	10230
919.272	9960
919.383	10071
919.494	10188
919.604	10405
919.715	10287
919.826	10147
919.936	10219
920.047	10192
920.157	10268
920.267	10360
920.378	10261
920.488	10230
920.598	10436
920.708	10535
920.818	10386
920.928	10344
921.038	10508
921.148	10531
921.258	10188
921.368	10188
921.477	10135
921.587	10040
921.697	9956
921.806	10101
921.916	9953
922.025	9812
922.134	9713
922.244	9724
922.353	9755
922.462	9633
922.571	9553
922.68	9469
922.789	9386
922.898	9469
923.007	9466
923.116	9477
923.224	9469
923.333	9466
923.442	9325
923.55	9306
923.659	9393
923.767	9428
923.876	9245
923.984	9428
924.092	9287
924.201	9310
924.309	9389
924.417	9253
924.525	9256
924.633	9359
924.741	10059
924.849	9100
924.956	9176
925.064	9089
925.172	9013
925.279	9005
925.387	9142
925.494	9157
925.602	9253
925.709	9104
925.816	9028
925.924	9055
926.031	9085
926.138	9131
926.245	9119
926.352	9001
926.459	9180
926.566	9154
926.673	9081
926.779	8979
926.886	8906
926.993	8887
927.099	8815
927.206	8804
927.312	8804
927.419	8876
927.525	8834
927.631	8777
927.737	8708
927.843	8766
927.95	8659
928.056	8743
928.162	8750
928.267	8743
928.373	9359
928.479	8811
928.585	8602
928.69	8712
928.796	8762
928.901	8655
929.007	8514
929.112	8670
929.218	8610
929.323	8625
929.428	8514
929.533	8659
929.638	8442
929.743	8541
929.848	8632
929.953	8537
930.058	8381
930.163	8332
930.267	8362
930.372	8488
930.477	8157
930.581	8461
930.685	8381
930.79	8206
930.894	8282
930.998	8225
931.103	8404
931.207	7986
931.311	8027
931.415	7928
931.519	7769
931.623	7761
