Data from test_V78500241_1050.txt Node
Date: Fri Mar 25 14:41:01 CST 2022
User: usil
Spectrometer: V785-0024
Trigger mode: 0
Integration Time (sec): 4.000000E-1
Scans to average: 1
Nonlinearity correction enabled: false
Boxcar width: 0
Storing dark spectrum: false
XAxis mode: Wavelengths
Number of Pixels in Spectrum: 1024
>>>>>Begin Spectral Data<<<<<
801.071	22866
801.214	22759
801.356	22535
801.499	22375
801.641	22188
801.783	22223
801.926	22150
802.068	22048
802.211	22124
802.353	21926
802.496	21861
802.638	21778
802.78	21774
802.923	21614
803.065	21553
803.208	21523
803.35	21599
803.492	21576
803.635	21762
803.777	21485
803.919	21610
804.061	21816
804.204	21652
804.346	21523
804.488	21336
804.63	21580
804.773	21348
804.915	21534
805.057	21587
805.199	21454
805.341	21466
805.483	21583
805.626	21477
805.768	21389
805.91	21496
806.052	21454
806.194	21458
806.336	21606
806.478	21572
806.62	21511
806.762	21564
806.904	21789
807.046	21812
807.188	21895
807.33	21987
807.472	21987
807.614	21781
807.756	21949
807.898	21838
808.04	21827
808.182	21785
808.324	21983
808.465	22074
808.607	22451
808.749	22478
808.891	22630
809.033	22755
809.174	22584
809.316	22413
809.458	22390
809.6	22211
809.741	22200
809.883	22306
810.025	22219
810.166	22196
810.308	22051
810.45	22093
810.591	21983
810.733	21930
810.875	21808
811.016	21701
811.158	21610
811.299	21823
811.441	21800
811.582	21804
811.724	21614
811.865	21599
812.007	21614
812.148	21743
812.29	21823
812.431	21835
812.573	22029
812.714	22086
812.855	22185
812.997	22375
813.138	22379
813.279	22284
813.421	22261
813.562	22105
813.703	22063
813.845	21930
813.986	21587
814.127	21401
814.268	21287
814.41	21268
814.551	21157
814.692	21310
814.833	21230
814.974	21230
815.115	21214
815.256	21070
815.397	21096
815.539	21146
815.68	21150
815.821	20929
815.962	20956
816.103	20925
816.244	20887
816.385	20724
816.526	20781
816.666	20549
816.807	20484
816.948	20530
817.089	20484
817.23	20499
817.371	20389
817.512	20423
817.653	20454
817.793	20366
817.934	20351
818.075	20400
818.216	20434
818.356	20374
818.497	20290
818.638	20024
818.778	20024
818.919	19986
819.06	20046
819.2	20161
819.341	20237
819.481	20320
819.622	20374
819.762	20507
819.903	20556
820.043	20419
820.184	20438
820.324	20290
820.465	20385
820.605	20366
820.746	20396
820.886	20233
821.026	20396
821.167	20282
821.307	20412
821.447	20267
821.588	20263
821.728	20126
821.868	19932
822.008	19742
822.149	19826
822.289	19799
822.429	19476
822.569	19441
822.709	19426
822.849	19327
822.99	19232
823.13	19236
823.27	19179
823.41	19133
823.55	19000
823.69	19076
823.83	19046
823.97	19023
824.11	18749
824.25	18852
824.389	18776
824.529	19053
824.669	18821
824.809	18970
824.949	18844
825.089	18856
825.228	18962
825.368	18734
825.508	18688
825.648	18616
825.787	18715
825.927	18661
826.067	18669
826.206	18665
826.346	18692
826.485	18684
826.625	18608
826.765	18700
826.904	18540
827.044	18456
827.183	18479
827.323	18334
827.462	18399
827.601	18273
827.741	18239
827.88	18319
828.02	18270
828.159	18174
828.298	18384
828.437	18448
828.577	18334
828.716	18369
828.855	18289
828.994	18064
829.134	18114
829.273	18159
829.412	17946
829.551	17942
829.69	17942
829.829	18083
829.968	18171
830.107	18163
830.246	18121
830.385	18091
830.524	17942
830.663	17885
830.802	17748
830.941	17756
831.08	17642
831.219	17703
831.357	17722
831.496	17897
831.635	17638
831.774	17604
831.913	17604
832.051	17596
832.19	17467
832.329	17448
832.467	17383
832.606	17395
832.744	17280
832.883	17360
833.022	17417
833.16	17433
833.299	17353
833.437	17368
833.576	17501
833.714	17425
833.852	17471
833.991	17589
834.129	17539
834.267	17562
834.406	17318
834.544	17524
834.682	17478
834.821	17440
834.959	17661
835.097	17391
835.235	17478
835.373	17448
835.511	17376
835.65	17250
835.788	17303
835.926	17132
836.064	17121
836.202	17121
836.34	17261
836.478	17349
836.615	17246
836.753	17368
836.891	17368
837.029	17353
837.167	17376
837.305	17337
837.443	17185
837.58	17242
837.718	17254
837.856	17204
837.993	17178
838.131	17261
838.269	17064
838.406	17197
838.544	17128
838.681	16930
838.819	16854
838.956	16713
839.094	16683
839.231	16847
839.369	16816
839.506	17140
839.643	16946
839.781	16809
839.918	16729
840.055	16782
840.193	16774
840.33	16675
840.467	16744
840.604	16713
840.742	17025
840.879	16611
841.016	16630
841.153	16721
841.29	16904
841.427	16649
841.564	16729
841.701	16702
841.838	16691
841.975	16500
842.112	16679
842.249	16440
842.385	16508
842.522	16691
842.659	16531
842.796	16375
842.933	16375
843.069	16265
843.206	16436
843.343	16523
843.479	16440
843.616	16649
843.752	16257
843.889	16295
844.025	16413
844.162	16257
844.298	16390
844.435	16265
844.571	16219
844.708	16329
844.844	16440
844.98	16485
845.117	16371
845.253	16356
845.389	16352
845.525	16371
845.661	16637
845.798	16725
845.934	16938
846.07	16850
846.206	16904
846.342	16809
846.478	16588
846.614	16226
846.75	15949
846.886	15895
847.022	16021
847.158	15899
847.294	15960
847.429	15850
847.565	15819
847.701	16067
847.837	15580
847.972	15542
848.108	15625
848.244	15599
848.379	15367
848.515	15386
848.65	15431
848.786	15412
848.921	15443
849.057	15469
849.192	15515
849.328	15416
849.463	15500
849.598	15340
849.734	15363
849.869	15336
850.004	15214
850.14	15344
850.275	15317
850.41	15089
850.545	15173
850.68	15230
850.815	15142
850.95	15100
851.085	15329
851.22	15245
851.355	15241
851.49	15104
851.625	15195
851.76	15222
851.895	15085
852.03	14971
852.165	15222
852.299	15260
852.434	15241
852.569	15207
852.703	15218
852.838	15294
852.973	15291
853.107	15325
853.242	15157
853.376	15051
853.511	14975
853.645	15051
853.78	15226
853.914	15119
854.048	15039
854.183	15085
854.317	15097
854.451	15214
854.585	15077
854.72	15081
854.854	15256
854.988	15017
855.122	15062
855.256	14937
855.39	14967
855.524	15150
855.658	15047
855.792	15013
855.926	15180
856.06	15093
856.194	15165
856.327	15138
856.461	14925
856.595	15066
856.729	15081
856.862	15188
856.996	15036
857.13	15173
857.263	15009
857.397	15222
857.53	15077
857.664	15062
857.797	15100
857.931	15142
858.064	15176
858.197	15157
858.331	14998
858.464	14994
858.597	14941
858.731	15077
858.864	15116
858.997	14986
859.13	15104
859.263	15077
859.396	15188
859.529	15013
859.662	15001
859.795	15024
859.928	15028
860.061	15233
860.194	15325
860.327	15089
860.46	15009
860.592	15081
860.725	15180
860.858	15161
860.99	15020
861.123	15017
861.256	14998
861.388	15047
861.521	15618
861.653	14933
861.786	14849
861.918	14948
862.05	14952
862.183	14975
862.315	15039
862.447	15017
862.58	14933
862.712	14754
862.844	14720
862.976	14864
863.108	14811
863.24	15294
863.372	14800
863.504	14701
863.636	14800
863.768	14902
863.9	14864
864.032	14705
864.164	14743
864.296	14876
864.428	14941
864.559	14880
864.691	14899
864.823	14750
864.954	14815
865.086	14842
865.217	14815
865.349	14701
865.48	14823
865.612	14849
865.743	14910
865.875	14807
866.006	14750
866.137	14743
866.269	14788
866.4	14773
866.531	14746
866.662	14705
866.793	14758
866.924	14731
867.055	14815
867.186	14819
867.317	14716
867.448	14689
867.579	14720
867.71	14682
867.841	14686
867.972	14811
868.103	14796
868.233	14754
868.364	14815
868.495	14868
868.625	15009
868.756	15074
868.886	14845
869.017	14963
869.147	15104
869.278	15199
869.408	14998
869.539	15089
869.669	15233
869.799	14910
869.929	15165
870.06	15032
870.19	15344
870.32	15291
870.45	15344
870.58	15412
870.71	15500
870.84	15504
870.97	15382
871.1	15382
871.23	15599
871.36	15591
871.489	15580
871.619	15587
871.749	15629
871.879	15675
872.008	15732
872.138	15584
872.267	15629
872.397	15488
872.526	15496
872.656	15462
872.785	15367
872.915	15637
873.044	15751
873.173	15633
873.303	15728
873.432	15713
873.561	15717
873.69	15724
873.819	15755
873.948	15873
874.077	15778
874.206	15690
874.335	15743
874.464	15838
874.593	15842
874.722	16032
874.851	16002
874.979	16044
875.108	16116
875.237	16006
875.365	15968
875.494	15861
875.623	16021
875.751	16002
875.88	16147
876.008	16207
876.136	16154
876.265	16436
876.393	16584
876.521	16409
876.65	16531
876.778	16489
876.906	16386
877.034	16314
877.162	16398
877.29	16424
877.418	16405
877.546	16398
877.674	16440
877.802	16440
877.93	16432
878.058	16432
878.185	16276
878.313	16367
878.441	16390
878.568	16367
878.696	16390
878.824	16558
878.951	16603
879.079	16847
879.206	16987
879.333	16938
879.461	16733
879.588	16843
879.715	16968
879.842	17094
879.97	16721
880.097	16516
880.224	16497
880.351	16485
880.478	16375
880.605	16253
880.732	16367
880.859	16489
880.986	16413
881.112	16371
881.239	16242
881.366	16097
881.493	16112
881.619	15934
881.746	16051
881.872	16071
881.999	15899
882.125	15979
882.252	16032
882.378	15975
882.505	16109
882.631	15937
882.757	15831
882.883	15915
883.01	15846
883.136	15713
883.262	15663
883.388	15576
883.514	15869
883.64	15819
883.766	15804
883.892	15606
884.018	15682
884.143	15816
884.269	15827
884.395	15603
884.52	15481
884.646	15473
884.772	15466
884.897	15416
885.023	15458
885.148	15587
885.274	15705
885.399	15538
885.524	15576
885.65	15542
885.775	15614
885.9	15439
886.025	15603
886.15	15477
886.275	15485
886.4	15405
886.525	15336
886.65	15462
886.775	15439
886.9	15622
887.025	15641
887.149	15359
887.274	15359
887.399	15192
887.523	15176
887.648	15138
887.773	15116
887.897	15348
888.021	15306
888.146	15218
888.27	15252
888.395	15374
888.519	15332
888.643	15245
888.767	15287
888.891	15161
889.015	15077
889.139	15123
889.263	15055
889.387	15154
889.511	15355
889.635	15211
889.759	15135
889.883	15138
890.006	15165
890.13	15180
890.254	15097
890.377	15028
890.501	14925
890.624	14864
890.748	14929
890.871	14826
890.995	14697
891.118	14674
891.241	14727
891.364	14762
891.488	14899
891.611	14876
891.734	14796
891.857	14842
891.98	14765
892.103	14773
892.226	14739
892.349	14765
892.471	14636
892.594	14746
892.717	14712
892.839	14720
892.962	14762
893.085	14727
893.207	14750
893.33	14663
893.452	14750
893.575	14788
893.697	14788
893.819	14921
893.941	14963
894.064	14887
894.186	14720
894.308	14648
894.43	14845
894.552	14914
894.674	14880
894.796	14724
894.918	14769
895.04	14800
895.161	14849
895.283	14990
895.405	14842
895.526	14914
895.648	14887
895.769	14910
895.891	14952
896.012	14967
896.134	14956
896.255	14902
896.376	14918
896.498	14868
896.619	14956
896.74	14956
896.861	14944
896.982	15291
897.103	15469
897.224	15192
897.345	15142
897.466	14998
897.587	15226
897.708	15252
897.828	15264
897.949	15150
898.07	15127
898.19	15188
898.311	15275
898.431	15165
898.552	15211
898.672	15211
898.792	15336
898.913	15298
899.033	15272
899.153	15077
899.273	15009
899.393	15009
899.513	15233
899.633	15093
899.753	15077
899.873	15020
899.993	15093
900.113	15051
900.232	15066
900.352	15112
900.472	14986
900.591	14880
900.711	15009
900.83	14967
900.95	15017
901.069	15119
901.189	14910
901.308	14663
901.427	14602
901.546	14522
901.665	14594
901.784	14530
901.904	14533
902.023	14469
902.141	14168
902.26	14065
902.379	14298
902.498	14229
902.617	14180
902.735	14176
902.854	14202
902.973	14115
903.091	13963
903.21	13921
903.328	13856
903.446	13833
903.565	13753
903.683	13685
903.801	13628
903.919	13643
904.038	13594
904.156	13590
904.274	13628
904.392	13556
904.51	13533
904.627	13514
904.745	13613
904.863	13586
904.981	13343
905.098	13247
905.216	13232
905.334	13206
905.451	13179
905.569	13156
905.686	13274
905.803	13225
905.921	13023
906.038	13118
906.155	13072
906.272	13031
906.389	12985
906.506	12814
906.623	12806
906.74	12681
906.857	12635
906.974	12696
907.091	12867
907.208	12909
907.324	12791
907.441	12768
907.557	12612
907.674	12502
907.79	12521
907.907	12544
908.023	12544
908.139	12559
908.256	12456
908.372	12551
908.488	12429
908.604	12258
908.72	12243
908.836	12281
908.952	12350
909.068	12277
909.184	12407
909.3	12251
909.415	12365
909.531	12361
909.647	12144
909.762	12038
909.878	12026
909.993	12007
910.108	12034
910.224	11973
910.339	12049
910.454	11961
910.57	11927
910.685	11790
910.8	12041
910.915	12011
911.03	11969
911.145	11703
911.259	11779
911.374	11691
911.489	11710
911.604	11581
911.718	11528
911.833	11600
911.947	11368
912.062	11277
912.176	11512
912.291	11532
912.405	11436
912.519	11688
912.633	11809
912.748	11486
912.862	11478
912.976	11364
913.09	11261
913.204	11330
913.318	11410
913.431	11387
913.545	11448
913.659	11471
913.772	11398
913.886	11201
914	11242
914.113	11242
914.226	11379
914.34	11318
914.453	11128
914.566	11410
914.68	11170
914.793	11105
914.906	11029
915.019	10995
915.132	10866
915.245	10930
915.358	10946
915.47	10976
915.583	11048
915.696	11064
915.809	11060
915.921	11140
916.034	10965
916.146	10908
916.259	10881
916.371	10995
916.483	10923
916.595	10869
916.708	10866
916.82	10923
916.932	10938
917.044	10911
917.156	10839
917.268	10771
917.38	10786
917.491	10786
917.603	10790
917.715	10858
917.826	10900
917.938	10736
918.049	10687
918.161	10729
918.272	10908
918.384	10915
918.495	10752
918.606	10622
918.717	10561
918.828	10687
918.939	10675
919.05	10618
919.161	10592
919.272	10489
919.383	10535
919.494	10736
919.604	10892
919.715	10618
919.826	10618
919.936	10622
920.047	10702
920.157	10729
920.267	10839
920.378	10721
920.488	10702
920.598	10850
920.708	10946
920.818	10835
920.928	10877
921.038	10984
921.148	11045
921.258	10634
921.368	10508
921.477	10577
921.587	10500
921.697	10421
921.806	10478
921.916	10382
922.025	10280
922.134	10196
922.244	10181
922.353	10265
922.462	10139
922.571	10017
922.68	9903
922.789	9854
922.898	9949
923.007	9808
923.116	9907
923.224	9888
923.333	9873
923.442	9770
923.55	9781
923.659	9762
923.767	9865
923.876	9728
923.984	9785
924.092	9633
924.201	9694
924.309	9755
924.417	9713
924.525	9679
924.633	9717
924.741	10687
924.849	9584
924.956	9701
925.064	9500
925.172	9473
925.279	9557
925.387	9549
925.494	9481
925.602	9572
925.709	9511
925.816	9408
925.924	9485
926.031	9610
926.138	9450
926.245	9622
926.352	9370
926.459	9595
926.566	9572
926.673	9462
926.779	9351
926.886	9359
926.993	9138
927.099	9203
927.206	9218
927.312	9192
927.419	9291
927.525	9195
927.631	9336
927.737	9119
927.843	9104
927.95	8967
928.056	9089
928.162	9142
928.267	9222
928.373	9755
928.479	9154
928.585	8944
928.69	9081
928.796	9165
928.901	9074
929.007	8906
929.112	9036
929.218	8975
929.323	8902
929.428	8910
929.533	9024
929.638	8902
929.743	8975
929.848	8933
929.953	8853
930.058	8754
930.163	8674
930.267	8708
930.372	8845
930.477	8697
930.581	8899
930.685	8792
930.79	8621
930.894	8598
930.998	8541
931.103	8720
931.207	8423
931.311	8389
931.415	8282
931.519	8115
931.623	8126
