Data from test_V78500241_1220.txt Node
Date: Fri Mar 25 14:42:12 CST 2022
User: usil
Spectrometer: V785-0024
Trigger mode: 0
Integration Time (sec): 4.000000E-1
Scans to average: 1
Nonlinearity correction enabled: false
Boxcar width: 0
Storing dark spectrum: false
XAxis mode: Wavelengths
Number of Pixels in Spectrum: 1024
>>>>>Begin Spectral Data<<<<<
801.071	22455
801.214	22219
801.356	22025
801.499	22116
801.641	21732
801.783	21842
801.926	21781
802.068	21660
802.211	21553
802.353	21530
802.496	21367
802.638	21222
802.78	21119
802.923	21173
803.065	21028
803.208	20979
803.35	21157
803.492	21165
803.635	21203
803.777	21131
803.919	21275
804.061	21469
804.204	21096
804.346	21131
804.488	21108
804.63	20960
804.773	21043
804.915	21043
805.057	21138
805.199	21066
805.341	21062
805.483	21135
805.626	20986
805.768	20918
805.91	21051
806.052	21108
806.194	20960
806.336	21222
806.478	21036
806.62	21020
806.762	21074
806.904	21161
807.046	21447
807.188	21374
807.33	21355
807.472	21325
807.614	21344
807.756	21412
807.898	21055
808.04	21173
808.182	21192
808.324	21150
808.465	21173
808.607	21226
808.749	21511
808.891	21648
809.033	21656
809.174	21481
809.316	21439
809.458	21523
809.6	21477
809.741	21454
809.883	21454
810.025	21671
810.166	21637
810.308	21545
810.45	21553
810.591	21542
810.733	21363
810.875	21256
811.016	21279
811.158	21199
811.299	21214
811.441	21405
811.582	21252
811.724	21230
811.865	21146
812.007	21291
812.148	21306
812.29	21260
812.431	21405
812.573	21580
812.714	21553
812.855	21633
812.997	21797
813.138	21968
813.279	21743
813.421	21861
813.562	21603
813.703	21511
813.845	21378
813.986	21066
814.127	20910
814.268	20906
814.41	20785
814.551	20750
814.692	20857
814.833	20552
814.974	20571
815.115	20842
815.256	20609
815.397	20541
815.539	20545
815.68	20552
815.821	20503
815.962	20503
816.103	20469
816.244	20389
816.385	20187
816.526	20191
816.666	19993
816.807	19890
816.948	19997
817.089	20077
817.23	19925
817.371	19814
817.512	19921
817.653	19860
817.793	19887
817.934	19906
818.075	19955
818.216	19974
818.356	19769
818.497	19788
818.638	19594
818.778	19601
818.919	19616
819.06	19639
819.2	19826
819.341	19731
819.481	19662
819.622	19940
819.762	20065
819.903	20043
820.043	19921
820.184	19913
820.324	19852
820.465	19772
820.605	19871
820.746	19849
820.886	19696
821.026	19830
821.167	19913
821.307	19887
821.447	19917
821.588	19704
821.728	19529
821.868	19400
822.008	19316
822.149	19289
822.289	19350
822.429	19133
822.569	19008
822.709	18909
822.849	18802
822.99	18768
823.13	18764
823.27	18760
823.41	18547
823.55	18604
823.69	18540
823.83	18604
823.97	18517
824.11	18330
824.25	18350
824.389	18308
824.529	18460
824.669	18399
824.809	18498
824.949	18448
825.089	18475
825.228	18384
825.368	18254
825.508	18205
825.648	18205
825.787	18213
825.927	18205
826.067	18053
826.206	18133
826.346	18201
826.485	18167
826.625	18152
826.765	18380
826.904	18178
827.044	17878
827.183	17958
827.323	17813
827.462	17855
827.601	17863
827.741	17939
827.88	17901
828.02	17737
828.159	17923
828.298	17904
828.437	17878
828.577	17882
828.716	17999
828.855	17764
828.994	17707
829.134	17680
829.273	17695
829.412	17532
829.551	17600
829.69	17638
829.829	17661
829.968	17695
830.107	17703
830.246	17707
830.385	17528
830.524	17429
830.663	17360
830.802	17372
830.941	17197
831.08	17170
831.219	17299
831.357	17337
831.496	17406
831.635	17235
831.774	17223
831.913	17090
832.051	17052
832.19	17022
832.329	17128
832.467	17003
832.606	16812
832.744	16881
832.883	16873
833.022	16892
833.16	17041
833.299	17041
833.437	17033
833.576	17010
833.714	16953
833.852	16972
833.991	17121
834.129	17105
834.267	17018
834.406	16949
834.544	16968
834.682	17022
834.821	17018
834.959	17197
835.097	16927
835.235	17086
835.373	16938
835.511	16987
835.65	16869
835.788	16904
835.926	16835
836.064	16778
836.202	16771
836.34	16828
836.478	16965
836.615	16885
836.753	16942
836.891	17083
837.029	16965
837.167	16900
837.305	16953
837.443	16744
837.58	16748
837.718	16862
837.856	16839
837.993	16873
838.131	16736
838.269	16634
838.406	16740
838.544	16656
838.681	16558
838.819	16428
838.956	16344
839.094	16379
839.231	16432
839.369	16554
839.506	16729
839.643	16489
839.781	16295
839.918	16246
840.055	16341
840.193	16436
840.33	16196
840.467	16310
840.604	16280
840.742	16637
840.879	16253
841.016	16299
841.153	16295
841.29	16523
841.427	16299
841.564	16333
841.701	16379
841.838	16280
841.975	16192
842.112	16242
842.249	16158
842.385	16063
842.522	16337
842.659	16177
842.796	16071
842.933	16097
843.069	16067
843.206	16029
843.343	16086
843.479	15998
843.616	16162
843.752	15888
843.889	15888
844.025	16040
844.162	15808
844.298	15994
844.435	15888
844.571	15778
844.708	15876
844.844	16120
844.98	16078
845.117	15964
845.253	15918
845.389	15755
845.525	15842
845.661	15865
845.798	15781
845.934	15842
846.07	15732
846.206	15857
846.342	15911
846.478	15618
846.614	15538
846.75	15469
846.886	15374
847.022	15542
847.158	15454
847.294	15431
847.429	15481
847.565	15344
847.701	15701
847.837	15203
847.972	15214
848.108	15256
848.244	15264
848.379	15062
848.515	15043
848.65	14986
848.786	15036
848.921	15116
849.057	15165
849.192	15085
849.328	15097
849.463	15154
849.598	15108
849.734	15020
849.869	14823
850.004	14815
850.14	14830
850.275	14937
850.41	14716
850.545	14746
850.68	14800
850.815	14811
850.95	14834
851.085	14994
851.22	14971
851.355	14796
851.49	14811
851.625	14792
851.76	14773
851.895	14655
852.03	14621
852.165	14838
852.299	14800
852.434	14811
852.569	14929
852.703	14762
852.838	14914
852.973	15055
853.107	14967
853.242	14804
853.376	14682
853.511	14602
853.645	14674
853.78	14792
853.914	14731
854.048	14640
854.183	14712
854.317	14697
854.451	14914
854.585	14575
854.72	14606
854.854	14750
854.988	14644
855.122	14724
855.256	14556
855.39	14617
855.524	14792
855.658	14686
855.792	14705
855.926	14743
856.06	14807
856.194	14678
856.327	14743
856.461	14632
856.595	14689
856.729	14644
856.862	14731
856.996	14731
857.13	14739
857.263	14777
857.397	14689
857.53	14678
857.664	14807
857.797	14891
857.931	14872
858.064	14727
858.197	14929
858.331	14518
858.464	14590
858.597	14629
858.731	14705
858.864	14686
858.997	14606
859.13	14781
859.263	14686
859.396	14758
859.529	14644
859.662	14617
859.795	14670
859.928	14743
860.061	14853
860.194	14906
860.327	14682
860.46	14705
860.592	14857
860.725	14857
860.858	14819
860.99	14758
861.123	14651
861.256	14598
861.388	14731
861.521	15515
861.653	14632
861.786	14564
861.918	14613
862.05	14712
862.183	14678
862.315	14659
862.447	14731
862.58	14552
862.712	14450
862.844	14526
862.976	14625
863.108	14488
863.24	14887
863.372	14408
863.504	14438
863.636	14469
863.768	14564
863.9	14473
864.032	14465
864.164	14495
864.296	14610
864.428	14598
864.559	14568
864.691	14511
864.823	14556
864.954	14625
865.086	14503
865.217	14564
865.349	14488
865.48	14571
865.612	14442
865.743	14503
865.875	14518
866.006	14370
866.137	14495
866.269	14461
866.4	14492
866.531	14377
866.662	14404
866.793	14446
866.924	14469
867.055	14419
867.186	14499
867.317	14442
867.448	14358
867.579	14374
867.71	14393
867.841	14358
867.972	14461
868.103	14533
868.233	14511
868.364	14415
868.495	14598
868.625	14648
868.756	14716
868.886	14724
869.017	14651
869.147	14868
869.278	14872
869.408	14712
869.539	14663
869.669	14815
869.799	14773
869.929	14830
870.06	14872
870.19	15116
870.32	15085
870.45	15024
870.58	15165
870.71	15268
870.84	15252
870.97	15195
871.1	15081
871.23	15302
871.36	15329
871.489	15233
871.619	15264
871.749	15302
871.879	15233
872.008	15443
872.138	15348
872.267	15287
872.397	15214
872.526	15195
872.656	15066
872.785	15173
872.915	15279
873.044	15382
873.173	15321
873.303	15367
873.432	15386
873.561	15466
873.69	15348
873.819	15351
873.948	15545
874.077	15359
874.206	15287
874.335	15435
874.464	15496
874.593	15629
874.722	15576
874.851	15633
874.979	15705
875.108	15705
875.237	15644
875.365	15530
875.494	15690
875.623	15671
875.751	15671
875.88	15720
876.008	15869
876.136	15892
876.265	16017
876.393	16181
876.521	16192
876.65	16101
876.778	16059
876.906	16071
877.034	16021
877.162	15975
877.29	16010
877.418	16101
877.546	16097
877.674	16086
877.802	16116
877.93	16051
878.058	16067
878.185	15934
878.313	16032
878.441	16055
878.568	15918
878.696	15983
878.824	16025
878.951	16093
879.079	16344
879.206	16443
879.333	16207
879.461	16162
879.588	16291
879.715	16295
879.842	16333
879.97	16112
880.097	15979
880.224	15964
880.351	16036
880.478	16048
880.605	15850
880.732	15941
880.859	16204
880.986	16063
881.112	15945
881.239	15728
881.366	15736
881.493	15625
881.619	15595
881.746	15553
881.872	15622
881.999	15629
882.125	15549
882.252	15644
882.378	15675
882.505	15720
882.631	15477
882.757	15370
882.883	15382
883.01	15321
883.136	15450
883.262	15241
883.388	15382
883.514	15393
883.64	15538
883.766	15443
883.892	15203
884.018	15302
884.143	15378
884.269	15519
884.395	15180
884.52	15062
884.646	15074
884.772	15116
884.897	15013
885.023	15230
885.148	15287
885.274	15321
885.399	15264
885.524	15097
885.65	15135
885.775	15104
885.9	15131
886.025	15310
886.15	15188
886.275	15100
886.4	15017
886.525	15047
886.65	15058
886.775	15055
886.9	15222
887.025	15336
887.149	15043
887.274	14967
887.399	14918
887.523	14952
887.648	14872
887.773	14857
887.897	15058
888.021	15013
888.146	14895
888.27	15089
888.395	15028
888.519	15036
888.643	14971
888.767	14910
888.891	14861
889.015	14678
889.139	14792
889.263	14739
889.387	14944
889.511	15009
889.635	14967
889.759	14773
889.883	14727
890.006	14887
890.13	14868
890.254	14724
890.377	14708
890.501	14590
890.624	14575
890.748	14689
890.871	14526
890.995	14465
891.118	14343
891.241	14499
891.364	14495
891.488	14644
891.611	14457
891.734	14568
891.857	14492
891.98	14385
892.103	14492
892.226	14488
892.349	14427
892.471	14290
892.594	14480
892.717	14560
892.839	14427
892.962	14495
893.085	14473
893.207	14454
893.33	14347
893.452	14484
893.575	14594
893.697	14358
893.819	14621
893.941	14682
894.064	14602
894.186	14465
894.308	14438
894.43	14632
894.552	14632
894.674	14598
894.796	14427
894.918	14537
895.04	14556
895.161	14533
895.283	14594
895.405	14446
895.526	14575
895.648	14575
895.769	14651
895.891	14598
896.012	14724
896.134	14659
896.255	14507
896.376	14465
896.498	14720
896.619	14598
896.74	14617
896.861	14670
896.982	15043
897.103	15135
897.224	14925
897.345	14864
897.466	14815
897.587	14868
897.708	14872
897.828	14990
897.949	14807
898.07	14804
898.19	14883
898.311	15009
898.431	14944
898.552	14994
898.672	15020
898.792	15020
898.913	14952
899.033	14941
899.153	14876
899.273	14804
899.393	14815
899.513	14849
899.633	14792
899.753	14834
899.873	14731
899.993	14933
900.113	14830
900.232	14800
900.352	14765
900.472	14724
900.591	14533
900.711	14621
900.83	14727
900.95	14743
901.069	14746
901.189	14568
901.308	14461
901.427	14256
901.546	14278
901.665	14438
901.784	14385
901.904	14237
902.023	14168
902.141	13917
902.26	13917
902.379	13955
902.498	13928
902.617	13906
902.735	13917
902.854	13803
902.973	13833
903.091	13643
903.21	13639
903.328	13575
903.446	13567
903.565	13506
903.683	13529
903.801	13381
903.919	13373
904.038	13483
904.156	13331
904.274	13384
904.392	13247
904.51	13198
904.627	13278
904.745	13343
904.863	13354
904.981	13118
905.098	12947
905.216	12943
905.334	12966
905.451	12970
905.569	12909
905.686	12935
905.803	13103
905.921	12798
906.038	12886
906.155	12867
906.272	12642
906.389	12768
906.506	12494
906.623	12536
906.74	12616
906.857	12460
906.974	12388
907.091	12692
907.208	12654
907.324	12604
907.441	12490
907.557	12311
907.674	12323
907.79	12270
907.907	12304
908.023	12289
908.139	12330
908.256	12140
908.372	12224
908.488	12224
908.604	12125
908.72	12083
908.836	12049
908.952	11931
909.068	12125
909.184	12155
909.3	12060
909.415	12064
909.531	12057
909.647	11786
909.762	11843
909.878	11805
909.993	11863
910.108	11783
910.224	11863
910.339	11904
910.454	11642
910.57	11627
910.685	11600
910.8	11912
910.915	11832
911.03	11707
911.145	11600
911.259	11474
911.374	11486
911.489	11444
911.604	11501
911.718	11250
911.833	11334
911.947	11143
912.062	11048
912.176	11269
912.291	11292
912.405	11318
912.519	11478
912.633	11516
912.748	11334
912.862	11280
912.976	11212
913.09	11018
913.204	11075
913.318	11197
913.431	11223
913.545	11223
913.659	11242
913.772	11155
913.886	11018
914	11037
914.113	11048
914.226	11098
914.34	11140
914.453	10938
914.566	11083
914.68	10911
914.793	10999
914.906	10812
915.019	10748
915.132	10687
915.245	10767
915.358	10710
915.47	10892
915.583	10831
915.696	10767
915.809	10919
915.921	11022
916.034	10748
916.146	10679
916.259	10694
916.371	10854
916.483	10835
916.595	10660
916.708	10706
916.82	10649
916.932	10691
917.044	10649
917.156	10721
917.268	10645
917.38	10565
917.491	10588
917.603	10596
917.715	10706
917.826	10729
917.938	10527
918.049	10447
918.161	10489
918.272	10672
918.384	10736
918.495	10622
918.606	10436
918.717	10375
918.828	10443
918.939	10485
919.05	10382
919.161	10432
919.272	10249
919.383	10276
919.494	10577
919.604	10626
919.715	10466
919.826	10379
919.936	10428
920.047	10516
920.157	10580
920.267	10634
920.378	10523
920.488	10447
920.598	10710
920.708	10812
920.818	10691
920.928	10649
921.038	10866
921.148	10828
921.258	10497
921.368	10318
921.477	10375
921.587	10352
921.697	10299
921.806	10314
921.916	10082
922.025	10025
922.134	10017
922.244	9960
922.353	10109
922.462	9876
922.571	9823
922.68	9671
922.789	9686
922.898	9671
923.007	9698
923.116	9720
923.224	9713
923.333	9663
923.442	9644
923.55	9572
923.659	9553
923.767	9603
923.876	9511
923.984	9641
924.092	9416
924.201	9557
924.309	9500
924.417	9576
924.525	9534
924.633	9595
924.741	10284
924.849	9348
924.956	9530
925.064	9374
925.172	9249
925.279	9340
925.387	9462
925.494	9382
925.602	9515
925.709	9454
925.816	9336
925.924	9329
926.031	9405
926.138	9367
926.245	9450
926.352	9287
926.459	9374
926.566	9458
926.673	9351
926.779	9237
926.886	9214
926.993	9097
927.099	9036
927.206	9001
927.312	8971
927.419	9173
927.525	9093
927.631	9089
927.737	8982
927.843	8933
927.95	8849
928.056	8941
928.162	8982
928.267	8994
928.373	9690
928.479	9051
928.585	8834
928.69	8967
928.796	8975
928.901	8902
929.007	8743
929.112	8929
929.218	8842
929.323	8834
929.428	8781
929.533	8899
929.638	8720
929.743	8754
929.848	8891
929.953	8804
930.058	8716
930.163	8575
930.267	8583
930.372	8743
930.477	8518
930.581	8720
930.685	8758
930.79	8533
930.894	8503
930.998	8541
931.103	8594
931.207	8263
931.311	8218
931.415	8206
931.519	8008
931.623	7989
