Data from test_V78500241_2029.txt Node
Date: Fri Mar 25 14:47:50 CST 2022
User: usil
Spectrometer: V785-0024
Trigger mode: 0
Integration Time (sec): 4.000000E-1
Scans to average: 1
Nonlinearity correction enabled: false
Boxcar width: 0
Storing dark spectrum: false
XAxis mode: Wavelengths
Number of Pixels in Spectrum: 1024
>>>>>Begin Spectral Data<<<<<
801.071	22059
801.214	22036
801.356	21698
801.499	21660
801.641	21576
801.783	21462
801.926	21412
802.068	21405
802.211	21439
802.353	21348
802.496	21020
802.638	21001
802.78	20990
802.923	20906
803.065	20754
803.208	20773
803.35	20853
803.492	20899
803.635	20941
803.777	20739
803.919	20925
804.061	21207
804.204	20902
804.346	20876
804.488	20750
804.63	20800
804.773	20636
804.915	20693
805.057	20845
805.199	20788
805.341	20804
805.483	20895
805.626	20883
805.768	20720
805.91	20819
806.052	20720
806.194	20712
806.336	20921
806.478	20632
806.62	20716
806.762	20785
806.904	20914
807.046	21142
807.188	21074
807.33	21070
807.472	21116
807.614	20933
807.756	20941
807.898	20933
808.04	20765
808.182	20769
808.324	20887
808.465	21001
808.607	21009
808.749	21089
808.891	21188
809.033	21268
809.174	21294
809.316	21013
809.458	21119
809.6	21138
809.741	21142
809.883	21142
810.025	21428
810.166	21233
810.308	21260
810.45	21169
810.591	21161
810.733	20914
810.875	20857
811.016	20830
811.158	20701
811.299	20891
811.441	20914
811.582	20990
811.724	20899
811.865	20891
812.007	20948
812.148	20876
812.29	20876
812.431	21001
812.573	21199
812.714	21241
812.855	21344
812.997	21504
813.138	21606
813.279	21587
813.421	21515
813.562	21317
813.703	21135
813.845	20914
813.986	20781
814.127	20549
814.268	20552
814.41	20511
814.551	20450
814.692	20522
814.833	20427
814.974	20454
815.115	20511
815.256	20267
815.397	20286
815.539	20271
815.68	20161
815.821	20259
815.962	20157
816.103	20161
816.244	19986
816.385	19967
816.526	19879
816.666	19784
816.807	19662
816.948	19750
817.089	19788
817.23	19658
817.371	19502
817.512	19571
817.653	19533
817.793	19578
817.934	19537
818.075	19727
818.216	19647
818.356	19571
818.497	19331
818.638	19285
818.778	19183
818.919	19316
819.06	19301
819.2	19297
819.341	19411
819.481	19460
819.622	19597
819.762	19750
819.903	19727
820.043	19624
820.184	19556
820.324	19495
820.465	19704
820.605	19518
820.746	19540
820.886	19415
821.026	19514
821.167	19514
821.307	19567
821.447	19483
821.588	19434
821.728	19282
821.868	19061
822.008	19000
822.149	19057
822.289	18981
822.429	18665
822.569	18669
822.709	18692
822.849	18445
822.99	18464
823.13	18414
823.27	18395
823.41	18304
823.55	18277
823.69	18357
823.83	18133
823.97	18190
824.11	18003
824.25	18057
824.389	18057
824.529	18045
824.669	18049
824.809	18102
824.949	18133
825.089	18072
825.228	18087
825.368	17935
825.508	17779
825.648	17813
825.787	17832
825.927	17897
826.067	17764
826.206	17870
826.346	17840
826.485	17863
826.625	17756
826.765	17927
826.904	17783
827.044	17703
827.183	17623
827.323	17520
827.462	17524
827.601	17516
827.741	17463
827.88	17630
828.02	17417
828.159	17429
828.298	17562
828.437	17638
828.577	17520
828.716	17619
828.855	17459
828.994	17288
829.134	17356
829.273	17235
829.412	17326
829.551	17178
829.69	17204
829.829	17356
829.968	17429
830.107	17341
830.246	17235
830.385	17181
830.524	17124
830.663	17071
830.802	16908
830.941	16904
831.08	16858
831.219	16984
831.357	16934
831.496	17128
831.635	16824
831.774	16824
831.913	16767
832.051	16634
832.19	16637
832.329	16717
832.467	16630
832.606	16649
832.744	16615
832.883	16470
833.022	16466
833.16	16691
833.299	16668
833.437	16702
833.576	16641
833.714	16588
833.852	16653
833.991	16603
834.129	16748
834.267	16672
834.406	16698
834.544	16527
834.682	16679
834.821	16656
834.959	16896
835.097	16584
835.235	16656
835.373	16752
835.511	16698
835.65	16523
835.788	16672
835.926	16325
836.064	16314
836.202	16436
836.34	16577
836.478	16710
836.615	16580
836.753	16554
836.891	16611
837.029	16554
837.167	16561
837.305	16436
837.443	16382
837.58	16440
837.718	16447
837.856	16447
837.993	16329
838.131	16428
838.269	16295
838.406	16352
838.544	16333
838.681	16074
838.819	16105
838.956	15930
839.094	16029
839.231	15994
839.369	16116
839.506	16322
839.643	16207
839.781	15960
839.918	15785
840.055	15972
840.193	16002
840.33	15964
840.467	15949
840.604	16013
840.742	16181
840.879	15789
841.016	15895
841.153	15854
841.29	15991
841.427	16051
841.564	15934
841.701	16036
841.838	15956
841.975	15827
842.112	15911
842.249	15827
842.385	15701
842.522	15956
842.659	15789
842.796	15743
842.933	15812
843.069	15679
843.206	15698
843.343	15823
843.479	15679
843.616	15736
843.752	15564
843.889	15515
844.025	15656
844.162	15507
844.298	15648
844.435	15500
844.571	15542
844.708	15618
844.844	15656
844.98	15675
845.117	15587
845.253	15443
845.389	15389
845.525	15526
845.661	15450
845.798	15332
845.934	15340
846.07	15291
846.206	15367
846.342	15458
846.478	15233
846.614	15218
846.75	14960
846.886	15001
847.022	15203
847.158	15176
847.294	15108
847.429	15119
847.565	15032
847.701	15298
847.837	14861
847.972	14872
848.108	14910
848.244	14967
848.379	14686
848.515	14674
848.65	14655
848.786	14667
848.921	14705
849.057	14788
849.192	14815
849.328	14731
849.463	14785
849.598	14613
849.734	14590
849.869	14575
850.004	14431
850.14	14473
850.275	14454
850.41	14450
850.545	14450
850.68	14431
850.815	14366
850.95	14377
851.085	14621
851.22	14579
851.355	14454
851.49	14370
851.625	14480
851.76	14434
851.895	14320
852.03	14385
852.165	14389
852.299	14575
852.434	14537
852.569	14317
852.703	14465
852.838	14552
852.973	14552
853.107	14560
853.242	14385
853.376	14336
853.511	14176
853.645	14313
853.78	14476
853.914	14256
854.048	14313
854.183	14336
854.317	14263
854.451	14549
854.585	14328
854.72	14294
854.854	14351
854.988	14355
855.122	14301
855.256	14191
855.39	14317
855.524	14446
855.658	14419
855.792	14374
855.926	14351
856.06	14431
856.194	14446
856.327	14286
856.461	14282
856.595	14313
856.729	14374
856.862	14396
856.996	14324
857.13	14511
857.263	14396
857.397	14438
857.53	14263
857.664	14377
857.797	14377
857.931	14427
858.064	14415
858.197	14454
858.331	14313
858.464	14267
858.597	14389
858.731	14317
858.864	14400
858.997	14267
859.13	14290
859.263	14336
859.396	14351
859.529	14374
859.662	14263
859.795	14309
859.928	14324
860.061	14503
860.194	14522
860.327	14396
860.46	14294
860.592	14419
860.725	14518
860.858	14400
860.99	14423
861.123	14199
861.256	14370
861.388	14332
861.521	14960
861.653	14256
861.786	14180
861.918	14202
862.05	14256
862.183	14275
862.315	14385
862.447	14393
862.58	14248
862.712	14088
862.844	14077
862.976	14206
863.108	14157
863.24	14488
863.372	14096
863.504	14142
863.636	14081
863.768	14164
863.9	14058
864.032	13986
864.164	14058
864.296	14126
864.428	14218
864.559	14134
864.691	14271
864.823	14142
864.954	14134
865.086	14168
865.217	14130
865.349	13986
865.48	13982
865.612	14130
865.743	14229
865.875	14111
866.006	14065
866.137	14020
866.269	14092
866.4	14115
866.531	14043
866.662	13997
866.793	14161
866.924	13997
867.055	14001
867.186	14123
867.317	14065
867.448	13917
867.579	14005
867.71	14027
867.841	13963
867.972	14130
868.103	14043
868.233	14069
868.364	14062
868.495	14199
868.625	14290
868.756	14408
868.886	14240
869.017	14339
869.147	14465
869.278	14507
869.408	14339
869.539	14385
869.669	14415
869.799	14347
869.929	14415
870.06	14431
870.19	14640
870.32	14629
870.45	14602
870.58	14746
870.71	14826
870.84	14804
870.97	14667
871.1	14670
871.23	14944
871.36	14914
871.489	14838
871.619	14914
871.749	14971
871.879	14998
872.008	15043
872.138	14941
872.267	14895
872.397	14842
872.526	14781
872.656	14819
872.785	14727
872.915	14986
873.044	14982
873.173	14937
873.303	14990
873.432	14994
873.561	15131
873.69	14998
873.819	14952
873.948	14967
874.077	15032
874.206	14876
874.335	15047
874.464	15142
874.593	15237
874.722	15252
874.851	15386
874.979	15329
875.108	15283
875.237	15260
875.365	15203
875.494	15279
875.623	15386
875.751	15275
875.88	15291
876.008	15458
876.136	15530
876.265	15705
876.393	15816
876.521	15720
876.65	15823
876.778	15759
876.906	15644
877.034	15637
877.162	15610
877.29	15629
877.418	15606
877.546	15705
877.674	15675
877.802	15690
877.93	15751
878.058	15660
878.185	15534
878.313	15720
878.441	15675
878.568	15507
878.696	15751
878.824	15625
878.951	15789
879.079	15922
879.206	16032
879.333	15816
879.461	15804
879.588	15797
879.715	15987
879.842	16040
879.97	15759
880.097	15507
880.224	15629
880.351	15648
880.478	15553
880.605	15488
880.732	15587
880.859	15850
880.986	15660
881.112	15610
881.239	15466
881.366	15370
881.493	15279
881.619	15180
881.746	15214
881.872	15180
881.999	15154
882.125	15142
882.252	15310
882.378	15154
882.505	15264
882.631	15135
882.757	15127
882.883	15108
883.01	15036
883.136	15047
883.262	14895
883.388	14842
883.514	15039
883.64	15013
883.766	14963
883.892	14883
884.018	14861
884.143	15032
884.269	15085
884.395	14781
884.52	14724
884.646	14796
884.772	14686
884.897	14663
885.023	14769
885.148	14800
885.274	14826
885.399	14815
885.524	14727
885.65	14765
885.775	14815
885.9	14804
886.025	14819
886.15	14788
886.275	14731
886.4	14659
886.525	14621
886.65	14568
886.775	14640
886.9	14796
887.025	14994
887.149	14731
887.274	14670
887.399	14533
887.523	14503
887.648	14503
887.773	14442
887.897	14606
888.021	14598
888.146	14549
888.27	14579
888.395	14758
888.519	14613
888.643	14640
888.767	14678
888.891	14610
889.015	14412
889.139	14530
889.263	14450
889.387	14571
889.511	14621
889.635	14594
889.759	14347
889.883	14351
890.006	14552
890.13	14480
890.254	14389
890.377	14309
890.501	14244
890.624	14252
890.748	14282
890.871	14206
890.995	14107
891.118	14084
891.241	14149
891.364	14183
891.488	14294
891.611	14115
891.734	14244
891.857	14134
891.98	14214
892.103	14115
892.226	14240
892.349	14138
892.471	14012
892.594	14092
892.717	14092
892.839	14084
892.962	14172
893.085	14142
893.207	14149
893.33	14062
893.452	14054
893.575	14199
893.697	14142
893.819	14206
893.941	14339
894.064	14233
894.186	14077
894.308	14130
894.43	14218
894.552	14389
894.674	14256
894.796	14027
894.918	14199
895.04	14103
895.161	14294
895.283	14240
895.405	14145
895.526	14149
895.648	14259
895.769	14199
895.891	14183
896.012	14396
896.134	14290
896.255	14286
896.376	14309
896.498	14244
896.619	14313
896.74	14240
896.861	14400
896.982	14674
897.103	14769
897.224	14705
897.345	14549
897.466	14526
897.587	14629
897.708	14674
897.828	14621
897.949	14545
898.07	14457
898.19	14556
898.311	14663
898.431	14598
898.552	14655
898.672	14689
898.792	14697
898.913	14796
899.033	14636
899.153	14499
899.273	14400
899.393	14412
899.513	14598
899.633	14412
899.753	14526
899.873	14434
899.993	14598
900.113	14492
900.232	14511
900.352	14492
900.472	14427
900.591	14393
900.711	14343
900.83	14415
900.95	14400
901.069	14530
901.189	14339
901.308	14088
901.427	14020
901.546	13986
901.665	14130
901.784	14142
901.904	13947
902.023	13814
902.141	13712
902.26	13677
902.379	13719
902.498	13609
902.617	13563
902.735	13647
902.854	13571
902.973	13472
903.091	13331
903.21	13327
903.328	13285
903.446	13179
903.565	13160
903.683	13175
903.801	13095
903.919	13080
904.038	13076
904.156	13000
904.274	13012
904.392	12894
904.51	13031
904.627	12973
904.745	13034
904.863	13099
904.981	12783
905.098	12654
905.216	12734
905.334	12692
905.451	12719
905.569	12639
905.686	12760
905.803	12707
905.921	12536
906.038	12639
906.155	12532
906.272	12414
906.389	12403
906.506	12346
906.623	12251
906.74	12281
906.857	12220
906.974	12228
907.091	12262
907.208	12361
907.324	12369
907.441	12239
907.557	12041
907.674	12007
907.79	11923
907.907	12026
908.023	12045
908.139	12011
908.256	12030
908.372	11973
908.488	11878
908.604	11748
908.72	11726
908.836	11771
908.952	11760
909.068	11790
909.184	11885
909.3	11722
909.415	11859
909.531	11836
909.647	11592
909.762	11478
909.878	11505
909.993	11592
910.108	11604
910.224	11623
910.339	11524
910.454	11455
910.57	11414
910.685	11311
910.8	11630
910.915	11604
911.03	11421
911.145	11341
911.259	11254
911.374	11174
911.489	11201
911.604	11178
911.718	11014
911.833	11064
911.947	10809
912.062	10828
912.176	10984
912.291	10984
912.405	10980
912.519	11261
912.633	11174
912.748	11052
912.862	11067
912.976	10847
913.09	10793
913.204	10869
913.318	10858
913.431	10957
913.545	10968
913.659	11018
913.772	10923
913.886	10763
914	10748
914.113	10854
914.226	10987
914.34	10812
914.453	10656
914.566	10877
914.68	10721
914.793	10744
914.906	10474
915.019	10489
915.132	10394
915.245	10535
915.358	10538
915.47	10478
915.583	10455
915.696	10565
915.809	10664
915.921	10607
916.034	10421
916.146	10550
916.259	10462
916.371	10580
916.483	10508
916.595	10382
916.708	10440
916.82	10470
916.932	10451
917.044	10432
917.156	10371
917.268	10363
917.38	10318
917.491	10333
917.603	10348
917.715	10432
917.826	10432
917.938	10375
918.049	10246
918.161	10329
918.272	10527
918.384	10440
918.495	10360
918.606	10234
918.717	10124
918.828	10295
918.939	10230
919.05	10207
919.161	10219
919.272	10051
919.383	10154
919.494	10253
919.604	10474
919.715	10284
919.826	10181
919.936	10272
920.047	10325
920.157	10200
920.267	10417
920.378	10303
920.488	10204
920.598	10402
920.708	10675
920.818	10485
920.928	10325
921.038	10550
921.148	10580
921.258	10257
921.368	10207
921.477	10090
921.587	10059
921.697	9918
921.806	10101
921.916	9998
922.025	9838
922.134	9778
922.244	9701
922.353	9835
922.462	9717
922.571	9614
922.68	9523
922.789	9428
922.898	9496
923.007	9386
923.116	9504
923.224	9496
923.333	9466
923.442	9454
923.55	9287
923.659	9389
923.767	9439
923.876	9348
923.984	9447
924.092	9268
924.201	9378
924.309	9332
924.417	9348
924.525	9302
924.633	9344
924.741	10246
924.849	9112
924.956	9245
925.064	9081
925.172	9028
925.279	9085
925.387	9176
925.494	9169
925.602	9256
925.709	9253
925.816	9058
925.924	9123
926.031	9199
926.138	9127
926.245	9218
926.352	9036
926.459	9249
926.566	9218
926.673	9104
926.779	9009
926.886	9028
926.993	8902
927.099	8823
927.206	8864
927.312	8727
927.419	8864
927.525	8826
927.631	8876
927.737	8830
927.843	8712
927.95	8606
928.056	8750
928.162	8769
928.267	8766
928.373	9374
928.479	8845
928.585	8682
928.69	8727
928.796	8868
928.901	8648
929.007	8511
929.112	8739
929.218	8670
929.323	8545
929.428	8556
929.533	8705
929.638	8511
929.743	8522
929.848	8556
929.953	8590
930.058	8450
930.163	8328
930.267	8305
930.372	8537
930.477	8381
930.581	8579
930.685	8343
930.79	8267
930.894	8305
930.998	8328
931.103	8427
931.207	8058
931.311	7993
931.415	7955
931.519	7772
931.623	7864
