Data from test_V78500241_1767.txt Node
Date: Fri Mar 25 14:46:01 CST 2022
User: usil
Spectrometer: V785-0024
Trigger mode: 0
Integration Time (sec): 4.000000E-1
Scans to average: 1
Nonlinearity correction enabled: false
Boxcar width: 0
Storing dark spectrum: false
XAxis mode: Wavelengths
Number of Pixels in Spectrum: 1024
>>>>>Begin Spectral Data<<<<<
801.071	22219
801.214	22078
801.356	21930
801.499	21781
801.641	21576
801.783	21496
801.926	21644
802.068	21504
802.211	21428
802.353	21492
802.496	21112
802.638	21100
802.78	20975
802.923	21020
803.065	20804
803.208	20785
803.35	20823
803.492	21028
803.635	21020
803.777	20933
803.919	21001
804.061	21207
804.204	21013
804.346	20842
804.488	20743
804.63	20876
804.773	20659
804.915	20925
805.057	20933
805.199	20754
805.341	20819
805.483	21028
805.626	20838
805.768	20758
805.91	20796
806.052	20807
806.194	20743
806.336	20853
806.478	20773
806.62	20754
806.762	20853
806.904	20914
807.046	21188
807.188	21173
807.33	21207
807.472	21192
807.614	21001
807.756	21093
807.898	20948
808.04	20872
808.182	20830
808.324	20918
808.465	20952
808.607	21096
808.749	21157
808.891	21325
809.033	21405
809.174	21283
809.316	21252
809.458	21161
809.6	21055
809.741	21203
809.883	21173
810.025	21355
810.166	21294
810.308	21401
810.45	21317
810.591	21222
810.733	21074
810.875	20967
811.016	20872
811.158	20876
811.299	21001
811.441	21180
811.582	21043
811.724	21024
811.865	20891
812.007	20895
812.148	20910
812.29	21028
812.431	21055
812.573	21252
812.714	21378
812.855	21462
812.997	21526
813.138	21660
813.279	21580
813.421	21374
813.562	21325
813.703	21142
813.845	21154
813.986	20895
814.127	20636
814.268	20530
814.41	20579
814.551	20499
814.692	20541
814.833	20480
814.974	20541
815.115	20499
815.256	20343
815.397	20233
815.539	20412
815.68	20275
815.821	20164
815.962	20237
816.103	20324
816.244	20062
816.385	19898
816.526	19951
816.666	19845
816.807	19693
816.948	19837
817.089	19814
817.23	19674
817.371	19734
817.512	19639
817.653	19552
817.793	19613
817.934	19696
818.075	19700
818.216	19696
818.356	19597
818.497	19559
818.638	19373
818.778	19259
818.919	19324
819.06	19308
819.2	19495
819.341	19483
819.481	19578
819.622	19628
819.762	19780
819.903	19795
820.043	19662
820.184	19597
820.324	19738
820.465	19693
820.605	19731
820.746	19582
820.886	19537
821.026	19708
821.167	19666
821.307	19563
821.447	19628
821.588	19491
821.728	19316
821.868	19354
822.008	19038
822.149	19118
822.289	18966
822.429	18890
822.569	18604
822.709	18738
822.849	18498
822.99	18642
823.13	18597
823.27	18445
823.41	18426
823.55	18369
823.69	18376
823.83	18350
823.97	18239
824.11	18125
824.25	18114
824.389	18159
824.529	18243
824.669	18098
824.809	18232
824.949	18277
825.089	18205
825.228	18243
825.368	17927
825.508	17889
825.648	18007
825.787	18022
825.927	17969
826.067	17920
826.206	17870
826.346	17980
826.485	17980
826.625	17828
826.765	18091
826.904	17958
827.044	17676
827.183	17646
827.323	17528
827.462	17687
827.601	17528
827.741	17566
827.88	17627
828.02	17490
828.159	17543
828.298	17642
828.437	17676
828.577	17611
828.716	17699
828.855	17604
828.994	17455
829.134	17440
829.273	17299
829.412	17311
829.551	17277
829.69	17311
829.829	17383
829.968	17478
830.107	17448
830.246	17326
830.385	17315
830.524	17147
830.663	17136
830.802	17216
830.941	17067
831.08	16927
831.219	17041
831.357	16976
831.496	17121
831.635	16961
831.774	16892
831.913	16877
832.051	16820
832.19	16771
832.329	16793
832.467	16668
832.606	16615
832.744	16664
832.883	16698
833.022	16618
833.16	16641
833.299	16649
833.437	16710
833.576	16679
833.714	16733
833.852	16733
833.991	16733
834.129	16854
834.267	16721
834.406	16698
834.544	16706
834.682	16824
834.821	16733
834.959	16869
835.097	16710
835.235	16748
835.373	16702
835.511	16729
835.65	16664
835.788	16679
835.926	16497
836.064	16344
836.202	16466
836.34	16679
836.478	16850
836.615	16599
836.753	16637
836.891	16740
837.029	16702
837.167	16531
837.305	16519
837.443	16497
837.58	16489
837.718	16588
837.856	16443
837.993	16402
838.131	16455
838.269	16455
838.406	16363
838.544	16348
838.681	16192
838.819	16181
838.956	16010
839.094	16032
839.231	16124
839.369	16192
839.506	16485
839.643	16318
839.781	16147
839.918	16063
840.055	16059
840.193	16112
840.33	15975
840.467	15975
840.604	16025
840.742	16337
840.879	15857
841.016	15949
841.153	16025
841.29	16150
841.427	16032
841.564	16116
841.701	15983
841.838	16063
841.975	15941
842.112	15972
842.249	15800
842.385	15747
842.522	15998
842.659	15892
842.796	15907
842.933	15888
843.069	15690
843.206	15812
843.343	15869
843.479	15895
843.616	15751
843.752	15595
843.889	15572
844.025	15743
844.162	15568
844.298	15774
844.435	15629
844.571	15523
844.708	15781
844.844	15747
844.98	15827
845.117	15568
845.253	15534
845.389	15500
845.525	15530
845.661	15450
845.798	15382
845.934	15408
846.07	15443
846.206	15408
846.342	15473
846.478	15332
846.614	15180
846.75	15184
846.886	15161
847.022	15226
847.158	15218
847.294	15237
847.429	15260
847.565	15173
847.701	15447
847.837	14906
847.972	14918
848.108	15039
848.244	15017
848.379	14785
848.515	14785
848.65	14663
848.786	14765
848.921	14796
849.057	14880
849.192	14880
849.328	14819
849.463	14670
849.598	14705
849.734	14727
849.869	14686
850.004	14545
850.14	14568
850.275	14583
850.41	14564
850.545	14480
850.68	14480
850.815	14610
850.95	14560
851.085	14659
851.22	14655
851.355	14598
851.49	14507
851.625	14488
851.76	14514
851.895	14473
852.03	14377
852.165	14503
852.299	14594
852.434	14617
852.569	14583
852.703	14533
852.838	14636
852.973	14629
853.107	14575
853.242	14560
853.376	14351
853.511	14240
853.645	14393
853.78	14522
853.914	14427
854.048	14320
854.183	14427
854.317	14385
854.451	14659
854.585	14461
854.72	14427
854.854	14454
854.988	14366
855.122	14385
855.256	14282
855.39	14434
855.524	14434
855.658	14503
855.792	14427
855.926	14469
856.06	14495
856.194	14434
856.327	14434
856.461	14355
856.595	14400
856.729	14313
856.862	14488
856.996	14404
857.13	14499
857.263	14560
857.397	14556
857.53	14438
857.664	14518
857.797	14488
857.931	14526
858.064	14385
858.197	14564
858.331	14419
858.464	14396
858.597	14317
858.731	14423
858.864	14332
858.997	14347
859.13	14377
859.263	14400
859.396	14549
859.529	14431
859.662	14412
859.795	14370
859.928	14499
860.061	14575
860.194	14568
860.327	14377
860.46	14461
860.592	14454
860.725	14560
860.858	14552
860.99	14358
861.123	14225
861.256	14362
861.388	14499
861.521	15104
861.653	14290
861.786	14320
861.918	14218
862.05	14267
862.183	14393
862.315	14427
862.447	14499
862.58	14366
862.712	14195
862.844	14149
862.976	14271
863.108	14248
863.24	14488
863.372	14161
863.504	14084
863.636	14240
863.768	14256
863.9	14214
864.032	14100
864.164	14107
864.296	14256
864.428	14328
864.559	14259
864.691	14244
864.823	14267
864.954	14286
865.086	14263
865.217	14195
865.349	14073
865.48	14149
865.612	14214
865.743	14336
865.875	14084
866.006	14164
866.137	14206
866.269	14103
866.4	14210
866.531	14149
866.662	14092
866.793	14084
866.924	14012
867.055	14168
867.186	14199
867.317	14164
867.448	14001
867.579	14142
867.71	14062
867.841	14084
867.972	14195
868.103	14111
868.233	14142
868.364	14107
868.495	14263
868.625	14450
868.756	14438
868.886	14313
869.017	14442
869.147	14473
869.278	14473
869.408	14419
869.539	14431
869.669	14469
869.799	14457
869.929	14530
870.06	14495
870.19	14686
870.32	14727
870.45	14834
870.58	14830
870.71	14944
870.84	14925
870.97	14861
871.1	14758
871.23	14963
871.36	14990
871.489	14883
871.619	14933
871.749	14937
871.879	15081
872.008	15058
872.138	14998
872.267	15020
872.397	14952
872.526	14853
872.656	14819
872.785	14838
872.915	14998
873.044	15028
873.173	15062
873.303	15116
873.432	15146
873.561	15173
873.69	15112
873.819	15062
873.948	15104
874.077	15135
874.206	15051
874.335	15066
874.464	15218
874.593	15408
874.722	15317
874.851	15397
874.979	15408
875.108	15363
875.237	15279
875.365	15348
875.494	15344
875.623	15477
875.751	15443
875.88	15416
876.008	15466
876.136	15488
876.265	15804
876.393	16055
876.521	15835
876.65	15831
876.778	15816
876.906	15743
877.034	15778
877.162	15755
877.29	15705
877.418	15838
877.546	15766
877.674	15755
877.802	15827
877.93	15675
878.058	15698
878.185	15641
878.313	15747
878.441	15827
878.568	15534
878.696	15701
878.824	15736
878.951	15888
879.079	15884
879.206	16029
879.333	15930
879.461	15831
879.588	15930
879.715	16040
879.842	15979
879.97	15793
880.097	15770
880.224	15690
880.351	15629
880.478	15736
880.605	15671
880.732	15587
880.859	15903
880.986	15625
881.112	15660
881.239	15549
881.366	15507
881.493	15256
881.619	15249
881.746	15298
881.872	15249
881.999	15176
882.125	15188
882.252	15420
882.378	15218
882.505	15466
882.631	15252
882.757	15161
882.883	15127
883.01	15241
883.136	15055
883.262	14998
883.388	15001
883.514	15142
883.64	15154
883.766	15146
883.892	14872
884.018	15024
884.143	15131
884.269	15233
884.395	14785
884.52	14720
884.646	14781
884.772	14686
884.897	14758
885.023	14739
885.148	14918
885.274	14899
885.399	14910
885.524	14838
885.65	14800
885.775	14823
885.9	14807
886.025	14986
886.15	14902
886.275	14826
886.4	14629
886.525	14727
886.65	14834
886.775	14727
886.9	14929
887.025	15028
887.149	14807
887.274	14663
887.399	14571
887.523	14590
887.648	14526
887.773	14518
887.897	14693
888.021	14735
888.146	14640
888.27	14731
888.395	14701
888.519	14651
888.643	14727
888.767	14796
888.891	14564
889.015	14495
889.139	14537
889.263	14568
889.387	14617
889.511	14708
889.635	14571
889.759	14362
889.883	14465
890.006	14556
890.13	14621
890.254	14438
890.377	14389
890.501	14351
890.624	14271
890.748	14374
890.871	14225
890.995	14100
891.118	14046
891.241	14168
891.364	14187
891.488	14309
891.611	14157
891.734	14123
891.857	14278
891.98	14233
892.103	14130
892.226	14164
892.349	14130
892.471	14031
892.594	14153
892.717	14237
892.839	14096
892.962	14187
893.085	14195
893.207	14172
893.33	14024
893.452	14096
893.575	14282
893.697	14199
893.819	14347
893.941	14381
894.064	14301
894.186	14031
894.308	14187
894.43	14271
894.552	14374
894.674	14317
894.796	14084
894.918	14225
895.04	14301
895.161	14225
895.283	14309
895.405	14218
895.526	14275
895.648	14278
895.769	14244
895.891	14431
896.012	14278
896.134	14324
896.255	14480
896.376	14400
896.498	14381
896.619	14427
896.74	14332
896.861	14427
896.982	14712
897.103	14819
897.224	14689
897.345	14583
897.466	14564
897.587	14579
897.708	14705
897.828	14739
897.949	14469
898.07	14583
898.19	14686
898.311	14823
898.431	14674
898.552	14724
898.672	14731
898.792	14823
898.913	14788
899.033	14697
899.153	14705
899.273	14415
899.393	14499
899.513	14522
899.633	14579
899.753	14537
899.873	14549
899.993	14602
900.113	14511
900.232	14613
900.352	14648
900.472	14434
900.591	14431
900.711	14465
900.83	14370
900.95	14469
901.069	14507
901.189	14404
901.308	14153
901.427	14084
901.546	14134
901.665	14221
901.784	14149
901.904	13868
902.023	13974
902.141	13677
902.26	13586
902.379	13670
902.498	13586
902.617	13632
902.735	13677
902.854	13624
902.973	13578
903.091	13483
903.21	13346
903.328	13350
903.446	13354
903.565	13255
903.683	13175
903.801	13122
903.919	13171
904.038	13190
904.156	13103
904.274	13137
904.392	12985
904.51	12989
904.627	13053
904.745	13046
904.863	13057
904.981	12787
905.098	12730
905.216	12700
905.334	12776
905.451	12757
905.569	12642
905.686	12726
905.803	12715
905.921	12525
906.038	12566
906.155	12620
906.272	12494
906.389	12471
906.506	12369
906.623	12395
906.74	12338
906.857	12175
906.974	12213
907.091	12460
907.208	12475
907.324	12422
907.441	12167
907.557	12057
907.674	12133
907.79	12045
907.907	11999
908.023	12178
908.139	12068
908.256	11958
908.372	12079
908.488	11996
908.604	11904
908.72	11813
908.836	11870
908.952	11786
909.068	11798
909.184	11916
909.3	11809
909.415	11923
909.531	11870
909.647	11604
909.762	11657
909.878	11543
909.993	11585
910.108	11558
910.224	11577
910.339	11710
910.454	11455
910.57	11444
910.685	11410
910.8	11707
910.915	11604
911.03	11410
911.145	11356
911.259	11220
911.374	11292
911.489	11185
911.604	11231
911.718	11067
911.833	10999
911.947	10949
912.062	10881
912.176	11045
912.291	11132
912.405	11105
912.519	11208
912.633	11208
912.748	11128
912.862	11071
912.976	10953
913.09	10793
913.204	10805
913.318	10934
913.431	11052
913.545	10999
913.659	11071
913.772	10938
913.886	10835
914	10763
914.113	10881
914.226	10961
914.34	10843
914.453	10771
914.566	10877
914.68	10725
914.793	10759
914.906	10542
915.019	10558
915.132	10489
915.245	10516
915.358	10519
915.47	10561
915.583	10580
915.696	10641
915.809	10744
915.921	10683
916.034	10546
916.146	10542
916.259	10512
916.371	10599
916.483	10531
916.595	10329
916.708	10459
916.82	10580
916.932	10432
917.044	10462
917.156	10466
917.268	10402
917.38	10443
917.491	10382
917.603	10318
917.715	10485
917.826	10508
917.938	10360
918.049	10227
918.161	10394
918.272	10538
918.384	10531
918.495	10402
918.606	10333
918.717	10272
918.828	10363
918.939	10219
919.05	10150
919.161	10306
919.272	10048
919.383	10192
919.494	10344
919.604	10481
919.715	10276
919.826	10242
919.936	10227
920.047	10333
920.157	10238
920.267	10512
920.378	10238
920.488	10344
920.598	10512
920.708	10649
920.818	10424
920.928	10485
921.038	10588
921.148	10584
921.258	10310
921.368	10238
921.477	10082
921.587	10135
921.697	9934
921.806	10188
921.916	10040
922.025	9797
922.134	9884
922.244	9732
922.353	9892
922.462	9755
922.571	9641
922.68	9549
922.789	9504
922.898	9572
923.007	9466
923.116	9549
923.224	9568
923.333	9428
923.442	9431
923.55	9416
923.659	9397
923.767	9435
923.876	9397
923.984	9492
924.092	9279
924.201	9348
924.309	9298
924.417	9412
924.525	9397
924.633	9389
924.741	10291
924.849	9127
924.956	9287
925.064	9203
925.172	9176
925.279	9138
925.387	9233
925.494	9176
925.602	9279
925.709	9253
925.816	9074
925.924	9192
926.031	9233
926.138	9207
926.245	9245
926.352	9097
926.459	9241
926.566	9340
926.673	9203
926.779	8975
926.886	8929
926.993	8963
927.099	8861
927.206	8826
927.312	8796
927.419	8956
927.525	8796
927.631	9032
927.737	8834
927.843	8720
927.95	8720
928.056	8701
928.162	8777
928.267	8891
928.373	9466
928.479	8834
928.585	8636
928.69	8758
928.796	8800
928.901	8701
929.007	8552
929.112	8674
929.218	8701
929.323	8568
929.428	8583
929.533	8716
929.638	8503
929.743	8606
929.848	8602
929.953	8613
930.058	8590
930.163	8317
930.267	8347
930.372	8427
930.477	8366
930.581	8583
930.685	8465
930.79	8351
930.894	8366
930.998	8309
931.103	8423
931.207	8123
931.311	8065
931.415	7921
931.519	7852
931.623	7814
