Data from test_V78500241_481.txt Node
Date: Fri Mar 25 14:37:04 CST 2022
User: usil
Spectrometer: V785-0024
Trigger mode: 0
Integration Time (sec): 4.000000E-1
Scans to average: 1
Nonlinearity correction enabled: false
Boxcar width: 0
Storing dark spectrum: false
XAxis mode: Wavelengths
Number of Pixels in Spectrum: 1024
>>>>>Begin Spectral Data<<<<<
801.071	26568
801.214	26419
801.356	26328
801.499	26229
801.641	25883
801.783	25940
801.926	26012
802.068	25902
802.211	25708
802.353	25795
802.496	25586
802.638	25628
802.78	25518
802.923	25487
803.065	25381
803.208	25438
803.35	25415
803.492	25635
803.635	25616
803.777	25510
803.919	25559
804.061	25666
804.204	25544
804.346	25320
804.488	25339
804.63	25438
804.773	25400
804.915	25483
805.057	25632
805.199	25377
805.341	25525
805.483	25563
805.626	25407
805.768	25464
805.91	25415
806.052	25544
806.194	25472
806.336	25605
806.478	25518
806.62	25453
806.762	25518
806.904	25784
807.046	25993
807.188	25791
807.33	25917
807.472	25940
807.614	25860
807.756	25898
807.898	25696
808.04	25605
808.182	25708
808.324	25738
808.465	25685
808.607	26016
808.749	26157
808.891	26191
809.033	26282
809.174	26130
809.316	26046
809.458	26088
809.6	25845
809.741	26027
809.883	26081
810.025	26202
810.166	26172
810.308	26058
810.45	26122
810.591	26244
810.733	25871
810.875	25784
811.016	25681
811.158	25639
811.299	25959
811.441	26027
811.582	25970
811.724	25662
811.865	25769
812.007	25894
812.148	25708
812.29	25780
812.431	25947
812.573	26073
812.714	26199
812.855	26240
812.997	26385
813.138	26480
813.279	26374
813.421	26370
813.562	26172
813.703	26039
813.845	25936
813.986	25578
814.127	25510
814.268	25358
814.41	25384
814.551	25354
814.692	25518
814.833	25304
814.974	25365
815.115	25293
815.256	25171
815.397	25251
815.539	25164
815.68	25145
815.821	25023
815.962	25107
816.103	25000
816.244	24932
816.385	24772
816.526	24726
816.666	24650
816.807	24540
816.948	24692
817.089	24574
817.23	24551
817.371	24464
817.512	24525
817.653	24445
817.793	24327
817.934	24407
818.075	24395
818.216	24357
818.356	24429
818.497	24258
818.638	24155
818.778	24201
818.919	24144
819.06	24235
819.2	24292
819.341	24429
819.481	24395
819.622	24456
819.762	24582
819.903	24673
820.043	24544
820.184	24452
820.324	24399
820.465	24555
820.605	24410
820.746	24403
820.886	24220
821.026	24395
821.167	24437
821.307	24395
821.447	24319
821.588	24254
821.728	24140
821.868	24007
822.008	23908
822.149	23847
822.289	23691
822.429	23684
822.569	23524
822.709	23608
822.849	23261
822.99	23303
823.13	23200
823.27	23094
823.41	23060
823.55	22881
823.69	23098
823.83	23056
823.97	22968
824.11	22706
824.25	22683
824.389	22771
824.529	22866
824.669	22752
824.809	22831
824.949	22927
825.089	22831
825.228	22793
825.368	22713
825.508	22618
825.648	22755
825.787	22660
825.927	22675
826.067	22554
826.206	22622
826.346	22725
826.485	22717
826.625	22462
826.765	22634
826.904	22580
827.044	22306
827.183	22428
827.323	22234
827.462	22394
827.601	22261
827.741	22306
827.88	22284
828.02	22070
828.159	22253
828.298	22322
828.437	22291
828.577	22162
828.716	22436
828.855	22185
828.994	21991
829.134	21915
829.273	22025
829.412	21956
829.551	21915
829.69	21926
829.829	21968
829.968	22025
830.107	22040
830.246	21903
830.385	21835
830.524	21808
830.663	21804
830.802	21599
830.941	21606
831.08	21504
831.219	21492
831.357	21591
831.496	21656
831.635	21504
831.774	21291
831.913	21466
832.051	21237
832.19	21241
832.329	21401
832.467	21195
832.606	21214
832.744	21138
832.883	21184
833.022	21116
833.16	21154
833.299	21203
833.437	21211
833.576	21222
833.714	21135
833.852	21237
833.991	21233
834.129	21283
834.267	21230
834.406	21214
834.544	21165
834.682	21173
834.821	21199
834.959	21313
835.097	21138
835.235	21161
835.373	21173
835.511	21108
835.65	20982
835.788	21047
835.926	20918
836.064	20902
836.202	20937
836.34	21074
836.478	21116
836.615	20986
836.753	21017
836.891	21180
837.029	21024
837.167	21013
837.305	21062
837.443	20967
837.58	20952
837.718	21096
837.856	20788
837.993	20864
838.131	21055
838.269	20792
838.406	20902
838.544	20632
838.681	20537
838.819	20541
838.956	20393
839.094	20434
839.231	20389
839.369	20503
839.506	20796
839.643	20663
839.781	20434
839.918	20248
840.055	20336
840.193	20286
840.33	20309
840.467	20263
840.604	20278
840.742	20511
840.879	20202
841.016	20069
841.153	20065
841.29	20408
841.427	20320
841.564	20385
841.701	20301
841.838	20164
841.975	20237
842.112	20256
842.249	20092
842.385	19913
842.522	20286
842.659	19963
842.796	20001
842.933	20065
843.069	19887
843.206	19868
843.343	20050
843.479	20001
843.616	20031
843.752	19826
843.889	19746
844.025	20020
844.162	19628
844.298	19849
844.435	19734
844.571	19628
844.708	19738
844.844	19791
844.98	19879
845.117	19791
845.253	19635
845.389	19567
845.525	19639
845.661	19666
845.798	19738
845.934	19753
846.07	19616
846.206	19734
846.342	19708
846.478	19628
846.614	19430
846.75	19209
846.886	19266
847.022	19381
847.158	19312
847.294	19194
847.429	19312
847.565	19168
847.701	19487
847.837	18973
847.972	18783
848.108	19031
848.244	19031
848.379	18886
848.515	18806
848.65	18734
848.786	18791
848.921	18833
849.057	18875
849.192	18833
849.328	18890
849.463	18734
849.598	18749
849.734	18612
849.869	18608
850.004	18661
850.14	18547
850.275	18574
850.41	18456
850.545	18433
850.68	18582
850.815	18460
850.95	18506
851.085	18570
851.22	18563
851.355	18559
851.49	18506
851.625	18441
851.76	18445
851.895	18437
852.03	18296
852.165	18494
852.299	18608
852.434	18555
852.569	18513
852.703	18551
852.838	18498
852.973	18570
853.107	18593
853.242	18410
853.376	18414
853.511	18178
853.645	18216
853.78	18395
853.914	18289
854.048	18361
854.183	18327
854.317	18285
854.451	18506
854.585	18391
854.72	18308
854.854	18441
854.988	18216
855.122	18395
855.256	18174
855.39	18350
855.524	18418
855.658	18361
855.792	18369
855.926	18342
856.06	18308
856.194	18338
856.327	18266
856.461	18262
856.595	18247
856.729	18289
856.862	18369
856.996	18338
857.13	18338
857.263	18464
857.397	18410
857.53	18289
857.664	18407
857.797	18315
857.931	18266
858.064	18346
858.197	18410
858.331	18311
858.464	18220
858.597	18079
858.731	18315
858.864	18319
858.997	18315
859.13	18296
859.263	18232
859.396	18372
859.529	18334
859.662	18243
859.795	18243
859.928	18197
860.061	18327
860.194	18464
860.327	18361
860.46	18228
860.592	18372
860.725	18414
860.858	18327
860.99	18319
861.123	18182
861.256	18194
861.388	18270
861.521	18920
861.653	18114
861.786	17958
861.918	18178
862.05	18216
862.183	18098
862.315	18285
862.447	18357
862.58	18277
862.712	18110
862.844	17958
862.976	18125
863.108	18114
863.24	18342
863.372	18038
863.504	17969
863.636	17977
863.768	18117
863.9	17950
864.032	18015
864.164	17961
864.296	17969
864.428	18091
864.559	18060
864.691	17999
864.823	17946
864.954	18015
865.086	17988
865.217	17851
865.349	17878
865.48	17901
865.612	17958
865.743	18155
865.875	17920
866.006	17870
866.137	17847
866.269	17958
866.4	17942
866.531	17859
866.662	17767
866.793	17863
866.924	17916
867.055	17908
867.186	17893
867.317	17832
867.448	17870
867.579	17859
867.71	17813
867.841	17813
867.972	17828
868.103	17889
868.233	17870
868.364	17863
868.495	17992
868.625	18148
868.756	18159
868.886	18064
869.017	18129
869.147	18178
869.278	18292
869.408	18129
869.539	18057
869.669	18209
869.799	18125
869.929	18285
870.06	18197
870.19	18429
870.32	18243
870.45	18486
870.58	18547
870.71	18608
870.84	18692
870.97	18433
871.1	18490
871.23	18593
871.36	18711
871.489	18536
871.619	18635
871.749	18555
871.879	18665
872.008	18783
872.138	18734
872.267	18776
872.397	18597
872.526	18467
872.656	18475
872.785	18547
872.915	18692
873.044	18814
873.173	18715
873.303	18753
873.432	18795
873.561	18741
873.69	18768
873.819	18730
873.948	18791
874.077	18791
874.206	18802
874.335	18802
874.464	19004
874.593	19027
874.722	19034
874.851	18989
874.979	19065
875.108	19023
875.237	18970
875.365	18901
875.494	18973
875.623	19114
875.751	18966
875.88	19042
876.008	19202
876.136	19179
876.265	19411
876.393	19677
876.521	19548
876.65	19460
876.778	19415
876.906	19388
877.034	19354
877.162	19354
877.29	19362
877.418	19422
877.546	19411
877.674	19411
877.802	19415
877.93	19449
878.058	19460
878.185	19297
878.313	19480
878.441	19354
878.568	19236
878.696	19331
878.824	19403
878.951	19491
879.079	19578
879.206	19769
879.333	19582
879.461	19567
879.588	19594
879.715	19658
879.842	19803
879.97	19575
880.097	19316
880.224	19236
880.351	19304
880.478	19244
880.605	19377
880.732	19194
880.859	19548
880.986	19175
881.112	19194
881.239	19141
881.366	18958
881.493	18875
881.619	18802
881.746	18943
881.872	18814
881.999	18833
882.125	18802
882.252	18829
882.378	18901
882.505	18962
882.631	18787
882.757	18646
882.883	18749
883.01	18597
883.136	18623
883.262	18498
883.388	18441
883.514	18715
883.64	18639
883.766	18506
883.892	18464
884.018	18536
884.143	18635
884.269	18612
884.395	18483
884.52	18296
884.646	18372
884.772	18414
884.897	18254
885.023	18232
885.148	18372
885.274	18475
885.399	18357
885.524	18254
885.65	18300
885.775	18369
885.9	18296
886.025	18327
886.15	18220
886.275	18194
886.4	18182
886.525	18319
886.65	18304
886.775	18125
886.9	18369
887.025	18483
887.149	18281
887.274	18102
887.399	18038
887.523	17996
887.648	18076
887.773	17999
887.897	18136
888.021	18114
888.146	18053
888.27	18114
888.395	18098
888.519	18045
888.643	18129
888.767	18140
888.891	17984
889.015	17958
889.139	17885
889.263	17897
889.387	17912
889.511	18095
889.635	17980
889.759	17817
889.883	17813
890.006	17859
890.13	17843
890.254	17813
890.377	17722
890.501	17627
890.624	17524
890.748	17726
890.871	17554
890.995	17421
891.118	17417
891.241	17490
891.364	17463
891.488	17638
891.611	17474
891.734	17543
891.857	17623
891.98	17497
892.103	17520
892.226	17501
892.349	17448
892.471	17231
892.594	17349
892.717	17455
892.839	17330
892.962	17478
893.085	17505
893.207	17429
893.33	17406
893.452	17364
893.575	17478
893.697	17368
893.819	17551
893.941	17592
894.064	17600
894.186	17345
894.308	17334
894.43	17566
894.552	17657
894.674	17608
894.796	17421
894.918	17459
895.04	17425
895.161	17535
895.283	17509
895.405	17425
895.526	17368
895.648	17493
895.769	17436
895.891	17581
896.012	17566
896.134	17577
896.255	17524
896.376	17505
896.498	17566
896.619	17676
896.74	17539
896.861	17577
896.982	17878
897.103	17984
897.224	17832
897.345	17851
897.466	17775
897.587	17718
897.708	17847
897.828	17710
897.949	17741
898.07	17611
898.19	17794
898.311	17764
898.431	17775
898.552	17726
898.672	17783
898.792	17874
898.913	17707
899.033	17691
899.153	17573
899.273	17440
899.393	17516
899.513	17493
899.633	17589
899.753	17630
899.873	17558
899.993	17528
900.113	17532
900.232	17566
900.352	17516
900.472	17395
900.591	17292
900.711	17425
900.83	17379
900.95	17471
901.069	17383
901.189	17178
901.308	17056
901.427	17014
901.546	17132
901.665	16980
901.784	16987
901.904	16843
902.023	16710
902.141	16573
902.26	16443
902.379	16580
902.498	16500
902.617	16523
902.735	16519
902.854	16596
902.973	16424
903.091	16299
903.21	16337
903.328	16272
903.446	16139
903.565	16097
903.683	16044
903.801	15934
903.919	16010
904.038	15975
904.156	15869
904.274	15991
904.392	15766
904.51	15701
904.627	15808
904.745	15907
904.863	15816
904.981	15663
905.098	15557
905.216	15492
905.334	15557
905.451	15580
905.569	15477
905.686	15542
905.803	15481
905.921	15306
906.038	15397
906.155	15252
906.272	15245
906.389	15230
906.506	14967
906.623	14979
906.74	15032
906.857	14785
906.974	14960
907.091	15123
907.208	15161
907.324	15154
907.441	14891
907.557	14792
907.674	14823
907.79	14727
907.907	14716
908.023	14743
908.139	14621
908.256	14712
908.372	14686
908.488	14667
908.604	14541
908.72	14438
908.836	14423
908.952	14431
909.068	14465
909.184	14552
909.3	14434
909.415	14503
909.531	14484
909.647	14259
909.762	14187
909.878	14115
909.993	14161
910.108	14138
910.224	14111
910.339	14164
910.454	14039
910.57	13989
910.685	13902
910.8	14168
910.915	14145
911.03	14016
911.145	13868
911.259	13765
911.374	13845
911.489	13742
911.604	13647
911.718	13552
911.833	13601
911.947	13518
912.062	13339
912.176	13537
912.291	13544
912.405	13594
912.519	13712
912.633	13772
912.748	13632
912.862	13506
912.976	13362
913.09	13308
913.204	13327
913.318	13400
913.431	13468
913.545	13381
913.659	13445
913.772	13388
913.886	13285
914	13244
914.113	13297
914.226	13327
914.34	13346
914.453	13183
914.566	13259
914.68	13202
914.793	13160
914.906	13019
915.019	12973
915.132	12913
915.245	12951
915.358	12920
915.47	12916
915.583	12905
915.696	12977
915.809	12993
915.921	13046
916.034	12837
916.146	12711
916.259	12772
916.371	12943
916.483	12878
916.595	12795
916.708	12734
916.82	12783
916.932	12757
917.044	12760
917.156	12753
917.268	12646
917.38	12639
917.491	12700
917.603	12684
917.715	12700
917.826	12620
917.938	12692
918.049	12475
918.161	12578
918.272	12757
918.384	12688
918.495	12593
918.606	12509
918.717	12407
918.828	12525
918.939	12452
919.05	12334
919.161	12407
919.272	12201
919.383	12308
919.494	12498
919.604	12601
919.715	12403
919.826	12338
919.936	12323
920.047	12490
920.157	12346
920.267	12669
920.378	12506
920.488	12369
920.598	12566
920.708	12783
920.818	12502
920.928	12601
921.038	12677
921.148	12642
921.258	12357
921.368	12197
921.477	12239
921.587	12140
921.697	12049
921.806	12167
921.916	12049
922.025	11779
922.134	11809
922.244	11828
922.353	11859
922.462	11684
922.571	11726
922.68	11505
922.789	11520
922.898	11581
923.007	11448
923.116	11558
923.224	11459
923.333	11509
923.442	11425
923.55	11330
923.659	11436
923.767	11414
923.876	11273
923.984	11372
924.092	11151
924.201	11334
924.309	11356
924.417	11341
924.525	11379
924.633	11326
924.741	12216
924.849	11079
924.956	11212
925.064	10995
925.172	11003
925.279	11052
925.387	11124
925.494	11083
925.602	11132
925.709	11083
925.816	11003
925.924	11033
926.031	11045
926.138	10987
926.245	10961
926.352	10938
926.459	11109
926.566	11216
926.673	10968
926.779	10763
926.886	10831
926.993	10694
927.099	10656
927.206	10649
927.312	10637
927.419	10679
927.525	10710
927.631	10729
927.737	10554
927.843	10516
927.95	10466
928.056	10535
928.162	10577
928.267	10569
928.373	11048
928.479	10611
928.585	10333
928.69	10504
928.796	10561
928.901	10428
929.007	10272
929.112	10333
929.218	10398
929.323	10303
929.428	10352
929.533	10474
929.638	10257
929.743	10192
929.848	10310
929.953	10249
930.058	10227
930.163	10040
930.267	10063
930.372	10234
930.477	10025
930.581	10242
930.685	10090
930.79	9934
930.894	10002
930.998	9808
931.103	10097
931.207	9701
931.311	9648
931.415	9610
931.519	9378
931.623	9332
