Data from test_V78500241_1732.txt Node
Date: Fri Mar 25 14:45:46 CST 2022
User: usil
Spectrometer: V785-0024
Trigger mode: 0
Integration Time (sec): 4.000000E-1
Scans to average: 1
Nonlinearity correction enabled: false
Boxcar width: 0
Storing dark spectrum: false
XAxis mode: Wavelengths
Number of Pixels in Spectrum: 1024
>>>>>Begin Spectral Data<<<<<
801.071	22352
801.214	22067
801.356	21846
801.499	21770
801.641	21599
801.783	21564
801.926	21583
802.068	21515
802.211	21420
802.353	21401
802.496	21173
802.638	21138
802.78	20979
802.923	20994
803.065	20933
803.208	20914
803.35	20982
803.492	21055
803.635	21066
803.777	20861
803.919	21032
804.061	21154
804.204	20986
804.346	20819
804.488	20735
804.63	20845
804.773	20750
804.915	20842
805.057	20967
805.199	20956
805.341	20906
805.483	21028
805.626	20914
805.768	20834
805.91	20982
806.052	20941
806.194	20815
806.336	20941
806.478	20864
806.62	20838
806.762	20880
806.904	21062
807.046	21184
807.188	21123
807.33	21058
807.472	21279
807.614	21127
807.756	21096
807.898	20918
808.04	20902
808.182	20982
808.324	20849
808.465	20963
808.607	21074
808.749	21264
808.891	21226
809.033	21477
809.174	21272
809.316	21237
809.458	21389
809.6	21176
809.741	21291
809.883	21348
810.025	21428
810.166	21363
810.308	21450
810.45	21355
810.591	21272
810.733	21192
810.875	21036
811.016	20880
811.158	20906
811.299	20986
811.441	21135
811.582	21108
811.724	21074
811.865	20921
812.007	20921
812.148	20941
812.29	20948
812.431	21199
812.573	21340
812.714	21367
812.855	21530
812.997	21618
813.138	21713
813.279	21709
813.421	21526
813.562	21466
813.703	21302
813.845	21230
813.986	20762
814.127	20743
814.268	20640
814.41	20689
814.551	20640
814.692	20667
814.833	20328
814.974	20621
815.115	20590
815.256	20499
815.397	20408
815.539	20431
815.68	20343
815.821	20298
815.962	20317
816.103	20195
816.244	20191
816.385	20073
816.526	19936
816.666	19845
816.807	19677
816.948	19818
817.089	19875
817.23	19674
817.371	19837
817.512	19780
817.653	19769
817.793	19674
817.934	19731
818.075	19681
818.216	19590
818.356	19655
818.497	19616
818.638	19358
818.778	19415
818.919	19411
819.06	19339
819.2	19537
819.341	19537
819.481	19514
819.622	19753
819.762	19986
819.903	19807
820.043	19727
820.184	19712
820.324	19571
820.465	19639
820.605	19776
820.746	19544
820.886	19708
821.026	19548
821.167	19571
821.307	19616
821.447	19514
821.588	19453
821.728	19476
821.868	19270
822.008	19084
822.149	19107
822.289	18993
822.429	18757
822.569	18821
822.709	18821
822.849	18479
822.99	18661
823.13	18555
823.27	18521
823.41	18448
823.55	18334
823.69	18407
823.83	18407
823.97	18243
824.11	18159
824.25	18079
824.389	18114
824.529	18140
824.669	18106
824.809	18350
824.949	18311
825.089	18220
825.228	18171
825.368	18038
825.508	17996
825.648	17897
825.787	17958
825.927	17973
826.067	17863
826.206	17889
826.346	17927
826.485	17992
826.625	17954
826.765	18057
826.904	18049
827.044	17714
827.183	17661
827.323	17608
827.462	17699
827.601	17619
827.741	17528
827.88	17600
828.02	17497
828.159	17646
828.298	17646
828.437	17748
828.577	17592
828.716	17767
828.855	17604
828.994	17417
829.134	17433
829.273	17448
829.412	17356
829.551	17349
829.69	17280
829.829	17410
829.968	17524
830.107	17402
830.246	17391
830.385	17311
830.524	17204
830.663	17132
830.802	17227
830.941	17029
831.08	16949
831.219	16984
831.357	17014
831.496	17296
831.635	16843
831.774	16805
831.913	16934
832.051	16755
832.19	16733
832.329	16915
832.467	16683
832.606	16664
832.744	16702
832.883	16634
833.022	16668
833.16	16706
833.299	16668
833.437	16672
833.576	16675
833.714	16774
833.852	16740
833.991	16725
834.129	16721
834.267	16805
834.406	16710
834.544	16725
834.682	16778
834.821	16767
834.959	16698
835.097	16596
835.235	16793
835.373	16835
835.511	16721
835.65	16660
835.788	16615
835.926	16527
836.064	16455
836.202	16485
836.34	16592
836.478	16675
836.615	16569
836.753	16683
836.891	16733
837.029	16634
837.167	16611
837.305	16596
837.443	16417
837.58	16424
837.718	16531
837.856	16546
837.993	16417
838.131	16451
838.269	16466
838.406	16390
838.544	16337
838.681	16253
838.819	16177
838.956	16093
839.094	16135
839.231	16139
839.369	16143
839.506	16455
839.643	16276
839.781	15953
839.918	16059
840.055	16040
840.193	16017
840.33	15960
840.467	16010
840.604	16097
840.742	16443
840.879	15876
841.016	15983
841.153	15960
841.29	16169
841.427	15991
841.564	16036
841.701	16101
841.838	15953
841.975	15880
842.112	15949
842.249	15709
842.385	15789
842.522	15998
842.659	15873
842.796	15736
842.933	15892
843.069	15911
843.206	15819
843.343	15918
843.479	15766
843.616	15884
843.752	15603
843.889	15568
844.025	15789
844.162	15576
844.298	15709
844.435	15698
844.571	15542
844.708	15618
844.844	15819
844.98	15770
845.117	15686
845.253	15549
845.389	15553
845.525	15587
845.661	15507
845.798	15348
845.934	15492
846.07	15378
846.206	15420
846.342	15587
846.478	15363
846.614	15195
846.75	15173
846.886	15195
847.022	15211
847.158	15154
847.294	15127
847.429	15157
847.565	15116
847.701	15412
847.837	14994
847.972	14918
848.108	15062
848.244	14971
848.379	14872
848.515	14773
848.65	14800
848.786	14743
848.921	14750
849.057	14834
849.192	14834
849.328	14754
849.463	14769
849.598	14667
849.734	14811
849.869	14575
850.004	14564
850.14	14590
850.275	14560
850.41	14423
850.545	14442
850.68	14541
850.815	14484
850.95	14655
851.085	14686
851.22	14594
851.355	14571
851.49	14442
851.625	14537
851.76	14495
851.895	14480
852.03	14396
852.165	14579
852.299	14522
852.434	14575
852.569	14648
852.703	14541
852.838	14602
852.973	14625
853.107	14686
853.242	14480
853.376	14450
853.511	14248
853.645	14389
853.78	14579
853.914	14389
854.048	14408
854.183	14347
854.317	14404
854.451	14602
854.585	14328
854.72	14370
854.854	14495
854.988	14305
855.122	14415
855.256	14252
855.39	14377
855.524	14480
855.658	14537
855.792	14419
855.926	14495
856.06	14507
856.194	14590
856.327	14442
856.461	14377
856.595	14328
856.729	14389
856.862	14537
856.996	14389
857.13	14518
857.263	14541
857.397	14556
857.53	14389
857.664	14427
857.797	14427
857.931	14522
858.064	14396
858.197	14446
858.331	14469
858.464	14355
858.597	14305
858.731	14419
858.864	14347
858.997	14301
859.13	14465
859.263	14419
859.396	14530
859.529	14415
859.662	14355
859.795	14385
859.928	14465
860.061	14511
860.194	14499
860.327	14355
860.46	14465
860.592	14503
860.725	14480
860.858	14549
860.99	14412
861.123	14301
861.256	14294
861.388	14339
861.521	15116
861.653	14328
861.786	14309
861.918	14286
862.05	14278
862.183	14343
862.315	14503
862.447	14480
862.58	14400
862.712	14199
862.844	14180
862.976	14271
863.108	14145
863.24	14526
863.372	14081
863.504	14115
863.636	14214
863.768	14275
863.9	14233
864.032	14043
864.164	14180
864.296	14202
864.428	14351
864.559	14351
864.691	14252
864.823	14332
864.954	14225
865.086	14225
865.217	14256
865.349	14096
865.48	14149
865.612	14237
865.743	14301
865.875	14172
866.006	14180
866.137	14202
866.269	14199
866.4	14092
866.531	14126
866.662	14073
866.793	14172
866.924	14138
867.055	14176
867.186	14164
867.317	14176
867.448	14050
867.579	14111
867.71	14046
867.841	14111
867.972	14210
868.103	14138
868.233	14164
868.364	14126
868.495	14298
868.625	14389
868.756	14511
868.886	14313
869.017	14442
869.147	14427
869.278	14579
869.408	14415
869.539	14385
869.669	14465
869.799	14495
869.929	14594
870.06	14533
870.19	14686
870.32	14689
870.45	14788
870.58	14811
870.71	14925
870.84	14960
870.97	14655
871.1	14739
871.23	15085
871.36	15013
871.489	14960
871.619	15051
871.749	15104
871.879	15020
872.008	15180
872.138	15001
872.267	15024
872.397	14914
872.526	14849
872.656	14914
872.785	14933
872.915	15024
873.044	15123
873.173	14952
873.303	15055
873.432	15093
873.561	15135
873.69	15097
873.819	15188
873.948	15188
874.077	15028
874.206	15104
874.335	15036
874.464	15169
874.593	15291
874.722	15279
874.851	15424
874.979	15450
875.108	15545
875.237	15386
875.365	15310
875.494	15401
875.623	15443
875.751	15336
875.88	15496
876.008	15542
876.136	15576
876.265	15766
876.393	15964
876.521	15899
876.65	15812
876.778	15800
876.906	15781
877.034	15694
877.162	15770
877.29	15652
877.418	15797
877.546	15759
877.674	15705
877.802	15770
877.93	15698
878.058	15755
878.185	15709
878.313	15728
878.441	15800
878.568	15694
878.696	15743
878.824	15823
878.951	15884
879.079	15960
879.206	16143
879.333	15991
879.461	15778
879.588	15903
879.715	16006
879.842	16093
879.97	15819
880.097	15542
880.224	15644
880.351	15648
880.478	15526
880.605	15511
880.732	15625
880.859	15899
880.986	15557
881.112	15625
881.239	15504
881.366	15424
881.493	15389
881.619	15306
881.746	15348
881.872	15245
881.999	15211
882.125	15291
882.252	15298
882.378	15256
882.505	15439
882.631	15302
882.757	15005
882.883	15222
883.01	15093
883.136	15009
883.262	15013
883.388	15001
883.514	15154
883.64	15119
883.766	15081
883.892	14929
884.018	15047
884.143	15161
884.269	15188
884.395	14887
884.52	14796
884.646	14811
884.772	14769
884.897	14781
885.023	14811
885.148	14921
885.274	14963
885.399	14952
885.524	14842
885.65	14804
885.775	14861
885.9	14842
886.025	14979
886.15	14849
886.275	14781
886.4	14701
886.525	14815
886.65	14716
886.775	14720
886.9	14872
887.025	15039
887.149	14769
887.274	14670
887.399	14594
887.523	14587
887.648	14632
887.773	14583
887.897	14610
888.021	14720
888.146	14655
888.27	14815
888.395	14765
888.519	14720
888.643	14720
888.767	14727
888.891	14560
889.015	14461
889.139	14640
889.263	14385
889.387	14667
889.511	14724
889.635	14621
889.759	14530
889.883	14393
890.006	14514
890.13	14663
890.254	14450
890.377	14511
890.501	14282
890.624	14370
890.748	14301
890.871	14221
890.995	14130
891.118	14096
891.241	14210
891.364	14218
891.488	14339
891.611	14248
891.734	14164
891.857	14256
891.98	14278
892.103	14282
892.226	14271
892.349	14214
892.471	14119
892.594	14187
892.717	14191
892.839	14206
892.962	14214
893.085	14263
893.207	14233
893.33	14130
893.452	14210
893.575	14259
893.697	14176
893.819	14400
893.941	14473
894.064	14313
894.186	14206
894.308	14259
894.43	14358
894.552	14377
894.674	14309
894.796	14153
894.918	14263
895.04	14309
895.161	14419
895.283	14328
895.405	14332
895.526	14214
895.648	14256
895.769	14237
895.891	14377
896.012	14377
896.134	14431
896.255	14465
896.376	14328
896.498	14343
896.619	14317
896.74	14351
896.861	14415
896.982	14735
897.103	14861
897.224	14621
897.345	14613
897.466	14556
897.587	14682
897.708	14720
897.828	14648
897.949	14663
898.07	14537
898.19	14708
898.311	14773
898.431	14575
898.552	14629
898.672	14853
898.792	14735
898.913	14739
899.033	14598
899.153	14629
899.273	14552
899.393	14583
899.513	14564
899.633	14686
899.753	14552
899.873	14552
899.993	14621
900.113	14564
900.232	14602
900.352	14526
900.472	14495
900.591	14461
900.711	14408
900.83	14404
900.95	14530
901.069	14568
901.189	14434
901.308	14206
901.427	14081
901.546	14130
901.665	14191
901.784	14180
901.904	14054
902.023	13921
902.141	13738
902.26	13616
902.379	13727
902.498	13677
902.617	13575
902.735	13761
902.854	13670
902.973	13696
903.091	13449
903.21	13350
903.328	13331
903.446	13331
903.565	13312
903.683	13312
903.801	13069
903.919	13179
904.038	13259
904.156	13050
904.274	13129
904.392	13050
904.51	13061
904.627	13023
904.745	13122
904.863	13118
904.981	12913
905.098	12738
905.216	12821
905.334	12768
905.451	12798
905.569	12669
905.686	12749
905.803	12791
905.921	12555
906.038	12623
906.155	12502
906.272	12486
906.389	12467
906.506	12338
906.623	12292
906.74	12338
906.857	12213
906.974	12273
907.091	12475
907.208	12464
907.324	12330
907.441	12289
907.557	12175
907.674	12110
907.79	11984
907.907	12034
908.023	12216
908.139	12190
908.256	11999
908.372	12095
908.488	11935
908.604	11855
908.72	11832
908.836	11745
908.952	11752
909.068	11908
909.184	11973
909.3	11703
909.415	11813
909.531	11733
909.647	11592
909.762	11661
909.878	11592
909.993	11661
910.108	11600
910.224	11638
910.339	11600
910.454	11539
910.57	11497
910.685	11364
910.8	11741
910.915	11668
911.03	11486
911.145	11299
911.259	11250
911.374	11269
911.489	11242
911.604	11174
911.718	11067
911.833	11041
911.947	11003
912.062	10911
912.176	10942
912.291	11075
912.405	11094
912.519	11337
912.633	11208
912.748	11193
912.862	11124
912.976	10923
913.09	10812
913.204	10961
913.318	11075
913.431	11041
913.545	11048
913.659	11056
913.772	11006
913.886	10858
914	10828
914.113	10892
914.226	11010
914.34	10873
914.453	10740
914.566	10877
914.68	10790
914.793	10748
914.906	10664
915.019	10531
915.132	10451
915.245	10561
915.358	10573
915.47	10577
915.583	10592
915.696	10641
915.809	10740
915.921	10801
916.034	10535
916.146	10493
916.259	10516
916.371	10565
916.483	10634
916.595	10466
916.708	10462
916.82	10497
916.932	10402
917.044	10519
917.156	10455
917.268	10405
917.38	10409
917.491	10386
917.603	10337
917.715	10516
917.826	10508
917.938	10398
918.049	10303
918.161	10462
918.272	10504
918.384	10512
918.495	10455
918.606	10363
918.717	10227
918.828	10257
918.939	10310
919.05	10162
919.161	10295
919.272	10086
919.383	10162
919.494	10375
919.604	10440
919.715	10337
919.826	10238
919.936	10268
920.047	10329
920.157	10303
920.267	10466
920.378	10356
920.488	10265
920.598	10535
920.708	10694
920.818	10542
920.928	10489
921.038	10752
921.148	10596
921.258	10291
921.368	10215
921.477	10169
921.587	10147
921.697	10055
921.806	10177
921.916	9994
922.025	9895
922.134	9816
922.244	9819
922.353	9895
922.462	9789
922.571	9652
922.68	9587
922.789	9530
922.898	9549
923.007	9458
923.116	9595
923.224	9545
923.333	9504
923.442	9420
923.55	9424
923.659	9488
923.767	9481
923.876	9374
923.984	9450
924.092	9325
924.201	9340
924.309	9386
924.417	9386
924.525	9329
924.633	9332
924.741	10246
924.849	9211
924.956	9260
925.064	9108
925.172	9100
925.279	9116
925.387	9222
925.494	9192
925.602	9275
925.709	9287
925.816	9135
925.924	9180
926.031	9264
926.138	9169
926.245	9249
926.352	9055
926.459	9260
926.566	9321
926.673	9157
926.779	9089
926.886	9009
926.993	8937
927.099	8914
927.206	8834
927.312	8849
927.419	8948
927.525	8887
927.631	8998
927.737	8845
927.843	8724
927.95	8667
928.056	8735
928.162	8800
928.267	8887
928.373	9439
928.479	8842
928.585	8682
928.69	8750
928.796	8739
928.901	8674
929.007	8545
929.112	8705
929.218	8674
929.323	8667
929.428	8648
929.533	8792
929.638	8564
929.743	8598
929.848	8682
929.953	8571
930.058	8530
930.163	8317
930.267	8396
930.372	8537
930.477	8370
930.581	8606
930.685	8393
930.79	8324
930.894	8279
930.998	8290
931.103	8423
931.207	8168
931.311	8050
931.415	8001
931.519	7841
931.623	7841
