Data from test_V78500241_1057.txt Node
Date: Fri Mar 25 14:41:04 CST 2022
User: usil
Spectrometer: V785-0024
Trigger mode: 0
Integration Time (sec): 4.000000E-1
Scans to average: 1
Nonlinearity correction enabled: false
Boxcar width: 0
Storing dark spectrum: false
XAxis mode: Wavelengths
Number of Pixels in Spectrum: 1024
>>>>>Begin Spectral Data<<<<<
801.071	22965
801.214	22725
801.356	22653
801.499	22341
801.641	22230
801.783	22135
801.926	22246
802.068	22226
802.211	22162
802.353	22090
802.496	21804
802.638	21827
802.78	21698
802.923	21720
803.065	21519
803.208	21443
803.35	21538
803.492	21545
803.635	21698
803.777	21568
803.919	21660
804.061	21918
804.204	21698
804.346	21523
804.488	21481
804.63	21515
804.773	21488
804.915	21488
805.057	21606
805.199	21481
805.341	21603
805.483	21587
805.626	21576
805.768	21492
805.91	21447
806.052	21485
806.194	21382
806.336	21690
806.478	21572
806.62	21389
806.762	21720
806.904	21660
807.046	21922
807.188	21838
807.33	21930
807.472	21937
807.614	21949
807.756	21994
807.898	21808
808.04	21755
808.182	21857
808.324	21983
808.465	22040
808.607	22306
808.749	22523
808.891	22592
809.033	22634
809.174	22641
809.316	22390
809.458	22253
809.6	22181
809.741	22253
809.883	22154
810.025	22322
810.166	22162
810.308	22169
810.45	22147
810.591	22013
810.733	21800
810.875	21724
811.016	21747
811.158	21679
811.299	21838
811.441	21873
811.582	21797
811.724	21644
811.865	21671
812.007	21751
812.148	21739
812.29	21713
812.431	21816
812.573	22086
812.714	22002
812.855	22204
812.997	22329
813.138	22432
813.279	22276
813.421	22185
813.562	22219
813.703	22002
813.845	21812
813.986	21599
814.127	21424
814.268	21340
814.41	21272
814.551	21268
814.692	21351
814.833	21275
814.974	21237
815.115	21233
815.256	21093
815.397	20994
815.539	21165
815.68	21028
815.821	20902
815.962	21017
816.103	21062
816.244	20788
816.385	20769
816.526	20788
816.666	20484
816.807	20377
816.948	20507
817.089	20613
817.23	20495
817.371	20412
817.512	20355
817.653	20454
817.793	20457
817.934	20507
818.075	20294
818.216	20385
818.356	20427
818.497	20301
818.638	20119
818.778	20126
818.919	20130
819.06	20062
819.2	20176
819.341	20317
819.481	20278
819.622	20495
819.762	20609
819.903	20526
820.043	20511
820.184	20374
820.324	20484
820.465	20438
820.605	20480
820.746	20434
820.886	20164
821.026	20415
821.167	20294
821.307	20313
821.447	20347
821.588	20233
821.728	20172
821.868	20031
822.008	19753
822.149	19868
822.289	19639
822.429	19453
822.569	19460
822.709	19445
822.849	19304
822.99	19293
823.13	19251
823.27	19190
823.41	19129
823.55	18996
823.69	19050
823.83	19133
823.97	18989
824.11	18894
824.25	18798
824.389	18901
824.529	18966
824.669	18757
824.809	19000
824.949	19008
825.089	18928
825.228	18954
825.368	18627
825.508	18661
825.648	18688
825.787	18753
825.927	18696
826.067	18597
826.206	18646
826.346	18673
826.485	18715
826.625	18692
826.765	18764
826.904	18681
827.044	18418
827.183	18357
827.323	18330
827.462	18403
827.601	18209
827.741	18357
827.88	18224
828.02	18296
828.159	18334
828.298	18346
828.437	18460
828.577	18247
828.716	18445
828.855	18216
828.994	18209
829.134	18098
829.273	17999
829.412	18076
829.551	18049
829.69	18068
829.829	18064
829.968	18083
830.107	18129
830.246	18022
830.385	17999
830.524	17935
830.663	17889
830.802	17748
830.941	17733
831.08	17634
831.219	17687
831.357	17767
831.496	17904
831.635	17691
831.774	17642
831.913	17649
832.051	17414
832.19	17459
832.329	17596
832.467	17383
832.606	17353
832.744	17337
832.883	17311
833.022	17364
833.16	17452
833.299	17421
833.437	17547
833.576	17463
833.714	17524
833.852	17463
833.991	17433
834.129	17490
834.267	17478
834.406	17528
834.544	17505
834.682	17509
834.821	17425
834.959	17649
835.097	17398
835.235	17585
835.373	17535
835.511	17444
835.65	17311
835.788	17318
835.926	17204
836.064	17037
836.202	17258
836.34	17296
836.478	17490
836.615	17292
836.753	17421
836.891	17455
837.029	17349
837.167	17303
837.305	17254
837.443	17162
837.58	17246
837.718	17288
837.856	17292
837.993	17200
838.131	17242
838.269	17162
838.406	17105
838.544	17105
838.681	16995
838.819	16862
838.956	16736
839.094	16626
839.231	16896
839.369	16854
839.506	17147
839.643	16991
839.781	16672
839.918	16691
840.055	16672
840.193	16725
840.33	16694
840.467	16740
840.604	16740
840.742	16923
840.879	16573
841.016	16645
841.153	16672
841.29	16862
841.427	16748
841.564	16691
841.701	16717
841.838	16653
841.975	16569
842.112	16706
842.249	16497
842.385	16489
842.522	16767
842.659	16546
842.796	16417
842.933	16542
843.069	16455
843.206	16440
843.343	16493
843.479	16523
843.616	16421
843.752	16246
843.889	16253
844.025	16432
844.162	16310
844.298	16390
844.435	16280
844.571	16287
844.708	16299
844.844	16421
844.98	16436
845.117	16493
845.253	16363
845.389	16226
845.525	16474
845.661	16459
845.798	16554
845.934	16930
846.07	16896
846.206	16831
846.342	16847
846.478	16508
846.614	16169
846.75	16032
846.886	16017
847.022	15953
847.158	15941
847.294	15884
847.429	15987
847.565	15781
847.701	16036
847.837	15587
847.972	15500
848.108	15675
848.244	15679
848.379	15606
848.515	15431
848.65	15416
848.786	15424
848.921	15397
849.057	15561
849.192	15526
849.328	15500
849.463	15511
849.598	15370
849.734	15351
849.869	15272
850.004	15226
850.14	15260
850.275	15161
850.41	15154
850.545	15176
850.68	15176
850.815	15268
850.95	15104
851.085	15359
851.22	15275
851.355	15150
851.49	15203
851.625	15112
851.76	15089
851.895	15047
852.03	15127
852.165	15154
852.299	15230
852.434	15298
852.569	15195
852.703	15211
852.838	15272
852.973	15355
853.107	15332
853.242	15203
853.376	14990
853.511	14979
853.645	15036
853.78	15157
853.914	15142
854.048	15116
854.183	14990
854.317	15058
854.451	15321
854.585	15093
854.72	14967
854.854	15112
854.988	14906
855.122	14956
855.256	14902
855.39	15055
855.524	15184
855.658	15104
855.792	15097
855.926	15146
856.06	15085
856.194	15233
856.327	15051
856.461	14910
856.595	14986
856.729	15001
856.862	15195
856.996	15089
857.13	15001
857.263	15165
857.397	15131
857.53	15001
857.664	15085
857.797	15184
857.931	15097
858.064	15062
858.197	15176
858.331	14975
858.464	15020
858.597	14910
858.731	14967
858.864	14944
858.997	14925
859.13	14960
859.263	15089
859.396	15165
859.529	15036
859.662	15024
859.795	14990
859.928	15089
860.061	15321
860.194	15176
860.327	15085
860.46	15036
860.592	15077
860.725	15184
860.858	15256
860.99	15047
861.123	14929
861.256	14975
861.388	15001
861.521	15724
861.653	14944
861.786	14861
861.918	14864
862.05	14963
862.183	15062
862.315	15036
862.447	15077
862.58	14880
862.712	14906
862.844	14758
862.976	14941
863.108	14861
863.24	15287
863.372	14746
863.504	14876
863.636	14811
863.768	14857
863.9	14785
864.032	14697
864.164	14796
864.296	14861
864.428	14838
864.559	15013
864.691	14891
864.823	14941
864.954	14895
865.086	14906
865.217	14670
865.349	14750
865.48	14769
865.612	14758
865.743	14880
865.875	14724
866.006	14727
866.137	14781
866.269	14750
866.4	14902
866.531	14686
866.662	14613
866.793	14750
866.924	14678
867.055	14792
867.186	14758
867.317	14746
867.448	14701
867.579	14659
867.71	14617
867.841	14724
867.972	14811
868.103	14781
868.233	14701
868.364	14788
868.495	14792
868.625	15001
868.756	15203
868.886	14887
869.017	14963
869.147	15214
869.278	15188
869.408	15039
869.539	15055
869.669	15097
869.799	15154
869.929	15074
870.06	15169
870.19	15416
870.32	15370
870.45	15435
870.58	15526
870.71	15545
870.84	15557
870.97	15389
871.1	15389
871.23	15576
871.36	15610
871.489	15519
871.619	15587
871.749	15618
871.879	15625
872.008	15641
872.138	15587
872.267	15568
872.397	15561
872.526	15428
872.656	15538
872.785	15473
872.915	15690
873.044	15736
873.173	15709
873.303	15629
873.432	15755
873.561	15751
873.69	15713
873.819	15717
873.948	15755
874.077	15732
874.206	15625
874.335	15614
874.464	15789
874.593	15930
874.722	15956
874.851	16021
874.979	16116
875.108	16090
875.237	15956
875.365	15968
875.494	15926
875.623	16051
875.751	15945
875.88	15972
876.008	16101
876.136	16322
876.265	16348
876.393	16523
876.521	16417
876.65	16535
876.778	16424
876.906	16405
877.034	16360
877.162	16367
877.29	16417
877.418	16497
877.546	16440
877.674	16390
877.802	16356
877.93	16459
878.058	16363
878.185	16432
878.313	16447
878.441	16478
878.568	16322
878.696	16447
878.824	16470
878.951	16519
879.079	16687
879.206	16930
879.333	16896
879.461	16850
879.588	16877
879.715	16999
879.842	17060
879.97	16717
880.097	16459
880.224	16474
880.351	16390
880.478	16394
880.605	16287
880.732	16306
880.859	16542
880.986	16382
881.112	16398
881.239	16234
881.366	16143
881.493	16059
881.619	15930
881.746	16040
881.872	16029
881.999	15953
882.125	15972
882.252	16067
882.378	16097
882.505	16166
882.631	15956
882.757	15747
882.883	15812
883.01	15819
883.136	15804
883.262	15804
883.388	15629
883.514	15755
883.64	15838
883.766	15732
883.892	15663
884.018	15671
884.143	15759
884.269	15880
884.395	15648
884.52	15428
884.646	15557
884.772	15614
884.897	15389
885.023	15561
885.148	15591
885.274	15690
885.399	15568
885.524	15534
885.65	15481
885.775	15523
885.9	15462
886.025	15538
886.15	15610
886.275	15519
886.4	15275
886.525	15378
886.65	15435
886.775	15466
886.9	15622
887.025	15652
887.149	15416
887.274	15226
887.399	15180
887.523	15283
887.648	15291
887.773	15146
887.897	15389
888.021	15355
888.146	15131
888.27	15382
888.395	15450
888.519	15195
888.643	15378
888.767	15275
888.891	15142
889.015	15055
889.139	15165
889.263	15081
889.387	15287
889.511	15230
889.635	15199
889.759	15074
889.883	15077
890.006	15138
890.13	15268
890.254	15043
890.377	14960
890.501	14948
890.624	14941
890.748	15028
890.871	14868
890.995	14750
891.118	14670
891.241	14735
891.364	14811
891.488	14921
891.611	14746
891.734	14724
891.857	14807
891.98	14880
892.103	14948
892.226	14845
892.349	14724
892.471	14568
892.594	14724
892.717	14823
892.839	14731
892.962	14788
893.085	14777
893.207	14857
893.33	14598
893.452	14693
893.575	14731
893.697	14667
893.819	14872
893.941	14956
894.064	14880
894.186	14762
894.308	14686
894.43	14857
894.552	14925
894.674	14864
894.796	14701
894.918	14781
895.04	14781
895.161	14853
895.283	14845
895.405	14716
895.526	14857
895.648	14815
895.769	14834
895.891	14895
896.012	14960
896.134	14971
896.255	14914
896.376	14800
896.498	14910
896.619	14880
896.74	14929
896.861	14944
896.982	15294
897.103	15363
897.224	15218
897.345	15127
897.466	15093
897.587	15104
897.708	15329
897.828	15237
897.949	15180
898.07	15066
898.19	15051
898.311	15302
898.431	15138
898.552	15222
898.672	15351
898.792	15302
898.913	15264
899.033	15154
899.153	15058
899.273	15104
899.393	15001
899.513	15077
899.633	15066
899.753	15085
899.873	15039
899.993	15154
900.113	15001
900.232	15036
900.352	14971
900.472	14982
900.591	14960
900.711	14963
900.83	14849
900.95	15047
901.069	15161
901.189	14902
901.308	14674
901.427	14625
901.546	14644
901.665	14689
901.784	14678
901.904	14560
902.023	14488
902.141	14259
902.26	14210
902.379	14229
902.498	14187
902.617	14035
902.735	14176
902.854	14221
902.973	14081
903.091	13864
903.21	13982
903.328	13947
903.446	13765
903.565	13776
903.683	13807
903.801	13696
903.919	13784
904.038	13712
904.156	13582
904.274	13719
904.392	13613
904.51	13563
904.627	13548
904.745	13628
904.863	13708
904.981	13350
905.098	13282
905.216	13285
905.334	13244
905.451	13266
905.569	13259
905.686	13183
905.803	13266
905.921	13095
906.038	13034
906.155	13091
906.272	13027
906.389	12939
906.506	12867
906.623	12837
906.74	12825
906.857	12726
906.974	12806
907.091	12878
907.208	12966
907.324	12829
907.441	12753
907.557	12528
907.674	12521
907.79	12559
907.907	12494
908.023	12563
908.139	12544
908.256	12517
908.372	12517
908.488	12452
908.604	12376
908.72	12254
908.836	12323
908.952	12277
909.068	12315
909.184	12365
909.3	12308
909.415	12498
909.531	12330
909.647	12136
909.762	12098
909.878	12049
909.993	12095
910.108	12114
910.224	11977
910.339	12022
910.454	12041
910.57	12015
910.685	11920
910.8	12136
910.915	12038
911.03	11942
911.145	11775
911.259	11729
911.374	11741
911.489	11714
911.604	11672
911.718	11589
911.833	11611
911.947	11467
912.062	11395
912.176	11497
912.291	11589
912.405	11524
912.519	11729
912.633	11790
912.748	11638
912.862	11532
912.976	11429
913.09	11178
913.204	11284
913.318	11406
913.431	11493
913.545	11505
913.659	11490
913.772	11425
913.886	11326
914	11231
914.113	11353
914.226	11406
914.34	11410
914.453	11212
914.566	11254
914.68	11235
914.793	11181
914.906	11006
915.019	11064
915.132	10930
915.245	10942
915.358	11056
915.47	11048
915.583	11075
915.696	11079
915.809	11201
915.921	11147
916.034	11003
916.146	10957
916.259	10904
916.371	10972
916.483	10968
916.595	10980
916.708	10995
916.82	10999
916.932	10866
917.044	10934
917.156	10908
917.268	10816
917.38	10835
917.491	10904
917.603	10900
917.715	10873
917.826	10980
917.938	10725
918.049	10694
918.161	10824
918.272	10911
918.384	10999
918.495	10710
918.606	10653
918.717	10558
918.828	10748
918.939	10664
919.05	10588
919.161	10641
919.272	10527
919.383	10516
919.494	10733
919.604	10831
919.715	10687
919.826	10599
919.936	10656
920.047	10812
920.157	10702
920.267	10847
920.378	10771
920.488	10717
920.598	10835
920.708	11105
920.818	10866
920.928	10927
921.038	11083
921.148	11067
921.258	10725
921.368	10710
921.477	10561
921.587	10580
921.697	10436
921.806	10527
921.916	10436
922.025	10280
922.134	10204
922.244	10211
922.353	10177
922.462	10192
922.571	10025
922.68	9953
922.789	9888
922.898	10036
923.007	9846
923.116	9915
923.224	9934
923.333	9937
923.442	9762
923.55	9823
923.659	9751
923.767	9903
923.876	9747
923.984	9797
924.092	9778
924.201	9774
924.309	9740
924.417	9823
924.525	9671
924.633	9751
924.741	10637
924.849	9564
924.956	9766
925.064	9568
925.172	9500
925.279	9545
925.387	9648
925.494	9523
925.602	9633
925.709	9591
925.816	9469
925.924	9549
926.031	9557
926.138	9568
926.245	9584
926.352	9488
926.459	9625
926.566	9717
926.673	9469
926.779	9367
926.886	9340
926.993	9291
927.099	9249
927.206	9142
927.312	9226
927.419	9306
927.525	9272
927.631	9279
927.737	9203
927.843	9112
927.95	8975
928.056	9085
928.162	9138
928.267	9226
928.373	9747
928.479	9192
928.585	8982
928.69	9180
928.796	9184
928.901	9085
929.007	8807
929.112	9119
929.218	9024
929.323	8979
929.428	8921
929.533	9089
929.638	8853
929.743	8960
929.848	8941
929.953	8948
930.058	8887
930.163	8697
930.267	8781
930.372	8785
930.477	8678
930.581	8902
930.685	8823
930.79	8701
930.894	8720
930.998	8617
931.103	8705
931.207	8404
931.311	8366
931.415	8336
931.519	8172
931.623	8142
