Data from test_V78500241_1635.txt Node
Date: Fri Mar 25 14:45:05 CST 2022
User: usil
Spectrometer: V785-0024
Trigger mode: 0
Integration Time (sec): 4.000000E-1
Scans to average: 1
Nonlinearity correction enabled: false
Boxcar width: 0
Storing dark spectrum: false
XAxis mode: Wavelengths
Number of Pixels in Spectrum: 1024
>>>>>Begin Spectral Data<<<<<
801.071	22325
801.214	22265
801.356	21998
801.499	21804
801.641	21682
801.783	21633
801.926	21660
802.068	21625
802.211	21477
802.353	21435
802.496	21355
802.638	21249
802.78	21207
802.923	21131
803.065	21036
803.208	21051
803.35	21142
803.492	21077
803.635	21104
803.777	20990
803.919	21142
804.061	21291
804.204	21043
804.346	20944
804.488	20838
804.63	21024
804.773	20804
804.915	21051
805.057	21024
805.199	21005
805.341	21142
805.483	21017
805.626	21036
805.768	20899
805.91	20880
806.052	21127
806.194	20918
806.336	21047
806.478	21001
806.62	20811
806.762	21039
806.904	21142
807.046	21408
807.188	21313
807.33	21351
807.472	21260
807.614	21252
807.756	21275
807.898	21150
808.04	21070
808.182	21062
808.324	20982
808.465	21127
808.607	21245
808.749	21355
808.891	21473
809.033	21610
809.174	21587
809.316	21374
809.458	21420
809.6	21241
809.741	21466
809.883	21595
810.025	21614
810.166	21530
810.308	21599
810.45	21443
810.591	21450
810.733	21108
810.875	21192
811.016	21013
811.158	21043
811.299	21184
811.441	21256
811.582	21291
811.724	21093
811.865	21195
812.007	20998
812.148	21203
812.29	21184
812.431	21272
812.573	21466
812.714	21629
812.855	21599
812.997	21846
813.138	21934
813.279	21652
813.421	21717
813.562	21625
813.703	21405
813.845	21401
813.986	20990
814.127	20811
814.268	20826
814.41	20678
814.551	20693
814.692	20743
814.833	20617
814.974	20590
815.115	20727
815.256	20571
815.397	20549
815.539	20495
815.68	20374
815.821	20476
815.962	20427
816.103	20404
816.244	20301
816.385	20168
816.526	19997
816.666	19974
816.807	19860
816.948	19932
817.089	19944
817.23	19871
817.371	19849
817.512	19814
817.653	19795
817.793	19837
817.934	19807
818.075	19928
818.216	19887
818.356	19651
818.497	19704
818.638	19544
818.778	19533
818.919	19529
819.06	19533
819.2	19605
819.341	19624
819.481	19628
819.622	19769
819.762	20050
819.903	20001
820.043	19830
820.184	19887
820.324	19788
820.465	19921
820.605	19799
820.746	19704
820.886	19776
821.026	19845
821.167	19708
821.307	19826
821.447	19712
821.588	19658
821.728	19552
821.868	19373
822.008	19259
822.149	19209
822.289	19198
822.429	18943
822.569	18935
822.709	18871
822.849	18639
822.99	18764
823.13	18741
823.27	18760
823.41	18509
823.55	18380
823.69	18521
823.83	18521
823.97	18399
824.11	18346
824.25	18342
824.389	18323
824.529	18361
824.669	18228
824.809	18369
824.949	18365
825.089	18273
825.228	18330
825.368	18083
825.508	18140
825.648	18159
825.787	18079
825.927	18129
826.067	18011
826.206	18060
826.346	18076
826.485	17988
826.625	17992
826.765	18129
826.904	18053
827.044	17828
827.183	17722
827.323	17684
827.462	17813
827.601	17802
827.741	17646
827.88	17767
828.02	17581
828.159	17661
828.298	17668
828.437	17699
828.577	17649
828.716	17752
828.855	17642
828.994	17585
829.134	17493
829.273	17547
829.412	17417
829.551	17433
829.69	17501
829.829	17615
829.968	17592
830.107	17592
830.246	17528
830.385	17444
830.524	17303
830.663	17417
830.802	17250
830.941	17094
831.08	17094
831.219	17193
831.357	17212
831.496	17277
831.635	17037
831.774	17083
831.913	16904
832.051	16892
832.19	16854
832.329	16934
832.467	16873
832.606	16694
832.744	16759
832.883	16763
833.022	16790
833.16	16843
833.299	16927
833.437	16683
833.576	16782
833.714	16774
833.852	16755
833.991	16881
834.129	16786
834.267	16938
834.406	16774
834.544	16706
834.682	16839
834.821	16778
834.959	17045
835.097	16744
835.235	16824
835.373	16752
835.511	16786
835.65	16649
835.788	16725
835.926	16592
836.064	16535
836.202	16538
836.34	16630
836.478	16812
836.615	16611
836.753	16801
836.891	16831
837.029	16812
837.167	16698
837.305	16664
837.443	16409
837.58	16523
837.718	16550
837.856	16542
837.993	16497
838.131	16554
838.269	16550
838.406	16554
838.544	16481
838.681	16238
838.819	16291
838.956	16124
839.094	16025
839.231	16234
839.369	16204
839.506	16455
839.643	16402
839.781	16147
839.918	16051
840.055	16067
840.193	16158
840.33	15998
840.467	16032
840.604	16063
840.742	16375
840.879	16006
841.016	16025
841.153	16006
841.29	16223
841.427	16082
841.564	16112
841.701	16150
841.838	16013
841.975	16013
842.112	16154
842.249	15975
842.385	15827
842.522	16067
842.659	15907
842.796	15865
842.933	15922
843.069	15804
843.206	15888
843.343	15945
843.479	15922
843.616	15876
843.752	15667
843.889	15675
844.025	15778
844.162	15618
844.298	15812
844.435	15679
844.571	15633
844.708	15759
844.844	15915
844.98	15766
845.117	15880
845.253	15690
845.389	15614
845.525	15660
845.661	15564
845.798	15568
845.934	15663
846.07	15496
846.206	15641
846.342	15641
846.478	15496
846.614	15329
846.75	15218
846.886	15245
847.022	15351
847.158	15233
847.294	15165
847.429	15214
847.565	15127
847.701	15447
847.837	14967
847.972	15013
848.108	15123
848.244	15066
848.379	14876
848.515	14849
848.65	14807
848.786	14842
848.921	14777
849.057	14982
849.192	14899
849.328	14944
849.463	14918
849.598	14743
849.734	14792
849.869	14663
850.004	14617
850.14	14689
850.275	14640
850.41	14530
850.545	14579
850.68	14663
850.815	14670
850.95	14556
851.085	14777
851.22	14651
851.355	14632
851.49	14602
851.625	14545
851.76	14522
851.895	14503
852.03	14427
852.165	14568
852.299	14541
852.434	14693
852.569	14606
852.703	14606
852.838	14632
852.973	14689
853.107	14823
853.242	14583
853.376	14404
853.511	14358
853.645	14488
853.78	14663
853.914	14431
854.048	14499
854.183	14404
854.317	14423
854.451	14693
854.585	14400
854.72	14427
854.854	14556
854.988	14389
855.122	14427
855.256	14332
855.39	14381
855.524	14587
855.658	14549
855.792	14587
855.926	14526
856.06	14514
856.194	14526
856.327	14427
856.461	14484
856.595	14351
856.729	14514
856.862	14610
856.996	14545
857.13	14594
857.263	14549
857.397	14488
857.53	14598
857.664	14522
857.797	14568
857.931	14617
858.064	14663
858.197	14610
858.331	14545
858.464	14469
858.597	14454
858.731	14457
858.864	14469
858.997	14457
859.13	14377
859.263	14522
859.396	14621
859.529	14366
859.662	14404
859.795	14446
859.928	14419
860.061	14617
860.194	14705
860.327	14423
860.46	14537
860.592	14655
860.725	14625
860.858	14617
860.99	14385
861.123	14404
861.256	14332
861.388	14541
861.521	15192
861.653	14374
861.786	14332
861.918	14301
862.05	14404
862.183	14381
862.315	14469
862.447	14507
862.58	14412
862.712	14298
862.844	14191
862.976	14385
863.108	14259
863.24	14769
863.372	14157
863.504	14309
863.636	14271
863.768	14366
863.9	14362
864.032	14206
864.164	14214
864.296	14290
864.428	14366
864.559	14332
864.691	14404
864.823	14347
864.954	14343
865.086	14278
865.217	14252
865.349	14202
865.48	14210
865.612	14237
865.743	14355
865.875	14180
866.006	14187
866.137	14210
866.269	14263
866.4	14229
866.531	14282
866.662	14123
866.793	14103
866.924	14168
867.055	14252
867.186	14138
867.317	14145
867.448	14210
867.579	14081
867.71	14275
867.841	14142
867.972	14252
868.103	14187
868.233	14183
868.364	14195
868.495	14374
868.625	14412
868.756	14568
868.886	14332
869.017	14389
869.147	14556
869.278	14571
869.408	14625
869.539	14476
869.669	14511
869.799	14488
869.929	14659
870.06	14579
870.19	14765
870.32	14762
870.45	14849
870.58	14804
870.71	14941
870.84	14944
870.97	14834
871.1	14891
871.23	15074
871.36	15100
871.489	15039
871.619	15043
871.749	15119
871.879	15146
872.008	15173
872.138	15123
872.267	15097
872.397	14895
872.526	14921
872.656	14891
872.785	14986
872.915	15066
873.044	15097
873.173	15123
873.303	15104
873.432	15226
873.561	15157
873.69	15051
873.819	15161
873.948	15173
874.077	15085
874.206	15093
874.335	15233
874.464	15306
874.593	15397
874.722	15397
874.851	15485
874.979	15424
875.108	15545
875.237	15416
875.365	15431
875.494	15428
875.623	15496
875.751	15348
875.88	15466
876.008	15591
876.136	15679
876.265	15850
876.393	15987
876.521	15945
876.65	15960
876.778	15690
876.906	15762
877.034	15793
877.162	15812
877.29	15785
877.418	15899
877.546	15880
877.674	15861
877.802	15895
877.93	15876
878.058	15778
878.185	15793
878.313	15804
878.441	15785
878.568	15747
878.696	15755
878.824	15895
878.951	15949
879.079	16055
879.206	16192
879.333	16067
879.461	15785
879.588	16090
879.715	16059
879.842	16207
879.97	16017
880.097	15686
880.224	15641
880.351	15629
880.478	15724
880.605	15739
880.732	15800
880.859	16067
880.986	15720
881.112	15656
881.239	15538
881.366	15523
881.493	15401
881.619	15294
881.746	15359
881.872	15306
881.999	15241
882.125	15298
882.252	15397
882.378	15405
882.505	15557
882.631	15279
882.757	15146
882.883	15291
883.01	15207
883.136	15214
883.262	15051
883.388	15051
883.514	15138
883.64	15207
883.766	15138
883.892	14880
884.018	14941
884.143	15138
884.269	15260
884.395	14967
884.52	14887
884.646	14929
884.772	14849
884.897	14807
885.023	14895
885.148	14971
885.274	15058
885.399	15036
885.524	14944
885.65	14880
885.775	14823
885.9	14906
886.025	14933
886.15	14967
886.275	14807
886.4	14815
886.525	14880
886.65	14845
886.775	14792
886.9	14971
887.025	15123
887.149	14952
887.274	14750
887.399	14781
887.523	14537
887.648	14670
887.773	14621
887.897	14811
888.021	14735
888.146	14621
888.27	14769
888.395	14857
888.519	14777
888.643	14807
888.767	14758
888.891	14568
889.015	14541
889.139	14632
889.263	14522
889.387	14571
889.511	14765
889.635	14625
889.759	14507
889.883	14560
890.006	14541
890.13	14693
890.254	14522
890.377	14511
890.501	14328
890.624	14320
890.748	14343
890.871	14221
890.995	14202
891.118	14206
891.241	14271
891.364	14221
891.488	14442
891.611	14111
891.734	14313
891.857	14377
891.98	14278
892.103	14320
892.226	14202
892.349	14210
892.471	14054
892.594	14221
892.717	14176
892.839	14221
892.962	14339
893.085	14381
893.207	14320
893.33	14153
893.452	14195
893.575	14240
893.697	14229
893.819	14374
893.941	14526
894.064	14446
894.186	14149
894.308	14320
894.43	14339
894.552	14526
894.674	14427
894.796	14252
894.918	14404
895.04	14298
895.161	14438
895.283	14381
895.405	14278
895.526	14358
895.648	14328
895.769	14408
895.891	14446
896.012	14446
896.134	14499
896.255	14415
896.376	14415
896.498	14358
896.619	14495
896.74	14450
896.861	14499
896.982	14785
897.103	14948
897.224	14773
897.345	14720
897.466	14617
897.587	14769
897.708	14788
897.828	14701
897.949	14693
898.07	14571
898.19	14663
898.311	14826
898.431	14648
898.552	14750
898.672	14830
898.792	14807
898.913	14819
899.033	14640
899.153	14621
899.273	14457
899.393	14590
899.513	14667
899.633	14693
899.753	14659
899.873	14587
899.993	14644
900.113	14682
900.232	14644
900.352	14583
900.472	14495
900.591	14408
900.711	14461
900.83	14461
900.95	14549
901.069	14606
901.189	14454
901.308	14134
901.427	14126
901.546	14183
901.665	14126
901.784	14328
901.904	14081
902.023	13875
902.141	13803
902.26	13742
902.379	13772
902.498	13818
902.617	13719
902.735	13753
902.854	13742
902.973	13674
903.091	13430
903.21	13464
903.328	13537
903.446	13411
903.565	13419
903.683	13377
903.801	13312
903.919	13263
904.038	13278
904.156	13129
904.274	13293
904.392	13126
904.51	13114
904.627	13046
904.745	13164
904.863	13160
904.981	12897
905.098	12890
905.216	12738
905.334	12859
905.451	12814
905.569	12738
905.686	12772
905.803	12844
905.921	12677
906.038	12806
906.155	12646
906.272	12452
906.389	12540
906.506	12350
906.623	12376
906.74	12422
906.857	12327
906.974	12391
907.091	12384
907.208	12536
907.324	12407
907.441	12258
907.557	12175
907.674	12140
907.79	12114
907.907	12095
908.023	12216
908.139	12186
908.256	12125
908.372	12140
908.488	12007
908.604	12053
908.72	11874
908.836	11878
908.952	11859
909.068	11901
909.184	11958
909.3	11794
909.415	11889
909.531	11870
909.647	11737
909.762	11619
909.878	11611
909.993	11657
910.108	11649
910.224	11604
910.339	11634
910.454	11562
910.57	11562
910.685	11448
910.8	11718
910.915	11729
911.03	11490
911.145	11444
911.259	11292
911.374	11292
911.489	11318
911.604	11227
911.718	11079
911.833	11098
911.947	10965
912.062	10953
912.176	11075
912.291	11216
912.405	11033
912.519	11330
912.633	11288
912.748	11174
912.862	11155
912.976	10999
913.09	10869
913.204	10987
913.318	11033
913.431	11147
913.545	11014
913.659	11132
913.772	11048
913.886	10831
914	10812
914.113	10984
914.226	11056
914.34	10957
914.453	10831
914.566	10984
914.68	10877
914.793	10740
914.906	10580
915.019	10634
915.132	10538
915.245	10538
915.358	10580
915.47	10615
915.583	10592
915.696	10588
915.809	10793
915.921	10778
916.034	10554
916.146	10611
916.259	10554
916.371	10672
916.483	10687
916.595	10508
916.708	10535
916.82	10493
916.932	10561
917.044	10493
917.156	10485
917.268	10417
917.38	10493
917.491	10459
917.603	10428
917.715	10535
917.826	10554
917.938	10405
918.049	10291
918.161	10451
918.272	10603
918.384	10626
918.495	10367
918.606	10333
918.717	10272
918.828	10318
918.939	10360
919.05	10207
919.161	10223
919.272	10078
919.383	10166
919.494	10489
919.604	10538
919.715	10333
919.826	10188
919.936	10284
920.047	10390
920.157	10409
920.267	10519
920.378	10356
920.488	10363
920.598	10489
920.708	10717
920.818	10489
920.928	10478
921.038	10618
921.148	10668
921.258	10333
921.368	10360
921.477	10185
921.587	10147
921.697	10112
921.806	10234
921.916	10078
922.025	9968
922.134	9861
922.244	9857
922.353	10032
922.462	9808
922.571	9743
922.68	9538
922.789	9504
922.898	9614
923.007	9507
923.116	9637
923.224	9587
923.333	9534
923.442	9447
923.55	9405
923.659	9443
923.767	9511
923.876	9435
923.984	9458
924.092	9359
924.201	9466
924.309	9492
924.417	9485
924.525	9412
924.633	9477
924.741	10101
924.849	9222
924.956	9340
925.064	9268
925.172	9085
925.279	9104
925.387	9233
925.494	9256
925.602	9325
925.709	9226
925.816	9138
925.924	9272
926.031	9329
926.138	9302
926.245	9214
926.352	9188
926.459	9253
926.566	9370
926.673	9131
926.779	9062
926.886	9077
926.993	8975
927.099	8941
927.206	8906
927.312	8883
927.419	9024
927.525	8872
927.631	9058
927.737	8826
927.843	8823
927.95	8667
928.056	8731
928.162	8864
928.267	8845
928.373	9355
928.479	8941
928.585	8746
928.69	8807
928.796	8887
928.901	8804
929.007	8583
929.112	8686
929.218	8754
929.323	8670
929.428	8629
929.533	8773
929.638	8625
929.743	8610
929.848	8705
929.953	8606
930.058	8530
930.163	8370
930.267	8389
930.372	8587
930.477	8450
930.581	8625
930.685	8533
930.79	8313
930.894	8423
930.998	8351
931.103	8507
931.207	8142
931.311	8111
931.415	8081
931.519	7830
931.623	7776
