Data from test_V78500241_2336.txt Node
Date: Fri Mar 25 14:49:58 CST 2022
User: usil
Spectrometer: V785-0024
Trigger mode: 0
Integration Time (sec): 4.000000E-1
Scans to average: 1
Nonlinearity correction enabled: false
Boxcar width: 0
Storing dark spectrum: false
XAxis mode: Wavelengths
Number of Pixels in Spectrum: 1024
>>>>>Begin Spectral Data<<<<<
801.071	22188
801.214	22051
801.356	21785
801.499	21625
801.641	21545
801.783	21526
801.926	21667
802.068	21492
802.211	21481
802.353	21370
802.496	21074
802.638	21070
802.78	20979
802.923	20830
803.065	20845
803.208	20674
803.35	20792
803.492	20910
803.635	20979
803.777	20743
803.919	20868
804.061	21226
804.204	21009
804.346	20640
804.488	20708
804.63	20769
804.773	20739
804.915	20788
805.057	20800
805.199	20682
805.341	20849
805.483	20944
805.626	20929
805.768	20796
805.91	20842
806.052	20785
806.194	20804
806.336	20823
806.478	20807
806.62	20712
806.762	20754
806.904	20918
807.046	21207
807.188	21161
807.33	21051
807.472	21184
807.614	20975
807.756	21154
807.898	20834
808.04	20880
808.182	20788
808.324	20899
808.465	20876
808.607	21039
808.749	21157
808.891	21218
809.033	21348
809.174	21275
809.316	21169
809.458	21226
809.6	21272
809.741	21329
809.883	21329
810.025	21386
810.166	21370
810.308	21233
810.45	21199
810.591	21142
810.733	21017
810.875	21028
811.016	20948
811.158	20773
811.299	20918
811.441	21066
811.582	20975
811.724	20838
811.865	20891
812.007	20921
812.148	20929
812.29	20937
812.431	21135
812.573	21203
812.714	21359
812.855	21488
812.997	21595
813.138	21774
813.279	21511
813.421	21530
813.562	21374
813.703	21211
813.845	21077
813.986	20872
814.127	20644
814.268	20495
814.41	20720
814.551	20484
814.692	20484
814.833	20400
814.974	20427
815.115	20507
815.256	20351
815.397	20415
815.539	20271
815.68	20237
815.821	20081
815.962	20187
816.103	20176
816.244	20005
816.385	19925
816.526	19932
816.666	19685
816.807	19502
816.948	19586
817.089	19799
817.23	19689
817.371	19613
817.512	19620
817.653	19552
817.793	19586
817.934	19639
818.075	19616
818.216	19514
818.356	19575
818.497	19415
818.638	19343
818.778	19312
818.919	19293
819.06	19381
819.2	19411
819.341	19472
819.481	19415
819.622	19685
819.762	19719
819.903	19818
820.043	19712
820.184	19567
820.324	19559
820.465	19655
820.605	19727
820.746	19487
820.886	19388
821.026	19514
821.167	19575
821.307	19639
821.447	19556
821.588	19472
821.728	19373
821.868	19263
822.008	19000
822.149	19012
822.289	18989
822.429	18768
822.569	18669
822.709	18684
822.849	18475
822.99	18513
823.13	18490
823.27	18395
823.41	18281
823.55	18266
823.69	18384
823.83	18399
823.97	18201
824.11	17958
824.25	18045
824.389	18060
824.529	18159
824.669	17988
824.809	18140
824.949	18152
825.089	18045
825.228	18057
825.368	17870
825.508	17912
825.648	17897
825.787	17874
825.927	17851
826.067	17828
826.206	17745
826.346	17840
826.485	17847
826.625	17703
826.765	17817
826.904	17843
827.044	17680
827.183	17611
827.323	17452
827.462	17554
827.601	17501
827.741	17490
827.88	17490
828.02	17425
828.159	17459
828.298	17516
828.437	17608
828.577	17417
828.716	17611
828.855	17547
828.994	17299
829.134	17212
829.273	17292
829.412	17178
829.551	17204
829.69	17372
829.829	17212
829.968	17296
830.107	17292
830.246	17307
830.385	17136
830.524	17166
830.663	17052
830.802	17075
830.941	16866
831.08	16923
831.219	16946
831.357	16953
831.496	17102
831.635	16961
831.774	16793
831.913	16740
832.051	16649
832.19	16546
832.329	16687
832.467	16573
832.606	16428
832.744	16538
832.883	16538
833.022	16531
833.16	16580
833.299	16577
833.437	16637
833.576	16641
833.714	16653
833.852	16596
833.991	16626
834.129	16752
834.267	16596
834.406	16615
834.544	16694
834.682	16634
834.821	16607
834.959	16797
835.097	16523
835.235	16615
835.373	16706
835.511	16615
835.65	16470
835.788	16440
835.926	16455
836.064	16329
836.202	16371
836.34	16580
836.478	16607
836.615	16485
836.753	16584
836.891	16611
837.029	16500
837.167	16527
837.305	16379
837.443	16413
837.58	16325
837.718	16485
837.856	16352
837.993	16402
838.131	16363
838.269	16276
838.406	16272
838.544	16280
838.681	16082
838.819	16044
838.956	15903
839.094	15964
839.231	16036
839.369	16097
839.506	16287
839.643	16181
839.781	15873
839.918	15857
840.055	15934
840.193	15930
840.33	15888
840.467	15945
840.604	15865
840.742	16200
840.879	15823
841.016	15770
841.153	15880
841.29	15975
841.427	15968
841.564	15842
841.701	15937
841.838	15911
841.975	15743
842.112	15888
842.249	15709
842.385	15675
842.522	15911
842.659	15751
842.796	15633
842.933	15766
843.069	15759
843.206	15686
843.343	15603
843.479	15675
843.616	15747
843.752	15488
843.889	15534
844.025	15572
844.162	15401
844.298	15599
844.435	15504
844.571	15401
844.708	15614
844.844	15576
844.98	15580
845.117	15656
845.253	15420
845.389	15405
845.525	15367
845.661	15378
845.798	15241
845.934	15355
846.07	15169
846.206	15325
846.342	15336
846.478	15245
846.614	15013
846.75	15055
846.886	15066
847.022	15112
847.158	15119
847.294	15108
847.429	15036
847.565	15017
847.701	15275
847.837	14781
847.972	14674
848.108	14979
848.244	14815
848.379	14693
848.515	14659
848.65	14625
848.786	14617
848.921	14659
849.057	14750
849.192	14674
849.328	14594
849.463	14617
849.598	14571
849.734	14461
849.869	14575
850.004	14362
850.14	14492
850.275	14377
850.41	14434
850.545	14362
850.68	14469
850.815	14446
850.95	14366
851.085	14625
851.22	14511
851.355	14366
851.49	14408
851.625	14457
851.76	14389
851.895	14324
852.03	14248
852.165	14339
852.299	14499
852.434	14465
852.569	14473
852.703	14495
852.838	14412
852.973	14602
853.107	14575
853.242	14385
853.376	14320
853.511	14191
853.645	14225
853.78	14313
853.914	14240
854.048	14267
854.183	14210
854.317	14328
854.451	14488
854.585	14248
854.72	14221
854.854	14317
854.988	14210
855.122	14183
855.256	14119
855.39	14374
855.524	14317
855.658	14423
855.792	14317
855.926	14286
856.06	14275
856.194	14362
856.327	14400
856.461	14229
856.595	14240
856.729	14290
856.862	14374
856.996	14298
857.13	14488
857.263	14343
857.397	14438
857.53	14237
857.664	14381
857.797	14294
857.931	14442
858.064	14237
858.197	14362
858.331	14195
858.464	14225
858.597	14103
858.731	14240
858.864	14225
858.997	14221
859.13	14263
859.263	14320
859.396	14275
859.529	14294
859.662	14256
859.795	14183
859.928	14199
860.061	14355
860.194	14556
860.327	14355
860.46	14218
860.592	14396
860.725	14332
860.858	14400
860.99	14180
861.123	14229
861.256	14225
861.388	14351
861.521	14849
861.653	14046
861.786	14027
861.918	14172
862.05	14138
862.183	14164
862.315	14294
862.447	14377
862.58	14187
862.712	14183
862.844	13879
862.976	14130
863.108	14107
863.24	14495
863.372	13902
863.504	14126
863.636	14062
863.768	14202
863.9	14103
864.032	14012
864.164	14077
864.296	14119
864.428	14130
864.559	14187
864.691	14107
864.823	14100
864.954	14069
865.086	14130
865.217	14046
865.349	13951
865.48	14043
865.612	14058
865.743	14218
865.875	14050
866.006	13997
866.137	13989
866.269	14084
866.4	14077
866.531	13947
866.662	13986
866.793	13997
866.924	14119
867.055	14054
867.186	13906
867.317	13944
867.448	13963
867.579	13944
867.71	13856
867.841	13906
867.972	13928
868.103	14005
868.233	14043
868.364	14092
868.495	14096
868.625	14267
868.756	14298
868.886	14221
869.017	14225
869.147	14400
869.278	14476
869.408	14385
869.539	14237
869.669	14355
869.799	14347
869.929	14434
870.06	14374
870.19	14583
870.32	14514
870.45	14674
870.58	14754
870.71	14781
870.84	14861
870.97	14708
871.1	14697
871.23	14895
871.36	14876
871.489	14815
871.619	14876
871.749	14902
871.879	14979
872.008	14929
872.138	14982
872.267	14864
872.397	14781
872.526	14739
872.656	14670
872.785	14720
872.915	14948
873.044	14971
873.173	14804
873.303	14998
873.432	14963
873.561	15036
873.69	14910
873.819	14826
873.948	15043
874.077	14982
874.206	14956
874.335	14998
874.464	15108
874.593	15226
874.722	15135
874.851	15230
874.979	15207
875.108	15420
875.237	15226
875.365	15332
875.494	15272
875.623	15283
875.751	15272
875.88	15306
876.008	15336
876.136	15473
876.265	15591
876.393	15770
876.521	15736
876.65	15705
876.778	15637
876.906	15701
877.034	15519
877.162	15641
877.29	15553
877.418	15610
877.546	15663
877.674	15603
877.802	15800
877.93	15618
878.058	15667
878.185	15488
878.313	15633
878.441	15720
878.568	15458
878.696	15526
878.824	15663
878.951	15785
879.079	15781
879.206	15975
879.333	15770
879.461	15701
879.588	15747
879.715	15812
879.842	15975
879.97	15663
880.097	15466
880.224	15378
880.351	15507
880.478	15622
880.605	15523
880.732	15504
880.859	15667
880.986	15603
881.112	15523
881.239	15447
881.366	15230
881.493	15272
881.619	15112
881.746	15039
881.872	15127
881.999	15085
882.125	15165
882.252	15207
882.378	15211
882.505	15245
882.631	15135
882.757	15047
882.883	15001
883.01	14944
883.136	15028
883.262	14807
883.388	14731
883.514	15028
883.64	15055
883.766	14937
883.892	14830
884.018	14807
884.143	15005
884.269	15077
884.395	14689
884.52	14610
884.646	14625
884.772	14720
884.897	14552
885.023	14598
885.148	14796
885.274	14849
885.399	14838
885.524	14606
885.65	14708
885.775	14705
885.9	14693
886.025	14796
886.15	14617
886.275	14651
886.4	14655
886.525	14716
886.65	14663
886.775	14587
886.9	14830
887.025	14929
887.149	14659
887.274	14560
887.399	14362
887.523	14476
887.648	14469
887.773	14442
887.897	14667
888.021	14556
888.146	14431
888.27	14598
888.395	14659
888.519	14594
888.643	14488
888.767	14583
888.891	14461
889.015	14286
889.139	14423
889.263	14343
889.387	14358
889.511	14621
889.635	14473
889.759	14313
889.883	14389
890.006	14385
890.13	14393
890.254	14366
890.377	14370
890.501	14195
890.624	14153
890.748	14259
890.871	14149
890.995	14031
891.118	14062
891.241	14100
891.364	14221
891.488	14214
891.611	14111
891.734	14043
891.857	14016
891.98	14126
892.103	14187
892.226	14161
892.349	14096
892.471	13951
892.594	14126
892.717	14081
892.839	14020
892.962	14103
893.085	14050
893.207	13986
893.33	14012
893.452	13940
893.575	14149
893.697	14092
893.819	14240
893.941	14298
894.064	14142
894.186	14073
894.308	14039
894.43	14168
894.552	14347
894.674	14172
894.796	14084
894.918	14168
895.04	14058
895.161	14149
895.283	14180
895.405	14046
895.526	14206
895.648	14206
895.769	14183
895.891	14336
896.012	14313
896.134	14309
896.255	14206
896.376	14298
896.498	14317
896.619	14370
896.74	14294
896.861	14377
896.982	14545
897.103	14651
897.224	14579
897.345	14587
897.466	14450
897.587	14552
897.708	14655
897.828	14518
897.949	14537
898.07	14332
898.19	14473
898.311	14678
898.431	14522
898.552	14670
898.672	14689
898.792	14727
898.913	14697
899.033	14568
899.153	14571
899.273	14385
899.393	14450
899.513	14495
899.633	14480
899.753	14442
899.873	14446
899.993	14541
900.113	14419
900.232	14503
900.352	14476
900.472	14389
900.591	14244
900.711	14389
900.83	14317
900.95	14484
901.069	14488
901.189	14313
901.308	14073
901.427	13978
901.546	13947
901.665	14050
901.784	14039
901.904	13883
902.023	13856
902.141	13552
902.26	13616
902.379	13624
902.498	13499
902.617	13529
902.735	13651
902.854	13506
902.973	13582
903.091	13206
903.21	13274
903.328	13312
903.446	13274
903.565	13156
903.683	13255
903.801	13152
903.919	13217
904.038	13183
904.156	12916
904.274	13034
904.392	12928
904.51	12928
904.627	12932
904.745	12909
904.863	13065
904.981	12696
905.098	12597
905.216	12715
905.334	12631
905.451	12639
905.569	12563
905.686	12745
905.803	12700
905.921	12414
906.038	12620
906.155	12429
906.272	12433
906.389	12372
906.506	12213
906.623	12220
906.74	12159
906.857	12216
906.974	12136
907.091	12239
907.208	12330
907.324	12201
907.441	12190
907.557	11984
907.674	12003
907.79	11939
907.907	11965
908.023	11996
908.139	12034
908.256	11897
908.372	11946
908.488	11904
908.604	11760
908.72	11718
908.836	11771
908.952	11672
909.068	11824
909.184	11832
909.3	11813
909.415	11908
909.531	11703
909.647	11478
909.762	11528
909.878	11463
909.993	11592
910.108	11493
910.224	11482
910.339	11585
910.454	11414
910.57	11337
910.685	11269
910.8	11577
910.915	11558
911.03	11406
911.145	11216
911.259	11201
911.374	11261
911.489	11155
911.604	11025
911.718	10923
911.833	11052
911.947	10953
912.062	10790
912.176	10976
912.291	11045
912.405	10972
912.519	11162
912.633	11181
912.748	11086
912.862	11025
912.976	10809
913.09	10790
913.204	10881
913.318	10957
913.431	10953
913.545	10889
913.659	11022
913.772	10869
913.886	10740
914	10733
914.113	10763
914.226	10881
914.34	10759
914.453	10634
914.566	10862
914.68	10653
914.793	10675
914.906	10447
915.019	10447
915.132	10379
915.245	10451
915.358	10527
915.47	10538
915.583	10504
915.696	10504
915.809	10565
915.921	10653
916.034	10386
916.146	10470
916.259	10436
916.371	10561
916.483	10493
916.595	10424
916.708	10367
916.82	10421
916.932	10432
917.044	10367
917.156	10367
917.268	10272
917.38	10306
917.491	10303
917.603	10325
917.715	10398
917.826	10356
917.938	10261
918.049	10246
918.161	10322
918.272	10497
918.384	10440
918.495	10337
918.606	10158
918.717	10124
918.828	10196
918.939	10200
919.05	10128
919.161	10200
919.272	10010
919.383	10086
919.494	10280
919.604	10451
919.715	10242
919.826	10116
919.936	10109
920.047	10371
920.157	10147
920.267	10447
920.378	10230
920.488	10246
920.598	10371
920.708	10637
920.818	10432
920.928	10375
921.038	10573
921.148	10527
921.258	10333
921.368	10147
921.477	10048
921.587	10090
921.697	9998
921.806	10112
921.916	9922
922.025	9800
922.134	9785
922.244	9709
922.353	9797
922.462	9667
922.571	9568
922.68	9496
922.789	9424
922.898	9534
923.007	9401
923.116	9500
923.224	9424
923.333	9462
923.442	9374
923.55	9348
923.659	9378
923.767	9363
923.876	9230
923.984	9405
924.092	9321
924.201	9313
924.309	9302
924.417	9405
924.525	9260
924.633	9233
924.741	10013
924.849	9058
924.956	9268
925.064	9138
925.172	9066
925.279	9036
925.387	9180
925.494	9138
925.602	9249
925.709	9150
925.816	9062
925.924	9043
926.031	9275
926.138	9074
926.245	9150
926.352	8990
926.459	9237
926.566	9195
926.673	9066
926.779	8956
926.886	8979
926.993	8838
927.099	8811
927.206	8804
927.312	8796
927.419	8823
927.525	8849
927.631	8883
927.737	8754
927.843	8724
927.95	8579
928.056	8735
928.162	8716
928.267	8834
928.373	9420
928.479	8769
928.585	8598
928.69	8648
928.796	8792
928.901	8610
929.007	8518
929.112	8693
929.218	8670
929.323	8545
929.428	8457
929.533	8590
929.638	8507
929.743	8545
929.848	8602
929.953	8461
930.058	8423
930.163	8324
930.267	8248
930.372	8457
930.477	8320
930.581	8514
930.685	8385
930.79	8214
930.894	8298
930.998	8191
931.103	8404
931.207	8069
931.311	8016
931.415	7940
931.519	7757
931.623	7814
