Data from test_V78500241_3523.txt Node
Date: Fri Mar 25 14:58:14 CST 2022
User: usil
Spectrometer: V785-0024
Trigger mode: 0
Integration Time (sec): 4.000000E-1
Scans to average: 1
Nonlinearity correction enabled: false
Boxcar width: 0
Storing dark spectrum: false
XAxis mode: Wavelengths
Number of Pixels in Spectrum: 1024
>>>>>Begin Spectral Data<<<<<
801.071	21873
801.214	21854
801.356	21526
801.499	21447
801.641	21211
801.783	21279
801.926	21355
802.068	21165
802.211	21085
802.353	20960
802.496	20880
802.638	20716
802.78	20632
802.923	20701
803.065	20499
803.208	20575
803.35	20625
803.492	20678
803.635	20659
803.777	20609
803.919	20636
804.061	20975
804.204	20579
804.346	20568
804.488	20499
804.63	20564
804.773	20400
804.915	20434
805.057	20518
805.199	20438
805.341	20564
805.483	20579
805.626	20575
805.768	20412
805.91	20442
806.052	20549
806.194	20465
806.336	20724
806.478	20446
806.62	20434
806.762	20503
806.904	20708
807.046	20956
807.188	20830
807.33	20845
807.472	20765
807.614	20743
807.756	20693
807.898	20587
808.04	20492
808.182	20560
808.324	20594
808.465	20564
808.607	20788
808.749	20925
808.891	20895
809.033	20902
809.174	20872
809.316	20845
809.458	20735
809.6	20785
809.741	20864
809.883	20830
810.025	20941
810.166	20967
810.308	20887
810.45	20979
810.591	20895
810.733	20689
810.875	20686
811.016	20530
811.158	20431
811.299	20670
811.441	20773
811.582	20735
811.724	20499
811.865	20629
812.007	20708
812.148	20556
812.29	20644
812.431	20746
812.573	20975
812.714	20933
812.855	21169
812.997	21176
813.138	21298
813.279	21313
813.421	21112
813.562	20914
813.703	20872
813.845	20807
813.986	20438
814.127	20305
814.268	20168
814.41	20183
814.551	20084
814.692	20180
814.833	20012
814.974	20180
815.115	20081
815.256	19993
815.397	20081
815.539	19955
815.68	19902
815.821	19883
815.962	19875
816.103	19769
816.244	19750
816.385	19628
816.526	19521
816.666	19331
816.807	19270
816.948	19422
817.089	19396
817.23	19244
817.371	19247
817.512	19331
817.653	19190
817.793	19145
817.934	19327
818.075	19263
818.216	19392
818.356	19255
818.497	19145
818.638	18886
818.778	18947
818.919	18962
819.06	18981
819.2	19114
819.341	19247
819.481	19171
819.622	19301
819.762	19502
819.903	19301
820.043	19354
820.184	19259
820.324	19274
820.465	19289
820.605	19240
820.746	19247
820.886	19118
821.026	19236
821.167	19251
821.307	19217
821.447	19114
821.588	19053
821.728	18993
821.868	18806
822.008	18692
822.149	18703
822.289	18646
822.429	18422
822.569	18357
822.709	18353
822.849	18178
822.99	18125
823.13	18232
823.27	18190
823.41	18007
823.55	17897
823.69	17977
823.83	18034
823.97	17878
824.11	17676
824.25	17665
824.389	17691
824.529	17828
824.669	17798
824.809	17802
824.949	17817
825.089	17878
825.228	17756
825.368	17608
825.508	17429
825.648	17630
825.787	17573
825.927	17570
826.067	17463
826.206	17398
826.346	17608
826.485	17524
826.625	17440
826.765	17619
826.904	17581
827.044	17292
827.183	17341
827.323	17231
827.462	17216
827.601	17174
827.741	17223
827.88	17254
828.02	17208
828.159	17147
828.298	17265
828.437	17246
828.577	17261
828.716	17356
828.855	17170
828.994	17022
829.134	16980
829.273	16919
829.412	16873
829.551	16908
829.69	16919
829.829	17056
829.968	17045
830.107	17025
830.246	16972
830.385	16847
830.524	16839
830.663	16854
830.802	16759
830.941	16653
831.08	16527
831.219	16698
831.357	16626
831.496	16767
831.635	16580
831.774	16603
831.913	16436
832.051	16493
832.19	16413
832.329	16363
832.467	16337
832.606	16379
832.744	16242
832.883	16207
833.022	16223
833.16	16390
833.299	16382
833.437	16459
833.576	16333
833.714	16428
833.852	16375
833.991	16436
834.129	16405
834.267	16394
834.406	16284
834.544	16447
834.682	16295
834.821	16386
834.959	16489
835.097	16310
835.235	16493
835.373	16398
835.511	16455
835.65	16265
835.788	16379
835.926	16116
836.064	16097
836.202	16093
836.34	16295
836.478	16299
836.615	16261
836.753	16322
836.891	16405
837.029	16337
837.167	16295
837.305	16299
837.443	16185
837.58	16188
837.718	16318
837.856	16192
837.993	16112
838.131	16166
838.269	16158
838.406	16196
838.544	15975
838.681	15816
838.819	15907
838.956	15854
839.094	15732
839.231	15789
839.369	15861
839.506	16116
839.643	15915
839.781	15736
839.918	15713
840.055	15762
840.193	15751
840.33	15629
840.467	15671
840.604	15747
840.742	15934
840.879	15641
841.016	15599
841.153	15656
841.29	15869
841.427	15819
841.564	15789
841.701	15804
841.838	15568
841.975	15705
842.112	15591
842.249	15580
842.385	15416
842.522	15694
842.659	15603
842.796	15545
842.933	15477
843.069	15466
843.206	15496
843.343	15584
843.479	15473
843.616	15454
843.752	15294
843.889	15207
844.025	15481
844.162	15279
844.298	15401
844.435	15256
844.571	15294
844.708	15351
844.844	15462
844.98	15405
845.117	15412
845.253	15260
845.389	15116
845.525	15195
845.661	15184
845.798	15093
845.934	15131
846.07	15036
846.206	15066
846.342	15157
846.478	15112
846.614	14933
846.75	14826
846.886	14845
847.022	14990
847.158	14868
847.294	14849
847.429	14921
847.565	14796
847.701	15077
847.837	14610
847.972	14602
848.108	14678
848.244	14579
848.379	14533
848.515	14454
848.65	14404
848.786	14503
848.921	14484
849.057	14590
849.192	14549
849.328	14454
849.463	14492
849.598	14427
849.734	14267
849.869	14396
850.004	14256
850.14	14377
850.275	14202
850.41	14172
850.545	14176
850.68	14240
850.815	14252
850.95	14180
851.085	14362
851.22	14237
851.355	14248
851.49	14180
851.625	14172
851.76	14195
851.895	14123
852.03	14062
852.165	14240
852.299	14202
852.434	14278
852.569	14290
852.703	14332
852.838	14267
852.973	14404
853.107	14305
853.242	14115
853.376	14088
853.511	14001
853.645	14157
853.78	14126
853.914	14149
854.048	14134
854.183	14100
854.317	14176
854.451	14275
854.585	14119
854.72	14065
854.854	14134
854.988	14088
855.122	14126
855.256	14005
855.39	14176
855.524	14149
855.658	14123
855.792	14138
855.926	14126
856.06	14221
856.194	14290
856.327	14107
856.461	14024
856.595	14016
856.729	14062
856.862	14157
856.996	14107
857.13	14214
857.263	14271
857.397	14199
857.53	14100
857.664	14126
857.797	14206
857.931	14256
858.064	14214
858.197	14214
858.331	14024
858.464	13993
858.597	13959
858.731	14088
858.864	14126
858.997	14001
859.13	14024
859.263	14145
859.396	14176
859.529	14126
859.662	14119
859.795	14065
859.928	14130
860.061	14278
860.194	14328
860.327	14126
860.46	14088
860.592	14206
860.725	14237
860.858	14153
860.99	14123
861.123	14096
861.256	14119
861.388	14088
861.521	14880
861.653	13921
861.786	13906
861.918	13928
862.05	14001
862.183	14050
862.315	14119
862.447	14248
862.58	13936
862.712	13898
862.844	13864
862.976	14062
863.108	13898
863.24	14259
863.372	13799
863.504	13890
863.636	13894
863.768	13963
863.9	13898
864.032	13871
864.164	13860
864.296	13955
864.428	13997
864.559	14008
864.691	13940
864.823	13944
864.954	13993
865.086	13967
865.217	13894
865.349	13963
865.48	13841
865.612	13955
865.743	13909
865.875	13951
866.006	13837
866.137	13928
866.269	13860
866.4	13982
866.531	13860
866.662	13852
866.793	13928
866.924	13902
867.055	13917
867.186	13921
867.317	13902
867.448	13750
867.579	13856
867.71	13849
867.841	13811
867.972	13906
868.103	13902
868.233	13951
868.364	13955
868.495	14012
868.625	14191
868.756	14252
868.886	14100
869.017	14172
869.147	14347
869.278	14313
869.408	14214
869.539	14259
869.669	14324
869.799	14229
869.929	14263
870.06	14240
870.19	14480
870.32	14541
870.45	14526
870.58	14583
870.71	14644
870.84	14674
870.97	14587
871.1	14587
871.23	14712
871.36	14781
871.489	14823
871.619	14708
871.749	14826
871.879	14819
872.008	14857
872.138	14727
872.267	14743
872.397	14613
872.526	14621
872.656	14594
872.785	14579
872.915	14796
873.044	14887
873.173	14804
873.303	14819
873.432	14880
873.561	14834
873.69	14807
873.819	14861
873.948	14990
874.077	14880
874.206	14785
874.335	14887
874.464	15028
874.593	15165
874.722	15100
874.851	15127
874.979	15169
875.108	15119
875.237	15085
875.365	15028
875.494	15135
875.623	15214
875.751	15013
875.88	15211
876.008	15264
876.136	15370
876.265	15469
876.393	15667
876.521	15526
876.65	15762
876.778	15572
876.906	15568
877.034	15469
877.162	15481
877.29	15526
877.418	15553
877.546	15530
877.674	15526
877.802	15530
877.93	15587
878.058	15557
878.185	15420
878.313	15564
878.441	15591
878.568	15473
878.696	15526
878.824	15698
878.951	15652
879.079	15724
879.206	15998
879.333	15789
879.461	15572
879.588	15694
879.715	15819
879.842	15812
879.97	15660
880.097	15481
880.224	15401
880.351	15454
880.478	15424
880.605	15485
880.732	15462
880.859	15633
880.986	15424
881.112	15477
881.239	15443
881.366	15131
881.493	15272
881.619	15032
881.746	15055
881.872	15093
881.999	15058
882.125	15055
882.252	15173
882.378	15199
882.505	15195
882.631	14990
882.757	14944
882.883	14937
883.01	14864
883.136	14834
883.262	14762
883.388	14727
883.514	14876
883.64	14937
883.766	14918
883.892	14785
884.018	14750
884.143	14815
884.269	14956
884.395	14651
884.52	14613
884.646	14571
884.772	14499
884.897	14537
885.023	14678
885.148	14640
885.274	14720
885.399	14686
885.524	14590
885.65	14610
885.775	14663
885.9	14564
886.025	14655
886.15	14617
886.275	14507
886.4	14590
886.525	14606
886.65	14473
886.775	14507
886.9	14686
887.025	14872
887.149	14533
887.274	14423
887.399	14396
887.523	14389
887.648	14412
887.773	14320
887.897	14617
888.021	14537
888.146	14381
888.27	14575
888.395	14575
888.519	14583
888.643	14446
888.767	14434
888.891	14438
889.015	14324
889.139	14381
889.263	14191
889.387	14362
889.511	14568
889.635	14374
889.759	14317
889.883	14252
890.006	14393
890.13	14328
890.254	14180
890.377	14301
890.501	13997
890.624	14062
890.748	14138
890.871	13970
890.995	13940
891.118	13864
891.241	13986
891.364	13997
891.488	14088
891.611	13993
891.734	14035
891.857	14126
891.98	14062
892.103	14126
892.226	14039
892.349	14008
892.471	13917
892.594	13913
892.717	13997
892.839	13917
892.962	14077
893.085	14077
893.207	14039
893.33	13894
893.452	13936
893.575	14027
893.697	14050
893.819	14210
893.941	14259
894.064	14161
894.186	14035
894.308	13845
894.43	14119
894.552	14111
894.674	14199
894.796	13928
894.918	13955
895.04	14035
895.161	14199
895.283	14027
895.405	14130
895.526	14062
895.648	14008
895.769	14214
895.891	14157
896.012	14244
896.134	14187
896.255	14206
896.376	14043
896.498	14195
896.619	14282
896.74	14206
896.861	14191
896.982	14495
897.103	14678
897.224	14571
897.345	14412
897.466	14336
897.587	14438
897.708	14526
897.828	14434
897.949	14389
898.07	14309
898.19	14343
898.311	14648
898.431	14454
898.552	14476
898.672	14613
898.792	14590
898.913	14518
899.033	14434
899.153	14301
899.273	14214
899.393	14374
899.513	14423
899.633	14362
899.753	14366
899.873	14278
899.993	14328
900.113	14339
900.232	14438
900.352	14358
900.472	14229
900.591	14168
900.711	14290
900.83	14172
900.95	14355
901.069	14389
901.189	14115
901.308	13936
901.427	13909
901.546	13830
901.665	13947
901.784	13875
901.904	13700
902.023	13757
902.141	13540
902.26	13457
902.379	13605
902.498	13411
902.617	13468
902.735	13521
902.854	13460
902.973	13365
903.091	13187
903.21	13217
903.328	13225
903.446	13156
903.565	13069
903.683	13050
903.801	12954
903.919	13004
904.038	13057
904.156	12814
904.274	12897
904.392	12859
904.51	12776
904.627	12802
904.745	12954
904.863	12878
904.981	12662
905.098	12578
905.216	12506
905.334	12544
905.451	12570
905.569	12547
905.686	12650
905.803	12566
905.921	12395
906.038	12464
906.155	12418
906.272	12334
906.389	12308
906.506	12239
906.623	12155
906.74	12079
906.857	12026
906.974	12076
907.091	12224
907.208	12308
907.324	12224
907.441	12011
907.557	11939
907.674	11859
907.79	11828
907.907	11821
908.023	11942
908.139	11843
908.256	11775
908.372	11847
908.488	11783
908.604	11668
908.72	11646
908.836	11668
908.952	11718
909.068	11710
909.184	11756
909.3	11649
909.415	11703
909.531	11657
909.647	11493
909.762	11444
909.878	11436
909.993	11444
910.108	11436
910.224	11383
910.339	11471
910.454	11326
910.57	11307
910.685	11250
910.8	11482
910.915	11425
911.03	11353
911.145	11166
911.259	11132
911.374	11193
911.489	11090
911.604	11014
911.718	10957
911.833	10930
911.947	10812
912.062	10736
912.176	10896
912.291	10892
912.405	10923
912.519	11132
912.633	11124
912.748	10930
912.862	10976
912.976	10755
913.09	10675
913.204	10759
913.318	10835
913.431	10938
913.545	10877
913.659	10850
913.772	10797
913.886	10740
914	10694
914.113	10752
914.226	10755
914.34	10641
914.453	10577
914.566	10767
914.68	10538
914.793	10584
914.906	10440
915.019	10413
915.132	10402
915.245	10440
915.358	10428
915.47	10485
915.583	10390
915.696	10462
915.809	10485
915.921	10519
916.034	10462
916.146	10398
916.259	10348
916.371	10440
916.483	10417
916.595	10382
916.708	10341
916.82	10303
916.932	10405
917.044	10287
917.156	10295
917.268	10112
917.38	10257
917.491	10227
917.603	10207
917.715	10409
917.826	10348
917.938	10329
918.049	10078
918.161	10223
918.272	10428
918.384	10402
918.495	10382
918.606	10154
918.717	10048
918.828	10196
918.939	10128
919.05	10071
919.161	10071
919.272	9911
919.383	9983
919.494	10166
919.604	10360
919.715	10131
919.826	10025
919.936	10139
920.047	10166
920.157	10185
920.267	10314
920.378	10147
920.488	10143
920.598	10337
920.708	10466
920.818	10306
920.928	10344
921.038	10497
921.148	10436
921.258	10234
921.368	10082
921.477	10017
921.587	10036
921.697	9903
921.806	10006
921.916	9907
922.025	9705
922.134	9682
922.244	9648
922.353	9724
922.462	9580
922.571	9504
922.68	9386
922.789	9386
922.898	9416
923.007	9329
923.116	9363
923.224	9348
923.333	9469
923.442	9336
923.55	9329
923.659	9302
923.767	9298
923.876	9233
923.984	9370
924.092	9199
924.201	9283
924.309	9245
924.417	9351
924.525	9275
924.633	9268
924.741	10036
924.849	9039
924.956	9233
925.064	9058
925.172	9036
925.279	9066
925.387	9104
925.494	8994
925.602	9272
925.709	9066
925.816	9009
925.924	9009
926.031	9161
926.138	9100
926.245	9093
926.352	8986
926.459	9116
926.566	9112
926.673	9013
926.779	8956
926.886	8872
926.993	8849
927.099	8842
927.206	8777
927.312	8746
927.419	8792
927.525	8769
927.631	8800
927.737	8689
927.843	8636
927.95	8511
928.056	8670
928.162	8670
928.267	8739
928.373	9329
928.479	8705
928.585	8526
928.69	8667
928.796	8712
928.901	8636
929.007	8530
929.112	8564
929.218	8530
929.323	8469
929.428	8499
929.533	8644
929.638	8469
929.743	8469
929.848	8571
929.953	8499
930.058	8404
930.163	8168
930.267	8275
930.372	8370
930.477	8233
930.581	8568
930.685	8298
930.79	8187
930.894	8267
930.998	8244
931.103	8324
931.207	8012
931.311	7947
931.415	7909
931.519	7723
931.623	7750
