Data from test_V78500241_3348.txt Node
Date: Fri Mar 25 14:57:01 CST 2022
User: usil
Spectrometer: V785-0024
Trigger mode: 0
Integration Time (sec): 4.000000E-1
Scans to average: 1
Nonlinearity correction enabled: false
Boxcar width: 0
Storing dark spectrum: false
XAxis mode: Wavelengths
Number of Pixels in Spectrum: 1024
>>>>>Begin Spectral Data<<<<<
801.071	21937
801.214	21861
801.356	21698
801.499	21542
801.641	21378
801.783	21351
801.926	21321
802.068	21310
802.211	21161
802.353	21055
802.496	20960
802.638	20823
802.78	20857
802.923	20754
803.065	20541
803.208	20552
803.35	20765
803.492	20724
803.635	20914
803.777	20545
803.919	20849
804.061	20944
804.204	20792
804.346	20526
804.488	20446
804.63	20697
804.773	20545
804.915	20587
805.057	20648
805.199	20507
805.341	20545
805.483	20785
805.626	20625
805.768	20507
805.91	20514
806.052	20568
806.194	20396
806.336	20568
806.478	20488
806.62	20488
806.762	20549
806.904	20655
807.046	20971
807.188	20880
807.33	20834
807.472	21005
807.614	20716
807.756	20640
807.898	20670
808.04	20552
808.182	20617
808.324	20606
808.465	20640
808.607	20804
808.749	21036
808.891	20975
809.033	20986
809.174	20921
809.316	20819
809.458	20979
809.6	20861
809.741	20925
809.883	20963
810.025	21089
810.166	21036
810.308	21051
810.45	20971
810.591	20845
810.733	20845
810.875	20823
811.016	20545
811.158	20488
811.299	20583
811.441	20819
811.582	20724
811.724	20602
811.865	20663
812.007	20598
812.148	20655
812.29	20670
812.431	20883
812.573	20883
812.714	21165
812.855	21180
812.997	21233
813.138	21367
813.279	21207
813.421	21058
813.562	21096
813.703	20941
813.845	20845
813.986	20530
814.127	20469
814.268	20309
814.41	20176
814.551	20229
814.692	20278
814.833	20122
814.974	20168
815.115	20161
815.256	20035
815.397	19963
815.539	20016
815.68	19906
815.821	19814
815.962	19932
816.103	19928
816.244	19769
816.385	19681
816.526	19769
816.666	19472
816.807	19331
816.948	19392
817.089	19392
817.23	19289
817.371	19217
817.512	19285
817.653	19339
817.793	19304
817.934	19354
818.075	19282
818.216	19354
818.356	19236
818.497	19118
818.638	18932
818.778	18924
818.919	19023
819.06	19187
819.2	19152
819.341	19278
819.481	19213
819.622	19358
819.762	19575
819.903	19537
820.043	19358
820.184	19384
820.324	19350
820.465	19369
820.605	19301
820.746	19247
820.886	19084
821.026	19301
821.167	19251
821.307	19445
821.447	19240
821.588	19107
821.728	19008
821.868	18890
822.008	18856
822.149	18681
822.289	18730
822.429	18460
822.569	18521
822.709	18399
822.849	18243
822.99	18114
823.13	18262
823.27	18167
823.41	18022
823.55	18091
823.69	17965
823.83	17988
823.97	18007
824.11	17805
824.25	17779
824.389	17699
824.529	17893
824.669	17851
824.809	17840
824.949	17878
825.089	17798
825.228	17908
825.368	17604
825.508	17600
825.648	17760
825.787	17707
825.927	17589
826.067	17471
826.206	17577
826.346	17573
826.485	17554
826.625	17589
826.765	17657
826.904	17653
827.044	17387
827.183	17269
827.323	17254
827.462	17433
827.601	17280
827.741	17174
827.88	17258
828.02	17090
828.159	17277
828.298	17296
828.437	17368
828.577	17140
828.716	17478
828.855	17242
828.994	17162
829.134	16999
829.273	17067
829.412	17003
829.551	16999
829.69	17022
829.829	17079
829.968	17105
830.107	17094
830.246	17143
830.385	17048
830.524	16957
830.663	16816
830.802	16694
830.941	16584
831.08	16573
831.219	16679
831.357	16656
831.496	16801
831.635	16660
831.774	16634
831.913	16550
832.051	16413
832.19	16379
832.329	16470
832.467	16379
832.606	16295
832.744	16284
832.883	16337
833.022	16246
833.16	16303
833.299	16394
833.437	16451
833.576	16409
833.714	16508
833.852	16409
833.991	16497
834.129	16500
834.267	16485
834.406	16451
834.544	16386
834.682	16386
834.821	16382
834.959	16596
835.097	16394
835.235	16440
835.373	16474
835.511	16394
835.65	16306
835.788	16291
835.926	16128
836.064	16040
836.202	16048
836.34	16413
836.478	16470
836.615	16325
836.753	16390
836.891	16413
837.029	16325
837.167	16390
837.305	16207
837.443	16246
837.58	16223
837.718	16360
837.856	16242
837.993	16166
838.131	16173
838.269	16063
838.406	16162
838.544	16048
838.681	16006
838.819	15983
838.956	15701
839.094	15728
839.231	15835
839.369	15873
839.506	16124
839.643	15991
839.781	15774
839.918	15781
840.055	15800
840.193	15717
840.33	15846
840.467	15686
840.604	15724
840.742	16067
840.879	15675
841.016	15625
841.153	15679
841.29	15934
841.427	15850
841.564	15682
841.701	15717
841.838	15778
841.975	15648
842.112	15660
842.249	15557
842.385	15553
842.522	15698
842.659	15595
842.796	15519
842.933	15561
843.069	15500
843.206	15477
843.343	15568
843.479	15633
843.616	15500
843.752	15420
843.889	15283
844.025	15519
844.162	15252
844.298	15530
844.435	15351
844.571	15313
844.708	15336
844.844	15428
844.98	15454
845.117	15431
845.253	15344
845.389	15161
845.525	15203
845.661	15283
845.798	15146
845.934	15199
846.07	15116
846.206	15203
846.342	15298
846.478	15074
846.614	14971
846.75	14826
846.886	14807
847.022	14971
847.158	14891
847.294	14921
847.429	15074
847.565	14807
847.701	15051
847.837	14746
847.972	14594
848.108	14815
848.244	14807
848.379	14632
848.515	14571
848.65	14499
848.786	14514
848.921	14495
849.057	14613
849.192	14579
849.328	14556
849.463	14640
849.598	14434
849.734	14313
849.869	14358
850.004	14202
850.14	14347
850.275	14347
850.41	14313
850.545	14278
850.68	14259
850.815	14263
850.95	14275
851.085	14339
851.22	14358
851.355	14275
851.49	14199
851.625	14252
851.76	14278
851.895	14183
852.03	14172
852.165	14256
852.299	14237
852.434	14313
852.569	14298
852.703	14275
852.838	14317
852.973	14400
853.107	14457
853.242	14256
853.376	14164
853.511	14065
853.645	14138
853.78	14221
853.914	14138
854.048	14187
854.183	14183
854.317	14111
854.451	14336
854.585	14096
854.72	14172
854.854	14229
854.988	14069
855.122	14073
855.256	14081
855.39	14164
855.524	14206
855.658	14248
855.792	14248
855.926	14233
856.06	14202
856.194	14237
856.327	14145
856.461	14043
856.595	14012
856.729	14214
856.862	14244
856.996	14142
857.13	14142
857.263	14286
857.397	14294
857.53	14142
857.664	14267
857.797	14237
857.931	14221
858.064	14157
858.197	14225
858.331	14176
858.464	14221
858.597	13906
858.731	14168
858.864	14153
858.997	14138
859.13	14164
859.263	14142
859.396	14309
859.529	14233
859.662	14172
859.795	14100
859.928	14119
860.061	14275
860.194	14278
860.327	14183
860.46	14115
860.592	14195
860.725	14248
860.858	14305
860.99	14180
861.123	14123
861.256	14024
861.388	14100
861.521	14868
861.653	14065
861.786	13967
861.918	13967
862.05	14050
862.183	14024
862.315	14062
862.447	14096
862.58	14077
862.712	13974
862.844	13837
862.976	14031
863.108	13970
863.24	14278
863.372	13856
863.504	13902
863.636	13928
863.768	13940
863.9	13947
864.032	13868
864.164	13951
864.296	13890
864.428	14005
864.559	14039
864.691	13963
864.823	13993
864.954	13944
865.086	14043
865.217	13894
865.349	13898
865.48	13947
865.612	13928
865.743	14027
865.875	13890
866.006	13967
866.137	13959
866.269	13845
866.4	13928
866.531	13883
866.662	13845
866.793	13852
866.924	13788
867.055	13879
867.186	14001
867.317	13864
867.448	13811
867.579	13811
867.71	13807
867.841	13887
867.972	13970
868.103	13864
868.233	13989
868.364	13940
868.495	14054
868.625	14130
868.756	14202
868.886	14123
869.017	14046
869.147	14252
869.278	14339
869.408	14126
869.539	14088
869.669	14202
869.799	14195
869.929	14214
870.06	14259
870.19	14571
870.32	14427
870.45	14533
870.58	14549
870.71	14667
870.84	14708
870.97	14556
871.1	14575
871.23	14701
871.36	14861
871.489	14716
871.619	14785
871.749	14731
871.879	14705
872.008	14804
872.138	14853
872.267	14731
872.397	14636
872.526	14651
872.656	14606
872.785	14670
872.915	14826
873.044	14853
873.173	14697
873.303	14891
873.432	14876
873.561	15001
873.69	14777
873.819	14853
873.948	14948
874.077	14883
874.206	14731
874.335	14906
874.464	14986
874.593	15123
874.722	15070
874.851	15135
874.979	15150
875.108	15176
875.237	15131
875.365	15043
875.494	15074
875.623	15275
875.751	15157
875.88	15256
876.008	15214
876.136	15389
876.265	15568
876.393	15641
876.521	15603
876.65	15618
876.778	15641
876.906	15496
877.034	15466
877.162	15526
877.29	15534
877.418	15580
877.546	15523
877.674	15519
877.802	15564
877.93	15557
878.058	15488
878.185	15439
878.313	15625
878.441	15538
878.568	15412
878.696	15591
878.824	15648
878.951	15591
879.079	15736
879.206	15835
879.333	15842
879.461	15629
879.588	15656
879.715	15732
879.842	15823
879.97	15679
880.097	15351
880.224	15416
880.351	15412
880.478	15397
880.605	15401
880.732	15458
880.859	15705
880.986	15412
881.112	15504
881.239	15386
881.366	15226
881.493	15161
881.619	15047
881.746	15032
881.872	14986
881.999	15032
882.125	15013
882.252	15108
882.378	15077
882.505	15180
882.631	14975
882.757	14933
882.883	14952
883.01	14887
883.136	14887
883.262	14731
883.388	14701
883.514	14902
883.64	14845
883.766	14880
883.892	14701
884.018	14674
884.143	14823
884.269	14902
884.395	14617
884.52	14457
884.646	14602
884.772	14541
884.897	14549
885.023	14590
885.148	14804
885.274	14792
885.399	14686
885.524	14598
885.65	14556
885.775	14613
885.9	14629
886.025	14659
886.15	14632
886.275	14545
886.4	14442
886.525	14526
886.65	14526
886.775	14454
886.9	14788
887.025	14872
887.149	14568
887.274	14415
887.399	14389
887.523	14233
887.648	14313
887.773	14244
887.897	14438
888.021	14545
888.146	14324
888.27	14507
888.395	14571
888.519	14446
888.643	14454
888.767	14389
888.891	14294
889.015	14202
889.139	14298
889.263	14244
889.387	14351
889.511	14465
889.635	14427
889.759	14301
889.883	14256
890.006	14351
890.13	14400
890.254	14240
890.377	14149
890.501	14065
890.624	14065
890.748	14130
890.871	13986
890.995	13928
891.118	13845
891.241	14062
891.364	13978
891.488	14115
891.611	14008
891.734	13970
891.857	14126
891.98	13978
892.103	14065
892.226	13963
892.349	13925
892.471	13913
892.594	13986
892.717	13997
892.839	13951
892.962	14005
893.085	13997
893.207	13986
893.33	13845
893.452	13894
893.575	14020
893.697	13944
893.819	14172
893.941	14183
894.064	14195
894.186	13970
894.308	13951
894.43	14157
894.552	14244
894.674	14168
894.796	14001
894.918	14005
895.04	14054
895.161	14123
895.283	14069
895.405	13982
895.526	14050
895.648	14069
895.769	14119
895.891	14058
896.012	14221
896.134	14065
896.255	14107
896.376	14176
896.498	14218
896.619	14202
896.74	14145
896.861	14210
896.982	14526
897.103	14686
897.224	14377
897.345	14434
897.466	14275
897.587	14526
897.708	14549
897.828	14495
897.949	14412
898.07	14248
898.19	14400
898.311	14552
898.431	14476
898.552	14480
898.672	14560
898.792	14632
898.913	14541
899.033	14484
899.153	14389
899.273	14252
899.393	14294
899.513	14385
899.633	14278
899.753	14446
899.873	14324
899.993	14377
900.113	14229
900.232	14434
900.352	14328
900.472	14313
900.591	14176
900.711	14377
900.83	14191
900.95	14370
901.069	14317
901.189	14161
901.308	13925
901.427	13871
901.546	13868
901.665	13890
901.784	13974
901.904	13845
902.023	13845
902.141	13559
902.26	13438
902.379	13537
902.498	13502
902.617	13426
902.735	13529
902.854	13358
902.973	13381
903.091	13217
903.21	13187
903.328	13228
903.446	13164
903.565	13019
903.683	13072
903.801	12962
903.919	13080
904.038	13084
904.156	12920
904.274	12901
904.392	12863
904.51	12810
904.627	12833
904.745	12924
904.863	12821
904.981	12696
905.098	12532
905.216	12486
905.334	12597
905.451	12631
905.569	12475
905.686	12566
905.803	12517
905.921	12414
906.038	12547
906.155	12475
906.272	12304
906.389	12369
906.506	12144
906.623	12133
906.74	12194
906.857	12022
906.974	12041
907.091	12117
907.208	12342
907.324	12152
907.441	12057
907.557	11931
907.674	11904
907.79	11821
907.907	11832
908.023	11893
908.139	11889
908.256	11874
908.372	11863
908.488	11855
908.604	11699
908.72	11634
908.836	11657
908.952	11562
909.068	11668
909.184	11794
909.3	11668
909.415	11726
909.531	11676
909.647	11501
909.762	11478
909.878	11391
909.993	11471
910.108	11478
910.224	11372
910.339	11414
910.454	11292
910.57	11223
910.685	11204
910.8	11592
910.915	11493
911.03	11307
911.145	11189
911.259	11064
911.374	11079
911.489	11105
911.604	10938
911.718	10850
911.833	10953
911.947	10904
912.062	10698
912.176	10885
912.291	10869
912.405	10862
912.519	11060
912.633	11033
912.748	11018
912.862	10942
912.976	10793
913.09	10660
913.204	10698
913.318	10782
913.431	10938
913.545	10927
913.659	10850
913.772	10774
913.886	10634
914	10611
914.113	10797
914.226	10767
914.34	10733
914.453	10580
914.566	10687
914.68	10508
914.793	10561
914.906	10371
915.019	10398
915.132	10379
915.245	10344
915.358	10409
915.47	10421
915.583	10470
915.696	10382
915.809	10546
915.921	10607
916.034	10348
916.146	10325
916.259	10291
916.371	10462
916.483	10432
916.595	10284
916.708	10409
916.82	10333
916.932	10432
917.044	10363
917.156	10268
917.268	10234
917.38	10253
917.491	10211
917.603	10253
917.715	10322
917.826	10291
917.938	10188
918.049	10154
918.161	10261
918.272	10405
918.384	10367
918.495	10310
918.606	10112
918.717	10067
918.828	10139
918.939	10143
919.05	10051
919.161	10051
919.272	9888
919.383	9960
919.494	10158
919.604	10268
919.715	10177
919.826	10090
919.936	10082
920.047	10219
920.157	10181
920.267	10360
920.378	10230
920.488	10116
920.598	10318
920.708	10474
920.818	10333
920.928	10310
921.038	10481
921.148	10440
921.258	10158
921.368	10051
921.477	9964
921.587	9975
921.697	9892
921.806	10097
921.916	9880
922.025	9698
922.134	9694
922.244	9663
922.353	9686
922.462	9591
922.571	9492
922.68	9389
922.789	9416
922.898	9317
923.007	9310
923.116	9374
923.224	9424
923.333	9370
923.442	9298
923.55	9233
923.659	9256
923.767	9294
923.876	9207
923.984	9291
924.092	9207
924.201	9302
924.309	9230
924.417	9291
924.525	9192
924.633	9207
924.741	10154
924.849	9066
924.956	9211
925.064	9093
925.172	8880
925.279	9001
925.387	9100
925.494	8994
925.602	9169
925.709	9112
925.816	9001
925.924	9074
926.031	9165
926.138	9036
926.245	9055
926.352	8998
926.459	9116
926.566	9150
926.673	8929
926.779	8914
926.886	8891
926.993	8842
927.099	8766
927.206	8746
927.312	8655
927.419	8781
927.525	8815
927.631	8819
927.737	8705
927.843	8739
927.95	8499
928.056	8651
928.162	8587
928.267	8739
928.373	9283
928.479	8750
928.585	8511
928.69	8674
928.796	8701
928.901	8590
929.007	8431
929.112	8598
929.218	8518
929.323	8476
929.428	8438
929.533	8602
929.638	8396
929.743	8476
929.848	8575
929.953	8507
930.058	8393
930.163	8279
930.267	8248
930.372	8396
930.477	8282
930.581	8457
930.685	8317
930.79	8180
930.894	8237
930.998	8210
931.103	8415
931.207	8001
931.311	7936
931.415	7849
931.519	7727
931.623	7647
