Data from test_V78500241_2818.txt Node
Date: Fri Mar 25 14:53:20 CST 2022
User: usil
Spectrometer: V785-0024
Trigger mode: 0
Integration Time (sec): 4.000000E-1
Scans to average: 1
Nonlinearity correction enabled: false
Boxcar width: 0
Storing dark spectrum: false
XAxis mode: Wavelengths
Number of Pixels in Spectrum: 1024
>>>>>Begin Spectral Data<<<<<
801.071	22074
801.214	21884
801.356	21633
801.499	21595
801.641	21443
801.783	21408
801.926	21485
802.068	21386
802.211	21310
802.353	21203
802.496	20982
802.638	21032
802.78	20830
802.923	20853
803.065	20712
803.208	20693
803.35	20716
803.492	20902
803.635	20941
803.777	20788
803.919	20944
804.061	21142
804.204	20804
804.346	20667
804.488	20644
804.63	20716
804.773	20663
804.915	20682
805.057	20750
805.199	20583
805.341	20750
805.483	20731
805.626	20785
805.768	20648
805.91	20686
806.052	20708
806.194	20606
806.336	20693
806.478	20743
806.62	20602
806.762	20769
806.904	20838
807.046	21096
807.188	20979
807.33	20979
807.472	21146
807.614	20887
807.756	20914
807.898	20762
808.04	20648
808.182	20765
808.324	20792
808.465	20804
808.607	20937
808.749	21043
808.891	21058
809.033	21222
809.174	21199
809.316	21066
809.458	20880
809.6	20986
809.741	21127
809.883	21062
810.025	21268
810.166	21131
810.308	21180
810.45	21089
810.591	21039
810.733	20807
810.875	20781
811.016	20724
811.158	20609
811.299	20849
811.441	20880
811.582	20918
811.724	20849
811.865	20762
812.007	20697
812.148	20731
812.29	20880
812.431	20933
812.573	21176
812.714	21108
812.855	21325
812.997	21450
813.138	21507
813.279	21450
813.421	21332
813.562	21180
813.703	21131
813.845	20925
813.986	20708
814.127	20484
814.268	20377
814.41	20400
814.551	20362
814.692	20385
814.833	20309
814.974	20336
815.115	20305
815.256	20069
815.397	20161
815.539	20191
815.68	20096
815.821	19947
815.962	20122
816.103	20020
816.244	19913
816.385	19833
816.526	19849
816.666	19643
816.807	19457
816.948	19499
817.089	19616
817.23	19445
817.371	19441
817.512	19483
817.653	19529
817.793	19457
817.934	19468
818.075	19578
818.216	19487
818.356	19464
818.497	19251
818.638	19164
818.778	19129
818.919	19152
819.06	19160
819.2	19278
819.341	19293
819.481	19316
819.622	19506
819.762	19651
819.903	19624
820.043	19537
820.184	19441
820.324	19468
820.465	19499
820.605	19362
820.746	19373
820.886	19270
821.026	19384
821.167	19449
821.307	19472
821.447	19255
821.588	19247
821.728	19114
821.868	19046
822.008	18935
822.149	18764
822.289	18825
822.429	18623
822.569	18661
822.709	18532
822.849	18350
822.99	18304
823.13	18380
823.27	18357
823.41	18205
823.55	18087
823.69	18171
823.83	18091
823.97	18019
824.11	17832
824.25	17912
824.389	17939
824.529	17893
824.669	17866
824.809	18022
824.949	18114
825.089	17958
825.228	17870
825.368	17699
825.508	17733
825.648	17665
825.787	17703
825.927	17824
826.067	17611
826.206	17600
826.346	17703
826.485	17695
826.625	17722
826.765	17805
826.904	17718
827.044	17558
827.183	17444
827.323	17341
827.462	17387
827.601	17307
827.741	17341
827.88	17402
828.02	17246
828.159	17326
828.298	17433
828.437	17448
828.577	17273
828.716	17539
828.855	17372
828.994	17075
829.134	17170
829.273	17174
829.412	17128
829.551	17045
829.69	17102
829.829	17170
829.968	17193
830.107	17212
830.246	17227
830.385	17018
830.524	17022
830.663	16911
830.802	16763
830.941	16793
831.08	16763
831.219	16862
831.357	16820
831.496	17006
831.635	16816
831.774	16592
831.913	16660
832.051	16573
832.19	16569
832.329	16580
832.467	16512
832.606	16455
832.744	16443
832.883	16398
833.022	16421
833.16	16432
833.299	16451
833.437	16402
833.576	16455
833.714	16584
833.852	16523
833.991	16493
834.129	16554
834.267	16459
834.406	16485
834.544	16546
834.682	16558
834.821	16516
834.959	16675
835.097	16561
835.235	16569
835.373	16481
835.511	16622
835.65	16253
835.788	16398
835.926	16265
836.064	16215
836.202	16314
836.34	16375
836.478	16546
836.615	16402
836.753	16466
836.891	16478
837.029	16428
837.167	16371
837.305	16310
837.443	16299
837.58	16367
837.718	16451
837.856	16242
837.993	16272
838.131	16295
838.269	16185
838.406	16249
838.544	16154
838.681	15941
838.819	15880
838.956	15720
839.094	15797
839.231	15842
839.369	15907
839.506	16223
839.643	16112
839.781	15785
839.918	15854
840.055	15949
840.193	15789
840.33	15785
840.467	15823
840.604	15854
840.742	16120
840.879	15755
841.016	15755
841.153	15732
841.29	15956
841.427	15857
841.564	15892
841.701	15850
841.838	15789
841.975	15694
842.112	15667
842.249	15679
842.385	15614
842.522	15728
842.659	15629
842.796	15576
842.933	15618
843.069	15625
843.206	15549
843.343	15663
843.479	15591
843.616	15698
843.752	15428
843.889	15291
844.025	15591
844.162	15329
844.298	15507
844.435	15370
844.571	15382
844.708	15485
844.844	15538
844.98	15534
845.117	15538
845.253	15389
845.389	15283
845.525	15272
845.661	15321
845.798	15112
845.934	15256
846.07	15161
846.206	15275
846.342	15397
846.478	15184
846.614	15039
846.75	14880
846.886	14944
847.022	15032
847.158	14941
847.294	15051
847.429	15043
847.565	14910
847.701	15169
847.837	14754
847.972	14686
848.108	14811
848.244	14792
848.379	14629
848.515	14625
848.65	14530
848.786	14606
848.921	14495
849.057	14663
849.192	14724
849.328	14617
849.463	14598
849.598	14522
849.734	14469
849.869	14423
850.004	14339
850.14	14290
850.275	14381
850.41	14313
850.545	14218
850.68	14244
850.815	14332
850.95	14290
851.085	14511
851.22	14389
851.355	14328
851.49	14301
851.625	14214
851.76	14298
851.895	14225
852.03	14271
852.165	14313
852.299	14351
852.434	14396
852.569	14404
852.703	14328
852.838	14370
852.973	14450
853.107	14526
853.242	14298
853.376	14313
853.511	14138
853.645	14134
853.78	14313
853.914	14142
854.048	14153
854.183	14096
854.317	14210
854.451	14328
854.585	14157
854.72	14191
854.854	14309
854.988	14134
855.122	14240
855.256	14096
855.39	14157
855.524	14210
855.658	14229
855.792	14221
855.926	14252
856.06	14161
856.194	14313
856.327	14180
856.461	14210
856.595	14153
856.729	14202
856.862	14263
856.996	14191
857.13	14298
857.263	14324
857.397	14225
857.53	14164
857.664	14305
857.797	14263
857.931	14370
858.064	14259
858.197	14294
858.331	14290
858.464	14214
858.597	13974
858.731	14210
858.864	14157
858.997	14130
859.13	14221
859.263	14202
859.396	14286
859.529	14126
859.662	14130
859.795	14164
859.928	14351
860.061	14313
860.194	14366
860.327	14259
860.46	14206
860.592	14301
860.725	14210
860.858	14381
860.99	14126
861.123	14225
861.256	14145
861.388	14111
861.521	14880
861.653	14187
861.786	14073
861.918	14024
862.05	14119
862.183	14157
862.315	14256
862.447	14225
862.58	14229
862.712	13970
862.844	13913
862.976	14088
863.108	14077
863.24	14488
863.372	13959
863.504	13993
863.636	13986
863.768	13993
863.9	14103
864.032	13860
864.164	13974
864.296	13947
864.428	14123
864.559	14096
864.691	14153
864.823	14039
864.954	14073
865.086	14065
865.217	13925
865.349	13967
865.48	13894
865.612	13921
865.743	14077
865.875	14012
866.006	13837
866.137	14016
866.269	13913
866.4	14035
866.531	14024
866.662	13868
866.793	13932
866.924	13944
867.055	13932
867.186	14020
867.317	13932
867.448	13940
867.579	13875
867.71	13913
867.841	13852
867.972	14081
868.103	14016
868.233	13955
868.364	13986
868.495	14073
868.625	14191
868.756	14298
868.886	14149
869.017	14195
869.147	14294
869.278	14309
869.408	14221
869.539	14142
869.669	14267
869.799	14305
869.929	14317
870.06	14229
870.19	14495
870.32	14549
870.45	14556
870.58	14621
870.71	14697
870.84	14788
870.97	14602
871.1	14667
871.23	14750
871.36	14800
871.489	14739
871.619	14731
871.749	14826
871.879	14910
872.008	14899
872.138	14792
872.267	14842
872.397	14670
872.526	14716
872.656	14644
872.785	14587
872.915	14769
873.044	14864
873.173	14864
873.303	14834
873.432	14921
873.561	15013
873.69	14838
873.819	14834
873.948	14948
874.077	14929
874.206	14918
874.335	14861
874.464	14979
874.593	15169
874.722	15104
874.851	15161
874.979	15252
875.108	15233
875.237	15100
875.365	15066
875.494	15169
875.623	15275
875.751	15169
875.88	15256
876.008	15298
876.136	15458
876.265	15564
876.393	15770
876.521	15759
876.65	15717
876.778	15599
876.906	15622
877.034	15656
877.162	15561
877.29	15595
877.418	15549
877.546	15523
877.674	15610
877.802	15553
877.93	15591
878.058	15660
878.185	15519
878.313	15614
878.441	15542
878.568	15424
878.696	15435
878.824	15576
878.951	15671
879.079	15823
879.206	15934
879.333	15759
879.461	15644
879.588	15694
879.715	15694
879.842	15903
879.97	15724
880.097	15458
880.224	15397
880.351	15523
880.478	15447
880.605	15454
880.732	15374
880.859	15675
880.986	15538
881.112	15439
881.239	15412
881.366	15222
881.493	15081
881.619	15077
881.746	15154
881.872	15169
881.999	15180
882.125	15097
882.252	15123
882.378	15154
882.505	15298
882.631	15043
882.757	14902
882.883	14880
883.01	14853
883.136	14982
883.262	14750
883.388	14746
883.514	14891
883.64	15017
883.766	14845
883.892	14735
884.018	14712
884.143	14914
884.269	14937
884.395	14716
884.52	14621
884.646	14629
884.772	14575
884.897	14579
885.023	14731
885.148	14640
885.274	14731
885.399	14678
885.524	14701
885.65	14670
885.775	14629
885.9	14610
886.025	14788
886.15	14773
886.275	14530
886.4	14476
886.525	14583
886.65	14522
886.775	14632
886.9	14762
887.025	14815
887.149	14644
887.274	14438
887.399	14446
887.523	14415
887.648	14393
887.773	14347
887.897	14507
888.021	14560
888.146	14511
888.27	14522
888.395	14655
888.519	14533
888.643	14476
888.767	14568
888.891	14355
889.015	14218
889.139	14248
889.263	14313
889.387	14446
889.511	14556
889.635	14469
889.759	14355
889.883	14313
890.006	14309
890.13	14419
890.254	14229
890.377	14267
890.501	14286
890.624	14119
890.748	14202
890.871	14054
890.995	13959
891.118	13974
891.241	13955
891.364	13974
891.488	14202
891.611	14008
891.734	13951
891.857	14142
891.98	14012
892.103	14103
892.226	14062
892.349	14024
892.471	13909
892.594	14008
892.717	14107
892.839	14050
892.962	14054
893.085	14046
893.207	14115
893.33	13906
893.452	13902
893.575	14069
893.697	13970
893.819	14271
893.941	14336
894.064	14233
894.186	13974
894.308	13982
894.43	14180
894.552	14252
894.674	14187
894.796	14012
894.918	14035
895.04	14005
895.161	14183
895.283	14077
895.405	14027
895.526	14145
895.648	14130
895.769	14164
895.891	14206
896.012	14218
896.134	14278
896.255	14142
896.376	14092
896.498	14256
896.619	14233
896.74	14237
896.861	14187
896.982	14594
897.103	14781
897.224	14514
897.345	14423
897.466	14450
897.587	14476
897.708	14644
897.828	14556
897.949	14438
898.07	14339
898.19	14473
898.311	14613
898.431	14473
898.552	14583
898.672	14511
898.792	14670
898.913	14518
899.033	14431
899.153	14446
899.273	14347
899.393	14328
899.513	14370
899.633	14412
899.753	14457
899.873	14343
899.993	14396
900.113	14427
900.232	14476
900.352	14419
900.472	14271
900.591	14176
900.711	14298
900.83	14210
900.95	14343
901.069	14400
901.189	14145
901.308	13963
901.427	13864
901.546	13959
901.665	13936
901.784	13963
901.904	13772
902.023	13803
902.141	13533
902.26	13533
902.379	13636
902.498	13495
902.617	13544
902.735	13571
902.854	13594
902.973	13491
903.091	13346
903.21	13247
903.328	13339
903.446	13175
903.565	13179
903.683	13015
903.801	13053
903.919	13095
904.038	13118
904.156	12894
904.274	12939
904.392	12928
904.51	12878
904.627	12954
904.745	13012
904.863	12985
904.981	12585
905.098	12677
905.216	12608
905.334	12593
905.451	12639
905.569	12532
905.686	12650
905.803	12669
905.921	12418
906.038	12578
906.155	12422
906.272	12323
906.389	12388
906.506	12273
906.623	12243
906.74	12144
906.857	12129
906.974	12049
907.091	12277
907.208	12304
907.324	12205
907.441	12178
907.557	11999
907.674	11923
907.79	11942
907.907	11885
908.023	11916
908.139	11969
908.256	11866
908.372	11912
908.488	11824
908.604	11729
908.72	11729
908.836	11691
908.952	11695
909.068	11688
909.184	11775
909.3	11672
909.415	11726
909.531	11707
909.647	11402
909.762	11440
909.878	11410
909.993	11436
910.108	11417
910.224	11467
910.339	11376
910.454	11345
910.57	11376
910.685	11246
910.8	11467
910.915	11497
911.03	11406
911.145	11178
911.259	11151
911.374	11151
911.489	11094
911.604	11010
911.718	11006
911.833	10965
911.947	10752
912.062	10778
912.176	10965
912.291	10968
912.405	10915
912.519	11124
912.633	11166
912.748	10984
912.862	10987
912.976	10805
913.09	10714
913.204	10736
913.318	10866
913.431	10942
913.545	10908
913.659	10965
913.772	10793
913.886	10790
914	10641
914.113	10736
914.226	10763
914.34	10706
914.453	10645
914.566	10786
914.68	10645
914.793	10653
914.906	10478
915.019	10360
915.132	10379
915.245	10405
915.358	10508
915.47	10508
915.583	10421
915.696	10550
915.809	10542
915.921	10656
916.034	10409
916.146	10409
916.259	10337
916.371	10424
916.483	10489
916.595	10352
916.708	10382
916.82	10405
916.932	10348
917.044	10337
917.156	10360
917.268	10223
917.38	10268
917.491	10249
917.603	10230
917.715	10379
917.826	10462
917.938	10265
918.049	10173
918.161	10257
918.272	10451
918.384	10424
918.495	10329
918.606	10162
918.717	10109
918.828	10177
918.939	10135
919.05	10029
919.161	10071
919.272	9922
919.383	10010
919.494	10204
919.604	10333
919.715	10257
919.826	10074
919.936	10147
920.047	10204
920.157	10173
920.267	10318
920.378	10169
920.488	10192
920.598	10382
920.708	10447
920.818	10367
920.928	10265
921.038	10493
921.148	10451
921.258	10246
921.368	10166
921.477	10051
921.587	10021
921.697	9918
921.806	10059
921.916	9842
922.025	9766
922.134	9793
922.244	9625
922.353	9755
922.462	9633
922.571	9603
922.68	9473
922.789	9405
922.898	9397
923.007	9389
923.116	9462
923.224	9466
923.333	9401
923.442	9268
923.55	9291
923.659	9340
923.767	9374
923.876	9367
923.984	9416
924.092	9291
924.201	9378
924.309	9382
924.417	9287
924.525	9207
924.633	9237
924.741	9975
924.849	9043
924.956	9226
925.064	9051
925.172	9070
925.279	8998
925.387	9127
925.494	9089
925.602	9214
925.709	9154
925.816	8971
925.924	9013
926.031	9169
926.138	9055
926.245	9051
926.352	9051
926.459	9138
926.566	9211
926.673	8998
926.779	8994
926.886	8941
926.993	8853
927.099	8788
927.206	8826
927.312	8739
927.419	8899
927.525	8777
927.631	8910
927.737	8758
927.843	8670
927.95	8590
928.056	8659
928.162	8708
928.267	8743
928.373	9226
928.479	8845
928.585	8579
928.69	8705
928.796	8758
928.901	8564
929.007	8492
929.112	8541
929.218	8610
929.323	8549
929.428	8533
929.533	8674
929.638	8450
929.743	8530
929.848	8556
929.953	8503
930.058	8465
930.163	8256
930.267	8290
930.372	8442
930.477	8244
930.581	8571
930.685	8419
930.79	8282
930.894	8324
930.998	8286
931.103	8366
931.207	8088
931.311	7974
931.415	7955
931.519	7723
931.623	7757
