Data from test_V78500241_660.txt Node
Date: Fri Mar 25 14:38:18 CST 2022
User: usil
Spectrometer: V785-0024
Trigger mode: 0
Integration Time (sec): 4.000000E-1
Scans to average: 1
Nonlinearity correction enabled: false
Boxcar width: 0
Storing dark spectrum: false
XAxis mode: Wavelengths
Number of Pixels in Spectrum: 1024
>>>>>Begin Spectral Data<<<<<
801.071	28116
801.214	28025
801.356	27637
801.499	27519
801.641	27378
801.783	27469
801.926	27561
802.068	27355
802.211	27275
802.353	27100
802.496	27112
802.638	27089
802.78	26986
802.923	26971
803.065	26925
803.208	26880
803.35	26864
803.492	27070
803.635	27184
803.777	27062
803.919	27055
804.061	27435
804.204	27233
804.346	27047
804.488	27195
804.63	27047
804.773	27028
804.915	27226
805.057	27458
805.199	27420
805.341	27724
805.483	27553
805.626	27641
805.768	27523
805.91	27907
806.052	27880
806.194	28010
806.336	28394
806.478	28440
806.62	28485
806.762	28820
806.904	29181
807.046	29665
807.188	30087
807.33	30376
807.472	30916
807.614	31601
807.756	32385
807.898	33401
808.04	34896
808.182	36654
808.324	39112
808.465	41897
808.607	45009
808.749	47611
808.891	49396
809.033	49445
809.174	47798
809.316	45397
809.458	41851
809.6	38735
809.741	36292
809.883	34280
810.025	33085
810.166	31761
810.308	31065
810.45	30642
810.591	30076
810.733	29608
810.875	29071
811.016	28927
811.158	28596
811.299	28713
811.441	28634
811.582	28394
811.724	28032
811.865	28135
812.007	28002
812.148	27945
812.29	27945
812.431	27880
812.573	28010
812.714	27991
812.855	28090
812.997	28093
813.138	28318
813.279	28036
813.421	28105
813.562	27797
813.703	27701
813.845	27507
813.986	27169
814.127	26967
814.268	26948
814.41	26849
814.551	26781
814.692	26883
814.833	26579
814.974	26609
815.115	26598
815.256	26358
815.397	26473
815.539	26450
815.68	26412
815.821	26259
815.962	26351
816.103	26278
816.244	25974
816.385	25974
816.526	26062
816.666	25624
816.807	25651
816.948	25700
817.089	25704
817.23	25639
817.371	25643
817.512	25518
817.653	25434
817.793	25472
817.934	25514
818.075	25502
818.216	25449
818.356	25403
818.497	25339
818.638	25228
818.778	25206
818.919	25156
819.06	25247
819.2	25457
819.341	25472
819.481	25331
819.622	25415
819.762	25708
819.903	25556
820.043	25453
820.184	25476
820.324	25533
820.465	25499
820.605	25213
820.746	25339
820.886	25148
821.026	25236
821.167	25240
821.307	25282
821.447	25179
821.588	25008
821.728	24867
821.868	24776
822.008	24616
822.149	24673
822.289	24566
822.429	24433
822.569	24270
822.709	24285
822.849	24182
822.99	24098
823.13	24034
823.27	23927
823.41	23855
823.55	23707
823.69	23809
823.83	23779
823.97	23710
824.11	23638
824.25	23627
824.389	23619
824.529	23707
824.669	23581
824.809	23703
824.949	23585
825.089	23642
825.228	23562
825.368	23406
825.508	23398
825.648	23315
825.787	23391
825.927	23463
826.067	23395
826.206	23414
826.346	23368
826.485	23345
826.625	23345
826.765	23493
826.904	23516
827.044	23094
827.183	23155
827.323	23075
827.462	23086
827.601	22999
827.741	23037
827.88	23014
828.02	22923
828.159	23018
828.298	23025
828.437	22938
828.577	22904
828.716	23136
828.855	22900
828.994	22580
829.134	22645
829.273	22672
829.412	22710
829.551	22462
829.69	22611
829.829	22713
829.968	22748
830.107	22763
830.246	22634
830.385	22603
830.524	22721
830.663	22432
830.802	22459
830.941	22291
831.08	22169
831.219	22382
831.357	22405
831.496	22523
831.635	22306
831.774	22188
831.913	22162
832.051	22173
832.19	22166
832.329	22230
832.467	22074
832.606	22029
832.744	22185
832.883	22128
833.022	22166
833.16	22219
833.299	22493
833.437	22607
833.576	22805
833.714	22877
833.852	22847
833.991	23071
834.129	23140
834.267	23178
834.406	23159
834.544	23048
834.682	23018
834.821	22831
834.959	22805
835.097	22516
835.235	22508
835.373	22344
835.511	22344
835.65	22169
835.788	22154
835.926	21953
836.064	21850
836.202	21739
836.34	21831
836.478	21854
836.615	21876
836.753	21865
836.891	21907
837.029	21812
837.167	21732
837.305	21743
837.443	21747
837.58	21633
837.718	21785
837.856	21717
837.993	21561
838.131	21568
838.269	21530
838.406	21549
838.544	21492
838.681	21313
838.819	21184
838.956	21028
839.094	21009
839.231	21047
839.369	21127
839.506	21412
839.643	21230
839.781	20982
839.918	21009
840.055	20921
840.193	20971
840.33	20956
840.467	20921
840.604	21081
840.742	21173
840.879	20811
841.016	20857
841.153	20967
841.29	21135
841.427	20910
841.564	21005
841.701	20933
841.838	20918
841.975	20785
842.112	20990
842.249	20849
842.385	20727
842.522	21028
842.659	20826
842.796	20902
842.933	20777
843.069	20796
843.206	20746
843.343	20902
843.479	20895
843.616	21085
843.752	20773
843.889	20655
844.025	20872
844.162	20899
844.298	21135
844.435	21188
844.571	21374
844.708	21644
844.844	22150
844.98	22341
845.117	22995
845.253	23882
845.389	25674
845.525	29029
845.661	34382
845.798	40729
845.934	45667
846.07	47433
846.206	46143
846.342	41722
846.478	35353
846.614	29718
846.75	26084
846.886	24026
847.022	22782
847.158	21934
847.294	21386
847.429	21096
847.565	20693
847.701	20838
847.837	20172
847.972	20107
848.108	20153
848.244	20149
848.379	19955
848.515	19906
848.65	19723
848.786	19814
848.921	19765
849.057	19852
849.192	19856
849.328	19723
849.463	19734
849.598	19609
849.734	19590
849.869	19563
850.004	19434
850.14	19392
850.275	19499
850.41	19278
850.545	19320
850.68	19297
850.815	19415
850.95	19316
851.085	19441
851.22	19335
851.355	19396
851.49	19400
851.625	19278
851.76	19282
851.895	19255
852.03	19312
852.165	19373
852.299	19400
852.434	19510
852.569	19388
852.703	19430
852.838	19480
852.973	19556
853.107	19525
853.242	19506
853.376	19346
853.511	19327
853.645	19396
853.78	19628
853.914	19571
854.048	19457
854.183	19453
854.317	19563
854.451	19753
854.585	19586
854.72	19544
854.854	19586
854.988	19381
855.122	19445
855.256	19251
855.39	19327
855.524	19369
855.658	19320
855.792	19251
855.926	19221
856.06	19343
856.194	19289
856.327	19209
856.461	19168
856.595	19156
856.729	19171
856.862	19278
856.996	19114
857.13	19198
857.263	19278
857.397	19206
857.53	19095
857.664	19232
857.797	19236
857.931	19308
858.064	19065
858.197	19164
858.331	19213
858.464	18970
858.597	18924
858.731	19091
858.864	19004
858.997	18951
859.13	18981
859.263	18993
859.396	19141
859.529	18966
859.662	19072
859.795	18909
859.928	19145
860.061	19247
860.194	19232
860.327	19053
860.46	18977
860.592	19175
860.725	19084
860.858	19061
860.99	18932
861.123	18989
861.256	18935
861.388	18840
861.521	19639
861.653	18856
861.786	18791
861.918	18848
862.05	18928
862.183	18840
862.315	19107
862.447	18905
862.58	18970
862.712	18749
862.844	18703
862.976	18776
863.108	18730
863.24	19091
863.372	18719
863.504	18669
863.636	18589
863.768	18738
863.9	18654
864.032	18585
864.164	18684
864.296	18536
864.428	18711
864.559	18722
864.691	18719
864.823	18764
864.954	18673
865.086	18730
865.217	18623
865.349	18509
865.48	18574
865.612	18608
865.743	18677
865.875	18623
866.006	18536
866.137	18650
866.269	18547
866.4	18410
866.531	18528
866.662	18582
866.793	18384
866.924	18559
867.055	18502
867.186	18582
867.317	18506
867.448	18384
867.579	18563
867.71	18437
867.841	18426
867.972	18612
868.103	18464
868.233	18570
868.364	18486
868.495	18506
868.625	18745
868.756	18798
868.886	18715
869.017	18768
869.147	18901
869.278	18909
869.408	18817
869.539	18798
869.669	18977
869.799	18981
869.929	18882
870.06	18905
870.19	19187
870.32	19091
870.45	19076
870.58	19297
870.71	19377
870.84	19335
870.97	19240
871.1	19240
871.23	19365
871.36	19438
871.489	19308
871.619	19350
871.749	19415
871.879	19468
872.008	19670
872.138	19635
872.267	19616
872.397	19460
872.526	19460
872.656	19396
872.785	19495
872.915	19639
873.044	19727
873.173	19655
873.303	19700
873.432	19700
873.561	19696
873.69	19757
873.819	19822
873.948	19822
874.077	19830
874.206	19871
874.335	19795
874.464	20145
874.593	20210
874.722	20043
874.851	20301
874.979	20370
875.108	20309
875.237	20256
875.365	20229
875.494	20351
875.623	20480
875.751	20484
875.88	20514
876.008	20552
876.136	20731
876.265	21036
876.393	21283
876.521	21188
876.65	21230
876.778	21302
876.906	21256
877.034	21302
877.162	21386
877.29	21500
877.418	21504
877.546	21595
877.674	21701
877.802	21679
877.93	21895
878.058	22086
878.185	22067
878.313	22500
878.441	22786
878.568	23117
878.696	23733
878.824	24388
878.951	25544
879.079	27020
879.206	28938
879.333	30810
879.461	32469
879.588	33515
879.715	33553
879.842	32705
879.97	30901
880.097	29029
880.224	27329
880.351	26336
880.478	25426
880.605	24890
880.732	24547
880.859	24422
880.986	24106
881.112	24148
881.239	23863
881.366	23592
881.493	23619
881.619	23493
881.746	23596
881.872	23646
881.999	23672
882.125	23699
882.252	23843
882.378	23859
882.505	24015
882.631	23771
882.757	23657
882.883	23585
883.01	23566
883.136	23463
883.262	23402
883.388	23349
883.514	23707
883.64	23592
883.766	23444
883.892	23406
884.018	23414
884.143	23455
884.269	23642
884.395	23349
884.52	23242
884.646	23307
884.772	23143
884.897	23166
885.023	23254
885.148	23406
885.274	23345
885.399	23147
885.524	23117
885.65	22999
885.775	22869
885.9	22755
886.025	22626
886.15	22542
886.275	22230
886.4	22086
886.525	21903
886.65	21835
886.775	21743
886.9	21812
887.025	21778
887.149	21549
887.274	21287
887.399	21127
887.523	20986
887.648	20948
887.773	20727
887.897	20975
888.021	20785
888.146	20514
888.27	20716
888.395	20651
888.519	20644
888.643	20503
888.767	20575
888.891	20385
889.015	20263
889.139	20240
889.263	20187
889.387	20259
889.511	20263
889.635	20130
889.759	20100
889.883	19993
890.006	19986
890.13	20035
890.254	19822
890.377	19871
890.501	19704
890.624	19578
890.748	19590
890.871	19453
890.995	19324
891.118	19308
891.241	19346
891.364	19343
891.488	19354
891.611	19312
891.734	19129
891.857	19263
891.98	19129
892.103	19270
892.226	19217
892.349	19095
892.471	18837
892.594	18951
892.717	19050
892.839	18837
892.962	18973
893.085	18958
893.207	18951
893.33	18730
893.452	18837
893.575	18947
893.697	18810
893.819	18897
893.941	18837
894.064	18905
894.186	18722
894.308	18593
894.43	18776
894.552	18783
894.674	18722
894.796	18563
894.918	18525
895.04	18467
895.161	18589
895.283	18623
895.405	18494
895.526	18601
895.648	18471
895.769	18559
895.891	18563
896.012	18551
896.134	18570
896.255	18460
896.376	18555
896.498	18426
896.619	18536
896.74	18547
896.861	18506
896.982	18741
897.103	18871
897.224	18627
897.345	18741
897.466	18661
897.587	18608
897.708	18757
897.828	18654
897.949	18597
898.07	18433
898.19	18555
898.311	18734
898.431	18570
898.552	18437
898.672	18821
898.792	18665
898.913	18642
899.033	18547
899.153	18422
899.273	18342
899.393	18433
899.513	18292
899.633	18327
899.753	18323
899.873	18235
899.993	18407
900.113	18296
900.232	18479
900.352	18239
900.472	18338
900.591	18125
900.711	18239
900.83	18114
900.95	18456
901.069	18121
901.189	18102
901.308	17920
901.427	17760
901.546	17802
901.665	17798
901.784	17767
901.904	17684
902.023	17535
902.141	17235
902.26	17220
902.379	17387
902.498	17284
902.617	17090
902.735	17147
902.854	17071
902.973	17064
903.091	16968
903.21	16774
903.328	16748
903.446	16630
903.565	16603
903.683	16580
903.801	16432
903.919	16550
904.038	16470
904.156	16424
904.274	16367
904.392	16318
904.51	16287
904.627	16333
904.745	16405
904.863	16394
904.981	16032
905.098	16017
905.216	15949
905.334	16048
905.451	15991
905.569	16029
905.686	16032
905.803	16021
905.921	15819
906.038	15873
906.155	15679
906.272	15759
906.389	15641
906.506	15485
906.623	15561
906.74	15526
906.857	15298
906.974	15389
907.091	15504
907.208	15705
907.324	15492
907.441	15378
907.557	15214
907.674	15279
907.79	15138
907.907	15233
908.023	15195
908.139	15085
908.256	15165
908.372	15100
908.488	14937
908.604	14967
908.72	14933
908.836	15024
908.952	14876
909.068	14891
909.184	15062
909.3	14861
909.415	14990
909.531	14887
909.647	14686
909.762	14621
909.878	14617
909.993	14686
910.108	14678
910.224	14663
910.339	14568
910.454	14533
910.57	14469
910.685	14347
910.8	14689
910.915	14617
911.03	14412
911.145	14339
911.259	14233
911.374	14267
911.489	14290
911.604	14107
911.718	14115
911.833	13974
911.947	13845
912.062	13780
912.176	14035
912.291	14008
912.405	14020
912.519	14229
912.633	14237
912.748	14065
912.862	13944
912.976	13772
913.09	13780
913.204	13799
913.318	13856
913.431	13879
913.545	13982
913.659	13856
913.772	13784
913.886	13731
914	13639
914.113	13830
914.226	13704
914.34	13674
914.453	13575
914.566	13761
914.68	13613
914.793	13556
914.906	13495
915.019	13308
915.132	13343
915.245	13384
915.358	13434
915.47	13365
915.583	13373
915.696	13434
915.809	13483
915.921	13590
916.034	13327
916.146	13251
916.259	13304
916.371	13381
916.483	13396
916.595	13297
916.708	13263
916.82	13346
916.932	13419
917.044	13202
917.156	13266
917.268	13053
917.38	13152
917.491	13065
917.603	13122
917.715	13213
917.826	13171
917.938	13050
918.049	12935
918.161	13080
918.272	13228
918.384	13145
918.495	13023
918.606	12882
918.717	12814
918.828	12844
918.939	12924
919.05	12779
919.161	12772
919.272	12639
919.383	12662
919.494	12856
919.604	13129
919.715	12882
919.826	12715
919.936	12753
920.047	12821
920.157	12768
920.267	13008
920.378	12837
920.488	12833
920.598	13008
920.708	13175
920.818	13004
920.928	13019
921.038	13126
921.148	12951
921.258	12798
921.368	12681
921.477	12684
921.587	12639
921.697	12395
921.806	12639
921.916	12479
922.025	12270
922.134	12346
922.244	12159
922.353	12266
922.462	12144
922.571	12022
922.68	11931
922.789	11882
922.898	11977
923.007	11745
923.116	11859
923.224	11882
923.333	11832
923.442	11741
923.55	11741
923.659	11828
923.767	11870
923.876	11748
923.984	11790
924.092	11623
924.201	11767
924.309	11707
924.417	11611
924.525	11490
924.633	11668
924.741	12319
924.849	11547
924.956	11638
925.064	11452
925.172	11349
925.279	11444
925.387	11440
925.494	11376
925.602	11497
925.709	11452
925.816	11334
925.924	11383
926.031	11364
926.138	11395
926.245	11379
926.352	11208
926.459	11364
926.566	11467
926.673	11315
926.779	11288
926.886	11265
926.993	11090
927.099	11006
927.206	11045
927.312	10938
927.419	11003
927.525	11086
927.631	11025
927.737	10900
927.843	10930
927.95	10763
928.056	10904
928.162	10881
928.267	10896
928.373	11410
928.479	11014
928.585	10778
928.69	10866
928.796	10889
928.901	10721
929.007	10618
929.112	10767
929.218	10778
929.323	10630
929.428	10683
929.533	10714
929.638	10622
929.743	10603
929.848	10683
929.953	10592
930.058	10569
930.163	10382
930.267	10360
930.372	10459
930.477	10379
930.581	10474
930.685	10459
930.79	10246
930.894	10352
930.998	10246
931.103	10428
931.207	10078
931.311	10002
931.415	9793
931.519	9694
931.623	9679
