Data from test_V78500241_2905.txt Node
Date: Fri Mar 25 14:53:56 CST 2022
User: usil
Spectrometer: V785-0024
Trigger mode: 0
Integration Time (sec): 4.000000E-1
Scans to average: 1
Nonlinearity correction enabled: false
Boxcar width: 0
Storing dark spectrum: false
XAxis mode: Wavelengths
Number of Pixels in Spectrum: 1024
>>>>>Begin Spectral Data<<<<<
801.071	22105
801.214	21956
801.356	21717
801.499	21614
801.641	21473
801.783	21431
801.926	21450
802.068	21466
802.211	21408
802.353	21264
802.496	21165
802.638	20963
802.78	20918
802.923	20800
803.065	20830
803.208	20746
803.35	20807
803.492	20849
803.635	20933
803.777	20849
803.919	20792
804.061	21173
804.204	20765
804.346	20834
804.488	20724
804.63	20746
804.773	20724
804.915	20716
805.057	20769
805.199	20678
805.341	20746
805.483	20975
805.626	20765
805.768	20621
805.91	20750
806.052	20754
806.194	20568
806.336	20914
806.478	20727
806.62	20613
806.762	20811
806.904	20857
807.046	21150
807.188	21138
807.33	20921
807.472	21184
807.614	20975
807.756	20990
807.898	20834
808.04	20716
808.182	20811
808.324	20739
808.465	20868
808.607	20921
808.749	21104
808.891	21211
809.033	21306
809.174	21058
809.316	21005
809.458	21157
809.6	20975
809.741	21150
809.883	21146
810.025	21226
810.166	21298
810.308	21085
810.45	21165
810.591	21058
810.733	20880
810.875	20842
811.016	20701
811.158	20708
811.299	20815
811.441	20986
811.582	20899
811.724	20804
811.865	20773
812.007	20811
812.148	20796
812.29	20834
812.431	20986
812.573	21138
812.714	21211
812.855	21332
812.997	21412
813.138	21599
813.279	21359
813.421	21507
813.562	21165
813.703	21119
813.845	21066
813.986	20648
814.127	20499
814.268	20404
814.41	20461
814.551	20358
814.692	20465
814.833	20381
814.974	20301
815.115	20412
815.256	20100
815.397	20298
815.539	20278
815.68	20054
815.821	20054
815.962	20168
816.103	19947
816.244	19917
816.385	19970
816.526	19761
816.666	19807
816.807	19575
816.948	19624
817.089	19544
817.23	19601
817.371	19548
817.512	19441
817.653	19468
817.793	19434
817.934	19430
818.075	19491
818.216	19571
818.356	19407
818.497	19346
818.638	19183
818.778	19156
818.919	19190
819.06	19266
819.2	19270
819.341	19430
819.481	19369
819.622	19582
819.762	19731
819.903	19605
820.043	19521
820.184	19571
820.324	19419
820.465	19609
820.605	19518
820.746	19578
820.886	19384
821.026	19514
821.167	19407
821.307	19521
821.447	19415
821.588	19289
821.728	19160
821.868	19103
822.008	18890
822.149	18890
822.289	18909
822.429	18608
822.569	18597
822.709	18525
822.849	18403
822.99	18433
823.13	18407
823.27	18239
823.41	18213
823.55	18079
823.69	18155
823.83	18186
823.97	18258
824.11	17977
824.25	17954
824.389	17901
824.529	18053
824.669	17946
824.809	18129
824.949	18045
825.089	18064
825.228	17973
825.368	17767
825.508	17828
825.648	17760
825.787	17767
825.927	17767
826.067	17699
826.206	17657
826.346	17809
826.485	17714
826.625	17764
826.765	17843
826.904	17722
827.044	17551
827.183	17486
827.323	17326
827.462	17532
827.601	17421
827.741	17406
827.88	17471
828.02	17360
828.159	17387
828.298	17406
828.437	17482
828.577	17387
828.716	17509
828.855	17417
828.994	17227
829.134	17250
829.273	17147
829.412	17079
829.551	17086
829.69	17124
829.829	17280
829.968	17235
830.107	17162
830.246	17185
830.385	17105
830.524	17143
830.663	17003
830.802	16919
830.941	16797
831.08	16710
831.219	16900
831.357	16877
831.496	17105
831.635	16752
831.774	16664
831.913	16599
832.051	16538
832.19	16447
832.329	16569
832.467	16443
832.606	16360
832.744	16443
832.883	16447
833.022	16424
833.16	16546
833.299	16459
833.437	16440
833.576	16485
833.714	16584
833.852	16462
833.991	16531
834.129	16577
834.267	16615
834.406	16523
834.544	16592
834.682	16512
834.821	16436
834.959	16702
835.097	16573
835.235	16637
835.373	16493
835.511	16550
835.65	16451
835.788	16500
835.926	16242
836.064	16219
836.202	16223
836.34	16379
836.478	16474
836.615	16417
836.753	16333
836.891	16325
837.029	16527
837.167	16375
837.305	16382
837.443	16341
837.58	16207
837.718	16322
837.856	16379
837.993	16333
838.131	16242
838.269	16181
838.406	16177
838.544	16211
838.681	16074
838.819	15945
838.956	15816
839.094	15861
839.231	15945
839.369	16036
839.506	16249
839.643	16105
839.781	15941
839.918	15781
840.055	15941
840.193	15800
840.33	15857
840.467	15861
840.604	15759
840.742	16017
840.879	15793
841.016	15808
841.153	15778
841.29	15838
841.427	15778
841.564	15907
841.701	15945
841.838	15800
841.975	15755
842.112	15743
842.249	15717
842.385	15545
842.522	15785
842.659	15633
842.796	15603
842.933	15500
843.069	15618
843.206	15603
843.343	15561
843.479	15610
843.616	15629
843.752	15408
843.889	15336
844.025	15553
844.162	15374
844.298	15542
844.435	15435
844.571	15393
844.708	15530
844.844	15523
844.98	15587
845.117	15511
845.253	15355
845.389	15310
845.525	15370
845.661	15264
845.798	15180
845.934	15245
846.07	15123
846.206	15203
846.342	15325
846.478	15241
846.614	14952
846.75	14914
846.886	14891
847.022	15009
847.158	15024
847.294	15028
847.429	15024
847.565	14918
847.701	15272
847.837	14689
847.972	14682
848.108	14819
848.244	14731
848.379	14678
848.515	14552
848.65	14518
848.786	14598
848.921	14629
849.057	14735
849.192	14705
849.328	14602
849.463	14568
849.598	14617
849.734	14507
849.869	14393
850.004	14366
850.14	14442
850.275	14290
850.41	14256
850.545	14229
850.68	14259
850.815	14358
850.95	14336
851.085	14579
851.22	14488
851.355	14377
851.49	14336
851.625	14294
851.76	14229
851.895	14206
852.03	14256
852.165	14332
852.299	14320
852.434	14366
852.569	14423
852.703	14389
852.838	14377
852.973	14587
853.107	14415
853.242	14328
853.376	14183
853.511	14157
853.645	14149
853.78	14336
853.914	14123
854.048	14187
854.183	14267
854.317	14119
854.451	14396
854.585	14259
854.72	14176
854.854	14259
854.988	14199
855.122	14138
855.256	14107
855.39	14164
855.524	14358
855.658	14252
855.792	14172
855.926	14324
856.06	14191
856.194	14313
856.327	14202
856.461	14149
856.595	14183
856.729	14240
856.862	14355
856.996	14214
857.13	14305
857.263	14290
857.397	14317
857.53	14214
857.664	14221
857.797	14259
857.931	14202
858.064	14206
858.197	14389
858.331	14271
858.464	14202
858.597	14153
858.731	14168
858.864	14187
858.997	14172
859.13	14320
859.263	14138
859.396	14256
859.529	14176
859.662	14134
859.795	14157
859.928	14214
860.061	14393
860.194	14351
860.327	14233
860.46	14172
860.592	14461
860.725	14393
860.858	14317
860.99	14191
861.123	14096
861.256	14077
861.388	14237
861.521	14788
861.653	14046
861.786	14054
861.918	14115
862.05	14123
862.183	14145
862.315	14157
862.447	14305
862.58	14142
862.712	14058
862.844	13925
862.976	14073
863.108	13925
863.24	14362
863.372	13928
863.504	13944
863.636	14005
863.768	13993
863.9	14046
864.032	13940
864.164	13902
864.296	13917
864.428	14065
864.559	14062
864.691	14050
864.823	14069
864.954	14096
865.086	13982
865.217	14100
865.349	13913
865.48	14001
865.612	14054
865.743	14092
865.875	13928
866.006	14005
866.137	14073
866.269	13947
866.4	14024
866.531	13967
866.662	13879
866.793	13894
866.924	13936
867.055	14058
867.186	13978
867.317	13852
867.448	13982
867.579	13947
867.71	13879
867.841	13959
867.972	13982
868.103	13982
868.233	14062
868.364	13902
868.495	14043
868.625	14176
868.756	14336
868.886	14221
869.017	14172
869.147	14339
869.278	14328
869.408	14221
869.539	14237
869.669	14278
869.799	14347
869.929	14434
870.06	14290
870.19	14571
870.32	14522
870.45	14552
870.58	14655
870.71	14743
870.84	14727
870.97	14594
871.1	14594
871.23	14739
871.36	14864
871.489	14727
871.619	14663
871.749	14842
871.879	14857
872.008	14963
872.138	14864
872.267	14838
872.397	14663
872.526	14670
872.656	14606
872.785	14682
872.915	14883
873.044	14895
873.173	14960
873.303	14902
873.432	14910
873.561	14868
873.69	14826
873.819	14819
873.948	14895
874.077	14857
874.206	14849
874.335	14845
874.464	15085
874.593	15195
874.722	15199
874.851	15199
874.979	15123
875.108	15279
875.237	15207
875.365	15127
875.494	15192
875.623	15264
875.751	15142
875.88	15211
876.008	15233
876.136	15340
876.265	15545
876.393	15682
876.521	15850
876.65	15686
876.778	15625
876.906	15538
877.034	15576
877.162	15584
877.29	15622
877.418	15519
877.546	15641
877.674	15599
877.802	15591
877.93	15606
878.058	15469
878.185	15496
878.313	15538
878.441	15561
878.568	15481
878.696	15561
878.824	15622
878.951	15633
879.079	15789
879.206	15956
879.333	15747
879.461	15637
879.588	15743
879.715	15766
879.842	15991
879.97	15629
880.097	15496
880.224	15507
880.351	15416
880.478	15511
880.605	15401
880.732	15443
880.859	15709
880.986	15401
881.112	15500
881.239	15272
881.366	15173
881.493	15180
881.619	15032
881.746	15097
881.872	15093
881.999	15089
882.125	15104
882.252	15047
882.378	15127
882.505	15203
882.631	15058
882.757	14899
882.883	15043
883.01	14842
883.136	14826
883.262	14769
883.388	14701
883.514	14986
883.64	14960
883.766	14777
883.892	14678
884.018	14716
884.143	14921
884.269	15051
884.395	14689
884.52	14705
884.646	14724
884.772	14568
884.897	14484
885.023	14686
885.148	14727
885.274	14788
885.399	14872
885.524	14720
885.65	14587
885.775	14594
885.9	14648
886.025	14796
886.15	14705
886.275	14549
886.4	14533
886.525	14473
886.65	14526
886.775	14495
886.9	14788
887.025	14929
887.149	14606
887.274	14488
887.399	14362
887.523	14450
887.648	14404
887.773	14259
887.897	14651
888.021	14568
888.146	14313
888.27	14484
888.395	14560
888.519	14526
888.643	14610
888.767	14526
888.891	14457
889.015	14415
889.139	14324
889.263	14351
889.387	14450
889.511	14533
889.635	14511
889.759	14244
889.883	14351
890.006	14381
890.13	14438
890.254	14229
890.377	14214
890.501	14008
890.624	13989
890.748	14176
890.871	14039
890.995	13997
891.118	13887
891.241	13989
891.364	13963
891.488	14206
891.611	13936
891.734	14084
891.857	14130
891.98	14084
892.103	14008
892.226	14145
892.349	14058
892.471	13784
892.594	13955
892.717	13898
892.839	14050
892.962	14039
893.085	14096
893.207	14005
893.33	13906
893.452	13947
893.575	14062
893.697	13989
893.819	14172
893.941	14248
894.064	14214
894.186	14031
894.308	13951
894.43	14039
894.552	14256
894.674	14180
894.796	14069
894.918	14035
895.04	14092
895.161	14248
895.283	14183
895.405	14180
895.526	14142
895.648	14130
895.769	14077
895.891	14180
896.012	14229
896.134	14305
896.255	14183
896.376	14248
896.498	14138
896.619	14256
896.74	14172
896.861	14305
896.982	14537
897.103	14712
897.224	14511
897.345	14438
897.466	14419
897.587	14465
897.708	14556
897.828	14507
897.949	14438
898.07	14259
898.19	14427
898.311	14594
898.431	14556
898.552	14537
898.672	14602
898.792	14617
898.913	14575
899.033	14457
899.153	14400
899.273	14328
899.393	14389
899.513	14450
899.633	14431
899.753	14393
899.873	14400
899.993	14423
900.113	14389
900.232	14518
900.352	14484
900.472	14339
900.591	14202
900.711	14320
900.83	14199
900.95	14377
901.069	14434
901.189	14180
901.308	14039
901.427	13898
901.546	13986
901.665	13940
901.784	14058
901.904	13963
902.023	13799
902.141	13575
902.26	13441
902.379	13601
902.498	13548
902.617	13510
902.735	13552
902.854	13487
902.973	13422
903.091	13270
903.21	13282
903.328	13384
903.446	13244
903.565	13164
903.683	13129
903.801	13072
903.919	13080
904.038	13008
904.156	12958
904.274	12951
904.392	12871
904.51	12867
904.627	12977
904.745	12977
904.863	13034
904.981	12757
905.098	12604
905.216	12772
905.334	12669
905.451	12658
905.569	12662
905.686	12681
905.803	12688
905.921	12441
906.038	12585
906.155	12547
906.272	12342
906.389	12391
906.506	12140
906.623	12285
906.74	12224
906.857	12159
906.974	12087
907.091	12296
907.208	12357
907.324	12197
907.441	12117
907.557	12026
907.674	11984
907.79	11980
907.907	11863
908.023	12091
908.139	11931
908.256	11897
908.372	11870
908.488	11843
908.604	11794
908.72	11707
908.836	11741
908.952	11745
909.068	11707
909.184	11824
909.3	11714
909.415	11805
909.531	11752
909.647	11600
909.762	11539
909.878	11482
909.993	11429
910.108	11501
910.224	11509
910.339	11482
910.454	11364
910.57	11330
910.685	11220
910.8	11581
910.915	11467
911.03	11379
911.145	11258
911.259	11216
911.374	11208
911.489	11109
911.604	11132
911.718	10953
911.833	11041
911.947	10847
912.062	10774
912.176	10953
912.291	11018
912.405	10896
912.519	11128
912.633	11147
912.748	10968
912.862	10938
912.976	10904
913.09	10706
913.204	10809
913.318	10839
913.431	10972
913.545	10942
913.659	10885
913.772	10866
913.886	10733
914	10729
914.113	10824
914.226	10892
914.34	10828
914.453	10664
914.566	10759
914.68	10660
914.793	10694
914.906	10516
915.019	10417
915.132	10398
915.245	10428
915.358	10466
915.47	10535
915.583	10512
915.696	10474
915.809	10634
915.921	10542
916.034	10402
916.146	10421
916.259	10405
916.371	10531
916.483	10466
916.595	10360
916.708	10424
916.82	10398
916.932	10356
917.044	10398
917.156	10424
917.268	10265
917.38	10322
917.491	10261
917.603	10337
917.715	10428
917.826	10371
917.938	10325
918.049	10192
918.161	10299
918.272	10333
918.384	10386
918.495	10379
918.606	10200
918.717	10139
918.828	10188
918.939	10246
919.05	10143
919.161	10211
919.272	9953
919.383	9949
919.494	10265
919.604	10424
919.715	10265
919.826	10169
919.936	10166
920.047	10276
920.157	10253
920.267	10329
920.378	10246
920.488	10211
920.598	10337
920.708	10470
920.818	10405
920.928	10409
921.038	10569
921.148	10580
921.258	10352
921.368	10219
921.477	10040
921.587	10067
921.697	9994
921.806	10067
921.916	9979
922.025	9770
922.134	9720
922.244	9781
922.353	9808
922.462	9614
922.571	9606
922.68	9534
922.789	9405
922.898	9458
923.007	9420
923.116	9454
923.224	9443
923.333	9408
923.442	9443
923.55	9275
923.659	9355
923.767	9416
923.876	9306
923.984	9340
924.092	9386
924.201	9363
924.309	9340
924.417	9291
924.525	9302
924.633	9275
924.741	10181
924.849	9097
924.956	9260
925.064	9188
925.172	9009
925.279	9074
925.387	9100
925.494	9173
925.602	9249
925.709	9207
925.816	9089
925.924	9135
926.031	9218
926.138	9112
926.245	9146
926.352	9039
926.459	9298
926.566	9199
926.673	9123
926.779	9009
926.886	8960
926.993	8796
927.099	8800
927.206	8811
927.312	8834
927.419	8864
927.525	8792
927.631	8895
927.737	8785
927.843	8773
927.95	8644
928.056	8682
928.162	8785
928.267	8788
928.373	9435
928.479	8872
928.585	8564
928.69	8644
928.796	8773
928.901	8636
929.007	8476
929.112	8621
929.218	8617
929.323	8579
929.428	8541
929.533	8663
929.638	8514
929.743	8495
929.848	8598
929.953	8549
930.058	8389
930.163	8256
930.267	8351
930.372	8427
930.477	8286
930.581	8537
930.685	8381
930.79	8233
930.894	8221
930.998	8252
931.103	8370
931.207	8084
931.311	8054
931.415	7959
931.519	7776
931.623	7742
