Data from test_V78500241_2943.txt Node
Date: Fri Mar 25 14:54:12 CST 2022
User: usil
Spectrometer: V785-0024
Trigger mode: 0
Integration Time (sec): 4.000000E-1
Scans to average: 1
Nonlinearity correction enabled: false
Boxcar width: 0
Storing dark spectrum: false
XAxis mode: Wavelengths
Number of Pixels in Spectrum: 1024
>>>>>Begin Spectral Data<<<<<
801.071	22204
801.214	22021
801.356	21778
801.499	21595
801.641	21481
801.783	21431
801.926	21542
802.068	21344
802.211	21264
802.353	21268
802.496	21081
802.638	21058
802.78	20887
802.923	20811
803.065	20842
803.208	20705
803.35	20921
803.492	20880
803.635	20986
803.777	20777
803.919	20861
804.061	21108
804.204	20868
804.346	20781
804.488	20609
804.63	20735
804.773	20625
804.915	20769
805.057	20899
805.199	20663
805.341	20762
805.483	20868
805.626	20902
805.768	20613
805.91	20792
806.052	20792
806.194	20769
806.336	20830
806.478	20644
806.62	20712
806.762	20777
806.904	20887
807.046	21180
807.188	21096
807.33	21036
807.472	21184
807.614	21032
807.756	20952
807.898	20792
808.04	20746
808.182	20861
808.324	20693
808.465	20914
808.607	21055
808.749	21142
808.891	21150
809.033	21173
809.174	21218
809.316	21020
809.458	21077
809.6	21081
809.741	21173
809.883	21161
810.025	21249
810.166	21146
810.308	21291
810.45	21135
810.591	21222
810.733	21024
810.875	20914
811.016	20815
811.158	20811
811.299	20864
811.441	21043
811.582	20998
811.724	20826
811.865	20769
812.007	20857
812.148	20887
812.29	20792
812.431	20994
812.573	21116
812.714	21154
812.855	21313
812.997	21469
813.138	21580
813.279	21408
813.421	21408
813.562	21249
813.703	21104
813.845	21017
813.986	20674
814.127	20507
814.268	20438
814.41	20590
814.551	20385
814.692	20484
814.833	20282
814.974	20358
815.115	20393
815.256	20130
815.397	20278
815.539	20259
815.68	20031
815.821	20176
815.962	20111
816.103	20107
816.244	19951
816.385	19871
816.526	19814
816.666	19708
816.807	19529
816.948	19594
817.089	19658
817.23	19563
817.371	19575
817.512	19597
817.653	19407
817.793	19590
817.934	19537
818.075	19407
818.216	19499
818.356	19472
818.497	19331
818.638	19240
818.778	19213
818.919	19308
819.06	19198
819.2	19339
819.341	19441
819.481	19422
819.622	19540
819.762	19734
819.903	19670
820.043	19605
820.184	19358
820.324	19533
820.465	19514
820.605	19578
820.746	19548
820.886	19297
821.026	19457
821.167	19396
821.307	19483
821.447	19434
821.588	19400
821.728	19099
821.868	19050
822.008	19015
822.149	18928
822.289	18875
822.429	18711
822.569	18665
822.709	18669
822.849	18467
822.99	18433
823.13	18361
823.27	18296
823.41	18224
823.55	18205
823.69	18262
823.83	18190
823.97	18114
824.11	17954
824.25	17939
824.389	18003
824.529	18003
824.669	17950
824.809	18060
824.949	18053
825.089	18015
825.228	18015
825.368	17729
825.508	17691
825.648	17756
825.787	17878
825.927	17843
826.067	17741
826.206	17707
826.346	17752
826.485	17821
826.625	17745
826.765	17790
826.904	17703
827.044	17520
827.183	17512
827.323	17471
827.462	17452
827.601	17433
827.741	17406
827.88	17440
828.02	17280
828.159	17379
828.298	17520
828.437	17505
828.577	17345
828.716	17547
828.855	17391
828.994	17216
829.134	17258
829.273	17189
829.412	17250
829.551	17029
829.69	17128
829.829	17117
829.968	17178
830.107	17280
830.246	17280
830.385	17193
830.524	17006
830.663	17003
830.802	16938
830.941	16835
831.08	16771
831.219	16869
831.357	16763
831.496	17094
831.635	16755
831.774	16759
831.913	16687
832.051	16653
832.19	16550
832.329	16588
832.467	16470
832.606	16363
832.744	16417
832.883	16508
833.022	16462
833.16	16527
833.299	16459
833.437	16478
833.576	16634
833.714	16504
833.852	16508
833.991	16527
834.129	16573
834.267	16519
834.406	16497
834.544	16569
834.682	16611
834.821	16481
834.959	16687
835.097	16478
835.235	16577
835.373	16569
835.511	16546
835.65	16291
835.788	16451
835.926	16299
836.064	16265
836.202	16265
836.34	16337
836.478	16489
836.615	16360
836.753	16337
836.891	16459
837.029	16497
837.167	16474
837.305	16318
837.443	16371
837.58	16299
837.718	16318
837.856	16223
837.993	16284
838.131	16318
838.269	16166
838.406	16204
838.544	16242
838.681	16006
838.819	16013
838.956	15842
839.094	15895
839.231	15941
839.369	16044
839.506	16211
839.643	16048
839.781	15770
839.918	15774
840.055	15953
840.193	15873
840.33	15861
840.467	15892
840.604	15934
840.742	16044
840.879	15675
841.016	15789
841.153	15682
841.29	15899
841.427	15842
841.564	15838
841.701	15899
841.838	15751
841.975	15686
842.112	15652
842.249	15686
842.385	15584
842.522	15785
842.659	15679
842.796	15519
842.933	15568
843.069	15538
843.206	15648
843.343	15682
843.479	15641
843.616	15610
843.752	15405
843.889	15454
844.025	15538
844.162	15332
844.298	15526
844.435	15431
844.571	15386
844.708	15431
844.844	15629
844.98	15511
845.117	15549
845.253	15370
845.389	15256
845.525	15264
845.661	15310
845.798	15264
845.934	15173
846.07	15192
846.206	15306
846.342	15313
846.478	15100
846.614	14963
846.75	14971
846.886	14921
847.022	15081
847.158	14956
847.294	14864
847.429	15028
847.565	14906
847.701	15256
847.837	14743
847.972	14678
848.108	14746
848.244	14815
848.379	14670
848.515	14549
848.65	14450
848.786	14568
848.921	14571
849.057	14621
849.192	14735
849.328	14594
849.463	14636
849.598	14511
849.734	14522
849.869	14549
850.004	14415
850.14	14431
850.275	14362
850.41	14290
850.545	14263
850.68	14290
850.815	14320
850.95	14324
851.085	14545
851.22	14355
851.355	14267
851.49	14358
851.625	14282
851.76	14320
851.895	14309
852.03	14168
852.165	14240
852.299	14324
852.434	14450
852.569	14320
852.703	14286
852.838	14374
852.973	14492
853.107	14431
853.242	14404
853.376	14126
853.511	14031
853.645	14088
853.78	14412
853.914	14248
854.048	14199
854.183	14092
854.317	14263
854.451	14381
854.585	14195
854.72	14172
854.854	14248
854.988	14168
855.122	14252
855.256	14092
855.39	14138
855.524	14317
855.658	14218
855.792	14298
855.926	14225
856.06	14240
856.194	14263
856.327	14191
856.461	14206
856.595	14088
856.729	14233
856.862	14252
856.996	14309
857.13	14275
857.263	14317
857.397	14320
857.53	14153
857.664	14233
857.797	14305
857.931	14423
858.064	14336
858.197	14324
858.331	14153
858.464	14138
858.597	14119
858.731	14115
858.864	14176
858.997	14202
859.13	14149
859.263	14252
859.396	14263
859.529	14100
859.662	14081
859.795	14111
859.928	14301
860.061	14385
860.194	14423
860.327	14218
860.46	14096
860.592	14339
860.725	14336
860.858	14313
860.99	14168
861.123	14016
861.256	14142
861.388	14225
861.521	14883
861.653	14050
861.786	14119
861.918	14149
862.05	14145
862.183	14130
862.315	14161
862.447	14138
862.58	14202
862.712	14008
862.844	13864
862.976	14035
863.108	13989
863.24	14183
863.372	14012
863.504	13997
863.636	14084
863.768	13936
863.9	14031
864.032	13955
864.164	13955
864.296	14054
864.428	14046
864.559	14103
864.691	14027
864.823	14016
864.954	14016
865.086	14157
865.217	14027
865.349	13845
865.48	13875
865.612	13986
865.743	14065
865.875	14020
866.006	13898
866.137	14008
866.269	13887
866.4	13989
866.531	13967
866.662	13837
866.793	13849
866.924	13909
867.055	13986
867.186	13955
867.317	13932
867.448	13807
867.579	13814
867.71	13936
867.841	13898
867.972	13970
868.103	14012
868.233	14012
868.364	13959
868.495	14012
868.625	14149
868.756	14229
868.886	14164
869.017	14138
869.147	14313
869.278	14275
869.408	14225
869.539	14195
869.669	14240
869.799	14237
869.929	14336
870.06	14313
870.19	14499
870.32	14450
870.45	14507
870.58	14590
870.71	14686
870.84	14667
870.97	14655
871.1	14556
871.23	14826
871.36	14868
871.489	14773
871.619	14800
871.749	14788
871.879	14815
872.008	14887
872.138	14731
872.267	14883
872.397	14655
872.526	14571
872.656	14583
872.785	14617
872.915	14811
873.044	15013
873.173	14876
873.303	14914
873.432	14861
873.561	15009
873.69	14792
873.819	14765
873.948	14895
874.077	14921
874.206	14792
874.335	14883
874.464	14914
874.593	15108
874.722	14956
874.851	15199
874.979	15161
875.108	15154
875.237	15104
875.365	15062
875.494	15184
875.623	15169
875.751	15127
875.88	15245
876.008	15313
876.136	15431
876.265	15637
876.393	15675
876.521	15690
876.65	15667
876.778	15530
876.906	15534
877.034	15584
877.162	15603
877.29	15515
877.418	15762
877.546	15507
877.674	15641
877.802	15667
877.93	15610
878.058	15526
878.185	15439
878.313	15610
878.441	15553
878.568	15439
878.696	15504
878.824	15530
878.951	15603
879.079	15728
879.206	15850
879.333	15759
879.461	15641
879.588	15625
879.715	15899
879.842	15926
879.97	15663
880.097	15424
880.224	15443
880.351	15507
880.478	15545
880.605	15473
880.732	15408
880.859	15553
880.986	15447
881.112	15458
881.239	15397
881.366	15321
881.493	15123
881.619	15097
881.746	15150
881.872	15097
881.999	15077
882.125	14937
882.252	15173
882.378	15093
882.505	15310
882.631	15093
882.757	14914
882.883	14975
883.01	14975
883.136	14876
883.262	14830
883.388	14743
883.514	14948
883.64	14986
883.766	14933
883.892	14769
884.018	14792
884.143	14914
884.269	14963
884.395	14697
884.52	14568
884.646	14602
884.772	14640
884.897	14530
885.023	14625
885.148	14720
885.274	14804
885.399	14644
885.524	14560
885.65	14552
885.775	14587
885.9	14606
886.025	14750
886.15	14746
886.275	14564
886.4	14564
886.525	14568
886.65	14438
886.775	14602
886.9	14750
887.025	14834
887.149	14701
887.274	14457
887.399	14454
887.523	14434
887.648	14347
887.773	14370
887.897	14507
888.021	14495
888.146	14366
888.27	14514
888.395	14587
888.519	14514
888.643	14476
888.767	14648
888.891	14362
889.015	14317
889.139	14351
889.263	14298
889.387	14366
889.511	14476
889.635	14427
889.759	14328
889.883	14317
890.006	14419
890.13	14404
890.254	14126
890.377	14320
890.501	14145
890.624	14126
890.748	14088
890.871	14107
890.995	14050
891.118	13871
891.241	14039
891.364	14005
891.488	14096
891.611	14031
891.734	14012
891.857	14180
891.98	14142
892.103	14065
892.226	14115
892.349	14016
892.471	13879
892.594	13982
892.717	14100
892.839	14020
892.962	14012
893.085	14069
893.207	14111
893.33	13947
893.452	13932
893.575	14077
893.697	14092
893.819	14168
893.941	14123
894.064	14210
894.186	13959
894.308	14016
894.43	14168
894.552	14164
894.674	14138
894.796	13974
894.918	14111
895.04	14054
895.161	14119
895.283	14176
895.405	13986
895.526	14107
895.648	14221
895.769	14153
895.891	14195
896.012	14256
896.134	14237
896.255	14153
896.376	14225
896.498	14233
896.619	14214
896.74	14183
896.861	14149
896.982	14507
897.103	14682
897.224	14461
897.345	14412
897.466	14389
897.587	14530
897.708	14537
897.828	14526
897.949	14480
898.07	14389
898.19	14450
898.311	14598
898.431	14545
898.552	14511
898.672	14682
898.792	14655
898.913	14583
899.033	14461
899.153	14419
899.273	14339
899.393	14415
899.513	14549
899.633	14381
899.753	14381
899.873	14370
899.993	14533
900.113	14438
900.232	14495
900.352	14419
900.472	14343
900.591	14195
900.711	14370
900.83	14248
900.95	14438
901.069	14408
901.189	14172
901.308	13947
901.427	13868
901.546	13959
901.665	14031
901.784	13955
901.904	13894
902.023	13700
902.141	13582
902.26	13540
902.379	13651
902.498	13559
902.617	13495
902.735	13521
902.854	13563
902.973	13499
903.091	13301
903.21	13312
903.328	13206
903.446	13240
903.565	13133
903.683	13156
903.801	13072
903.919	13057
904.038	12970
904.156	12947
904.274	13012
904.392	13023
904.51	12897
904.627	12977
904.745	12932
904.863	12916
904.981	12745
905.098	12566
905.216	12654
905.334	12654
905.451	12665
905.569	12559
905.686	12642
905.803	12589
905.921	12464
906.038	12525
906.155	12426
906.272	12296
906.389	12395
906.506	12144
906.623	12159
906.74	12091
906.857	12083
906.974	12106
907.091	12285
907.208	12338
907.324	12285
907.441	12133
907.557	11923
907.674	11882
907.79	11912
907.907	11920
908.023	11980
908.139	11897
908.256	11847
908.372	11961
908.488	11840
908.604	11729
908.72	11718
908.836	11729
908.952	11638
909.068	11752
909.184	11824
909.3	11680
909.415	11733
909.531	11737
909.647	11532
909.762	11391
909.878	11364
909.993	11490
910.108	11436
910.224	11398
910.339	11532
910.454	11387
910.57	11341
910.685	11216
910.8	11539
910.915	11478
911.03	11315
911.145	11216
911.259	11029
911.374	11140
911.489	11102
911.604	11075
911.718	10881
911.833	10961
911.947	10820
912.062	10763
912.176	10930
912.291	10904
912.405	10911
912.519	11155
912.633	11159
912.748	10965
912.862	10938
912.976	10797
913.09	10660
913.204	10778
913.318	10835
913.431	10892
913.545	10790
913.659	10869
913.772	10835
913.886	10786
914	10744
914.113	10740
914.226	10869
914.34	10691
914.453	10611
914.566	10835
914.68	10618
914.793	10603
914.906	10424
915.019	10344
915.132	10382
915.245	10424
915.358	10455
915.47	10390
915.583	10455
915.696	10421
915.809	10577
915.921	10523
916.034	10462
916.146	10394
916.259	10329
916.371	10485
916.483	10451
916.595	10440
916.708	10390
916.82	10413
916.932	10371
917.044	10291
917.156	10344
917.268	10211
917.38	10196
917.491	10280
917.603	10322
917.715	10405
917.826	10375
917.938	10257
918.049	10147
918.161	10268
918.272	10344
918.384	10478
918.495	10284
918.606	10158
918.717	10051
918.828	10147
918.939	10211
919.05	10013
919.161	10059
919.272	9915
919.383	10002
919.494	10227
919.604	10363
919.715	10177
919.826	10078
919.936	10173
920.047	10192
920.157	10128
920.267	10382
920.378	10238
920.488	10173
920.598	10348
920.708	10542
920.818	10318
920.928	10447
921.038	10485
921.148	10497
921.258	10200
921.368	10131
921.477	9987
921.587	10029
921.697	9842
921.806	10101
921.916	9907
922.025	9747
922.134	9766
922.244	9667
922.353	9755
922.462	9595
922.571	9496
922.68	9488
922.789	9363
922.898	9485
923.007	9329
923.116	9431
923.224	9344
923.333	9416
923.442	9302
923.55	9230
923.659	9325
923.767	9321
923.876	9249
923.984	9325
924.092	9214
924.201	9302
924.309	9310
924.417	9313
924.525	9233
924.633	9184
924.741	10105
924.849	9097
924.956	9211
925.064	9089
925.172	9013
925.279	9085
925.387	9062
925.494	9097
925.602	9180
925.709	9207
925.816	8998
925.924	9028
926.031	9192
926.138	9116
926.245	9116
926.352	8994
926.459	9157
926.566	9207
926.673	9017
926.779	8948
926.886	8948
926.993	8830
927.099	8785
927.206	8815
927.312	8724
927.419	8891
927.525	8773
927.631	8819
927.737	8678
927.843	8648
927.95	8602
928.056	8674
928.162	8773
928.267	8815
928.373	9317
928.479	8819
928.585	8530
928.69	8678
928.796	8693
928.901	8648
929.007	8457
929.112	8648
929.218	8556
929.323	8511
929.428	8507
929.533	8655
929.638	8423
929.743	8549
929.848	8549
929.953	8530
930.058	8438
930.163	8381
930.267	8305
930.372	8427
930.477	8279
930.581	8412
930.685	8336
930.79	8202
930.894	8275
930.998	8180
931.103	8343
931.207	7967
931.311	7955
931.415	7993
931.519	7769
931.623	7795
