Data from test_V78500241_215.txt Node
Date: Fri Mar 25 14:35:13 CST 2022
User: usil
Spectrometer: V785-0024
Trigger mode: 0
Integration Time (sec): 4.000000E-1
Scans to average: 1
Nonlinearity correction enabled: false
Boxcar width: 0
Storing dark spectrum: false
XAxis mode: Wavelengths
Number of Pixels in Spectrum: 1024
>>>>>Begin Spectral Data<<<<<
801.071	27945
801.214	27914
801.356	27587
801.499	27488
801.641	27306
801.783	27275
801.926	27427
802.068	27275
802.211	27089
802.353	26986
802.496	26971
802.638	27047
802.78	26883
802.923	26819
803.065	26743
803.208	26781
803.35	26864
803.492	26823
803.635	26807
803.777	26940
803.919	26952
804.061	27291
804.204	26937
804.346	26613
804.488	26727
804.63	26773
804.773	26746
804.915	26887
805.057	26986
805.199	26743
805.341	26842
805.483	26902
805.626	26845
805.768	26648
805.91	26868
806.052	26819
806.194	26727
806.336	27062
806.478	26872
806.62	27020
806.762	26880
806.904	27165
807.046	27370
807.188	27264
807.33	27340
807.472	27233
807.614	27222
807.756	27382
807.898	27344
808.04	27233
808.182	27386
808.324	27310
808.465	27424
808.607	27686
808.749	27903
808.891	27964
809.033	28124
809.174	27884
809.316	27960
809.458	27663
809.6	27663
809.741	27679
809.883	27599
810.025	27667
810.166	27625
810.308	27705
810.45	27564
810.591	27507
810.733	27283
810.875	27367
811.016	27176
811.158	27150
811.299	27264
811.441	27443
811.582	27424
811.724	27272
811.865	27203
812.007	27291
812.148	27313
812.29	27256
812.431	27431
812.573	27504
812.714	27568
812.855	27751
812.997	27694
813.138	27960
813.279	27861
813.421	27743
813.562	27629
813.703	27431
813.845	27420
813.986	27146
814.127	26906
814.268	26952
814.41	26868
814.551	26804
814.692	26902
814.833	26724
814.974	26667
815.115	26731
815.256	26621
815.397	26571
815.539	26739
815.68	26575
815.821	26556
815.962	26415
816.103	26522
816.244	26355
816.385	26221
816.526	26176
816.666	26145
816.807	25970
816.948	26005
817.089	26172
817.23	25997
817.371	25928
817.512	25814
817.653	25852
817.793	25913
817.934	25928
818.075	25868
818.216	25757
818.356	25826
818.497	25616
818.638	25525
818.778	25605
818.919	25594
819.06	25628
819.2	25693
819.341	25845
819.481	25769
819.622	25940
819.762	26016
819.903	26012
820.043	25909
820.184	25947
820.324	25860
820.465	25966
820.605	25856
820.746	25860
820.886	25852
821.026	25814
821.167	25780
821.307	25909
821.447	25795
821.588	25685
821.728	25651
821.868	25381
822.008	25297
822.149	25148
822.289	25266
822.429	24985
822.569	24837
822.709	24992
822.849	24745
822.99	24715
823.13	24631
823.27	24540
823.41	24414
823.55	24433
823.69	24570
823.83	24555
823.97	24460
824.11	24247
824.25	24213
824.389	24178
824.529	24323
824.669	24251
824.809	24407
824.949	24330
825.089	24410
825.228	24106
825.368	24098
825.508	24060
825.648	24129
825.787	24011
825.927	24079
826.067	23961
826.206	23992
826.346	24022
826.485	24030
826.625	23920
826.765	24125
826.904	24068
827.044	23821
827.183	23672
827.323	23710
827.462	23665
827.601	23843
827.741	23657
827.88	23764
828.02	23627
828.159	23684
828.298	23745
828.437	23619
828.577	23554
828.716	23771
828.855	23562
828.994	23376
829.134	23486
829.273	23410
829.412	23341
829.551	23322
829.69	23307
829.829	23372
829.968	23463
830.107	23433
830.246	23433
830.385	23337
830.524	23261
830.663	23056
830.802	23086
830.941	22946
831.08	22885
831.219	22923
831.357	23037
831.496	23136
831.635	22949
831.774	22778
831.913	22850
832.051	22733
832.19	22752
832.329	22767
832.467	22577
832.606	22577
832.744	22645
832.883	22508
833.022	22466
833.16	22637
833.299	22588
833.437	22535
833.576	22634
833.714	22588
833.852	22634
833.991	22698
834.129	22694
834.267	22767
834.406	22603
834.544	22660
834.682	22611
834.821	22588
834.959	22660
835.097	22535
835.235	22637
835.373	22546
835.511	22599
835.65	22367
835.788	22337
835.926	22249
836.064	22158
836.202	22230
836.34	22462
836.478	22512
836.615	22272
836.753	22451
836.891	22474
837.029	22333
837.167	22215
837.305	22223
837.443	22223
837.58	22295
837.718	22360
837.856	22367
837.993	22169
838.131	22181
838.269	22124
838.406	22135
838.544	22032
838.681	21892
838.819	21785
838.956	21679
839.094	21701
839.231	21698
839.369	21793
839.506	22185
839.643	21918
839.781	21671
839.918	21466
840.055	21583
840.193	21496
840.33	21610
840.467	21515
840.604	21587
840.742	21831
840.879	21321
841.016	21561
841.153	21424
841.29	21526
841.427	21530
841.564	21538
841.701	21450
841.838	21610
841.975	21336
842.112	21424
842.249	21291
842.385	21260
842.522	21561
842.659	21298
842.796	21256
842.933	21321
843.069	21294
843.206	21272
843.343	21302
843.479	21363
843.616	21199
843.752	21116
843.889	21047
844.025	21154
844.162	20914
844.298	21150
844.435	21001
844.571	21081
844.708	20952
844.844	21154
844.98	21142
845.117	21142
845.253	20971
845.389	20891
845.525	21119
845.661	21119
845.798	21294
845.934	21405
846.07	21428
846.206	21553
846.342	21504
846.478	21081
846.614	20864
846.75	20522
846.886	20575
847.022	20602
847.158	20537
847.294	20533
847.429	20564
847.565	20423
847.701	20826
847.837	20199
847.972	20191
848.108	20355
848.244	20180
848.379	20069
848.515	20027
848.65	20005
848.786	20024
848.921	19955
849.057	20016
849.192	20138
849.328	20062
849.463	20138
849.598	19986
849.734	19951
849.869	19932
850.004	19841
850.14	19734
850.275	19795
850.41	19624
850.545	19685
850.68	19696
850.815	19704
850.95	19723
851.085	19727
851.22	19788
851.355	19677
851.49	19738
851.625	19765
851.76	19704
851.895	19681
852.03	19643
852.165	19723
852.299	19780
852.434	19799
852.569	19670
852.703	19776
852.838	19845
852.973	19830
853.107	19765
853.242	19643
853.376	19533
853.511	19460
853.645	19575
853.78	19723
853.914	19556
854.048	19480
854.183	19502
854.317	19544
854.451	19799
854.585	19544
854.72	19651
854.854	19499
854.988	19426
855.122	19537
855.256	19362
855.39	19533
855.524	19559
855.658	19601
855.792	19529
855.926	19586
856.06	19506
856.194	19487
856.327	19552
856.461	19400
856.595	19571
856.729	19445
856.862	19628
856.996	19518
857.13	19605
857.263	19662
857.397	19620
857.53	19655
857.664	19525
857.797	19731
857.931	19499
858.064	19430
858.197	19696
858.331	19491
858.464	19430
858.597	19373
858.731	19441
858.864	19403
858.997	19453
859.13	19449
859.263	19434
859.396	19544
859.529	19499
859.662	19453
859.795	19308
859.928	19468
860.061	19544
860.194	19753
860.327	19430
860.46	19434
860.592	19548
860.725	19537
860.858	19559
860.99	19422
861.123	19266
861.256	19464
861.388	19525
861.521	19997
861.653	19331
861.786	19358
861.918	19400
862.05	19396
862.183	19438
862.315	19449
862.447	19521
862.58	19430
862.712	19270
862.844	19088
862.976	19304
863.108	19308
863.24	19510
863.372	19103
863.504	19206
863.636	19175
863.768	19164
863.9	19164
864.032	19053
864.164	19217
864.296	19190
864.428	19217
864.559	19289
864.691	19301
864.823	19202
864.954	19202
865.086	19122
865.217	19099
865.349	18996
865.48	19099
865.612	19122
865.743	19088
865.875	19076
866.006	18985
866.137	19095
866.269	19095
866.4	19065
866.531	19061
866.662	18981
866.793	19042
866.924	19019
867.055	19050
867.186	18973
867.317	19019
867.448	18973
867.579	18993
867.71	18943
867.841	18981
867.972	19126
868.103	19042
868.233	19046
868.364	19008
868.495	18989
868.625	19228
868.756	19324
868.886	19145
869.017	19213
869.147	19190
869.278	19362
869.408	19251
869.539	19304
869.669	19381
869.799	19350
869.929	19301
870.06	19278
870.19	19514
870.32	19537
870.45	19521
870.58	19647
870.71	19727
870.84	19681
870.97	19616
871.1	19746
871.23	19795
871.36	19731
871.489	19753
871.619	19868
871.749	19849
871.879	19917
872.008	19963
872.138	19841
872.267	19902
872.397	19746
872.526	19537
872.656	19693
872.785	19750
872.915	19890
873.044	19967
873.173	19826
873.303	20092
873.432	19970
873.561	19986
873.69	19791
873.819	19822
873.948	19959
874.077	19883
874.206	19811
874.335	19803
874.464	19898
874.593	20058
874.722	20054
874.851	20168
874.979	20149
875.108	20122
875.237	20138
875.365	20012
875.494	20092
875.623	20271
875.751	20081
875.88	20191
876.008	20259
876.136	20343
876.265	20609
876.393	20667
876.521	20594
876.65	20648
876.778	20545
876.906	20454
877.034	20545
877.162	20454
877.29	20488
877.418	20549
877.546	20571
877.674	20602
877.802	20526
877.93	20514
878.058	20564
878.185	20503
878.313	20549
878.441	20568
878.568	20427
878.696	20484
878.824	20606
878.951	20568
879.079	20788
879.206	20914
879.333	20880
879.461	20838
879.588	20963
879.715	21028
879.842	21036
879.97	20902
880.097	20549
880.224	20518
880.351	20537
880.478	20454
880.605	20404
880.732	20488
880.859	20712
880.986	20533
881.112	20434
881.239	20320
881.366	20237
881.493	20122
881.619	20073
881.746	20126
881.872	20016
881.999	20027
882.125	19986
882.252	20035
882.378	20054
882.505	20157
882.631	19772
882.757	19845
882.883	19932
883.01	19807
883.136	19666
883.262	19658
883.388	19662
883.514	19776
883.64	19734
883.766	19696
883.892	19540
884.018	19605
884.143	19772
884.269	19795
884.395	19518
884.52	19480
884.646	19457
884.772	19453
884.897	19331
885.023	19441
885.148	19525
885.274	19635
885.399	19571
885.524	19350
885.65	19400
885.775	19426
885.9	19350
886.025	19552
886.15	19365
886.275	19396
886.4	19179
886.525	19411
886.65	19278
886.775	19274
886.9	19434
887.025	19575
887.149	19483
887.274	19278
887.399	19194
887.523	19217
887.648	19004
887.773	19069
887.897	19129
888.021	19137
888.146	19133
888.27	19301
888.395	19251
888.519	19236
888.643	19194
888.767	19156
888.891	19141
889.015	18894
889.139	18905
889.263	18890
889.387	19046
889.511	19141
889.635	19031
889.759	18897
889.883	18894
890.006	18935
890.13	18943
890.254	18833
890.377	18768
890.501	18734
890.624	18597
890.748	18920
890.871	18604
890.995	18483
891.118	18498
891.241	18589
891.364	18479
891.488	18635
891.611	18448
891.734	18654
891.857	18551
891.98	18479
892.103	18551
892.226	18486
892.349	18479
892.471	18369
892.594	18372
892.717	18563
892.839	18407
892.962	18483
893.085	18635
893.207	18384
893.33	18361
893.452	18361
893.575	18654
893.697	18365
893.819	18540
893.941	18620
894.064	18681
894.186	18399
894.308	18289
894.43	18528
894.552	18642
894.674	18547
894.796	18399
894.918	18509
895.04	18426
895.161	18582
895.283	18544
895.405	18433
895.526	18426
895.648	18525
895.769	18498
895.891	18574
896.012	18426
896.134	18490
896.255	18601
896.376	18513
896.498	18574
896.619	18608
896.74	18525
896.861	18547
896.982	18734
897.103	19012
897.224	18848
897.345	18753
897.466	18585
897.587	18658
897.708	18943
897.828	18848
897.949	18635
898.07	18604
898.19	18684
898.311	18795
898.431	18726
898.552	18810
898.672	18791
898.792	18817
898.913	18753
899.033	18582
899.153	18608
899.273	18464
899.393	18616
899.513	18532
899.633	18578
899.753	18551
899.873	18429
899.993	18540
900.113	18452
900.232	18357
900.352	18551
900.472	18380
900.591	18304
900.711	18376
900.83	18338
900.95	18327
901.069	18460
901.189	18308
901.308	18007
901.427	17923
901.546	18015
901.665	17999
901.784	17946
901.904	17824
902.023	17767
902.141	17558
902.26	17501
902.379	17505
902.498	17505
902.617	17482
902.735	17452
902.854	17433
902.973	17326
903.091	17193
903.21	17033
903.328	17143
903.446	17121
903.565	16927
903.683	16953
903.801	16755
903.919	16877
904.038	16900
904.156	16767
904.274	16721
904.392	16725
904.51	16710
904.627	16736
904.745	16740
904.863	16702
904.981	16500
905.098	16325
905.216	16405
905.334	16379
905.451	16344
905.569	16314
905.686	16375
905.803	16341
905.921	16150
906.038	16249
906.155	16162
906.272	16025
906.389	16101
906.506	15934
906.623	15873
906.74	15812
906.857	15846
906.974	15819
907.091	15979
907.208	16124
907.324	15975
907.441	15762
907.557	15762
907.674	15568
907.79	15450
907.907	15545
908.023	15576
908.139	15747
908.256	15564
908.372	15515
908.488	15359
908.604	15283
908.72	15272
908.836	15218
908.952	15123
909.068	15340
909.184	15344
909.3	15272
909.415	15363
909.531	15321
909.647	15039
909.762	14941
909.878	15047
909.993	15009
910.108	15070
910.224	15001
910.339	14941
910.454	14826
910.57	14853
910.685	14765
910.8	15039
910.915	14872
911.03	14754
911.145	14617
911.259	14686
911.374	14648
911.489	14552
911.604	14511
911.718	14328
911.833	14381
911.947	14202
912.062	14176
912.176	14282
912.291	14282
912.405	14298
912.519	14568
912.633	14511
912.748	14396
912.862	14267
912.976	14180
913.09	14039
913.204	14142
913.318	14195
913.431	14149
913.545	14221
913.659	14107
913.772	14050
913.886	14031
914	14039
914.113	14062
914.226	14100
914.34	14024
914.453	13856
914.566	14092
914.68	13959
914.793	13902
914.906	13700
915.019	13719
915.132	13601
915.245	13620
915.358	13620
915.47	13772
915.583	13658
915.696	13681
915.809	13750
915.921	13803
916.034	13563
916.146	13571
916.259	13502
916.371	13670
916.483	13601
916.595	13548
916.708	13540
916.82	13563
916.932	13407
917.044	13457
917.156	13487
917.268	13430
917.38	13438
917.491	13312
917.603	13350
917.715	13415
917.826	13400
917.938	13312
918.049	13240
918.161	13282
918.272	13430
918.384	13491
918.495	13327
918.606	13160
918.717	13118
918.828	13152
918.939	13103
919.05	12993
919.161	13031
919.272	12901
919.383	12966
919.494	13152
919.604	13335
919.715	13004
919.826	12962
919.936	13015
920.047	13149
920.157	13046
920.267	13308
920.378	13164
920.488	13008
920.598	13183
920.708	13388
920.818	13221
920.928	13263
921.038	13304
921.148	13415
921.258	13046
921.368	12962
921.477	12798
921.587	12882
921.697	12741
921.806	12909
921.916	12639
922.025	12544
922.134	12509
922.244	12509
922.353	12547
922.462	12350
922.571	12334
922.68	12175
922.789	12194
922.898	12167
923.007	12125
923.116	12232
923.224	12152
923.333	12213
923.442	11980
923.55	12015
923.659	12003
923.767	12034
923.876	11920
923.984	12026
924.092	11977
924.201	11939
924.309	11992
924.417	11923
924.525	11840
924.633	11840
924.741	12764
924.849	11676
924.956	11912
925.064	11752
925.172	11630
925.279	11661
925.387	11672
925.494	11649
925.602	11733
925.709	11729
925.816	11566
925.924	11573
926.031	11775
926.138	11581
926.245	11646
926.352	11501
926.459	11710
926.566	11634
926.673	11505
926.779	11364
926.886	11387
926.993	11242
927.099	11261
927.206	11292
927.312	11155
927.419	11326
927.525	11258
927.631	11292
927.737	11178
927.843	11083
927.95	11010
928.056	11140
928.162	11159
928.267	11178
928.373	11767
928.479	11216
928.585	10991
928.69	11102
928.796	11071
928.901	10961
929.007	10812
929.112	11006
929.218	10904
929.323	10801
929.428	10908
929.533	10999
929.638	10748
929.743	10843
929.848	10896
929.953	10725
930.058	10675
930.163	10474
930.267	10531
930.372	10771
930.477	10512
930.581	10736
930.685	10599
930.79	10493
930.894	10428
930.998	10390
931.103	10554
931.207	10223
931.311	10158
931.415	10071
931.519	9869
931.623	9865
