Data from test_V78500241_2642.txt Node
Date: Fri Mar 25 14:52:06 CST 2022
User: usil
Spectrometer: V785-0024
Trigger mode: 0
Integration Time (sec): 4.000000E-1
Scans to average: 1
Nonlinearity correction enabled: false
Boxcar width: 0
Storing dark spectrum: false
XAxis mode: Wavelengths
Number of Pixels in Spectrum: 1024
>>>>>Begin Spectral Data<<<<<
801.071	22006
801.214	21797
801.356	21538
801.499	21420
801.641	21439
801.783	21515
801.926	21363
802.068	21252
802.211	21207
802.353	21085
802.496	20937
802.638	20853
802.78	20796
802.923	20750
803.065	20533
803.208	20545
803.35	20648
803.492	20796
803.635	20807
803.777	20648
803.919	20773
804.061	21047
804.204	20697
804.346	20530
804.488	20629
804.63	20697
804.773	20530
804.915	20488
805.057	20609
805.199	20587
805.341	20727
805.483	20705
805.626	20705
805.768	20533
805.91	20583
806.052	20606
806.194	20541
806.336	20598
806.478	20636
806.62	20446
806.762	20674
806.904	20788
807.046	21055
807.188	20887
807.33	21074
807.472	20986
807.614	20796
807.756	20868
807.898	20648
808.04	20571
808.182	20659
808.324	20708
808.465	20765
808.607	20845
808.749	20845
808.891	21138
809.033	21112
809.174	20899
809.316	20906
809.458	20849
809.6	20906
809.741	21127
809.883	20956
810.025	21112
810.166	21195
810.308	21051
810.45	21013
810.591	20906
810.733	20788
810.875	20750
811.016	20625
811.158	20514
811.299	20777
811.441	20785
811.582	20845
811.724	20731
811.865	20705
812.007	20720
812.148	20678
812.29	20659
812.431	20853
812.573	21207
812.714	21104
812.855	21226
812.997	21317
813.138	21462
813.279	21332
813.421	21199
813.562	21207
813.703	21017
813.845	20834
813.986	20579
814.127	20442
814.268	20290
814.41	20301
814.551	20324
814.692	20248
814.833	20157
814.974	20313
815.115	20256
815.256	20084
815.397	20195
815.539	20058
815.68	20050
815.821	19871
815.962	19997
816.103	19951
816.244	19784
816.385	19704
816.526	19658
816.666	19502
816.807	19339
816.948	19548
817.089	19620
817.23	19476
817.371	19251
817.512	19316
817.653	19426
817.793	19289
817.934	19396
818.075	19411
818.216	19240
818.356	19362
818.497	19179
818.638	19061
818.778	19042
818.919	19137
819.06	19171
819.2	19225
819.341	19301
819.481	19285
819.622	19392
819.762	19609
819.903	19460
820.043	19502
820.184	19343
820.324	19457
820.465	19514
820.605	19468
820.746	19331
820.886	19259
821.026	19339
821.167	19251
821.307	19426
821.447	19308
821.588	19221
821.728	18989
821.868	19053
822.008	18772
822.149	18810
822.289	18696
822.429	18490
822.569	18452
822.709	18475
822.849	18152
822.99	18334
823.13	18308
823.27	18277
823.41	18095
823.55	17961
823.69	18152
823.83	18197
823.97	18015
824.11	17863
824.25	17847
824.389	17889
824.529	17969
824.669	17760
824.809	17954
824.949	17996
825.089	17878
825.228	17775
825.368	17687
825.508	17729
825.648	17539
825.787	17824
825.927	17623
826.067	17665
826.206	17653
826.346	17657
826.485	17512
826.625	17581
826.765	17691
826.904	17573
827.044	17478
827.183	17334
827.323	17463
827.462	17459
827.601	17311
827.741	17250
827.88	17277
828.02	17231
828.159	17277
828.298	17360
828.437	17269
828.577	17383
828.716	17471
828.855	17250
828.994	17143
829.134	17041
829.273	17193
829.412	17045
829.551	17045
829.69	17117
829.829	16995
829.968	17124
830.107	17162
830.246	17181
830.385	17025
830.524	16961
830.663	16949
830.802	16778
830.941	16660
831.08	16618
831.219	16847
831.357	16801
831.496	16957
831.635	16675
831.774	16611
831.913	16577
832.051	16615
832.19	16500
832.329	16535
832.467	16481
832.606	16363
832.744	16443
832.883	16485
833.022	16402
833.16	16436
833.299	16466
833.437	16348
833.576	16478
833.714	16573
833.852	16459
833.991	16531
834.129	16466
834.267	16504
834.406	16451
834.544	16455
834.682	16504
834.821	16485
834.959	16615
835.097	16436
835.235	16596
835.373	16531
835.511	16466
835.65	16443
835.788	16451
835.926	16314
836.064	16257
836.202	16272
836.34	16481
836.478	16455
836.615	16287
836.753	16432
836.891	16417
837.029	16516
837.167	16405
837.305	16337
837.443	16261
837.58	16238
837.718	16215
837.856	16287
837.993	16215
838.131	16211
838.269	16265
838.406	16204
838.544	16139
838.681	16063
838.819	15922
838.956	15755
839.094	15778
839.231	15918
839.369	15972
839.506	16139
839.643	16188
839.781	15816
839.918	15739
840.055	15842
840.193	15789
840.33	15728
840.467	15804
840.604	15766
840.742	16067
840.879	15720
841.016	15705
841.153	15732
841.29	15945
841.427	15835
841.564	15907
841.701	15808
841.838	15774
841.975	15705
842.112	15804
842.249	15629
842.385	15515
842.522	15838
842.659	15652
842.796	15538
842.933	15682
843.069	15572
843.206	15572
843.343	15637
843.479	15701
843.616	15686
843.752	15431
843.889	15401
844.025	15435
844.162	15412
844.298	15454
844.435	15401
844.571	15306
844.708	15519
844.844	15500
844.98	15542
845.117	15534
845.253	15393
845.389	15203
845.525	15237
845.661	15370
845.798	15146
845.934	15321
846.07	15127
846.206	15195
846.342	15386
846.478	15157
846.614	15093
846.75	14986
846.886	14830
847.022	15074
847.158	14944
847.294	14963
847.429	15036
847.565	14971
847.701	15146
847.837	14716
847.972	14689
848.108	14880
848.244	14823
848.379	14556
848.515	14568
848.65	14503
848.786	14492
848.921	14644
849.057	14568
849.192	14636
849.328	14659
849.463	14568
849.598	14530
849.734	14526
849.869	14358
850.004	14336
850.14	14423
850.275	14381
850.41	14263
850.545	14309
850.68	14275
850.815	14267
850.95	14305
851.085	14556
851.22	14473
851.355	14408
851.49	14301
851.625	14351
851.76	14313
851.895	14168
852.03	14210
852.165	14294
852.299	14450
852.434	14419
852.569	14374
852.703	14355
852.838	14339
852.973	14476
853.107	14457
853.242	14305
853.376	14164
853.511	14081
853.645	14115
853.78	14332
853.914	14233
854.048	14187
854.183	14126
854.317	14218
854.451	14347
854.585	14214
854.72	14134
854.854	14218
854.988	14100
855.122	14161
855.256	14126
855.39	14168
855.524	14153
855.658	14320
855.792	14244
855.926	14271
856.06	14256
856.194	14221
856.327	14164
856.461	14180
856.595	14161
856.729	14096
856.862	14294
856.996	14218
857.13	14225
857.263	14244
857.397	14275
857.53	14149
857.664	14317
857.797	14256
857.931	14362
858.064	14313
858.197	14385
858.331	14199
858.464	14107
858.597	14142
858.731	14199
858.864	14218
858.997	14149
859.13	14214
859.263	14275
859.396	14286
859.529	14168
859.662	14183
859.795	14237
859.928	14252
860.061	14358
860.194	14355
860.327	14229
860.46	14240
860.592	14290
860.725	14404
860.858	14298
860.99	14134
861.123	14138
861.256	14252
861.388	14157
861.521	14891
861.653	14088
861.786	14069
861.918	14111
862.05	14035
862.183	14229
862.315	14172
862.447	14103
862.58	14084
862.712	14039
862.844	13959
862.976	13989
863.108	14058
863.24	14495
863.372	13955
863.504	13974
863.636	13925
863.768	14035
863.9	14069
864.032	13978
864.164	13947
864.296	14081
864.428	14172
864.559	14225
864.691	14050
864.823	14126
864.954	14084
865.086	14027
865.217	14020
865.349	13955
865.48	13982
865.612	14046
865.743	14058
865.875	14039
866.006	14096
866.137	14035
866.269	14039
866.4	14001
866.531	13894
866.662	13944
866.793	13997
866.924	14103
867.055	13970
867.186	14008
867.317	13928
867.448	13993
867.579	13959
867.71	13928
867.841	13932
867.972	13974
868.103	14046
868.233	13963
868.364	14107
868.495	14183
868.625	14191
868.756	14381
868.886	14248
869.017	14305
869.147	14343
869.278	14225
869.408	14309
869.539	14290
869.669	14336
869.799	14343
869.929	14347
870.06	14370
870.19	14629
870.32	14602
870.45	14636
870.58	14632
870.71	14754
870.84	14712
870.97	14674
871.1	14720
871.23	14849
871.36	14838
871.489	14765
871.619	14872
871.749	14819
871.879	14925
872.008	15058
872.138	14918
872.267	14838
872.397	14670
872.526	14644
872.656	14625
872.785	14663
872.915	14902
873.044	15055
873.173	14971
873.303	14868
873.432	14960
873.561	15028
873.69	14902
873.819	14998
873.948	14952
874.077	14921
874.206	14823
874.335	14933
874.464	15055
874.593	15233
874.722	15161
874.851	15321
874.979	15195
875.108	15382
875.237	15226
875.365	15104
875.494	15241
875.623	15268
875.751	15184
875.88	15287
876.008	15450
876.136	15458
876.265	15622
876.393	15755
876.521	15701
876.65	15701
876.778	15633
876.906	15557
877.034	15606
877.162	15587
877.29	15587
877.418	15701
877.546	15656
877.674	15648
877.802	15679
877.93	15739
878.058	15595
878.185	15576
878.313	15599
878.441	15690
878.568	15420
878.696	15515
878.824	15595
878.951	15766
879.079	15876
879.206	15857
879.333	15793
879.461	15751
879.588	15812
879.715	15823
879.842	16025
879.97	15793
880.097	15454
880.224	15428
880.351	15469
880.478	15515
880.605	15450
880.732	15477
880.859	15686
880.986	15454
881.112	15542
881.239	15428
881.366	15260
881.493	15211
881.619	15142
881.746	15131
881.872	15157
881.999	15138
882.125	15085
882.252	15195
882.378	15230
882.505	15222
882.631	15097
882.757	14914
882.883	15017
883.01	14883
883.136	14975
883.262	14887
883.388	14853
883.514	15085
883.64	15005
883.766	14914
883.892	14800
884.018	14811
884.143	14994
884.269	15047
884.395	14735
884.52	14651
884.646	14678
884.772	14594
884.897	14613
885.023	14663
885.148	14857
885.274	14800
885.399	14807
885.524	14697
885.65	14754
885.775	14667
885.9	14686
886.025	14834
886.15	14750
886.275	14556
886.4	14625
886.525	14659
886.65	14705
886.775	14625
886.9	14746
887.025	14838
887.149	14640
887.274	14473
887.399	14412
887.523	14393
887.648	14438
887.773	14419
887.897	14545
888.021	14606
888.146	14465
888.27	14629
888.395	14594
888.519	14560
888.643	14533
888.767	14587
888.891	14450
889.015	14275
889.139	14476
889.263	14374
889.387	14454
889.511	14587
889.635	14511
889.759	14343
889.883	14294
890.006	14469
890.13	14469
890.254	14256
890.377	14309
890.501	14145
890.624	14172
890.748	14248
890.871	14077
890.995	13982
891.118	13959
891.241	14145
891.364	13997
891.488	14172
891.611	14103
891.734	14130
891.857	14142
891.98	14123
892.103	14199
892.226	14130
892.349	14035
892.471	13913
892.594	14134
892.717	14062
892.839	14100
892.962	14123
893.085	14161
893.207	14123
893.33	13928
893.452	13944
893.575	14149
893.697	14126
893.819	14290
893.941	14290
894.064	14233
894.186	14077
894.308	14046
894.43	14145
894.552	14267
894.674	14271
894.796	14005
894.918	14119
895.04	14050
895.161	14218
895.283	14176
895.405	14008
895.526	14237
895.648	14267
895.769	14286
895.891	14214
896.012	14183
896.134	14278
896.255	14244
896.376	14286
896.498	14229
896.619	14339
896.74	14221
896.861	14252
896.982	14621
897.103	14712
897.224	14488
897.345	14503
897.466	14358
897.587	14549
897.708	14590
897.828	14556
897.949	14423
898.07	14404
898.19	14522
898.311	14587
898.431	14499
898.552	14568
898.672	14689
898.792	14765
898.913	14530
899.033	14526
899.153	14606
899.273	14343
899.393	14446
899.513	14431
899.633	14415
899.753	14537
899.873	14552
899.993	14564
900.113	14400
900.232	14389
900.352	14450
900.472	14317
900.591	14320
900.711	14328
900.83	14294
900.95	14442
901.069	14332
901.189	14374
901.308	13864
901.427	13982
901.546	13955
901.665	14008
901.784	13894
901.904	13795
902.023	13803
902.141	13643
902.26	13506
902.379	13616
902.498	13518
902.617	13502
902.735	13643
902.854	13483
902.973	13518
903.091	13297
903.21	13221
903.328	13285
903.446	13209
903.565	13145
903.683	13084
903.801	13034
903.919	13152
904.038	13129
904.156	12875
904.274	13012
904.392	12939
904.51	12905
904.627	12913
904.745	12916
904.863	12996
904.981	12703
905.098	12566
905.216	12612
905.334	12760
905.451	12719
905.569	12726
905.686	12662
905.803	12639
905.921	12403
906.038	12650
906.155	12502
906.272	12357
906.389	12407
906.506	12232
906.623	12155
906.74	12182
906.857	12072
906.974	12155
907.091	12304
907.208	12270
907.324	12346
907.441	12129
907.557	11927
907.674	11874
907.79	11904
907.907	11920
908.023	11973
908.139	11980
908.256	11931
908.372	11889
908.488	11885
908.604	11748
908.72	11779
908.836	11783
908.952	11733
909.068	11824
909.184	11809
909.3	11703
909.415	11764
909.531	11764
909.647	11535
909.762	11566
909.878	11444
909.993	11501
910.108	11414
910.224	11547
910.339	11516
910.454	11364
910.57	11341
910.685	11299
910.8	11585
910.915	11490
911.03	11459
911.145	11231
911.259	11151
911.374	11181
911.489	11143
911.604	11010
911.718	10953
911.833	10999
911.947	10854
912.062	10843
912.176	10904
912.291	11010
912.405	11045
912.519	11086
912.633	11261
912.748	11045
912.862	10957
912.976	10839
913.09	10717
913.204	10721
913.318	10801
913.431	10938
913.545	10949
913.659	11022
913.772	10908
913.886	10797
914	10580
914.113	10843
914.226	10858
914.34	10858
914.453	10565
914.566	10797
914.68	10649
914.793	10729
914.906	10432
915.019	10413
915.132	10325
915.245	10542
915.358	10500
915.47	10451
915.583	10516
915.696	10485
915.809	10622
915.921	10626
916.034	10421
916.146	10451
916.259	10470
916.371	10470
916.483	10500
916.595	10382
916.708	10356
916.82	10440
916.932	10363
917.044	10348
917.156	10371
917.268	10318
917.38	10303
917.491	10306
917.603	10325
917.715	10394
917.826	10382
917.938	10360
918.049	10131
918.161	10382
918.272	10451
918.384	10428
918.495	10333
918.606	10200
918.717	10139
918.828	10181
918.939	10158
919.05	10116
919.161	10257
919.272	10029
919.383	10078
919.494	10207
919.604	10409
919.715	10223
919.826	10177
919.936	10147
920.047	10227
920.157	10154
920.267	10405
920.378	10287
920.488	10173
920.598	10398
920.708	10615
920.818	10363
920.928	10276
921.038	10672
921.148	10474
921.258	10268
921.368	10131
921.477	10059
921.587	10090
921.697	9895
921.806	9998
921.916	9915
922.025	9770
922.134	9698
922.244	9671
922.353	9781
922.462	9663
922.571	9641
922.68	9435
922.789	9443
922.898	9466
923.007	9408
923.116	9557
923.224	9462
923.333	9454
923.442	9302
923.55	9344
923.659	9302
923.767	9378
923.876	9264
923.984	9447
924.092	9302
924.201	9344
924.309	9351
924.417	9310
924.525	9268
924.633	9275
924.741	10063
924.849	9070
924.956	9256
925.064	9074
925.172	9081
925.279	9077
925.387	9074
925.494	9176
925.602	9253
925.709	9256
925.816	9032
925.924	9081
926.031	9268
926.138	9157
926.245	9161
926.352	9039
926.459	9093
926.566	9119
926.673	8982
926.779	9024
926.886	8952
926.993	8830
927.099	8853
927.206	8876
927.312	8758
927.419	8872
927.525	8800
927.631	8887
927.737	8849
927.843	8727
927.95	8587
928.056	8708
928.162	8686
928.267	8727
928.373	9348
928.479	8796
928.585	8530
928.69	8705
928.796	8804
928.901	8667
929.007	8587
929.112	8640
929.218	8579
929.323	8629
929.428	8587
929.533	8629
929.638	8511
929.743	8579
929.848	8537
929.953	8522
930.058	8511
930.163	8362
930.267	8320
930.372	8476
930.477	8252
930.581	8537
930.685	8370
930.79	8221
930.894	8259
930.998	8233
931.103	8377
931.207	8031
931.311	7982
931.415	7963
931.519	7784
931.623	7780
