Data from test_V78500241_2909.txt Node
Date: Fri Mar 25 14:53:58 CST 2022
User: usil
Spectrometer: V785-0024
Trigger mode: 0
Integration Time (sec): 4.000000E-1
Scans to average: 1
Nonlinearity correction enabled: false
Boxcar width: 0
Storing dark spectrum: false
XAxis mode: Wavelengths
Number of Pixels in Spectrum: 1024
>>>>>Begin Spectral Data<<<<<
801.071	22070
801.214	21918
801.356	21686
801.499	21614
801.641	21458
801.783	21424
801.926	21420
802.068	21374
802.211	21401
802.353	21256
802.496	21096
802.638	20876
802.78	20925
802.923	20899
803.065	20678
803.208	20758
803.35	20705
803.492	20880
803.635	20830
803.777	20765
803.919	20872
804.061	21169
804.204	20765
804.346	20743
804.488	20735
804.63	20773
804.773	20499
804.915	20602
805.057	20777
805.199	20587
805.341	20617
805.483	20864
805.626	20754
805.768	20674
805.91	20746
806.052	20701
806.194	20495
806.336	20773
806.478	20670
806.62	20648
806.762	20872
806.904	20823
807.046	21096
807.188	20830
807.33	21104
807.472	21184
807.614	20982
807.756	20971
807.898	20796
808.04	20712
808.182	20792
808.324	20743
808.465	20781
808.607	21119
808.749	21123
808.891	21195
809.033	21294
809.174	21237
809.316	21131
809.458	21119
809.6	21062
809.741	21100
809.883	21085
810.025	21222
810.166	21142
810.308	21211
810.45	21100
810.591	21112
810.733	21001
810.875	20823
811.016	20792
811.158	20788
811.299	20864
811.441	20899
811.582	20834
811.724	20823
811.865	20925
812.007	20845
812.148	20769
812.29	20861
812.431	20994
812.573	21135
812.714	21211
812.855	21256
812.997	21488
813.138	21580
813.279	21401
813.421	21268
813.562	21176
813.703	21123
813.845	20986
813.986	20693
814.127	20583
814.268	20518
814.41	20351
814.551	20415
814.692	20526
814.833	20332
814.974	20275
815.115	20419
815.256	20237
815.397	20214
815.539	20206
815.68	20130
815.821	20126
815.962	20077
816.103	20153
816.244	19795
816.385	19837
816.526	19780
816.666	19670
816.807	19506
816.948	19643
817.089	19674
817.23	19594
817.371	19487
817.512	19495
817.653	19548
817.793	19426
817.934	19388
818.075	19495
818.216	19426
818.356	19506
818.497	19354
818.638	19110
818.778	19110
818.919	19335
819.06	19194
819.2	19350
819.341	19274
819.481	19373
819.622	19491
819.762	19788
819.903	19575
820.043	19487
820.184	19445
820.324	19468
820.465	19529
820.605	19472
820.746	19430
820.886	19297
821.026	19460
821.167	19358
821.307	19480
821.447	19438
821.588	19301
821.728	19198
821.868	19027
822.008	18840
822.149	18825
822.289	18779
822.429	18669
822.569	18559
822.709	18445
822.849	18384
822.99	18350
823.13	18350
823.27	18262
823.41	18163
823.55	17996
823.69	18152
823.83	18201
823.97	18228
824.11	17923
824.25	17977
824.389	17950
824.529	18049
824.669	18038
824.809	18064
824.949	18034
825.089	17935
825.228	17893
825.368	17805
825.508	17699
825.648	17798
825.787	17779
825.927	17798
826.067	17661
826.206	17790
826.346	17668
826.485	17779
826.625	17638
826.765	17783
826.904	17954
827.044	17482
827.183	17455
827.323	17425
827.462	17509
827.601	17440
827.741	17455
827.88	17395
828.02	17315
828.159	17334
828.298	17372
828.437	17478
828.577	17315
828.716	17551
828.855	17398
828.994	17151
829.134	17155
829.273	17239
829.412	16991
829.551	17181
829.69	17220
829.829	17231
829.968	17315
830.107	17216
830.246	17136
830.385	17132
830.524	16999
830.663	16984
830.802	16850
830.941	16744
831.08	16725
831.219	16885
831.357	16839
831.496	17090
831.635	16748
831.774	16702
831.913	16634
832.051	16546
832.19	16413
832.329	16706
832.467	16493
832.606	16337
832.744	16474
832.883	16466
833.022	16337
833.16	16424
833.299	16436
833.437	16481
833.576	16489
833.714	16519
833.852	16493
833.991	16615
834.129	16516
834.267	16535
834.406	16462
834.544	16535
834.682	16485
834.821	16455
834.959	16706
835.097	16542
835.235	16596
835.373	16508
835.511	16443
835.65	16428
835.788	16424
835.926	16280
836.064	16200
836.202	16242
836.34	16459
836.478	16538
836.615	16390
836.753	16481
836.891	16558
837.029	16455
837.167	16352
837.305	16249
837.443	16310
837.58	16204
837.718	16421
837.856	16276
837.993	16242
838.131	16310
838.269	16246
838.406	16211
838.544	16200
838.681	15972
838.819	15956
838.956	15869
839.094	15880
839.231	15816
839.369	15975
839.506	16181
839.643	16048
839.781	15857
839.918	15827
840.055	15701
840.193	15846
840.33	15682
840.467	15854
840.604	15899
840.742	16036
840.879	15675
841.016	15770
841.153	15637
841.29	15865
841.427	15762
841.564	15781
841.701	15937
841.838	15682
841.975	15675
842.112	15747
842.249	15606
842.385	15568
842.522	15778
842.659	15667
842.796	15557
842.933	15648
843.069	15549
843.206	15523
843.343	15717
843.479	15515
843.616	15561
843.752	15363
843.889	15454
844.025	15564
844.162	15291
844.298	15564
844.435	15435
844.571	15393
844.708	15447
844.844	15572
844.98	15477
845.117	15526
845.253	15302
845.389	15275
845.525	15336
845.661	15325
845.798	15081
845.934	15233
846.07	15131
846.206	15180
846.342	15230
846.478	15294
846.614	15051
846.75	14872
846.886	14838
847.022	15032
847.158	15036
847.294	14963
847.429	14948
847.565	14960
847.701	15211
847.837	14735
847.972	14705
848.108	14727
848.244	14788
848.379	14568
848.515	14545
848.65	14461
848.786	14549
848.921	14541
849.057	14648
849.192	14617
849.328	14610
849.463	14602
849.598	14590
849.734	14533
849.869	14393
850.004	14351
850.14	14366
850.275	14377
850.41	14191
850.545	14339
850.68	14290
850.815	14385
850.95	14351
851.085	14514
851.22	14385
851.355	14206
851.49	14267
851.625	14305
851.76	14237
851.895	14195
852.03	14161
852.165	14286
852.299	14423
852.434	14457
852.569	14419
852.703	14305
852.838	14450
852.973	14503
853.107	14442
853.242	14259
853.376	14256
853.511	14027
853.645	14225
853.78	14202
853.914	14183
854.048	14138
854.183	14214
854.317	14221
854.451	14298
854.585	14252
854.72	14176
854.854	14252
854.988	14073
855.122	14149
855.256	14050
855.39	14115
855.524	14381
855.658	14305
855.792	14206
855.926	14244
856.06	14248
856.194	14294
856.327	14259
856.461	14138
856.595	14301
856.729	14248
856.862	14366
856.996	14145
857.13	14221
857.263	14309
857.397	14347
857.53	14126
857.664	14286
857.797	14286
857.931	14339
858.064	14199
858.197	14313
858.331	14164
858.464	14176
858.597	14054
858.731	14218
858.864	14225
858.997	14195
859.13	14126
859.263	14332
859.396	14320
859.529	14138
859.662	14142
859.795	14161
859.928	14267
860.061	14267
860.194	14393
860.327	14221
860.46	14187
860.592	14199
860.725	14305
860.858	14328
860.99	14214
861.123	14111
861.256	14145
861.388	14206
861.521	14838
861.653	14153
861.786	14035
861.918	13982
862.05	14130
862.183	14172
862.315	14107
862.447	14168
862.58	14123
862.712	13932
862.844	13925
862.976	14111
863.108	14035
863.24	14347
863.372	13898
863.504	14012
863.636	13955
863.768	14035
863.9	14012
864.032	13902
864.164	13959
864.296	14054
864.428	14123
864.559	14138
864.691	14092
864.823	13993
864.954	13993
865.086	14088
865.217	13982
865.349	13849
865.48	13955
865.612	14008
865.743	14138
865.875	13936
866.006	13837
866.137	14043
866.269	13955
866.4	13974
866.531	13902
866.662	13811
866.793	13932
866.924	13989
867.055	13955
867.186	13997
867.317	13856
867.448	13883
867.579	13879
867.71	13864
867.841	13868
867.972	13955
868.103	13997
868.233	14027
868.364	14008
868.495	14084
868.625	14206
868.756	14385
868.886	14107
869.017	14161
869.147	14164
869.278	14298
869.408	14214
869.539	14157
869.669	14256
869.799	14305
869.929	14374
870.06	14286
870.19	14545
870.32	14556
870.45	14549
870.58	14617
870.71	14686
870.84	14811
870.97	14556
871.1	14629
871.23	14796
871.36	14750
871.489	14762
871.619	14743
871.749	14804
871.879	14887
872.008	14842
872.138	14796
872.267	14815
872.397	14689
872.526	14602
872.656	14568
872.785	14788
872.915	14864
873.044	14868
873.173	14849
873.303	14807
873.432	14948
873.561	14842
873.69	14902
873.819	14902
873.948	14921
874.077	14857
874.206	14750
874.335	14857
874.464	15020
874.593	15180
874.722	15077
874.851	15214
874.979	15165
875.108	15214
875.237	15104
875.365	15211
875.494	15104
875.623	15138
875.751	15157
875.88	15085
876.008	15287
876.136	15389
876.265	15633
876.393	15762
876.521	15625
876.65	15679
876.778	15656
876.906	15625
877.034	15481
877.162	15599
877.29	15538
877.418	15584
877.546	15496
877.674	15618
877.802	15595
877.93	15595
878.058	15477
878.185	15515
878.313	15595
878.441	15572
878.568	15515
878.696	15519
878.824	15557
878.951	15667
879.079	15793
879.206	15865
879.333	15724
879.461	15633
879.588	15717
879.715	15793
879.842	15884
879.97	15679
880.097	15386
880.224	15351
880.351	15420
880.478	15481
880.605	15344
880.732	15416
880.859	15648
880.986	15473
881.112	15466
881.239	15336
881.366	15268
881.493	15184
881.619	15032
881.746	15146
881.872	15142
881.999	15032
882.125	15112
882.252	15180
882.378	15051
882.505	15203
882.631	14948
882.757	14883
882.883	14967
883.01	14845
883.136	14868
883.262	14765
883.388	14712
883.514	14823
883.64	14921
883.766	14883
883.892	14640
884.018	14815
884.143	14941
884.269	14956
884.395	14712
884.52	14583
884.646	14594
884.772	14568
884.897	14549
885.023	14602
885.148	14743
885.274	14781
885.399	14705
885.524	14606
885.65	14617
885.775	14537
885.9	14602
886.025	14815
886.15	14594
886.275	14571
886.4	14492
886.525	14575
886.65	14530
886.775	14568
886.9	14712
887.025	14762
887.149	14693
887.274	14423
887.399	14351
887.523	14454
887.648	14381
887.773	14298
887.897	14511
888.021	14484
888.146	14393
888.27	14495
888.395	14644
888.519	14461
888.643	14507
888.767	14511
888.891	14389
889.015	14298
889.139	14423
889.263	14351
889.387	14457
889.511	14522
889.635	14366
889.759	14271
889.883	14332
890.006	14347
890.13	14415
890.254	14168
890.377	14278
890.501	14187
890.624	14069
890.748	14237
890.871	14058
890.995	13970
891.118	13890
891.241	13978
891.364	14062
891.488	14069
891.611	13986
891.734	14035
891.857	14130
891.98	14054
892.103	14084
892.226	13940
892.349	13951
892.471	13860
892.594	13982
892.717	13978
892.839	14016
892.962	14031
893.085	14119
893.207	14111
893.33	13951
893.452	13928
893.575	14035
893.697	14058
893.819	14092
893.941	14180
894.064	14115
894.186	13967
894.308	13951
894.43	14187
894.552	14240
894.674	14195
894.796	14020
894.918	14077
895.04	14001
895.161	14176
895.283	14100
895.405	14008
895.526	14073
895.648	14153
895.769	14161
895.891	14180
896.012	14233
896.134	14119
896.255	14214
896.376	14130
896.498	14088
896.619	14298
896.74	14225
896.861	14320
896.982	14492
897.103	14697
897.224	14507
897.345	14465
897.466	14358
897.587	14488
897.708	14613
897.828	14533
897.949	14431
898.07	14259
898.19	14473
898.311	14625
898.431	14526
898.552	14480
898.672	14610
898.792	14583
898.913	14560
899.033	14488
899.153	14431
899.273	14374
899.393	14396
899.513	14438
899.633	14412
899.753	14469
899.873	14370
899.993	14503
900.113	14396
900.232	14415
900.352	14412
900.472	14267
900.591	14278
900.711	14286
900.83	14176
900.95	14469
901.069	14328
901.189	14153
901.308	14043
901.427	13921
901.546	13871
901.665	13978
901.784	13997
901.904	13871
902.023	13738
902.141	13552
902.26	13533
902.379	13609
902.498	13559
902.617	13438
902.735	13540
902.854	13495
902.973	13445
903.091	13293
903.21	13293
903.328	13240
903.446	13168
903.565	13160
903.683	13076
903.801	12993
903.919	13091
904.038	13126
904.156	12848
904.274	12958
904.392	12901
904.51	12837
904.627	12916
904.745	12966
904.863	12924
904.981	12703
905.098	12559
905.216	12570
905.334	12639
905.451	12692
905.569	12570
905.686	12623
905.803	12620
905.921	12395
906.038	12574
906.155	12498
906.272	12224
906.389	12300
906.506	12266
906.623	12243
906.74	12152
906.857	12034
906.974	12159
907.091	12235
907.208	12273
907.324	12171
907.441	12030
907.557	11969
907.674	11996
907.79	11847
907.907	11885
908.023	12007
908.139	11969
908.256	11748
908.372	11882
908.488	11863
908.604	11680
908.72	11665
908.836	11710
908.952	11710
909.068	11703
909.184	11843
909.3	11695
909.415	11802
909.531	11676
909.647	11448
909.762	11478
909.878	11421
909.993	11497
910.108	11440
910.224	11376
910.339	11482
910.454	11334
910.57	11296
910.685	11261
910.8	11509
910.915	11395
911.03	11383
911.145	11159
911.259	11124
911.374	11128
911.489	11037
911.604	11041
911.718	10961
911.833	10934
911.947	10816
912.062	10668
912.176	10942
912.291	10904
912.405	10889
912.519	11117
912.633	11193
912.748	10999
912.862	10919
912.976	10774
913.09	10748
913.204	10767
913.318	10854
913.431	10919
913.545	10877
913.659	10972
913.772	10763
913.886	10683
914	10691
914.113	10755
914.226	10828
914.34	10767
914.453	10561
914.566	10831
914.68	10664
914.793	10588
914.906	10451
915.019	10424
915.132	10382
915.245	10424
915.358	10382
915.47	10428
915.583	10428
915.696	10424
915.809	10542
915.921	10523
916.034	10436
916.146	10394
916.259	10333
916.371	10516
916.483	10413
916.595	10329
916.708	10356
916.82	10409
916.932	10344
917.044	10390
917.156	10386
917.268	10219
917.38	10280
917.491	10261
917.603	10287
917.715	10299
917.826	10417
917.938	10287
918.049	10105
918.161	10318
918.272	10478
918.384	10432
918.495	10303
918.606	10162
918.717	10105
918.828	10109
918.939	10219
919.05	10040
919.161	10154
919.272	9991
919.383	10010
919.494	10196
919.604	10363
919.715	10109
919.826	10116
919.936	10048
920.047	10188
920.157	10166
920.267	10379
920.378	10238
920.488	10173
920.598	10360
920.708	10436
920.818	10299
920.928	10474
921.038	10485
921.148	10436
921.258	10215
921.368	10086
921.477	10017
921.587	10002
921.697	9861
921.806	9991
921.916	9892
922.025	9675
922.134	9747
922.244	9606
922.353	9682
922.462	9599
922.571	9576
922.68	9443
922.789	9329
922.898	9401
923.007	9359
923.116	9485
923.224	9393
923.333	9370
923.442	9279
923.55	9275
923.659	9374
923.767	9382
923.876	9298
923.984	9325
924.092	9245
924.201	9302
924.309	9218
924.417	9275
924.525	9195
924.633	9245
924.741	10150
924.849	9097
924.956	9207
925.064	9100
925.172	8986
925.279	9039
925.387	9062
925.494	9051
925.602	9165
925.709	9127
925.816	9047
925.924	9108
926.031	9161
926.138	9138
926.245	9085
926.352	9051
926.459	9104
926.566	9146
926.673	8998
926.779	8887
926.886	8937
926.993	8842
927.099	8785
927.206	8701
927.312	8773
927.419	8792
927.525	8807
927.631	8868
927.737	8693
927.843	8682
927.95	8613
928.056	8697
928.162	8590
928.267	8640
928.373	9329
928.479	8838
928.585	8560
928.69	8621
928.796	8651
928.901	8587
929.007	8404
929.112	8594
929.218	8587
929.323	8549
929.428	8507
929.533	8644
929.638	8537
929.743	8408
929.848	8495
929.953	8488
930.058	8431
930.163	8279
930.267	8294
930.372	8480
930.477	8259
930.581	8457
930.685	8370
930.79	8206
930.894	8263
930.998	8229
931.103	8358
931.207	8005
931.311	7986
931.415	7898
931.519	7742
931.623	7734
