Data from test_V78500241_3694.txt Node
Date: Fri Mar 25 14:59:26 CST 2022
User: usil
Spectrometer: V785-0024
Trigger mode: 0
Integration Time (sec): 4.000000E-1
Scans to average: 1
Nonlinearity correction enabled: false
Boxcar width: 0
Storing dark spectrum: false
XAxis mode: Wavelengths
Number of Pixels in Spectrum: 1024
>>>>>Begin Spectral Data<<<<<
801.071	21998
801.214	21850
801.356	21492
801.499	21511
801.641	21313
801.783	21363
801.926	21192
802.068	21165
802.211	21135
802.353	21062
802.496	20895
802.638	20830
802.78	20792
802.923	20705
803.065	20659
803.208	20408
803.35	20667
803.492	20712
803.635	20731
803.777	20564
803.919	20739
804.061	21017
804.204	20724
804.346	20412
804.488	20613
804.63	20541
804.773	20332
804.915	20590
805.057	20590
805.199	20461
805.341	20552
805.483	20629
805.626	20583
805.768	20457
805.91	20571
806.052	20549
806.194	20446
806.336	20682
806.478	20461
806.62	20480
806.762	20659
806.904	20670
807.046	21005
807.188	20785
807.33	20876
807.472	20823
807.614	20670
807.756	20659
807.898	20678
808.04	20492
808.182	20530
808.324	20644
808.465	20522
808.607	20674
808.749	20834
808.891	20834
809.033	21074
809.174	20963
809.316	20952
809.458	20864
809.6	20777
809.741	20838
809.883	20838
810.025	21028
810.166	20994
810.308	21154
810.45	21001
810.591	20849
810.733	20716
810.875	20651
811.016	20575
811.158	20415
811.299	20693
811.441	20762
811.582	20750
811.724	20419
811.865	20549
812.007	20541
812.148	20613
812.29	20708
812.431	20777
812.573	20891
812.714	20941
812.855	21123
812.997	21146
813.138	21264
813.279	21195
813.421	21108
813.562	21039
813.703	20937
813.845	20899
813.986	20419
814.127	20332
814.268	20271
814.41	20142
814.551	20157
814.692	20290
814.833	20016
814.974	20062
815.115	20084
815.256	20024
815.397	19989
815.539	20054
815.68	19883
815.821	19894
815.962	19898
816.103	19837
816.244	19696
816.385	19514
816.526	19670
816.666	19422
816.807	19354
816.948	19369
817.089	19407
817.23	19293
817.371	19263
817.512	19285
817.653	19266
817.793	19263
817.934	19259
818.075	19365
818.216	19263
818.356	19168
818.497	19042
818.638	19008
818.778	18947
818.919	19023
819.06	19076
819.2	19050
819.341	19244
819.481	19187
819.622	19270
819.762	19434
819.903	19354
820.043	19289
820.184	19285
820.324	19209
820.465	19335
820.605	19335
820.746	19263
820.886	19133
821.026	19228
821.167	19171
821.307	19266
821.447	19293
821.588	19152
821.728	19050
821.868	18878
822.008	18760
822.149	18707
822.289	18582
822.429	18384
822.569	18380
822.709	18433
822.849	18300
822.99	18258
823.13	18224
823.27	18148
823.41	18057
823.55	17916
823.69	18076
823.83	18003
823.97	17901
824.11	17748
824.25	17718
824.389	17634
824.529	17836
824.669	17798
824.809	17870
824.949	17832
825.089	17840
825.228	17630
825.368	17558
825.508	17581
825.648	17520
825.787	17452
825.927	17539
826.067	17433
826.206	17467
826.346	17509
826.485	17562
826.625	17562
826.765	17691
826.904	17535
827.044	17239
827.183	17261
827.323	17250
827.462	17353
827.601	17246
827.741	17261
827.88	17200
828.02	17090
828.159	17159
828.298	17284
828.437	17296
828.577	17216
828.716	17341
828.855	17193
828.994	17022
829.134	16911
829.273	17094
829.412	16968
829.551	17045
829.69	16961
829.829	17018
829.968	17071
830.107	17121
830.246	16984
830.385	16938
830.524	16820
830.663	16862
830.802	16729
830.941	16588
831.08	16577
831.219	16634
831.357	16664
831.496	16805
831.635	16554
831.774	16569
831.913	16538
832.051	16329
832.19	16451
832.329	16497
832.467	16200
832.606	16325
832.744	16223
832.883	16287
833.022	16348
833.16	16352
833.299	16356
833.437	16310
833.576	16306
833.714	16386
833.852	16382
833.991	16402
834.129	16451
834.267	16497
834.406	16367
834.544	16493
834.682	16402
834.821	16306
834.959	16588
835.097	16295
835.235	16481
835.373	16394
835.511	16375
835.65	16295
835.788	16257
835.926	16166
836.064	16090
836.202	16074
836.34	16360
836.478	16379
836.615	16310
836.753	16211
836.891	16390
837.029	16265
837.167	16211
837.305	16139
837.443	16200
837.58	16078
837.718	16154
837.856	16181
837.993	16032
838.131	16177
838.269	16112
838.406	15953
838.544	16032
838.681	15945
838.819	15880
838.956	15739
839.094	15682
839.231	15739
839.369	15808
839.506	16040
839.643	15956
839.781	15774
839.918	15724
840.055	15713
840.193	15675
840.33	15618
840.467	15717
840.604	15747
840.742	15968
840.879	15572
841.016	15564
841.153	15599
841.29	15812
841.427	15675
841.564	15701
841.701	15667
841.838	15724
841.975	15622
842.112	15599
842.249	15633
842.385	15500
842.522	15724
842.659	15618
842.796	15568
842.933	15485
843.069	15435
843.206	15443
843.343	15553
843.479	15488
843.616	15523
843.752	15268
843.889	15298
844.025	15359
844.162	15287
844.298	15408
844.435	15268
844.571	15161
844.708	15458
844.844	15439
844.98	15447
845.117	15340
845.253	15142
845.389	15195
845.525	15214
845.661	15131
845.798	15100
845.934	15131
846.07	15112
846.206	15089
846.342	15245
846.478	15028
846.614	14944
846.75	14842
846.886	14880
847.022	14963
847.158	14845
847.294	14925
847.429	14967
847.565	14769
847.701	15039
847.837	14632
847.972	14518
848.108	14659
848.244	14697
848.379	14457
848.515	14431
848.65	14442
848.786	14450
848.921	14408
849.057	14488
849.192	14644
849.328	14560
849.463	14579
849.598	14514
849.734	14404
849.869	14347
850.004	14256
850.14	14294
850.275	14282
850.41	14191
850.545	14138
850.68	14195
850.815	14218
850.95	14237
851.085	14301
851.22	14282
851.355	14320
851.49	14221
851.625	14142
851.76	14237
851.895	14195
852.03	14138
852.165	14145
852.299	14248
852.434	14256
852.569	14271
852.703	14313
852.838	14275
852.973	14336
853.107	14381
853.242	14172
853.376	14130
853.511	13959
853.645	14035
853.78	14271
853.914	14111
854.048	14107
854.183	14123
854.317	14214
854.451	14210
854.585	14050
854.72	14103
854.854	14309
854.988	14062
855.122	14107
855.256	14005
855.39	14077
855.524	14191
855.658	14134
855.792	14092
855.926	14164
856.06	14202
856.194	14199
856.327	14176
856.461	14046
856.595	13963
856.729	14043
856.862	14256
856.996	14111
857.13	14225
857.263	14202
857.397	14183
857.53	14115
857.664	14081
857.797	14221
857.931	14240
858.064	14088
858.197	14149
858.331	14107
858.464	14008
858.597	14016
858.731	14145
858.864	14096
858.997	14107
859.13	14123
859.263	14191
859.396	14149
859.529	13997
859.662	14096
859.795	14103
859.928	14142
860.061	14305
860.194	14370
860.327	14100
860.46	14081
860.592	14199
860.725	14233
860.858	14328
860.99	14031
861.123	14062
861.256	14100
861.388	13997
861.521	14731
861.653	13997
861.786	14020
861.918	14100
862.05	14050
862.183	14081
862.315	14077
862.447	14115
862.58	13955
862.712	13868
862.844	13723
862.976	13925
863.108	13959
863.24	14404
863.372	13765
863.504	13849
863.636	13883
863.768	13879
863.9	13909
864.032	13772
864.164	13871
864.296	13970
864.428	14016
864.559	13993
864.691	13875
864.823	13978
864.954	13970
865.086	13970
865.217	13913
865.349	13868
865.48	13784
865.612	13944
865.743	13951
865.875	13856
866.006	13799
866.137	13868
866.269	13898
866.4	13856
866.531	13860
866.662	13772
866.793	13883
866.924	13803
867.055	13913
867.186	13963
867.317	13826
867.448	13830
867.579	13906
867.71	13750
867.841	13742
867.972	13772
868.103	13822
868.233	13788
868.364	13841
868.495	13921
868.625	14054
868.756	14142
868.886	14115
869.017	14050
869.147	14286
869.278	14298
869.408	14062
869.539	14176
869.669	14168
869.799	14145
869.929	14183
870.06	14206
870.19	14415
870.32	14415
870.45	14446
870.58	14488
870.71	14613
870.84	14598
870.97	14518
871.1	14503
871.23	14708
871.36	14629
871.489	14716
871.619	14735
871.749	14861
871.879	14796
872.008	14880
872.138	14781
872.267	14678
872.397	14579
872.526	14541
872.656	14568
872.785	14651
872.915	14765
873.044	14712
873.173	14807
873.303	14834
873.432	14796
873.561	14880
873.69	14842
873.819	14670
873.948	14887
874.077	14739
874.206	14731
874.335	14754
874.464	14948
874.593	15036
874.722	15066
874.851	15020
874.979	15116
875.108	15127
875.237	15017
875.365	15093
875.494	15089
875.623	15245
875.751	15077
875.88	15195
876.008	15226
876.136	15355
876.265	15496
876.393	15671
876.521	15660
876.65	15576
876.778	15488
876.906	15443
877.034	15450
877.162	15507
877.29	15401
877.418	15454
877.546	15526
877.674	15439
877.802	15568
877.93	15439
878.058	15412
878.185	15397
878.313	15488
878.441	15538
878.568	15351
878.696	15485
878.824	15557
878.951	15568
879.079	15743
879.206	15819
879.333	15694
879.461	15584
879.588	15644
879.715	15656
879.842	15819
879.97	15523
880.097	15412
880.224	15279
880.351	15340
880.478	15386
880.605	15310
880.732	15336
880.859	15648
880.986	15370
881.112	15420
881.239	15249
881.366	15085
881.493	15085
881.619	15028
881.746	15062
881.872	15051
881.999	15020
882.125	14994
882.252	15070
882.378	15135
882.505	15112
882.631	14906
882.757	14785
882.883	14853
883.01	14864
883.136	14762
883.262	14746
883.388	14708
883.514	14944
883.64	14861
883.766	14746
883.892	14632
884.018	14678
884.143	14830
884.269	14921
884.395	14651
884.52	14434
884.646	14545
884.772	14465
884.897	14469
885.023	14583
885.148	14670
885.274	14632
885.399	14625
885.524	14514
885.65	14587
885.775	14587
885.9	14560
886.025	14674
886.15	14602
886.275	14541
886.4	14389
886.525	14465
886.65	14499
886.775	14537
886.9	14701
887.025	14758
887.149	14514
887.274	14427
887.399	14332
887.523	14267
887.648	14336
887.773	14278
887.897	14377
888.021	14518
888.146	14377
888.27	14518
888.395	14450
888.519	14400
888.643	14442
888.767	14522
888.891	14370
889.015	14229
889.139	14309
889.263	14214
889.387	14423
889.511	14427
889.635	14374
889.759	14172
889.883	14202
890.006	14347
890.13	14263
890.254	14145
890.377	14259
890.501	14164
890.624	14027
890.748	14103
890.871	13917
890.995	13871
891.118	13936
891.241	13963
891.364	14039
891.488	13925
891.611	13940
891.734	13963
891.857	13951
891.98	13955
892.103	14088
892.226	13955
892.349	13936
892.471	13890
892.594	13940
892.717	14031
892.839	13875
892.962	13967
893.085	14050
893.207	13932
893.33	13852
893.452	13890
893.575	14058
893.697	13955
893.819	14157
893.941	14077
894.064	14050
894.186	13890
894.308	13860
894.43	13989
894.552	14103
894.674	14092
894.796	13970
894.918	14027
895.04	14077
895.161	14123
895.283	14050
895.405	14039
895.526	14073
895.648	14138
895.769	14054
895.891	14069
896.012	14130
896.134	14237
896.255	14142
896.376	14020
896.498	14126
896.619	14195
896.74	14138
896.861	14180
896.982	14503
897.103	14564
897.224	14385
897.345	14355
897.466	14351
897.587	14480
897.708	14537
897.828	14465
897.949	14419
898.07	14221
898.19	14351
898.311	14514
898.431	14457
898.552	14423
898.672	14537
898.792	14651
898.913	14537
899.033	14434
899.153	14267
899.273	14233
899.393	14267
899.513	14278
899.633	14286
899.753	14263
899.873	14328
899.993	14495
900.113	14259
900.232	14385
900.352	14347
900.472	14233
900.591	14237
900.711	14290
900.83	14210
900.95	14267
901.069	14317
901.189	14115
901.308	13871
901.427	13906
901.546	13784
901.665	13864
901.784	13909
901.904	13780
902.023	13662
902.141	13449
902.26	13434
902.379	13597
902.498	13381
902.617	13331
902.735	13491
902.854	13491
902.973	13445
903.091	13228
903.21	13221
903.328	13103
903.446	13110
903.565	12966
903.683	13019
903.801	12989
903.919	13046
904.038	13050
904.156	12806
904.274	12970
904.392	12878
904.51	12867
904.627	12844
904.745	12962
904.863	12863
904.981	12665
905.098	12464
905.216	12532
905.334	12574
905.451	12608
905.569	12544
905.686	12604
905.803	12555
905.921	12273
906.038	12433
906.155	12361
906.272	12266
906.389	12285
906.506	12083
906.623	12129
906.74	12091
906.857	11969
906.974	12072
907.091	12216
907.208	12213
907.324	12182
907.441	11996
907.557	11920
907.674	11809
907.79	11866
907.907	11790
908.023	11920
908.139	11863
908.256	11878
908.372	11817
908.488	11745
908.604	11733
908.72	11619
908.836	11657
908.952	11611
909.068	11619
909.184	11745
909.3	11665
909.415	11680
909.531	11676
909.647	11459
909.762	11398
909.878	11376
909.993	11440
910.108	11478
910.224	11372
910.339	11376
910.454	11261
910.57	11216
910.685	11181
910.8	11520
910.915	11364
911.03	11307
911.145	11075
911.259	11159
911.374	11041
911.489	11109
911.604	11052
911.718	10828
911.833	10869
911.947	10759
912.062	10672
912.176	10908
912.291	10820
912.405	10896
912.519	11018
912.633	11086
912.748	10919
912.862	10839
912.976	10778
913.09	10634
913.204	10717
913.318	10744
913.431	10965
913.545	10797
913.659	10839
913.772	10740
913.886	10653
914	10675
914.113	10748
914.226	10725
914.34	10744
914.453	10542
914.566	10683
914.68	10679
914.793	10618
914.906	10440
915.019	10398
915.132	10276
915.245	10325
915.358	10363
915.47	10352
915.583	10356
915.696	10470
915.809	10512
915.921	10504
916.034	10443
916.146	10284
916.259	10280
916.371	10390
916.483	10341
916.595	10371
916.708	10413
916.82	10333
916.932	10265
917.044	10303
917.156	10325
917.268	10196
917.38	10173
917.491	10207
917.603	10207
917.715	10291
917.826	10341
917.938	10188
918.049	10166
918.161	10185
918.272	10306
918.384	10280
918.495	10295
918.606	10101
918.717	10013
918.828	10215
918.939	10124
919.05	10040
919.161	10029
919.272	9880
919.383	9972
919.494	10242
919.604	10276
919.715	10124
919.826	10013
919.936	10051
920.047	10261
920.157	10181
920.267	10314
920.378	10185
920.488	10059
920.598	10299
920.708	10386
920.818	10356
920.928	10238
921.038	10516
921.148	10417
921.258	10139
921.368	10055
921.477	10086
921.587	9922
921.697	9846
921.806	9983
921.916	9789
922.025	9732
922.134	9698
922.244	9622
922.353	9705
922.462	9610
922.571	9519
922.68	9412
922.789	9264
922.898	9374
923.007	9351
923.116	9393
923.224	9435
923.333	9351
923.442	9279
923.55	9173
923.659	9241
923.767	9348
923.876	9207
923.984	9306
924.092	9154
924.201	9310
924.309	9260
924.417	9245
924.525	9157
924.633	9195
924.741	10006
924.849	9005
924.956	9176
925.064	9112
925.172	8975
925.279	8967
925.387	9028
925.494	9051
925.602	9150
925.709	9112
925.816	9009
925.924	8998
926.031	9089
926.138	9024
926.245	9100
926.352	8925
926.459	9154
926.566	9131
926.673	8986
926.779	8902
926.886	8918
926.993	8800
927.099	8693
927.206	8769
927.312	8735
927.419	8815
927.525	8796
927.631	8731
927.737	8686
927.843	8629
927.95	8537
928.056	8693
928.162	8655
928.267	8754
928.373	9214
928.479	8766
928.585	8545
928.69	8651
928.796	8655
928.901	8629
929.007	8423
929.112	8568
929.218	8473
929.323	8450
929.428	8499
929.533	8686
929.638	8396
929.743	8446
929.848	8537
929.953	8450
930.058	8336
930.163	8218
930.267	8267
930.372	8450
930.477	8195
930.581	8438
930.685	8301
930.79	8240
930.894	8244
930.998	8149
931.103	8336
931.207	7989
931.311	7978
931.415	7784
931.519	7643
931.623	7666
