Data from test_V78500241_3055.txt Node
Date: Fri Mar 25 14:54:59 CST 2022
User: usil
Spectrometer: V785-0024
Trigger mode: 0
Integration Time (sec): 4.000000E-1
Scans to average: 1
Nonlinearity correction enabled: false
Boxcar width: 0
Storing dark spectrum: false
XAxis mode: Wavelengths
Number of Pixels in Spectrum: 1024
>>>>>Begin Spectral Data<<<<<
801.071	22120
801.214	21991
801.356	21713
801.499	21610
801.641	21519
801.783	21378
801.926	21405
802.068	21561
802.211	21283
802.353	21340
802.496	21142
802.638	20960
802.78	21051
802.923	20887
803.065	20838
803.208	20785
803.35	20800
803.492	20876
803.635	20872
803.777	20914
803.919	20792
804.061	21108
804.204	20743
804.346	20712
804.488	20613
804.63	20701
804.773	20629
804.915	20697
805.057	20800
805.199	20678
805.341	20735
805.483	20918
805.626	20750
805.768	20682
805.91	20750
806.052	20731
806.194	20617
806.336	20819
806.478	20724
806.62	20648
806.762	20853
806.904	20944
807.046	21142
807.188	21009
807.33	21161
807.472	21036
807.614	20967
807.756	20956
807.898	20853
808.04	20804
808.182	20682
808.324	20773
808.465	20918
808.607	20880
808.749	21256
808.891	21233
809.033	21340
809.174	21252
809.316	20986
809.458	21173
809.6	21123
809.741	21260
809.883	21154
810.025	21192
810.166	21325
810.308	21344
810.45	21131
810.591	21089
810.733	20872
810.875	20880
811.016	20796
811.158	20815
811.299	20788
811.441	20967
811.582	21013
811.724	20914
811.865	20902
812.007	20872
812.148	20800
812.29	20800
812.431	20990
812.573	21146
812.714	21249
812.855	21370
812.997	21424
813.138	21583
813.279	21591
813.421	21275
813.562	21351
813.703	21203
813.845	21055
813.986	20727
814.127	20495
814.268	20530
814.41	20404
814.551	20328
814.692	20503
814.833	20267
814.974	20431
815.115	20324
815.256	20294
815.397	20358
815.539	20313
815.68	20294
815.821	20039
815.962	20111
816.103	20157
816.244	19898
816.385	19791
816.526	19883
816.666	19704
816.807	19552
816.948	19563
817.089	19670
817.23	19643
817.371	19544
817.512	19468
817.653	19571
817.793	19460
817.934	19502
818.075	19472
818.216	19449
818.356	19499
818.497	19259
818.638	19103
818.778	19148
818.919	19065
819.06	19194
819.2	19388
819.341	19240
819.481	19480
819.622	19601
819.762	19776
819.903	19578
820.043	19594
820.184	19556
820.324	19438
820.465	19616
820.605	19453
820.746	19453
820.886	19320
821.026	19384
821.167	19445
821.307	19590
821.447	19464
821.588	19369
821.728	19171
821.868	19103
822.008	18863
822.149	18958
822.289	19008
822.429	18627
822.569	18490
822.709	18566
822.849	18361
822.99	18380
823.13	18372
823.27	18300
823.41	18224
823.55	18235
823.69	18296
823.83	18266
823.97	18194
824.11	17984
824.25	17984
824.389	17908
824.529	18049
824.669	17988
824.809	18125
824.949	18194
825.089	18003
825.228	18053
825.368	17874
825.508	17828
825.648	17714
825.787	17760
825.927	17836
826.067	17684
826.206	17786
826.346	17817
826.485	17714
826.625	17843
826.765	18003
826.904	17802
827.044	17497
827.183	17554
827.323	17440
827.462	17478
827.601	17429
827.741	17398
827.88	17505
828.02	17379
828.159	17368
828.298	17486
828.437	17547
828.577	17455
828.716	17623
828.855	17482
828.994	17174
829.134	17250
829.273	17220
829.412	17140
829.551	17170
829.69	17220
829.829	17265
829.968	17322
830.107	17273
830.246	17117
830.385	17197
830.524	17220
830.663	17071
830.802	16984
830.941	16835
831.08	16854
831.219	16877
831.357	16942
831.496	17006
831.635	16774
831.774	16740
831.913	16649
832.051	16611
832.19	16538
832.329	16573
832.467	16538
832.606	16402
832.744	16470
832.883	16409
833.022	16500
833.16	16497
833.299	16481
833.437	16512
833.576	16554
833.714	16550
833.852	16554
833.991	16592
834.129	16706
834.267	16607
834.406	16607
834.544	16531
834.682	16527
834.821	16447
834.959	16653
835.097	16569
835.235	16645
835.373	16519
835.511	16569
835.65	16440
835.788	16474
835.926	16284
836.064	16287
836.202	16291
836.34	16329
836.478	16592
836.615	16421
836.753	16470
836.891	16645
837.029	16561
837.167	16398
837.305	16348
837.443	16314
837.58	16303
837.718	16421
837.856	16310
837.993	16295
838.131	16303
838.269	16257
838.406	16291
838.544	16299
838.681	16078
838.819	15884
838.956	15846
839.094	15778
839.231	15922
839.369	15964
839.506	16344
839.643	16150
839.781	15945
839.918	15831
840.055	15892
840.193	15861
840.33	15652
840.467	15895
840.604	15907
840.742	16105
840.879	15614
841.016	15644
841.153	15797
841.29	15991
841.427	15854
841.564	15903
841.701	15831
841.838	15724
841.975	15724
842.112	15812
842.249	15622
842.385	15618
842.522	15854
842.659	15603
842.796	15675
842.933	15580
843.069	15496
843.206	15564
843.343	15652
843.479	15633
843.616	15709
843.752	15511
843.889	15443
844.025	15568
844.162	15313
844.298	15576
844.435	15485
844.571	15431
844.708	15473
844.844	15564
844.98	15545
845.117	15462
845.253	15351
845.389	15275
845.525	15378
845.661	15256
845.798	15230
845.934	15287
846.07	15230
846.206	15268
846.342	15302
846.478	15256
846.614	14941
846.75	14914
846.886	14948
847.022	15055
847.158	14975
847.294	15039
847.429	14918
847.565	15032
847.701	15192
847.837	14792
847.972	14701
848.108	14720
848.244	14754
848.379	14594
848.515	14621
848.65	14552
848.786	14549
848.921	14594
849.057	14621
849.192	14621
849.328	14549
849.463	14667
849.598	14602
849.734	14454
849.869	14503
850.004	14343
850.14	14427
850.275	14351
850.41	14317
850.545	14370
850.68	14275
850.815	14275
850.95	14282
851.085	14507
851.22	14465
851.355	14328
851.49	14290
851.625	14263
851.76	14256
851.895	14267
852.03	14263
852.165	14347
852.299	14385
852.434	14473
852.569	14336
852.703	14396
852.838	14400
852.973	14564
853.107	14503
853.242	14415
853.376	14210
853.511	14100
853.645	14218
853.78	14286
853.914	14237
854.048	14164
854.183	14206
854.317	14362
854.451	14438
854.585	14126
854.72	14195
854.854	14347
854.988	14183
855.122	14149
855.256	14073
855.39	14210
855.524	14298
855.658	14366
855.792	14214
855.926	14305
856.06	14252
856.194	14282
856.327	14187
856.461	14134
856.595	14248
856.729	14077
856.862	14286
856.996	14214
857.13	14252
857.263	14313
857.397	14294
857.53	14191
857.664	14252
857.797	14282
857.931	14282
858.064	14130
858.197	14366
858.331	14183
858.464	14134
858.597	14096
858.731	14142
858.864	14161
858.997	14065
859.13	14275
859.263	14161
859.396	14309
859.529	14206
859.662	14206
859.795	14282
859.928	14221
860.061	14355
860.194	14301
860.327	14183
860.46	14214
860.592	14320
860.725	14309
860.858	14240
860.99	14183
861.123	14088
861.256	14191
861.388	14218
861.521	14838
861.653	14084
861.786	14020
861.918	14088
862.05	14142
862.183	14172
862.315	14157
862.447	14244
862.58	14183
862.712	14016
862.844	13951
862.976	14081
863.108	14020
863.24	14374
863.372	13940
863.504	13909
863.636	14024
863.768	13917
863.9	14043
864.032	13970
864.164	13909
864.296	13951
864.428	14073
864.559	14050
864.691	14027
864.823	14077
864.954	13989
865.086	14073
865.217	13925
865.349	13887
865.48	13944
865.612	14069
865.743	14145
865.875	13989
866.006	13864
866.137	13921
866.269	13963
866.4	13955
866.531	13963
866.662	13879
866.793	13967
866.924	13944
867.055	13906
867.186	13963
867.317	13894
867.448	13967
867.579	13856
867.71	13868
867.841	13845
867.972	13917
868.103	14008
868.233	14008
868.364	13947
868.495	14111
868.625	14164
868.756	14275
868.886	14145
869.017	14092
869.147	14320
869.278	14286
869.408	14267
869.539	14126
869.669	14233
869.799	14282
869.929	14339
870.06	14317
870.19	14541
870.32	14594
870.45	14484
870.58	14731
870.71	14758
870.84	14788
870.97	14583
871.1	14556
871.23	14807
871.36	14807
871.489	14720
871.619	14804
871.749	14815
871.879	14788
872.008	14956
872.138	14842
872.267	14849
872.397	14632
872.526	14682
872.656	14644
872.785	14705
872.915	14864
873.044	14857
873.173	14777
873.303	14948
873.432	14929
873.561	14823
873.69	14895
873.819	14845
873.948	14929
874.077	14872
874.206	14826
874.335	14982
874.464	15013
874.593	15207
874.722	15104
874.851	15192
874.979	15176
875.108	15173
875.237	15119
875.365	15066
875.494	15169
875.623	15226
875.751	15252
875.88	15180
876.008	15374
876.136	15397
876.265	15663
876.393	15739
876.521	15633
876.65	15759
876.778	15622
876.906	15519
877.034	15488
877.162	15595
877.29	15485
877.418	15580
877.546	15553
877.674	15557
877.802	15568
877.93	15656
878.058	15561
878.185	15420
878.313	15523
878.441	15606
878.568	15393
878.696	15553
878.824	15629
878.951	15625
879.079	15819
879.206	15926
879.333	15736
879.461	15644
879.588	15781
879.715	15766
879.842	15846
879.97	15675
880.097	15412
880.224	15412
880.351	15416
880.478	15397
880.605	15450
880.732	15473
880.859	15629
880.986	15374
881.112	15515
881.239	15329
881.366	15207
881.493	15192
881.619	15135
881.746	15085
881.872	15081
881.999	15085
882.125	15036
882.252	15211
882.378	15085
882.505	15214
882.631	15058
882.757	14906
882.883	14963
883.01	14925
883.136	14849
883.262	14777
883.388	14785
883.514	14933
883.64	14956
883.766	14887
883.892	14731
884.018	14712
884.143	14944
884.269	14963
884.395	14739
884.52	14610
884.646	14621
884.772	14518
884.897	14545
885.023	14667
885.148	14613
885.274	14792
885.399	14735
885.524	14682
885.65	14655
885.775	14727
885.9	14617
886.025	14750
886.15	14769
886.275	14602
886.4	14518
886.525	14598
886.65	14499
886.775	14583
886.9	14701
887.025	14674
887.149	14587
887.274	14446
887.399	14434
887.523	14450
887.648	14324
887.773	14317
887.897	14404
888.021	14400
888.146	14419
888.27	14476
888.395	14606
888.519	14499
888.643	14450
888.767	14457
888.891	14343
889.015	14328
889.139	14355
889.263	14328
889.387	14358
889.511	14549
889.635	14450
889.759	14202
889.883	14305
890.006	14389
890.13	14473
890.254	14290
890.377	14294
890.501	14134
890.624	14153
890.748	14172
890.871	14103
890.995	13940
891.118	13906
891.241	13989
891.364	14073
891.488	14187
891.611	14008
891.734	13997
891.857	14119
891.98	14043
892.103	14039
892.226	14027
892.349	14035
892.471	13902
892.594	13993
892.717	14043
892.839	13955
892.962	13997
893.085	14126
893.207	14005
893.33	13917
893.452	13982
893.575	14024
893.697	14050
893.819	14191
893.941	14210
894.064	14088
894.186	13963
894.308	14046
894.43	14172
894.552	14206
894.674	14168
894.796	13963
894.918	14115
895.04	14092
895.161	14229
895.283	14191
895.405	14100
895.526	14240
895.648	14115
895.769	14138
895.891	14180
896.012	14221
896.134	14267
896.255	14142
896.376	14149
896.498	14218
896.619	14286
896.74	14210
896.861	14130
896.982	14533
897.103	14667
897.224	14469
897.345	14522
897.466	14469
897.587	14412
897.708	14549
897.828	14549
897.949	14404
898.07	14408
898.19	14385
898.311	14606
898.431	14549
898.552	14587
898.672	14545
898.792	14689
898.913	14568
899.033	14461
899.153	14419
899.273	14328
899.393	14355
899.513	14511
899.633	14343
899.753	14518
899.873	14351
899.993	14507
900.113	14347
900.232	14450
900.352	14351
900.472	14377
900.591	14164
900.711	14355
900.83	14294
900.95	14267
901.069	14503
901.189	14199
901.308	14005
901.427	13913
901.546	13989
901.665	14001
901.784	14024
901.904	13807
902.023	13757
902.141	13559
902.26	13506
902.379	13594
902.498	13468
902.617	13445
902.735	13472
902.854	13571
902.973	13400
903.091	13236
903.21	13209
903.328	13244
903.446	13175
903.565	13019
903.683	13160
903.801	13050
903.919	13042
904.038	13038
904.156	12966
904.274	12958
904.392	12882
904.51	12973
904.627	13027
904.745	12947
904.863	12977
904.981	12722
905.098	12593
905.216	12570
905.334	12646
905.451	12662
905.569	12589
905.686	12662
905.803	12563
905.921	12460
906.038	12570
906.155	12513
906.272	12220
906.389	12403
906.506	12197
906.623	12209
906.74	12220
906.857	11965
906.974	12232
907.091	12258
907.208	12300
907.324	12129
907.441	12114
907.557	11969
907.674	11931
907.79	11908
907.907	11927
908.023	11904
908.139	11901
908.256	11946
908.372	11897
908.488	11771
908.604	11722
908.72	11665
908.836	11649
908.952	11665
909.068	11726
909.184	11809
909.3	11714
909.415	11733
909.531	11657
909.647	11497
909.762	11467
909.878	11433
909.993	11448
910.108	11421
910.224	11395
910.339	11406
910.454	11273
910.57	11269
910.685	11189
910.8	11493
910.915	11543
911.03	11318
911.145	11170
911.259	11189
911.374	11212
911.489	11109
911.604	11052
911.718	10961
911.833	10991
911.947	10869
912.062	10717
912.176	10862
912.291	10908
912.405	10847
912.519	11079
912.633	11094
912.748	11029
912.862	10862
912.976	10858
913.09	10694
913.204	10694
913.318	10816
913.431	10797
913.545	10904
913.659	10900
913.772	10873
913.886	10698
914	10580
914.113	10736
914.226	10774
914.34	10729
914.453	10603
914.566	10759
914.68	10653
914.793	10611
914.906	10394
915.019	10322
915.132	10333
915.245	10379
915.358	10497
915.47	10474
915.583	10443
915.696	10546
915.809	10588
915.921	10546
916.034	10398
916.146	10398
916.259	10318
916.371	10474
916.483	10497
916.595	10386
916.708	10379
916.82	10341
916.932	10352
917.044	10352
917.156	10299
917.268	10287
917.38	10249
917.491	10249
917.603	10261
917.715	10405
917.826	10424
917.938	10287
918.049	10192
918.161	10344
918.272	10405
918.384	10306
918.495	10261
918.606	10162
918.717	10109
918.828	10109
918.939	10166
919.05	10044
919.161	10150
919.272	9945
919.383	10013
919.494	10154
919.604	10375
919.715	10265
919.826	10078
919.936	10147
920.047	10276
920.157	10181
920.267	10375
920.378	10185
920.488	10177
920.598	10322
920.708	10478
920.818	10367
920.928	10287
921.038	10478
921.148	10417
921.258	10227
921.368	10097
921.477	10097
921.587	10048
921.697	9911
921.806	10025
921.916	9922
922.025	9762
922.134	9717
922.244	9675
922.353	9762
922.462	9591
922.571	9561
922.68	9382
922.789	9370
922.898	9412
923.007	9367
923.116	9477
923.224	9408
923.333	9359
923.442	9306
923.55	9283
923.659	9272
923.767	9431
923.876	9378
923.984	9306
924.092	9241
924.201	9302
924.309	9325
924.417	9340
924.525	9211
924.633	9275
924.741	10158
924.849	8971
924.956	9264
925.064	9127
925.172	8948
925.279	9066
925.387	9097
925.494	9051
925.602	9203
925.709	9138
925.816	8982
925.924	9081
926.031	9184
926.138	9150
926.245	9135
926.352	8990
926.459	9081
926.566	9165
926.673	9009
926.779	8967
926.886	8899
926.993	8773
927.099	8750
927.206	8773
927.312	8781
927.419	8853
927.525	8807
927.631	8777
927.737	8724
927.843	8667
927.95	8579
928.056	8708
928.162	8697
928.267	8746
928.373	9340
928.479	8868
928.585	8564
928.69	8613
928.796	8716
928.901	8629
929.007	8450
929.112	8598
929.218	8587
929.323	8537
929.428	8461
929.533	8667
929.638	8427
929.743	8465
929.848	8514
929.953	8541
930.058	8374
930.163	8286
930.267	8298
930.372	8537
930.477	8233
930.581	8526
930.685	8385
930.79	8168
930.894	8237
930.998	8180
931.103	8351
931.207	8088
931.311	7936
931.415	7978
931.519	7727
931.623	7738
