Data from test_V78500241_3443.txt Node
Date: Fri Mar 25 14:57:41 CST 2022
User: usil
Spectrometer: V785-0024
Trigger mode: 0
Integration Time (sec): 4.000000E-1
Scans to average: 1
Nonlinearity correction enabled: false
Boxcar width: 0
Storing dark spectrum: false
XAxis mode: Wavelengths
Number of Pixels in Spectrum: 1024
>>>>>Begin Spectral Data<<<<<
801.071	22082
801.214	21793
801.356	21641
801.499	21496
801.641	21359
801.783	21275
801.926	21408
802.068	21165
802.211	21169
802.353	21127
802.496	20891
802.638	20902
802.78	20792
802.923	20541
803.065	20602
803.208	20575
803.35	20522
803.492	20644
803.635	20609
803.777	20667
803.919	20716
804.061	20830
804.204	20613
804.346	20495
804.488	20431
804.63	20533
804.773	20442
804.915	20480
805.057	20708
805.199	20457
805.341	20450
805.483	20602
805.626	20613
805.768	20571
805.91	20526
806.052	20606
806.194	20431
806.336	20727
806.478	20560
806.62	20450
806.762	20594
806.904	20708
807.046	20868
807.188	20773
807.33	20880
807.472	20914
807.614	20754
807.756	20804
807.898	20602
808.04	20492
808.182	20484
808.324	20621
808.465	20617
808.607	20819
808.749	20910
808.891	20960
809.033	21089
809.174	21032
809.316	20899
809.458	20785
809.6	20800
809.741	20777
809.883	20868
810.025	21058
810.166	20998
810.308	21043
810.45	20811
810.591	20834
810.733	20777
810.875	20560
811.016	20549
811.158	20594
811.299	20648
811.441	20708
811.582	20800
811.724	20678
811.865	20560
812.007	20701
812.148	20594
812.29	20625
812.431	20636
812.573	20906
812.714	21074
812.855	21154
812.997	21203
813.138	21401
813.279	21135
813.421	21096
813.562	20925
813.703	20921
813.845	20720
813.986	20518
814.127	20339
814.268	20149
814.41	20263
814.551	20172
814.692	20122
814.833	20115
814.974	20069
815.115	20157
815.256	20012
815.397	19989
815.539	19959
815.68	20016
815.821	19894
815.962	19894
816.103	19989
816.244	19772
816.385	19639
816.526	19594
816.666	19468
816.807	19381
816.948	19441
817.089	19327
817.23	19316
817.371	19251
817.512	19358
817.653	19266
817.793	19274
817.934	19179
818.075	19308
818.216	19365
818.356	19282
818.497	19164
818.638	18954
818.778	19053
818.919	18954
819.06	19031
819.2	19042
819.341	19122
819.481	19179
819.622	19331
819.762	19552
819.903	19502
820.043	19301
820.184	19301
820.324	19381
820.465	19320
820.605	19297
820.746	19228
820.886	19240
821.026	19175
821.167	19217
821.307	19232
821.447	19190
821.588	19061
821.728	18886
821.868	18867
822.008	18776
822.149	18681
822.289	18563
822.429	18452
822.569	18365
822.709	18433
822.849	18110
822.99	18129
823.13	18174
823.27	18129
823.41	18129
823.55	17939
823.69	18034
823.83	17980
823.97	17973
824.11	17843
824.25	17680
824.389	17748
824.529	17840
824.669	17790
824.809	17946
824.949	17760
825.089	17794
825.228	17707
825.368	17573
825.508	17589
825.648	17535
825.787	17608
825.927	17684
826.067	17539
826.206	17452
826.346	17573
826.485	17611
826.625	17547
826.765	17661
826.904	17539
827.044	17433
827.183	17288
827.323	17254
827.462	17246
827.601	17212
827.741	17121
827.88	17094
828.02	17193
828.159	17155
828.298	17242
828.437	17216
828.577	17155
828.716	17368
828.855	17170
828.994	17037
829.134	17025
829.273	16942
829.412	17010
829.551	16904
829.69	17048
829.829	17102
829.968	17216
830.107	17147
830.246	17071
830.385	17041
830.524	16908
830.663	16866
830.802	16736
830.941	16611
831.08	16672
831.219	16675
831.357	16637
831.496	16847
831.635	16694
831.774	16561
831.913	16489
832.051	16512
832.19	16459
832.329	16531
832.467	16356
832.606	16287
832.744	16238
832.883	16356
833.022	16215
833.16	16356
833.299	16375
833.437	16303
833.576	16333
833.714	16352
833.852	16421
833.991	16402
834.129	16386
834.267	16489
834.406	16352
834.544	16344
834.682	16417
834.821	16356
834.959	16535
835.097	16344
835.235	16478
835.373	16417
835.511	16443
835.65	16367
835.788	16177
835.926	16185
836.064	16086
836.202	16128
836.34	16322
836.478	16451
836.615	16265
836.753	16314
836.891	16421
837.029	16325
837.167	16211
837.305	16147
837.443	16169
837.58	16116
837.718	16238
837.856	16139
837.993	16154
838.131	16204
838.269	16124
838.406	16135
838.544	16116
838.681	15941
838.819	15869
838.956	15819
839.094	15762
839.231	15739
839.369	15926
839.506	16086
839.643	15937
839.781	15854
839.918	15690
840.055	15732
840.193	15720
840.33	15656
840.467	15724
840.604	15682
840.742	15842
840.879	15587
841.016	15675
841.153	15667
841.29	15888
841.427	15808
841.564	15747
841.701	15736
841.838	15698
841.975	15709
842.112	15667
842.249	15526
842.385	15500
842.522	15618
842.659	15496
842.796	15428
842.933	15458
843.069	15538
843.206	15473
843.343	15720
843.479	15534
843.616	15545
843.752	15344
843.889	15302
844.025	15481
844.162	15256
844.298	15359
844.435	15340
844.571	15313
844.708	15329
844.844	15408
844.98	15462
845.117	15363
845.253	15287
845.389	15077
845.525	15226
845.661	15180
845.798	15135
845.934	15192
846.07	15116
846.206	15142
846.342	15192
846.478	15077
846.614	14971
846.75	14845
846.886	14861
847.022	15036
847.158	14883
847.294	14956
847.429	14842
847.565	14830
847.701	15112
847.837	14644
847.972	14549
848.108	14682
848.244	14644
848.379	14533
848.515	14476
848.65	14473
848.786	14518
848.921	14442
849.057	14533
849.192	14530
849.328	14480
849.463	14511
849.598	14465
849.734	14244
849.869	14415
850.004	14202
850.14	14237
850.275	14248
850.41	14225
850.545	14172
850.68	14248
850.815	14214
850.95	14210
851.085	14495
851.22	14415
851.355	14282
851.49	14259
851.625	14206
851.76	14161
851.895	14157
852.03	14111
852.165	14153
852.299	14240
852.434	14324
852.569	14290
852.703	14267
852.838	14267
852.973	14305
853.107	14324
853.242	14256
853.376	14225
853.511	13989
853.645	14119
853.78	14309
853.914	14103
854.048	14081
854.183	14107
854.317	14244
854.451	14290
854.585	13967
854.72	14115
854.854	14195
854.988	13955
855.122	14065
855.256	13959
855.39	14062
855.524	14206
855.658	14126
855.792	14081
855.926	14145
856.06	14191
856.194	14237
856.327	14069
856.461	14062
856.595	14043
856.729	14043
856.862	14191
856.996	14180
857.13	14256
857.263	14237
857.397	14191
857.53	14134
857.664	14161
857.797	14123
857.931	14267
858.064	14153
858.197	14328
858.331	14111
858.464	14039
858.597	13978
858.731	14065
858.864	14096
858.997	14069
859.13	14161
859.263	14180
859.396	14237
859.529	14069
859.662	14039
859.795	14035
859.928	14164
860.061	14202
860.194	14218
860.327	14206
860.46	14084
860.592	14111
860.725	14237
860.858	14183
860.99	14130
861.123	14058
861.256	14119
861.388	14115
861.521	14902
861.653	13951
861.786	14020
861.918	13970
862.05	14077
862.183	14016
862.315	14084
862.447	14218
862.58	14008
862.712	13826
862.844	13811
862.976	14001
863.108	13913
863.24	14313
863.372	13898
863.504	13864
863.636	13860
863.768	13997
863.9	13822
864.032	13822
864.164	13833
864.296	13898
864.428	14012
864.559	14046
864.691	13944
864.823	13970
864.954	13978
865.086	13963
865.217	13856
865.349	13788
865.48	13852
865.612	13913
865.743	13993
865.875	13826
866.006	13852
866.137	13898
866.269	13830
866.4	13887
866.531	13883
866.662	13742
866.793	13780
866.924	13864
867.055	13890
867.186	13856
867.317	13890
867.448	13833
867.579	13860
867.71	13795
867.841	13780
867.972	13925
868.103	13898
868.233	13959
868.364	13909
868.495	13982
868.625	14111
868.756	14229
868.886	14065
869.017	14092
869.147	14362
869.278	14229
869.408	14138
869.539	14123
869.669	14157
869.799	14081
869.929	14138
870.06	14229
870.19	14530
870.32	14465
870.45	14499
870.58	14552
870.71	14655
870.84	14640
870.97	14522
871.1	14431
871.23	14716
871.36	14686
871.489	14667
871.619	14743
871.749	14792
871.879	14796
872.008	14823
872.138	14758
872.267	14739
872.397	14674
872.526	14499
872.656	14446
872.785	14587
872.915	14891
873.044	14876
873.173	14804
873.303	14769
873.432	14716
873.561	14769
873.69	14788
873.819	14731
873.948	14815
874.077	14777
874.206	14716
874.335	14830
874.464	14963
874.593	15043
874.722	15051
874.851	15104
874.979	15108
875.108	15093
875.237	15013
875.365	15005
875.494	15093
875.623	15195
875.751	15165
875.88	15203
876.008	15180
876.136	15374
876.265	15557
876.393	15637
876.521	15576
876.65	15591
876.778	15534
876.906	15511
877.034	15481
877.162	15416
877.29	15405
877.418	15572
877.546	15549
877.674	15496
877.802	15500
877.93	15416
878.058	15492
878.185	15481
878.313	15420
878.441	15462
878.568	15450
878.696	15363
878.824	15568
878.951	15576
879.079	15713
879.206	15766
879.333	15728
879.461	15519
879.588	15580
879.715	15709
879.842	15869
879.97	15561
880.097	15374
880.224	15359
880.351	15481
880.478	15450
880.605	15367
880.732	15329
880.859	15618
880.986	15428
881.112	15435
881.239	15291
881.366	15332
881.493	14998
881.619	15077
881.746	15074
881.872	15047
881.999	14921
882.125	14933
882.252	15108
882.378	15028
882.505	15195
882.631	14956
882.757	14834
882.883	14925
883.01	14838
883.136	14765
883.262	14644
883.388	14727
883.514	14823
883.64	14796
883.766	14781
883.892	14598
884.018	14564
884.143	14842
884.269	14891
884.395	14613
884.52	14636
884.646	14587
884.772	14484
884.897	14526
885.023	14552
885.148	14697
885.274	14758
885.399	14617
885.524	14602
885.65	14613
885.775	14655
885.9	14583
886.025	14663
886.15	14621
886.275	14613
886.4	14442
886.525	14541
886.65	14507
886.775	14431
886.9	14674
887.025	14743
887.149	14431
887.274	14381
887.399	14332
887.523	14434
887.648	14370
887.773	14244
887.897	14438
888.021	14431
888.146	14278
888.27	14530
888.395	14423
888.519	14514
888.643	14499
888.767	14400
888.891	14336
889.015	14237
889.139	14317
889.263	14259
889.387	14385
889.511	14438
889.635	14415
889.759	14210
889.883	14256
890.006	14252
890.13	14526
890.254	14256
890.377	14225
890.501	14081
890.624	14069
890.748	14180
890.871	13928
890.995	13955
891.118	13887
891.241	13940
891.364	13883
891.488	14088
891.611	13967
891.734	14031
891.857	14065
891.98	13963
892.103	14088
892.226	13997
892.349	13970
892.471	13769
892.594	13963
892.717	13951
892.839	14005
892.962	13970
893.085	13986
893.207	13967
893.33	13776
893.452	13963
893.575	13955
893.697	13944
893.819	14206
893.941	14164
894.064	14092
894.186	14005
894.308	13955
894.43	13932
894.552	14191
894.674	14084
894.796	13833
894.918	13936
895.04	13967
895.161	14123
895.283	14096
895.405	13932
895.526	14119
895.648	13982
895.769	14092
895.891	14214
896.012	14172
896.134	14202
896.255	14172
896.376	14096
896.498	14157
896.619	14153
896.74	14191
896.861	14183
896.982	14465
897.103	14632
897.224	14454
897.345	14408
897.466	14408
897.587	14381
897.708	14560
897.828	14446
897.949	14370
898.07	14267
898.19	14366
898.311	14552
898.431	14396
898.552	14454
898.672	14492
898.792	14640
898.913	14575
899.033	14492
899.153	14309
899.273	14286
899.393	14294
899.513	14332
899.633	14442
899.753	14419
899.873	14358
899.993	14511
900.113	14332
900.232	14446
900.352	14336
900.472	14290
900.591	14180
900.711	14248
900.83	14134
900.95	14256
901.069	14339
901.189	14123
901.308	14001
901.427	13807
901.546	13986
901.665	13906
901.784	13875
901.904	13795
902.023	13677
902.141	13480
902.26	13495
902.379	13529
902.498	13502
902.617	13343
902.735	13453
902.854	13426
902.973	13331
903.091	13263
903.21	13088
903.328	13187
903.446	13141
903.565	12981
903.683	13042
903.801	12894
903.919	13027
904.038	13008
904.156	12844
904.274	12897
904.392	12837
904.51	12844
904.627	12897
904.745	12848
904.863	12913
904.981	12635
905.098	12494
905.216	12544
905.334	12582
905.451	12669
905.569	12528
905.686	12601
905.803	12578
905.921	12365
906.038	12433
906.155	12338
906.272	12228
906.389	12334
906.506	12106
906.623	12064
906.74	12095
906.857	12060
906.974	12011
907.091	12175
907.208	12209
907.324	12091
907.441	12011
907.557	11847
907.674	11908
907.79	11828
907.907	11828
908.023	11859
908.139	11908
908.256	11775
908.372	11832
908.488	11809
908.604	11699
908.72	11604
908.836	11627
908.952	11615
909.068	11642
909.184	11748
909.3	11665
909.415	11630
909.531	11623
909.647	11459
909.762	11387
909.878	11353
909.993	11455
910.108	11406
910.224	11414
910.339	11486
910.454	11379
910.57	11334
910.685	11124
910.8	11509
910.915	11425
911.03	11296
911.145	11174
911.259	11159
911.374	11090
911.489	10999
911.604	11014
911.718	10850
911.833	10949
911.947	10717
912.062	10755
912.176	10828
912.291	10930
912.405	10869
912.519	11029
912.633	11083
912.748	10911
912.862	10858
912.976	10782
913.09	10611
913.204	10790
913.318	10767
913.431	10889
913.545	10831
913.659	10812
913.772	10744
913.886	10668
914	10634
914.113	10740
914.226	10748
914.34	10691
914.453	10561
914.566	10717
914.68	10523
914.793	10653
914.906	10421
915.019	10379
915.132	10291
915.245	10428
915.358	10405
915.47	10424
915.583	10333
915.696	10413
915.809	10512
915.921	10478
916.034	10363
916.146	10341
916.259	10284
916.371	10394
916.483	10322
916.595	10329
916.708	10379
916.82	10337
916.932	10322
917.044	10310
917.156	10295
917.268	10219
917.38	10162
917.491	10219
917.603	10261
917.715	10295
917.826	10299
917.938	10204
918.049	10128
918.161	10215
918.272	10474
918.384	10314
918.495	10207
918.606	10139
918.717	9949
918.828	10021
918.939	10124
919.05	10029
919.161	10055
919.272	9915
919.383	9911
919.494	10090
919.604	10246
919.715	10097
919.826	9994
919.936	10120
920.047	10162
920.157	10090
920.267	10310
920.378	10101
920.488	10097
920.598	10348
920.708	10462
920.818	10318
920.928	10291
921.038	10409
921.148	10527
921.258	10090
921.368	10067
921.477	9960
921.587	10017
921.697	9865
921.806	10040
921.916	9854
922.025	9766
922.134	9679
922.244	9663
922.353	9717
922.462	9584
922.571	9515
922.68	9458
922.789	9374
922.898	9405
923.007	9355
923.116	9477
923.224	9355
923.333	9317
923.442	9241
923.55	9169
923.659	9313
923.767	9214
923.876	9203
923.984	9336
924.092	9203
924.201	9245
924.309	9173
924.417	9275
924.525	9188
924.633	9249
924.741	10128
924.849	9028
924.956	9123
925.064	9093
925.172	8952
925.279	9066
925.387	9074
925.494	9055
925.602	9138
925.709	9051
925.816	8994
925.924	9051
926.031	9112
926.138	9032
926.245	9036
926.352	8967
926.459	9081
926.566	9119
926.673	9058
926.779	8887
926.886	8876
926.993	8712
927.099	8743
927.206	8750
927.312	8800
927.419	8864
927.525	8746
927.631	8769
927.737	8632
927.843	8697
927.95	8610
928.056	8682
928.162	8617
928.267	8712
928.373	9279
928.479	8735
928.585	8514
928.69	8640
928.796	8667
928.901	8568
929.007	8476
929.112	8587
929.218	8583
929.323	8530
929.428	8503
929.533	8625
929.638	8438
929.743	8457
929.848	8495
929.953	8473
930.058	8385
930.163	8183
930.267	8286
930.372	8393
930.477	8259
930.581	8434
930.685	8339
930.79	8161
930.894	8187
930.998	8164
931.103	8305
931.207	7978
931.311	7936
931.415	7811
931.519	7674
931.623	7757
