Data from test_V78500241_978.txt Node
Date: Fri Mar 25 14:40:31 CST 2022
User: usil
Spectrometer: V785-0024
Trigger mode: 0
Integration Time (sec): 4.000000E-1
Scans to average: 1
Nonlinearity correction enabled: false
Boxcar width: 0
Storing dark spectrum: false
XAxis mode: Wavelengths
Number of Pixels in Spectrum: 1024
>>>>>Begin Spectral Data<<<<<
801.071	23429
801.214	23109
801.356	22934
801.499	22820
801.641	22668
801.783	22679
801.926	22752
802.068	22599
802.211	22561
802.353	22478
802.496	22238
802.638	22131
802.78	22135
802.923	22162
803.065	21949
803.208	21987
803.35	22032
803.492	22192
803.635	22128
803.777	21991
803.919	22017
804.061	22318
804.204	22048
804.346	21968
804.488	21903
804.63	21937
804.773	21846
804.915	21937
805.057	22120
805.199	21983
805.341	22082
805.483	22021
805.626	22188
805.768	21937
805.91	21983
806.052	22044
806.194	21994
806.336	22310
806.478	22025
806.62	22010
806.762	22063
806.904	22329
807.046	22596
807.188	22432
807.33	22489
807.472	22569
807.614	22660
807.756	22645
807.898	22626
808.04	22687
808.182	22687
808.324	23010
808.465	23235
808.607	23585
808.749	23916
808.891	24034
809.033	24209
809.174	24022
809.316	23634
809.458	23543
809.6	23261
809.741	23105
809.883	22961
810.025	23056
810.166	22949
810.308	22854
810.45	22862
810.591	22725
810.733	22478
810.875	22394
811.016	22257
811.158	22287
811.299	22322
811.441	22466
811.582	22504
811.724	22196
811.865	22101
812.007	22101
812.148	22238
812.29	22303
812.431	22409
812.573	22596
812.714	22592
812.855	22664
812.997	22782
813.138	23029
813.279	22744
813.421	22653
813.562	22615
813.703	22508
813.845	22329
813.986	22070
814.127	21888
814.268	21778
814.41	21785
814.551	21736
814.692	21778
814.833	21587
814.974	21686
815.115	21694
815.256	21610
815.397	21606
815.539	21667
815.68	21561
815.821	21348
815.962	21549
816.103	21511
816.244	21268
816.385	21268
816.526	21249
816.666	20944
816.807	20777
816.948	21070
817.089	21051
817.23	20956
817.371	20914
817.512	20872
817.653	20758
817.793	20883
817.934	20792
818.075	20880
818.216	20788
818.356	20796
818.497	20689
818.638	20571
818.778	20533
818.919	20530
819.06	20495
819.2	20712
819.341	20876
819.481	20670
819.622	20876
819.762	21020
819.903	21047
820.043	20853
820.184	20880
820.324	20963
820.465	20918
820.605	20811
820.746	20788
820.886	20674
821.026	20834
821.167	20781
821.307	20864
821.447	20838
821.588	20636
821.728	20503
821.868	20400
822.008	20046
822.149	20259
822.289	20244
822.429	19963
822.569	19890
822.709	19932
822.849	19639
822.99	19719
823.13	19658
823.27	19651
823.41	19468
823.55	19544
823.69	19499
823.83	19548
823.97	19400
824.11	19209
824.25	19179
824.389	19304
824.529	19251
824.669	19225
824.809	19308
824.949	19377
825.089	19320
825.228	19346
825.368	19168
825.508	19076
825.648	19133
825.787	19118
825.927	19225
826.067	19038
826.206	18951
826.346	19088
826.485	19198
826.625	19065
826.765	19274
826.904	19065
827.044	18871
827.183	18749
827.323	18688
827.462	18802
827.601	18646
827.741	18692
827.88	18677
828.02	18570
828.159	18684
828.298	18730
828.437	18772
828.577	18627
828.716	18707
828.855	18681
828.994	18475
829.134	18418
829.273	18589
829.412	18441
829.551	18384
829.69	18391
829.829	18563
829.968	18471
830.107	18452
830.246	18498
830.385	18467
830.524	18319
830.663	18304
830.802	18273
830.941	18136
831.08	18026
831.219	18098
831.357	18232
831.496	18270
831.635	18136
831.774	17958
831.913	17988
832.051	17904
832.19	17912
832.329	17901
832.467	17767
832.606	17733
832.744	17790
832.883	17764
833.022	17809
833.16	17703
833.299	17809
833.437	17870
833.576	17893
833.714	17779
833.852	17878
833.991	17824
834.129	18015
834.267	17885
834.406	17923
834.544	17897
834.682	17874
834.821	17916
834.959	17965
835.097	17809
835.235	17836
835.373	17870
835.511	17916
835.65	17703
835.788	17657
835.926	17581
836.064	17421
836.202	17543
836.34	17646
836.478	17836
836.615	17619
836.753	17745
836.891	17604
837.029	17870
837.167	17665
837.305	17672
837.443	17570
837.58	17497
837.718	17627
837.856	17585
837.993	17543
838.131	17653
838.269	17509
838.406	17433
838.544	17395
838.681	17242
838.819	17223
838.956	16976
839.094	17071
839.231	17052
839.369	17231
839.506	17368
839.643	17216
839.781	17014
839.918	17022
840.055	17010
840.193	17010
840.33	16961
840.467	17010
840.604	17109
840.742	17296
840.879	16984
841.016	16930
841.153	16961
841.29	17174
841.427	17041
841.564	17029
841.701	17147
841.838	16968
841.975	16889
842.112	16919
842.249	16809
842.385	16809
842.522	17029
842.659	16831
842.796	16797
842.933	16820
843.069	16771
843.206	16782
843.343	16892
843.479	16869
843.616	16911
843.752	16588
843.889	16634
844.025	16805
844.162	16691
844.298	16713
844.435	16660
844.571	16615
844.708	16694
844.844	16896
844.98	16828
845.117	16881
845.253	16759
845.389	16873
845.525	17033
845.661	17566
845.798	17737
845.934	18224
846.07	18330
846.206	18391
846.342	18102
846.478	17619
846.614	16976
846.75	16546
846.886	16440
847.022	16436
847.158	16348
847.294	16379
847.429	16211
847.565	16147
847.701	16443
847.837	15857
847.972	15842
848.108	16017
848.244	15945
848.379	15812
848.515	15774
848.65	15720
848.786	15759
848.921	15762
849.057	15850
849.192	15861
849.328	15785
849.463	15804
849.598	15728
849.734	15736
849.869	15610
850.004	15534
850.14	15526
850.275	15447
850.41	15431
850.545	15545
850.68	15477
850.815	15542
850.95	15458
851.085	15743
851.22	15625
851.355	15466
851.49	15545
851.625	15443
851.76	15542
851.895	15488
852.03	15401
852.165	15477
852.299	15519
852.434	15614
852.569	15519
852.703	15530
852.838	15526
852.973	15709
853.107	15766
853.242	15397
853.376	15355
853.511	15264
853.645	15351
853.78	15530
853.914	15496
854.048	15359
854.183	15355
854.317	15439
854.451	15625
854.585	15336
854.72	15302
854.854	15439
854.988	15306
855.122	15264
855.256	15260
855.39	15367
855.524	15393
855.658	15397
855.792	15466
855.926	15454
856.06	15393
856.194	15488
856.327	15329
856.461	15351
856.595	15317
856.729	15302
856.862	15435
856.996	15405
857.13	15458
857.263	15561
857.397	15450
857.53	15367
857.664	15363
857.797	15348
857.931	15526
858.064	15348
858.197	15561
858.331	15348
858.464	15329
858.597	15184
858.731	15306
858.864	15272
858.997	15367
859.13	15420
859.263	15386
859.396	15416
859.529	15351
859.662	15298
859.795	15321
859.928	15374
860.061	15450
860.194	15454
860.327	15325
860.46	15386
860.592	15435
860.725	15412
860.858	15580
860.99	15298
861.123	15211
861.256	15260
861.388	15302
861.521	15934
861.653	15226
861.786	15104
861.918	15180
862.05	15222
862.183	15321
862.315	15241
862.447	15340
862.58	15313
862.712	15112
862.844	15005
862.976	15165
863.108	15218
863.24	15618
863.372	15047
863.504	15047
863.636	15272
863.768	15097
863.9	15146
864.032	15051
864.164	15150
864.296	15051
864.428	15275
864.559	15146
864.691	15116
864.823	15108
864.954	15081
865.086	15112
865.217	15077
865.349	15039
865.48	15039
865.612	15112
865.743	15211
865.875	15036
866.006	14975
866.137	15154
866.269	15112
866.4	15020
866.531	15055
866.662	15013
866.793	15013
866.924	15055
867.055	14941
867.186	15127
867.317	14956
867.448	14998
867.579	14994
867.71	14956
867.841	14952
867.972	15135
868.103	15066
868.233	15058
868.364	15157
868.495	15226
868.625	15226
868.756	15439
868.886	15233
869.017	15321
869.147	15359
869.278	15435
869.408	15321
869.539	15237
869.669	15374
869.799	15298
869.929	15458
870.06	15477
870.19	15591
870.32	15679
870.45	15701
870.58	15762
870.71	15774
870.84	15717
870.97	15755
871.1	15686
871.23	15899
871.36	15991
871.489	15713
871.619	15865
871.749	15937
871.879	15884
872.008	15983
872.138	15956
872.267	15857
872.397	15816
872.526	15675
872.656	15709
872.785	15671
872.915	15922
873.044	15998
873.173	15903
873.303	16013
873.432	16071
873.561	16044
873.69	15953
873.819	15998
873.948	16013
874.077	15956
874.206	15937
874.335	15975
874.464	16124
874.593	16310
874.722	16268
874.851	16310
874.979	16211
875.108	16287
875.237	16211
875.365	16268
875.494	16314
875.623	16382
875.751	16272
875.88	16280
876.008	16417
876.136	16474
876.265	16607
876.393	16820
876.521	16869
876.65	16828
876.778	16683
876.906	16698
877.034	16653
877.162	16725
877.29	16615
877.418	16752
877.546	16774
877.674	16911
877.802	16782
877.93	16873
878.058	16672
878.185	16679
878.313	16771
878.441	16889
878.568	16611
878.696	16892
878.824	16991
878.951	17170
879.079	17296
879.206	17532
879.333	17509
879.461	17684
879.588	17821
879.715	17851
879.842	17836
879.97	17619
880.097	17079
880.224	17140
880.351	16995
880.478	16858
880.605	16748
880.732	16790
880.859	17003
880.986	16824
881.112	16748
881.239	16653
881.366	16451
881.493	16546
881.619	16478
881.746	16432
881.872	16371
881.999	16394
882.125	16299
882.252	16603
882.378	16527
882.505	16653
882.631	16352
882.757	16265
882.883	16291
883.01	16314
883.136	16207
883.262	16268
883.388	16143
883.514	16295
883.64	16306
883.766	16139
883.892	16044
884.018	16112
884.143	16276
884.269	16356
884.395	16093
884.52	15998
884.646	15983
884.772	15823
884.897	15816
885.023	16010
885.148	15987
885.274	16097
885.399	16071
885.524	15903
885.65	15846
885.775	15937
885.9	15934
886.025	15956
886.15	15972
886.275	15816
886.4	15827
886.525	15835
886.65	15804
886.775	15732
886.9	15884
887.025	15953
887.149	15838
887.274	15603
887.399	15603
887.523	15584
887.648	15595
887.773	15584
887.897	15682
888.021	15644
888.146	15587
888.27	15717
888.395	15625
888.519	15641
888.643	15652
888.767	15568
888.891	15504
889.015	15466
889.139	15561
889.263	15431
889.387	15568
889.511	15690
889.635	15660
889.759	15435
889.883	15401
890.006	15542
890.13	15568
890.254	15321
890.377	15386
890.501	15135
890.624	15230
890.748	15294
890.871	15169
890.995	15077
891.118	15028
891.241	15119
891.364	15047
891.488	15154
891.611	15112
891.734	15017
891.857	15138
891.98	15024
892.103	15157
892.226	15195
892.349	15032
892.471	14914
892.594	15127
892.717	15108
892.839	15047
892.962	15116
893.085	15093
893.207	15047
893.33	14891
893.452	14925
893.575	15017
893.697	15020
893.819	15112
893.941	15165
894.064	15154
894.186	14994
894.308	14960
894.43	15119
894.552	15283
894.674	15192
894.796	14963
894.918	15077
895.04	15051
895.161	15108
895.283	15047
895.405	15070
895.526	15142
895.648	15180
895.769	15135
895.891	15085
896.012	15275
896.134	15252
896.255	15146
896.376	15169
896.498	15180
896.619	15135
896.74	15108
896.861	15237
896.982	15481
897.103	15606
897.224	15466
897.345	15370
897.466	15393
897.587	15477
897.708	15576
897.828	15477
897.949	15424
898.07	15382
898.19	15439
898.311	15564
898.431	15439
898.552	15530
898.672	15622
898.792	15603
898.913	15526
899.033	15492
899.153	15382
899.273	15283
899.393	15355
899.513	15439
899.633	15325
899.753	15485
899.873	15386
899.993	15405
900.113	15431
900.232	15340
900.352	15317
900.472	15283
900.591	15169
900.711	15237
900.83	15173
900.95	15386
901.069	15256
901.189	15157
901.308	14979
901.427	14876
901.546	14853
901.665	14853
901.784	14929
901.904	14811
902.023	14746
902.141	14507
902.26	14526
902.379	14499
902.498	14457
902.617	14366
902.735	14427
902.854	14408
902.973	14396
903.091	14199
903.21	14058
903.328	14107
903.446	14107
903.565	14084
903.683	14043
903.801	13879
903.919	13940
904.038	13883
904.156	13696
904.274	13715
904.392	13765
904.51	13788
904.627	13791
904.745	13833
904.863	13761
904.981	13586
905.098	13537
905.216	13407
905.334	13544
905.451	13362
905.569	13441
905.686	13521
905.803	13476
905.921	13289
906.038	13293
906.155	13293
906.272	13198
906.389	13114
906.506	13004
906.623	13019
906.74	13076
906.857	12962
906.974	12954
907.091	13088
907.208	13179
907.324	13107
907.441	12958
907.557	12711
907.674	12703
907.79	12795
907.907	12715
908.023	12825
908.139	12707
908.256	12642
908.372	12658
908.488	12650
908.604	12479
908.72	12502
908.836	12479
908.952	12418
909.068	12551
909.184	12681
909.3	12532
909.415	12555
909.531	12502
909.647	12266
909.762	12319
909.878	12140
909.993	12201
910.108	12270
910.224	12273
910.339	12224
910.454	12171
910.57	12098
910.685	12095
910.8	12365
910.915	12163
911.03	12114
911.145	11939
911.259	11969
911.374	11973
911.489	11828
911.604	11817
911.718	11676
911.833	11714
911.947	11562
912.062	11585
912.176	11665
912.291	11665
912.405	11688
912.519	11752
912.633	11786
912.748	11691
912.862	11585
912.976	11581
913.09	11459
913.204	11623
913.318	11509
913.431	11611
913.545	11570
913.659	11638
913.772	11554
913.886	11474
914	11391
914.113	11467
914.226	11566
914.34	11478
914.453	11334
914.566	11589
914.68	11372
914.793	11353
914.906	11181
915.019	11151
915.132	11060
915.245	11128
915.358	11201
915.47	11166
915.583	11250
915.696	11231
915.809	11284
915.921	11311
916.034	11105
916.146	11159
916.259	11124
916.371	11159
916.483	11197
916.595	11098
916.708	11033
916.82	11102
916.932	10999
917.044	11014
917.156	11018
917.268	10980
917.38	10999
917.491	10858
917.603	11025
917.715	11033
917.826	11090
917.938	10946
918.049	10816
918.161	10919
918.272	11067
918.384	11102
918.495	10949
918.606	10839
918.717	10698
918.828	10873
918.939	10892
919.05	10691
919.161	10805
919.272	10577
919.383	10744
919.494	10892
919.604	11010
919.715	10881
919.826	10733
919.936	10790
920.047	10896
920.157	10706
920.267	10976
920.378	10900
920.488	10797
920.598	11086
920.708	11136
920.818	11010
920.928	11060
921.038	11128
921.148	11064
921.258	10904
921.368	10759
921.477	10698
921.587	10637
921.697	10527
921.806	10710
921.916	10516
922.025	10421
922.134	10436
922.244	10360
922.353	10432
922.462	10276
922.571	10207
922.68	10051
922.789	9979
922.898	10097
923.007	9987
923.116	10093
923.224	10048
923.333	10040
923.442	9884
923.55	9918
923.659	9911
923.767	9926
923.876	9876
923.984	9956
924.092	9850
924.201	9907
924.309	9926
924.417	9869
924.525	9869
924.633	9835
924.741	10752
924.849	9606
924.956	9800
925.064	9633
925.172	9553
925.279	9641
925.387	9679
925.494	9637
925.602	9778
925.709	9797
925.816	9660
925.924	9595
926.031	9728
926.138	9641
926.245	9701
926.352	9637
926.459	9694
926.566	9747
926.673	9564
926.779	9504
926.886	9538
926.993	9397
927.099	9355
927.206	9325
927.312	9336
927.419	9424
927.525	9363
927.631	9370
927.737	9249
927.843	9211
927.95	9176
928.056	9283
928.162	9195
928.267	9332
928.373	9804
928.479	9332
928.585	9138
928.69	9245
928.796	9199
928.901	9116
929.007	8944
929.112	9119
929.218	9112
929.323	9131
929.428	9047
929.533	9097
929.638	9032
929.743	9047
929.848	9051
929.953	9062
930.058	8864
930.163	8826
930.267	8823
930.372	8937
930.477	8800
930.581	9043
930.685	8929
930.79	8766
930.894	8838
930.998	8804
931.103	8857
931.207	8480
931.311	8480
931.415	8469
931.519	8290
931.623	8237
