Data from test_V78500241_2285.txt Node
Date: Fri Mar 25 14:49:37 CST 2022
User: usil
Spectrometer: V785-0024
Trigger mode: 0
Integration Time (sec): 4.000000E-1
Scans to average: 1
Nonlinearity correction enabled: false
Boxcar width: 0
Storing dark spectrum: false
XAxis mode: Wavelengths
Number of Pixels in Spectrum: 1024
>>>>>Begin Spectral Data<<<<<
801.071	22181
801.214	21979
801.356	21797
801.499	21637
801.641	21625
801.783	21591
801.926	21587
802.068	21481
802.211	21412
802.353	21317
802.496	21161
802.638	21104
802.78	20998
802.923	20925
803.065	20849
803.208	20773
803.35	20891
803.492	20944
803.635	21066
803.777	20811
803.919	20899
804.061	21150
804.204	20937
804.346	20899
804.488	20883
804.63	20876
804.773	20857
804.915	20746
805.057	20891
805.199	20826
805.341	20868
805.483	20899
805.626	20842
805.768	20746
805.91	20891
806.052	20769
806.194	20743
806.336	21013
806.478	20777
806.62	20777
806.762	20819
806.904	20952
807.046	21157
807.188	21093
807.33	21055
807.472	21123
807.614	21085
807.756	21108
807.898	21017
808.04	20792
808.182	20781
808.324	20910
808.465	20929
808.607	21104
808.749	21173
808.891	21252
809.033	21416
809.174	21272
809.316	21074
809.458	21165
809.6	21195
809.741	21294
809.883	21222
810.025	21332
810.166	21336
810.308	21321
810.45	21283
810.591	21279
810.733	21074
810.875	20948
811.016	20925
811.158	20952
811.299	21074
811.441	21123
811.582	21150
811.724	20834
811.865	20788
812.007	20933
812.148	20929
812.29	21032
812.431	21165
812.573	21173
812.714	21378
812.855	21618
812.997	21473
813.138	21728
813.279	21576
813.421	21466
813.562	21401
813.703	21287
813.845	21039
813.986	20739
814.127	20606
814.268	20598
814.41	20438
814.551	20514
814.692	20689
814.833	20412
814.974	20476
815.115	20575
815.256	20404
815.397	20347
815.539	20400
815.68	20218
815.821	20191
815.962	20176
816.103	20054
816.244	19989
816.385	20005
816.526	20081
816.666	19833
816.807	19674
816.948	19655
817.089	19769
817.23	19769
817.371	19651
817.512	19597
817.653	19632
817.793	19693
817.934	19696
818.075	19715
818.216	19666
818.356	19575
818.497	19529
818.638	19365
818.778	19236
818.919	19365
819.06	19438
819.2	19403
819.341	19502
819.481	19449
819.622	19704
819.762	19811
819.903	19742
820.043	19685
820.184	19620
820.324	19575
820.465	19696
820.605	19742
820.746	19616
820.886	19327
821.026	19632
821.167	19548
821.307	19578
821.447	19578
821.588	19556
821.728	19228
821.868	19110
822.008	19012
822.149	19000
822.289	18924
822.429	18741
822.569	18753
822.709	18601
822.849	18521
822.99	18502
823.13	18521
823.27	18429
823.41	18407
823.55	18266
823.69	18277
823.83	18384
823.97	18296
824.11	18129
824.25	18133
824.389	18095
824.529	18125
824.669	18125
824.809	18213
824.949	18232
825.089	18235
825.228	18190
825.368	17878
825.508	17893
825.648	17958
825.787	17851
825.927	17912
826.067	17901
826.206	17790
826.346	17950
826.485	17912
826.625	17866
826.765	17893
826.904	17832
827.044	17642
827.183	17786
827.323	17592
827.462	17649
827.601	17566
827.741	17535
827.88	17585
828.02	17402
828.159	17524
828.298	17646
828.437	17699
828.577	17524
828.716	17722
828.855	17581
828.994	17376
829.134	17372
829.273	17311
829.412	17288
829.551	17296
829.69	17315
829.829	17353
829.968	17478
830.107	17284
830.246	17311
830.385	17231
830.524	17239
830.663	17197
830.802	17098
830.941	16972
831.08	16835
831.219	16892
831.357	16938
831.496	17098
831.635	16987
831.774	16824
831.913	16771
832.051	16637
832.19	16793
832.329	16694
832.467	16672
832.606	16603
832.744	16656
832.883	16710
833.022	16634
833.16	16672
833.299	16630
833.437	16542
833.576	16637
833.714	16763
833.852	16698
833.991	16611
834.129	16740
834.267	16797
834.406	16656
834.544	16702
834.682	16725
834.821	16626
834.959	16831
835.097	16626
835.235	16664
835.373	16630
835.511	16668
835.65	16645
835.788	16573
835.926	16363
836.064	16398
836.202	16394
836.34	16474
836.478	16816
836.615	16561
836.753	16569
836.891	16668
837.029	16588
837.167	16527
837.305	16402
837.443	16405
837.58	16375
837.718	16500
837.856	16409
837.993	16341
838.131	16386
838.269	16230
838.406	16356
838.544	16272
838.681	16044
838.819	16090
838.956	15991
839.094	15949
839.231	15983
839.369	16109
839.506	16382
839.643	16143
839.781	15987
839.918	15949
840.055	16048
840.193	15857
840.33	15983
840.467	15972
840.604	15953
840.742	16223
840.879	15778
841.016	15789
841.153	15903
841.29	16188
841.427	15972
841.564	15895
841.701	15983
841.838	15930
841.975	15960
842.112	15831
842.249	15720
842.385	15682
842.522	15861
842.659	15720
842.796	15739
842.933	15682
843.069	15724
843.206	15717
843.343	15793
843.479	15736
843.616	15755
843.752	15447
843.889	15545
844.025	15614
844.162	15500
844.298	15591
844.435	15443
844.571	15458
844.708	15549
844.844	15675
844.98	15656
845.117	15679
845.253	15530
845.389	15355
845.525	15462
845.661	15458
845.798	15176
845.934	15405
846.07	15332
846.206	15435
846.342	15466
846.478	15344
846.614	15119
846.75	15093
846.886	15055
847.022	15077
847.158	15032
847.294	15062
847.429	15199
847.565	15180
847.701	15298
847.837	14864
847.972	14743
848.108	14815
848.244	14960
848.379	14705
848.515	14750
848.65	14613
848.786	14632
848.921	14686
849.057	14682
849.192	14746
849.328	14655
849.463	14689
849.598	14610
849.734	14560
849.869	14473
850.004	14438
850.14	14450
850.275	14530
850.41	14393
850.545	14488
850.68	14450
850.815	14412
850.95	14484
851.085	14503
851.22	14575
851.355	14454
851.49	14431
851.625	14347
851.76	14404
851.895	14286
852.03	14362
852.165	14438
852.299	14427
852.434	14499
852.569	14454
852.703	14454
852.838	14549
852.973	14678
853.107	14545
853.242	14377
853.376	14339
853.511	14168
853.645	14202
853.78	14434
853.914	14313
854.048	14328
854.183	14271
854.317	14259
854.451	14438
854.585	14381
854.72	14313
854.854	14324
854.988	14298
855.122	14229
855.256	14229
855.39	14210
855.524	14366
855.658	14385
855.792	14309
855.926	14351
856.06	14438
856.194	14423
856.327	14351
856.461	14301
856.595	14290
856.729	14355
856.862	14389
856.996	14286
857.13	14415
857.263	14400
857.397	14442
857.53	14301
857.664	14396
857.797	14400
857.931	14355
858.064	14362
858.197	14400
858.331	14305
858.464	14275
858.597	14233
858.731	14275
858.864	14317
858.997	14263
859.13	14362
859.263	14301
859.396	14393
859.529	14282
859.662	14256
859.795	14332
859.928	14374
860.061	14461
860.194	14594
860.327	14336
860.46	14336
860.592	14431
860.725	14431
860.858	14393
860.99	14320
861.123	14275
861.256	14206
861.388	14233
861.521	14834
861.653	14301
861.786	14134
861.918	14210
862.05	14206
862.183	14298
862.315	14252
862.447	14457
862.58	14172
862.712	14043
862.844	13967
862.976	14134
863.108	14138
863.24	14377
863.372	13951
863.504	14012
863.636	14084
863.768	14130
863.9	13978
864.032	14050
864.164	14092
864.296	14172
864.428	14229
864.559	14164
864.691	14202
864.823	14157
864.954	14096
865.086	14103
865.217	14031
865.349	13955
865.48	14119
865.612	14176
865.743	14339
865.875	13986
866.006	14046
866.137	14039
866.269	14081
866.4	14073
866.531	14065
866.662	13978
866.793	13997
866.924	14077
867.055	13974
867.186	14111
867.317	14043
867.448	14016
867.579	14020
867.71	13997
867.841	14012
867.972	14077
868.103	14065
868.233	14123
868.364	14050
868.495	14134
868.625	14339
868.756	14419
868.886	14244
869.017	14343
869.147	14450
869.278	14454
869.408	14324
869.539	14427
869.669	14457
869.799	14362
869.929	14488
870.06	14404
870.19	14575
870.32	14552
870.45	14678
870.58	14686
870.71	14739
870.84	14895
870.97	14712
871.1	14720
871.23	14876
871.36	14853
871.489	14842
871.619	14918
871.749	14929
871.879	14941
872.008	15085
872.138	14948
872.267	14857
872.397	14769
872.526	14727
872.656	14678
872.785	14727
872.915	14902
873.044	14990
873.173	14975
873.303	15005
873.432	15020
873.561	14937
873.69	14952
873.819	14929
873.948	14952
874.077	14952
874.206	14967
874.335	15020
874.464	15199
874.593	15260
874.722	15138
874.851	15294
874.979	15218
875.108	15393
875.237	15268
875.365	15226
875.494	15317
875.623	15287
875.751	15268
875.88	15313
876.008	15454
876.136	15519
876.265	15686
876.393	15800
876.521	15755
876.65	15785
876.778	15724
876.906	15682
877.034	15599
877.162	15686
877.29	15625
877.418	15641
877.546	15637
877.674	15610
877.802	15728
877.93	15667
878.058	15682
878.185	15572
878.313	15701
878.441	15660
878.568	15473
878.696	15625
878.824	15705
878.951	15762
879.079	15869
879.206	15949
879.333	15888
879.461	15625
879.588	15876
879.715	15869
879.842	16032
879.97	15713
880.097	15511
880.224	15469
880.351	15424
880.478	15538
880.605	15519
880.732	15606
880.859	15766
880.986	15545
881.112	15568
881.239	15382
881.366	15340
881.493	15252
881.619	15157
881.746	15195
881.872	15233
881.999	15150
882.125	15195
882.252	15180
882.378	15199
882.505	15340
882.631	15214
882.757	14952
882.883	15066
883.01	15001
883.136	14967
883.262	14929
883.388	14880
883.514	14979
883.64	15062
883.766	15005
883.892	14796
884.018	14769
884.143	14967
884.269	15112
884.395	14845
884.52	14823
884.646	14712
884.772	14724
884.897	14674
885.023	14739
885.148	14842
885.274	14941
885.399	14754
885.524	14667
885.65	14750
885.775	14781
885.9	14629
886.025	14815
886.15	14796
886.275	14708
886.4	14587
886.525	14701
886.65	14697
886.775	14689
886.9	14868
887.025	14925
887.149	14689
887.274	14556
887.399	14480
887.523	14537
887.648	14389
887.773	14488
887.897	14632
888.021	14606
888.146	14473
888.27	14651
888.395	14735
888.519	14693
888.643	14552
888.767	14552
888.891	14503
889.015	14271
889.139	14393
889.263	14419
889.387	14514
889.511	14594
889.635	14499
889.759	14351
889.883	14332
890.006	14442
890.13	14480
890.254	14332
890.377	14301
890.501	14218
890.624	14157
890.748	14309
890.871	14100
890.995	14062
891.118	13982
891.241	14088
891.364	14035
891.488	14229
891.611	14024
891.734	14164
891.857	14157
891.98	14183
892.103	14138
892.226	14191
892.349	14081
892.471	14001
892.594	14050
892.717	14176
892.839	14183
892.962	14107
893.085	14111
893.207	14123
893.33	14001
893.452	14069
893.575	14153
893.697	14046
893.819	14313
893.941	14237
894.064	14240
894.186	14130
894.308	14134
894.43	14168
894.552	14336
894.674	14172
894.796	14073
894.918	14126
895.04	14119
895.161	14294
895.283	14210
895.405	14123
895.526	14202
895.648	14214
895.769	14275
895.891	14332
896.012	14305
896.134	14282
896.255	14286
896.376	14286
896.498	14301
896.619	14229
896.74	14351
896.861	14339
896.982	14545
897.103	14815
897.224	14541
897.345	14571
897.466	14537
897.587	14514
897.708	14697
897.828	14625
897.949	14533
898.07	14389
898.19	14499
898.311	14648
898.431	14530
898.552	14701
898.672	14796
898.792	14743
898.913	14758
899.033	14606
899.153	14503
899.273	14442
899.393	14484
899.513	14438
899.633	14552
899.753	14583
899.873	14427
899.993	14560
900.113	14492
900.232	14594
900.352	14393
900.472	14412
900.591	14374
900.711	14332
900.83	14355
900.95	14450
901.069	14590
901.189	14294
901.308	14081
901.427	13959
901.546	14043
901.665	14092
901.784	14039
901.904	13986
902.023	13845
902.141	13677
902.26	13658
902.379	13613
902.498	13529
902.617	13586
902.735	13636
902.854	13544
902.973	13594
903.091	13354
903.21	13381
903.328	13419
903.446	13263
903.565	13206
903.683	13145
903.801	13088
903.919	13160
904.038	13065
904.156	12947
904.274	13019
904.392	12966
904.51	13019
904.627	12966
904.745	13031
904.863	12935
904.981	12833
905.098	12654
905.216	12730
905.334	12730
905.451	12677
905.569	12601
905.686	12589
905.803	12589
905.921	12521
906.038	12604
906.155	12486
906.272	12433
906.389	12403
906.506	12311
906.623	12270
906.74	12247
906.857	12254
906.974	12209
907.091	12296
907.208	12399
907.324	12342
907.441	12167
907.557	12076
907.674	11954
907.79	12022
907.907	12053
908.023	12182
908.139	12030
908.256	11912
908.372	11855
908.488	11954
908.604	11794
908.72	11707
908.836	11771
908.952	11775
909.068	11733
909.184	11870
909.3	11786
909.415	11821
909.531	11828
909.647	11573
909.762	11596
909.878	11505
909.993	11463
910.108	11516
910.224	11528
910.339	11543
910.454	11471
910.57	11337
910.685	11284
910.8	11585
910.915	11566
911.03	11444
911.145	11174
911.259	11269
911.374	11231
911.489	11090
911.604	11075
911.718	11010
911.833	10987
911.947	10786
912.062	10858
912.176	10957
912.291	11003
912.405	10904
912.519	11201
912.633	11189
912.748	11022
912.862	10965
912.976	10858
913.09	10706
913.204	10782
913.318	10824
913.431	10953
913.545	10919
913.659	11014
913.772	10831
913.886	10759
914	10733
914.113	10771
914.226	10862
914.34	10778
914.453	10706
914.566	10858
914.68	10694
914.793	10653
914.906	10554
915.019	10436
915.132	10443
915.245	10493
915.358	10588
915.47	10550
915.583	10516
915.696	10588
915.809	10706
915.921	10622
916.034	10440
916.146	10424
916.259	10394
916.371	10580
916.483	10607
916.595	10356
916.708	10405
916.82	10504
916.932	10394
917.044	10329
917.156	10379
917.268	10211
917.38	10310
917.491	10280
917.603	10265
917.715	10382
917.826	10428
917.938	10287
918.049	10253
918.161	10299
918.272	10478
918.384	10440
918.495	10405
918.606	10135
918.717	10105
918.828	10272
918.939	10211
919.05	10135
919.161	10223
919.272	9975
919.383	10139
919.494	10215
919.604	10409
919.715	10188
919.826	10143
919.936	10234
920.047	10325
920.157	10303
920.267	10398
920.378	10322
920.488	10185
920.598	10379
920.708	10622
920.818	10371
920.928	10386
921.038	10565
921.148	10622
921.258	10238
921.368	10192
921.477	10059
921.587	10093
921.697	9968
921.806	10158
921.916	9926
922.025	9842
922.134	9804
922.244	9732
922.353	9903
922.462	9671
922.571	9568
922.68	9473
922.789	9454
922.898	9542
923.007	9424
923.116	9519
923.224	9462
923.333	9424
923.442	9332
923.55	9306
923.659	9340
923.767	9420
923.876	9397
923.984	9359
924.092	9275
924.201	9363
924.309	9363
924.417	9321
924.525	9245
924.633	9283
924.741	10291
924.849	9127
924.956	9203
925.064	9135
925.172	9100
925.279	9051
925.387	9192
925.494	9093
925.602	9275
925.709	9233
925.816	9100
925.924	9123
926.031	9260
926.138	9119
926.245	9138
926.352	8998
926.459	9173
926.566	9245
926.673	9157
926.779	8944
926.886	8979
926.993	8883
927.099	8842
927.206	8830
927.312	8804
927.419	8804
927.525	8895
927.631	8918
927.737	8746
927.843	8720
927.95	8678
928.056	8693
928.162	8773
928.267	8800
928.373	9344
928.479	8819
928.585	8606
928.69	8746
928.796	8777
928.901	8667
929.007	8537
929.112	8697
929.218	8602
929.323	8568
929.428	8537
929.533	8731
929.638	8564
929.743	8526
929.848	8621
929.953	8575
930.058	8450
930.163	8286
930.267	8332
930.372	8499
930.477	8263
930.581	8484
930.685	8362
930.79	8301
930.894	8320
930.998	8233
931.103	8404
931.207	8130
931.311	7997
931.415	7917
931.519	7708
931.623	7761
