Data from test_V78500241_2835.txt Node
Date: Fri Mar 25 14:53:27 CST 2022
User: usil
Spectrometer: V785-0024
Trigger mode: 0
Integration Time (sec): 4.000000E-1
Scans to average: 1
Nonlinearity correction enabled: false
Boxcar width: 0
Storing dark spectrum: false
XAxis mode: Wavelengths
Number of Pixels in Spectrum: 1024
>>>>>Begin Spectral Data<<<<<
801.071	22063
801.214	22025
801.356	21732
801.499	21663
801.641	21340
801.783	21408
801.926	21549
802.068	21397
802.211	21264
802.353	21264
802.496	21043
802.638	21017
802.78	20960
802.923	20849
803.065	20735
803.208	20826
803.35	20834
803.492	20815
803.635	20823
803.777	20754
803.919	20880
804.061	21081
804.204	20857
804.346	20705
804.488	20674
804.63	20773
804.773	20678
804.915	20773
805.057	20716
805.199	20609
805.341	20727
805.483	20693
805.626	20796
805.768	20644
805.91	20594
806.052	20659
806.194	20682
806.336	20750
806.478	20632
806.62	20598
806.762	20682
806.904	20796
807.046	21116
807.188	21020
807.33	21020
807.472	21169
807.614	20902
807.756	20899
807.898	20823
808.04	20845
808.182	20712
808.324	20788
808.465	20754
808.607	20956
808.749	21005
808.891	21176
809.033	21298
809.174	21112
809.316	21070
809.458	20986
809.6	21009
809.741	21104
809.883	21062
810.025	21287
810.166	21214
810.308	21287
810.45	21214
810.591	21157
810.733	20868
810.875	20785
811.016	20731
811.158	20594
811.299	20735
811.441	20883
811.582	20944
811.724	20834
811.865	20708
812.007	20708
812.148	20819
812.29	20800
812.431	20887
812.573	20990
812.714	21218
812.855	21351
812.997	21481
813.138	21458
813.279	21481
813.421	21393
813.562	21283
813.703	21024
813.845	20944
813.986	20807
814.127	20427
814.268	20275
814.41	20431
814.551	20446
814.692	20476
814.833	20199
814.974	20290
815.115	20317
815.256	20206
815.397	20320
815.539	20309
815.68	20092
815.821	19986
815.962	20130
816.103	20016
816.244	19913
816.385	19845
816.526	19765
816.666	19670
816.807	19506
816.948	19537
817.089	19582
817.23	19510
817.371	19483
817.512	19472
817.653	19540
817.793	19407
817.934	19506
818.075	19369
818.216	19571
818.356	19460
818.497	19430
818.638	19202
818.778	19244
818.919	19076
819.06	19285
819.2	19244
819.341	19434
819.481	19388
819.622	19537
819.762	19556
819.903	19518
820.043	19518
820.184	19582
820.324	19430
820.465	19506
820.605	19422
820.746	19510
820.886	19335
821.026	19441
821.167	19320
821.307	19434
821.447	19312
821.588	19198
821.728	19107
821.868	18913
822.008	18939
822.149	18909
822.289	18867
822.429	18585
822.569	18563
822.709	18555
822.849	18395
822.99	18441
823.13	18220
823.27	18296
823.41	18129
823.55	18095
823.69	18114
823.83	18133
823.97	18019
824.11	17977
824.25	17874
824.389	17999
824.529	17988
824.669	17977
824.809	18098
824.949	17866
825.089	17946
825.228	17916
825.368	17699
825.508	17668
825.648	17703
825.787	17707
825.927	17741
826.067	17684
826.206	17687
826.346	17718
826.485	17691
826.625	17786
826.765	17794
826.904	17779
827.044	17509
827.183	17452
827.323	17463
827.462	17509
827.601	17360
827.741	17353
827.88	17398
828.02	17353
828.159	17280
828.298	17421
828.437	17429
828.577	17417
828.716	17440
828.855	17425
828.994	17109
829.134	17132
829.273	17216
829.412	17208
829.551	17071
829.69	17151
829.829	17113
829.968	17273
830.107	17193
830.246	17132
830.385	16999
830.524	17098
830.663	16965
830.802	16927
830.941	16824
831.08	16790
831.219	16847
831.357	16896
831.496	16972
831.635	16710
831.774	16778
831.913	16721
832.051	16626
832.19	16500
832.329	16558
832.467	16489
832.606	16428
832.744	16474
832.883	16573
833.022	16440
833.16	16554
833.299	16462
833.437	16500
833.576	16577
833.714	16459
833.852	16584
833.991	16481
834.129	16554
834.267	16523
834.406	16538
834.544	16519
834.682	16569
834.821	16558
834.959	16653
835.097	16523
835.235	16519
835.373	16637
835.511	16443
835.65	16436
835.788	16394
835.926	16223
836.064	16253
836.202	16226
836.34	16436
836.478	16535
836.615	16390
836.753	16497
836.891	16588
837.029	16390
837.167	16284
837.305	16325
837.443	16280
837.58	16272
837.718	16379
837.856	16318
837.993	16158
838.131	16299
838.269	16192
838.406	16150
838.544	16162
838.681	15979
838.819	15994
838.956	15846
839.094	15842
839.231	15888
839.369	16101
839.506	16196
839.643	16131
839.781	15823
839.918	15800
840.055	15842
840.193	15907
840.33	15873
840.467	15835
840.604	15930
840.742	16147
840.879	15644
841.016	15785
841.153	15690
841.29	15907
841.427	15926
841.564	15850
841.701	15816
841.838	15717
841.975	15808
842.112	15675
842.249	15568
842.385	15603
842.522	15869
842.659	15599
842.796	15523
842.933	15656
843.069	15542
843.206	15526
843.343	15618
843.479	15553
843.616	15599
843.752	15428
843.889	15447
844.025	15576
844.162	15374
844.298	15568
844.435	15492
844.571	15302
844.708	15435
844.844	15511
844.98	15500
845.117	15568
845.253	15287
845.389	15272
845.525	15310
845.661	15340
845.798	15066
845.934	15298
846.07	15123
846.206	15211
846.342	15302
846.478	15138
846.614	14990
846.75	15028
846.886	14883
847.022	15032
847.158	15005
847.294	14960
847.429	15005
847.565	14883
847.701	15176
847.837	14648
847.972	14651
848.108	14743
848.244	14815
848.379	14735
848.515	14522
848.65	14602
848.786	14549
848.921	14583
849.057	14644
849.192	14754
849.328	14621
849.463	14545
849.598	14606
849.734	14545
849.869	14503
850.004	14431
850.14	14400
850.275	14362
850.41	14244
850.545	14206
850.68	14339
850.815	14298
850.95	14358
851.085	14511
851.22	14396
851.355	14366
851.49	14282
851.625	14309
851.76	14317
851.895	14187
852.03	14225
852.165	14351
852.299	14339
852.434	14446
852.569	14465
852.703	14355
852.838	14412
852.973	14537
853.107	14396
853.242	14244
853.376	14370
853.511	14096
853.645	14157
853.78	14362
853.914	14172
854.048	14180
854.183	14130
854.317	14180
854.451	14328
854.585	14256
854.72	14206
854.854	14221
854.988	14020
855.122	14145
855.256	14039
855.39	14218
855.524	14328
855.658	14233
855.792	14263
855.926	14221
856.06	14195
856.194	14374
856.327	14256
856.461	14130
856.595	14092
856.729	14206
856.862	14309
856.996	14298
857.13	14294
857.263	14282
857.397	14415
857.53	14149
857.664	14206
857.797	14282
857.931	14271
858.064	14244
858.197	14313
858.331	14225
858.464	14115
858.597	14081
858.731	14221
858.864	14161
858.997	14225
859.13	14259
859.263	14202
859.396	14389
859.529	14191
859.662	14206
859.795	14161
859.928	14271
860.061	14366
860.194	14313
860.327	14275
860.46	14267
860.592	14290
860.725	14358
860.858	14362
860.99	14187
861.123	14111
861.256	14123
861.388	14164
861.521	14887
861.653	14092
861.786	14138
861.918	14115
862.05	14096
862.183	14161
862.315	14210
862.447	14210
862.58	14107
862.712	13970
862.844	13875
862.976	14039
863.108	14100
863.24	14381
863.372	13947
863.504	13993
863.636	14008
863.768	14050
863.9	14069
864.032	13917
864.164	13913
864.296	14119
864.428	14107
864.559	14062
864.691	14115
864.823	14016
864.954	14005
865.086	13928
865.217	13906
865.349	13902
865.48	13986
865.612	13967
865.743	14157
865.875	13974
866.006	13909
866.137	14012
866.269	13944
866.4	13982
866.531	13959
866.662	13936
866.793	13917
866.924	13963
867.055	14039
867.186	13967
867.317	13963
867.448	13879
867.579	13936
867.71	13887
867.841	13833
867.972	13974
868.103	14039
868.233	13951
868.364	14012
868.495	14081
868.625	14225
868.756	14275
868.886	14168
869.017	14233
869.147	14301
869.278	14480
869.408	14191
869.539	14248
869.669	14256
869.799	14286
869.929	14309
870.06	14252
870.19	14541
870.32	14518
870.45	14579
870.58	14689
870.71	14682
870.84	14674
870.97	14610
871.1	14537
871.23	14857
871.36	14823
871.489	14686
871.619	14796
871.749	14815
871.879	14811
872.008	15005
872.138	14845
872.267	14857
872.397	14682
872.526	14659
872.656	14651
872.785	14667
872.915	14826
873.044	15013
873.173	14769
873.303	14918
873.432	14872
873.561	14986
873.69	14819
873.819	14887
873.948	15062
874.077	14845
874.206	14910
874.335	14929
874.464	15138
874.593	15176
874.722	15077
874.851	15218
874.979	15173
875.108	15374
875.237	15119
875.365	15123
875.494	15146
875.623	15310
875.751	15165
875.88	15298
876.008	15340
876.136	15443
876.265	15576
876.393	15690
876.521	15739
876.65	15679
876.778	15534
876.906	15561
877.034	15591
877.162	15561
877.29	15538
877.418	15580
877.546	15656
877.674	15614
877.802	15568
877.93	15713
878.058	15542
878.185	15530
878.313	15435
878.441	15599
878.568	15485
878.696	15530
878.824	15625
878.951	15728
879.079	15804
879.206	15918
879.333	15812
879.461	15622
879.588	15709
879.715	15736
879.842	15895
879.97	15705
880.097	15469
880.224	15439
880.351	15458
880.478	15462
880.605	15523
880.732	15450
880.859	15633
880.986	15462
881.112	15485
881.239	15367
881.366	15218
881.493	15119
881.619	15138
881.746	15180
881.872	15230
881.999	15192
882.125	15024
882.252	15093
882.378	15173
882.505	15157
882.631	15097
882.757	14982
882.883	14937
883.01	14876
883.136	14815
883.262	14868
883.388	14796
883.514	14994
883.64	14891
883.766	14857
883.892	14811
884.018	14667
884.143	14956
884.269	14921
884.395	14712
884.52	14533
884.646	14598
884.772	14594
884.897	14556
885.023	14610
885.148	14708
885.274	14765
885.399	14727
885.524	14644
885.65	14613
885.775	14686
885.9	14537
886.025	14754
886.15	14613
886.275	14602
886.4	14514
886.525	14594
886.65	14590
886.775	14632
886.9	14773
887.025	14902
887.149	14564
887.274	14473
887.399	14469
887.523	14408
887.648	14370
887.773	14362
887.897	14434
888.021	14602
888.146	14450
888.27	14568
888.395	14617
888.519	14476
888.643	14488
888.767	14533
888.891	14427
889.015	14408
889.139	14457
889.263	14377
889.387	14377
889.511	14503
889.635	14488
889.759	14305
889.883	14317
890.006	14343
890.13	14484
890.254	14225
890.377	14370
890.501	14195
890.624	14145
890.748	14199
890.871	14119
890.995	13963
891.118	13955
891.241	14031
891.364	14096
891.488	14157
891.611	13997
891.734	14043
891.857	14035
891.98	14119
892.103	14092
892.226	14103
892.349	13986
892.471	13826
892.594	13970
892.717	14008
892.839	13967
892.962	14092
893.085	14161
893.207	14077
893.33	13875
893.452	13928
893.575	14096
893.697	13940
893.819	14218
893.941	14214
894.064	14134
894.186	13932
894.308	14027
894.43	14195
894.552	14294
894.674	14176
894.796	14084
894.918	14092
895.04	14088
895.161	14161
895.283	14164
895.405	14084
895.526	14172
895.648	14069
895.769	14092
895.891	14172
896.012	14130
896.134	14309
896.255	14259
896.376	14180
896.498	14218
896.619	14267
896.74	14290
896.861	14298
896.982	14556
897.103	14735
897.224	14511
897.345	14434
897.466	14480
897.587	14541
897.708	14526
897.828	14469
897.949	14438
898.07	14396
898.19	14427
898.311	14659
898.431	14568
898.552	14533
898.672	14617
898.792	14590
898.913	14708
899.033	14457
899.153	14408
899.273	14309
899.393	14339
899.513	14488
899.633	14370
899.753	14476
899.873	14446
899.993	14434
900.113	14396
900.232	14332
900.352	14408
900.472	14377
900.591	14240
900.711	14301
900.83	14187
900.95	14423
901.069	14396
901.189	14248
901.308	14005
901.427	13951
901.546	13940
901.665	13909
901.784	14096
901.904	13875
902.023	13799
902.141	13575
902.26	13495
902.379	13590
902.498	13540
902.617	13441
902.735	13552
902.854	13495
902.973	13491
903.091	13308
903.21	13384
903.328	13232
903.446	13183
903.565	13133
903.683	13088
903.801	12985
903.919	13050
904.038	13099
904.156	12935
904.274	12996
904.392	12928
904.51	12909
904.627	12935
904.745	12905
904.863	12966
904.981	12623
905.098	12582
905.216	12559
905.334	12684
905.451	12688
905.569	12597
905.686	12528
905.803	12536
905.921	12513
906.038	12528
906.155	12471
906.272	12289
906.389	12357
906.506	12175
906.623	12197
906.74	12175
906.857	12011
906.974	12121
907.091	12289
907.208	12228
907.324	12239
907.441	12159
907.557	11965
907.674	11965
907.79	11836
907.907	11992
908.023	11927
908.139	11912
908.256	11912
908.372	11901
908.488	11764
908.604	11756
908.72	11642
908.836	11642
908.952	11684
909.068	11699
909.184	11748
909.3	11737
909.415	11832
909.531	11737
909.647	11501
909.762	11474
909.878	11436
909.993	11520
910.108	11467
910.224	11474
910.339	11433
910.454	11410
910.57	11288
910.685	11242
910.8	11577
910.915	11448
911.03	11296
911.145	11143
911.259	11117
911.374	11315
911.489	11102
911.604	11045
911.718	10896
911.833	10923
911.947	10908
912.062	10721
912.176	10938
912.291	10934
912.405	10923
912.519	11132
912.633	11113
912.748	11003
912.862	10927
912.976	10824
913.09	10660
913.204	10721
913.318	10748
913.431	10915
913.545	10991
913.659	10854
913.772	10793
913.886	10721
914	10683
914.113	10812
914.226	10778
914.34	10809
914.453	10672
914.566	10843
914.68	10664
914.793	10607
914.906	10424
915.019	10360
915.132	10360
915.245	10432
915.358	10500
915.47	10443
915.583	10421
915.696	10504
915.809	10630
915.921	10588
916.034	10497
916.146	10352
916.259	10390
916.371	10470
916.483	10508
916.595	10375
916.708	10409
916.82	10363
916.932	10306
917.044	10348
917.156	10443
917.268	10185
917.38	10272
917.491	10261
917.603	10230
917.715	10413
917.826	10360
917.938	10257
918.049	10074
918.161	10333
918.272	10386
918.384	10344
918.495	10257
918.606	10215
918.717	10086
918.828	10173
918.939	10253
919.05	10071
919.161	10067
919.272	9956
919.383	10025
919.494	10166
919.604	10363
919.715	10242
919.826	10036
919.936	10139
920.047	10272
920.157	10131
920.267	10455
920.378	10284
920.488	10207
920.598	10325
920.708	10531
920.818	10371
920.928	10386
921.038	10542
921.148	10500
921.258	10185
921.368	10105
921.477	10147
921.587	10013
921.697	9823
921.806	10040
921.916	9907
922.025	9812
922.134	9759
922.244	9652
922.353	9732
922.462	9534
922.571	9622
922.68	9549
922.789	9450
922.898	9469
923.007	9450
923.116	9454
923.224	9504
923.333	9431
923.442	9359
923.55	9329
923.659	9363
923.767	9447
923.876	9298
923.984	9389
924.092	9199
924.201	9268
924.309	9325
924.417	9340
924.525	9195
924.633	9283
924.741	10162
924.849	9127
924.956	9226
925.064	9142
925.172	9036
925.279	9070
925.387	9108
925.494	9119
925.602	9268
925.709	9123
925.816	9104
925.924	9108
926.031	9127
926.138	9051
926.245	9138
926.352	9036
926.459	9203
926.566	9192
926.673	9112
926.779	8986
926.886	8979
926.993	8823
927.099	8792
927.206	8781
927.312	8731
927.419	8819
927.525	8819
927.631	8895
927.737	8712
927.843	8670
927.95	8659
928.056	8766
928.162	8648
928.267	8739
928.373	9272
928.479	8758
928.585	8571
928.69	8659
928.796	8724
928.901	8518
929.007	8522
929.112	8693
929.218	8495
929.323	8522
929.428	8552
929.533	8663
929.638	8495
929.743	8450
929.848	8541
929.953	8492
930.058	8412
930.163	8320
930.267	8305
930.372	8507
930.477	8298
930.581	8526
930.685	8423
930.79	8237
930.894	8237
930.998	8206
931.103	8351
931.207	8031
931.311	8008
931.415	7917
931.519	7700
931.623	7734
