Data from test_V78500241_1213.txt Node
Date: Fri Mar 25 14:42:09 CST 2022
User: usil
Spectrometer: V785-0024
Trigger mode: 0
Integration Time (sec): 4.000000E-1
Scans to average: 1
Nonlinearity correction enabled: false
Boxcar width: 0
Storing dark spectrum: false
XAxis mode: Wavelengths
Number of Pixels in Spectrum: 1024
>>>>>Begin Spectral Data<<<<<
801.071	22333
801.214	22215
801.356	21918
801.499	21880
801.641	21720
801.783	21770
801.926	21838
802.068	21553
802.211	21625
802.353	21557
802.496	21325
802.638	21332
802.78	21169
802.923	21161
803.065	21039
803.208	21066
803.35	21108
803.492	21226
803.635	21131
803.777	21131
803.919	21165
804.061	21492
804.204	21161
804.346	20963
804.488	20979
804.63	21039
804.773	20933
804.915	21028
805.057	21127
805.199	21199
805.341	21032
805.483	21127
805.626	21043
805.768	21047
805.91	20948
806.052	21100
806.194	20872
806.336	21081
806.478	20979
806.62	21009
806.762	21032
806.904	21252
807.046	21481
807.188	21317
807.33	21306
807.472	21325
807.614	21420
807.756	21382
807.898	21150
808.04	21047
808.182	21028
808.324	21138
808.465	21222
808.607	21469
808.749	21553
808.891	21500
809.033	21656
809.174	21431
809.316	21496
809.458	21473
809.6	21504
809.741	21591
809.883	21469
810.025	21488
810.166	21477
810.308	21652
810.45	21644
810.591	21462
810.733	21355
810.875	21135
811.016	21024
811.158	21127
811.299	21192
811.441	21397
811.582	21378
811.724	21241
811.865	21180
812.007	21291
812.148	21180
812.29	21241
812.431	21408
812.573	21515
812.714	21523
812.855	21644
812.997	21717
813.138	22021
813.279	21766
813.421	21743
813.562	21511
813.703	21530
813.845	21386
813.986	21051
814.127	20899
814.268	20868
814.41	20842
814.551	20705
814.692	20857
814.833	20724
814.974	20686
815.115	20792
815.256	20560
815.397	20632
815.539	20648
815.68	20328
815.821	20396
815.962	20454
816.103	20476
816.244	20343
816.385	20263
816.526	20225
816.666	20035
816.807	20058
816.948	19959
817.089	19993
817.23	19944
817.371	19944
817.512	19955
817.653	19947
817.793	19913
817.934	19970
818.075	19925
818.216	19875
818.356	19841
818.497	19700
818.638	19632
818.778	19552
818.919	19575
819.06	19491
819.2	19575
819.341	19795
819.481	19719
819.622	19932
819.762	20012
819.903	20054
820.043	19928
820.184	19959
820.324	19849
820.465	20035
820.605	19909
820.746	19917
820.886	19723
821.026	19780
821.167	19753
821.307	19898
821.447	19845
821.588	19616
821.728	19571
821.868	19396
822.008	19270
822.149	19301
822.289	19354
822.429	19171
822.569	18886
822.709	19000
822.849	18745
822.99	18798
823.13	18787
823.27	18837
823.41	18574
823.55	18612
823.69	18475
823.83	18589
823.97	18490
824.11	18437
824.25	18235
824.389	18384
824.529	18380
824.669	18334
824.809	18464
824.949	18498
825.089	18426
825.228	18437
825.368	18220
825.508	18155
825.648	18277
825.787	18262
825.927	18220
826.067	18201
826.206	18178
826.346	18133
826.485	18277
826.625	18076
826.765	18327
826.904	18182
827.044	17996
827.183	17878
827.323	17817
827.462	17878
827.601	17870
827.741	17714
827.88	17851
828.02	17752
828.159	17813
828.298	17882
828.437	17889
828.577	17939
828.716	18007
828.855	17790
828.994	17676
829.134	17657
829.273	17573
829.412	17547
829.551	17600
829.69	17543
829.829	17619
829.968	17684
830.107	17657
830.246	17611
830.385	17623
830.524	17589
830.663	17372
830.802	17250
830.941	17208
831.08	17242
831.219	17261
831.357	17235
831.496	17406
831.635	17102
831.774	17155
831.913	17140
832.051	17071
832.19	17102
832.329	17083
832.467	16965
832.606	16881
832.744	16930
832.883	17014
833.022	16858
833.16	16949
833.299	16938
833.437	16938
833.576	16999
833.714	16995
833.852	17025
833.991	17048
834.129	17018
834.267	17037
834.406	17025
834.544	17045
834.682	16968
834.821	17090
834.959	17090
835.097	17003
835.235	17094
835.373	16987
835.511	17117
835.65	16858
835.788	16934
835.926	16820
836.064	16622
836.202	16664
836.34	16927
836.478	16953
836.615	16949
836.753	16866
836.891	16991
837.029	16987
837.167	16911
837.305	16847
837.443	16805
837.58	16664
837.718	16896
837.856	16831
837.993	16797
838.131	16869
838.269	16729
838.406	16691
838.544	16706
838.681	16443
838.819	16421
838.956	16303
839.094	16223
839.231	16409
839.369	16390
839.506	16725
839.643	16645
839.781	16405
839.918	16295
840.055	16379
840.193	16322
840.33	16207
840.467	16337
840.604	16322
840.742	16569
840.879	16234
841.016	16287
841.153	16238
841.29	16424
841.427	16280
841.564	16363
841.701	16440
841.838	16211
841.975	16154
842.112	16188
842.249	16116
842.385	16135
842.522	16314
842.659	16063
842.796	16086
842.933	16154
843.069	16013
843.206	16048
843.343	16185
843.479	16109
843.616	16097
843.752	15888
843.889	15934
844.025	16055
844.162	15812
844.298	16078
844.435	15831
844.571	16029
844.708	15880
844.844	16040
844.98	16135
845.117	16124
845.253	15835
845.389	15747
845.525	15960
845.661	15831
845.798	15766
845.934	15797
846.07	15686
846.206	15922
846.342	15922
846.478	15747
846.614	15614
846.75	15488
846.886	15477
847.022	15599
847.158	15526
847.294	15469
847.429	15447
847.565	15374
847.701	15762
847.837	15230
847.972	15100
848.108	15272
848.244	15283
848.379	15097
848.515	15100
848.65	15097
848.786	15028
848.921	15017
849.057	15024
849.192	15302
849.328	15074
849.463	15062
849.598	15127
849.734	15039
849.869	14937
850.004	14819
850.14	14941
850.275	14868
850.41	14739
850.545	14746
850.68	14823
850.815	14724
850.95	14807
851.085	15001
851.22	14921
851.355	14811
851.49	14785
851.625	14746
851.76	14708
851.895	14629
852.03	14777
852.165	14815
852.299	14895
852.434	14883
852.569	14914
852.703	14838
852.838	14933
852.973	14982
853.107	14967
853.242	14811
853.376	14705
853.511	14564
853.645	14613
853.78	14788
853.914	14701
854.048	14663
854.183	14686
854.317	14678
854.451	14861
854.585	14773
854.72	14613
854.854	14758
854.988	14564
855.122	14708
855.256	14495
855.39	14697
855.524	14693
855.658	14785
855.792	14792
855.926	14693
856.06	14773
856.194	14800
856.327	14617
856.461	14648
856.595	14503
856.729	14663
856.862	14716
856.996	14708
857.13	14743
857.263	14754
857.397	14773
857.53	14716
857.664	14720
857.797	14724
857.931	14944
858.064	14689
858.197	14773
858.331	14678
858.464	14640
858.597	14598
858.731	14697
858.864	14606
858.997	14644
859.13	14731
859.263	14727
859.396	14769
859.529	14590
859.662	14632
859.795	14617
859.928	14708
860.061	14819
860.194	14838
860.327	14720
860.46	14663
860.592	14701
860.725	14838
860.858	14807
860.99	14678
861.123	14617
861.256	14629
861.388	14655
861.521	15450
861.653	14610
861.786	14469
861.918	14457
862.05	14549
862.183	14587
862.315	14678
862.447	14777
862.58	14693
862.712	14408
862.844	14351
862.976	14526
863.108	14571
863.24	14868
863.372	14381
863.504	14400
863.636	14476
863.768	14533
863.9	14423
864.032	14419
864.164	14396
864.296	14533
864.428	14587
864.559	14556
864.691	14514
864.823	14537
864.954	14492
865.086	14488
865.217	14514
865.349	14343
865.48	14400
865.612	14446
865.743	14667
865.875	14431
866.006	14404
866.137	14427
866.269	14465
866.4	14495
866.531	14328
866.662	14431
866.793	14351
866.924	14381
867.055	14503
867.186	14446
867.317	14324
867.448	14366
867.579	14389
867.71	14370
867.841	14339
867.972	14469
868.103	14400
868.233	14457
868.364	14457
868.495	14438
868.625	14674
868.756	14708
868.886	14655
869.017	14678
869.147	14800
869.278	14739
869.408	14689
869.539	14773
869.669	14735
869.799	14727
869.929	14834
870.06	14792
870.19	15108
870.32	15032
870.45	15036
870.58	15112
870.71	15192
870.84	15112
870.97	15077
871.1	15138
871.23	15298
871.36	15363
871.489	15169
871.619	15252
871.749	15264
871.879	15230
872.008	15287
872.138	15237
872.267	15264
872.397	15097
872.526	15154
872.656	15066
872.785	15173
872.915	15420
873.044	15252
873.173	15272
873.303	15329
873.432	15306
873.561	15412
873.69	15317
873.819	15450
873.948	15466
874.077	15374
874.206	15367
874.335	15382
874.464	15450
874.593	15606
874.722	15545
874.851	15690
874.979	15648
875.108	15671
875.237	15606
875.365	15595
875.494	15766
875.623	15785
875.751	15690
875.88	15728
876.008	15808
876.136	15907
876.265	16032
876.393	16120
876.521	16086
876.65	16074
876.778	16078
876.906	16021
877.034	16010
877.162	16086
877.29	16010
877.418	16101
877.546	16010
877.674	16013
877.802	16040
877.93	16105
878.058	15975
878.185	16006
878.313	16029
878.441	16074
878.568	15880
878.696	16059
878.824	16040
878.951	16181
879.079	16261
879.206	16421
879.333	16322
879.461	16177
879.588	16185
879.715	16207
879.842	16356
879.97	16219
880.097	15930
880.224	15869
880.351	15861
880.478	15941
880.605	15854
880.732	15903
880.859	16173
880.986	15964
881.112	15907
881.239	15854
881.366	15732
881.493	15572
881.619	15557
881.746	15606
881.872	15629
881.999	15530
882.125	15496
882.252	15507
882.378	15572
882.505	15766
882.631	15595
882.757	15306
882.883	15507
883.01	15382
883.136	15348
883.262	15275
883.388	15237
883.514	15431
883.64	15412
883.766	15412
883.892	15207
884.018	15306
884.143	15454
884.269	15481
884.395	15207
884.52	15017
884.646	15169
884.772	15055
884.897	15020
885.023	15135
885.148	15207
885.274	15275
885.399	15146
885.524	15116
885.65	15089
885.775	15104
885.9	15089
886.025	15268
886.15	15184
886.275	15150
886.4	15043
886.525	15013
886.65	15093
886.775	15104
886.9	15321
887.025	15416
887.149	15161
887.274	14979
887.399	14971
887.523	14880
887.648	14853
887.773	14845
887.897	15066
888.021	15001
888.146	14910
888.27	15017
888.395	15100
888.519	14963
888.643	15001
888.767	15043
888.891	14895
889.015	14727
889.139	14830
889.263	14796
889.387	14899
889.511	15028
889.635	14948
889.759	14819
889.883	14819
890.006	14724
890.13	14773
890.254	14735
890.377	14739
890.501	14629
890.624	14613
890.748	14674
890.871	14552
890.995	14469
891.118	14438
891.241	14446
891.364	14454
891.488	14667
891.611	14484
891.734	14568
891.857	14571
891.98	14526
892.103	14469
892.226	14461
892.349	14457
892.471	14339
892.594	14480
892.717	14446
892.839	14575
892.962	14499
893.085	14636
893.207	14450
893.33	14396
893.452	14423
893.575	14537
893.697	14450
893.819	14644
893.941	14655
894.064	14655
894.186	14495
894.308	14446
894.43	14552
894.552	14701
894.674	14655
894.796	14412
894.918	14526
895.04	14511
895.161	14594
895.283	14648
895.405	14454
895.526	14731
895.648	14594
895.769	14583
895.891	14530
896.012	14651
896.134	14575
896.255	14560
896.376	14644
896.498	14575
896.619	14610
896.74	14575
896.861	14727
896.982	14944
897.103	15169
897.224	14937
897.345	14944
897.466	14792
897.587	14902
897.708	15017
897.828	14899
897.949	14796
898.07	14765
898.19	14777
898.311	15009
898.431	14868
898.552	14982
898.672	15001
898.792	15085
898.913	14979
899.033	14963
899.153	14830
899.273	14765
899.393	14720
899.513	14944
899.633	14899
899.753	14880
899.873	14777
899.993	14864
900.113	14712
900.232	14811
900.352	14655
900.472	14720
900.591	14629
900.711	14632
900.83	14667
900.95	14811
901.069	14758
901.189	14621
901.308	14431
901.427	14290
901.546	14324
901.665	14393
901.784	14370
901.904	14202
902.023	14081
902.141	13963
902.26	13947
902.379	13963
902.498	13921
902.617	13856
902.735	13917
902.854	13890
902.973	13837
903.091	13704
903.21	13647
903.328	13704
903.446	13529
903.565	13476
903.683	13521
903.801	13365
903.919	13480
904.038	13426
904.156	13343
904.274	13324
904.392	13293
904.51	13266
904.627	13285
904.745	13274
904.863	13403
904.981	13080
905.098	12973
905.216	12970
905.334	12943
905.451	13038
905.569	12962
905.686	13034
905.803	13038
905.921	12791
906.038	12791
906.155	12924
906.272	12707
906.389	12741
906.506	12597
906.623	12559
906.74	12525
906.857	12414
906.974	12604
907.091	12639
907.208	12802
907.324	12540
907.441	12460
907.557	12323
907.674	12304
907.79	12194
907.907	12258
908.023	12391
908.139	12376
908.256	12247
908.372	12258
908.488	12300
908.604	12175
908.72	12041
908.836	12117
908.952	12064
909.068	12121
909.184	12125
909.3	12140
909.415	12114
909.531	12060
909.647	11855
909.762	11863
909.878	11790
909.993	11798
910.108	11908
910.224	11847
910.339	11912
910.454	11748
910.57	11627
910.685	11703
910.8	11897
910.915	11832
911.03	11741
911.145	11547
911.259	11493
911.374	11478
911.489	11444
911.604	11471
911.718	11311
911.833	11318
911.947	11113
912.062	11201
912.176	11299
912.291	11261
912.405	11372
912.519	11452
912.633	11429
912.748	11360
912.862	11193
912.976	11105
913.09	11094
913.204	11102
913.318	11189
913.431	11250
913.545	11296
913.659	11326
913.772	11159
913.886	11064
914	11006
914.113	11124
914.226	11181
914.34	11170
914.453	10911
914.566	11079
914.68	10938
914.793	10999
914.906	10828
915.019	10797
915.132	10645
915.245	10771
915.358	10858
915.47	10744
915.583	10809
915.696	10755
915.809	10873
915.921	10892
916.034	10740
916.146	10717
916.259	10675
916.371	10752
916.483	10820
916.595	10687
916.708	10721
916.82	10706
916.932	10634
917.044	10641
917.156	10653
917.268	10516
917.38	10656
917.491	10603
917.603	10565
917.715	10687
917.826	10733
917.938	10626
918.049	10440
918.161	10630
918.272	10748
918.384	10714
918.495	10592
918.606	10516
918.717	10459
918.828	10478
918.939	10538
919.05	10493
919.161	10527
919.272	10253
919.383	10360
919.494	10470
919.604	10752
919.715	10516
919.826	10421
919.936	10443
920.047	10474
920.157	10417
920.267	10679
920.378	10550
920.488	10485
920.598	10656
920.708	10835
920.818	10679
920.928	10687
921.038	10869
921.148	10744
921.258	10512
921.368	10421
921.477	10322
921.587	10325
921.697	10211
921.806	10386
921.916	10169
922.025	9998
922.134	9975
922.244	9975
922.353	10051
922.462	9994
922.571	9747
922.68	9694
922.789	9705
922.898	9675
923.007	9793
923.116	9740
923.224	9743
923.333	9679
923.442	9564
923.55	9591
923.659	9610
923.767	9694
923.876	9549
923.984	9724
924.092	9523
924.201	9496
924.309	9633
924.417	9641
924.525	9504
924.633	9526
924.741	10341
924.849	9386
924.956	9526
925.064	9405
925.172	9268
925.279	9340
925.387	9378
925.494	9370
925.602	9374
925.709	9393
925.816	9218
925.924	9329
926.031	9439
926.138	9336
926.245	9439
926.352	9253
926.459	9450
926.566	9481
926.673	9306
926.779	9237
926.886	9184
926.993	9100
927.099	9104
927.206	8952
927.312	9032
927.419	9127
927.525	9017
927.631	9104
927.737	8918
927.843	8914
927.95	8769
928.056	9017
928.162	9017
928.267	9066
928.373	9587
928.479	9066
928.585	8838
928.69	8956
928.796	8967
928.901	8807
929.007	8708
929.112	8883
929.218	8948
929.323	8838
929.428	8735
929.533	8929
929.638	8762
929.743	8796
929.848	8853
929.953	8758
930.058	8655
930.163	8526
930.267	8545
930.372	8663
930.477	8571
930.581	8727
930.685	8556
930.79	8461
930.894	8549
930.998	8469
931.103	8640
931.207	8263
931.311	8202
931.415	8134
931.519	7989
931.623	7997
