Data from test_V78500241_1450.txt Node
Date: Fri Mar 25 14:43:48 CST 2022
User: usil
Spectrometer: V785-0024
Trigger mode: 0
Integration Time (sec): 4.000000E-1
Scans to average: 1
Nonlinearity correction enabled: false
Boxcar width: 0
Storing dark spectrum: false
XAxis mode: Wavelengths
Number of Pixels in Spectrum: 1024
>>>>>Begin Spectral Data<<<<<
801.071	22375
801.214	22329
801.356	22131
801.499	21926
801.641	21770
801.783	21770
801.926	21865
802.068	21842
802.211	21736
802.353	21538
802.496	21412
802.638	21313
802.78	21222
802.923	21195
803.065	21089
803.208	21062
803.35	21157
803.492	21245
803.635	21340
803.777	21085
803.919	21214
804.061	21568
804.204	21142
804.346	21085
804.488	20963
804.63	21169
804.773	20952
804.915	21024
805.057	21180
805.199	21123
805.341	21169
805.483	21264
805.626	21116
805.768	21001
805.91	21093
806.052	21017
806.194	20914
806.336	21203
806.478	21131
806.62	20967
806.762	21203
806.904	21272
807.046	21450
807.188	21329
807.33	21428
807.472	21405
807.614	21348
807.756	21420
807.898	21329
808.04	21260
808.182	21169
808.324	21363
808.465	21256
808.607	21599
808.749	21686
808.891	21827
809.033	21861
809.174	21701
809.316	21576
809.458	21633
809.6	21572
809.741	21583
809.883	21606
810.025	21694
810.166	21686
810.308	21557
810.45	21572
810.591	21519
810.733	21374
810.875	21317
811.016	21256
811.158	21131
811.299	21363
811.441	21386
811.582	21401
811.724	21245
811.865	21237
812.007	21203
812.148	21241
812.29	21260
812.431	21374
812.573	21538
812.714	21610
812.855	21762
812.997	21827
813.138	21880
813.279	21842
813.421	21762
813.562	21728
813.703	21481
813.845	21462
813.986	21169
814.127	20982
814.268	20845
814.41	20887
814.551	20857
814.692	20724
814.833	20739
814.974	20678
815.115	20773
815.256	20587
815.397	20621
815.539	20682
815.68	20579
815.821	20457
815.962	20514
816.103	20434
816.244	20267
816.385	20240
816.526	20199
816.666	19982
816.807	19913
816.948	20020
817.089	19963
817.23	19936
817.371	19856
817.512	19928
817.653	19871
817.793	19887
817.934	19925
818.075	19925
818.216	20024
818.356	19932
818.497	19731
818.638	19597
818.778	19563
818.919	19620
819.06	19628
819.2	19818
819.341	19757
819.481	19868
819.622	19970
819.762	20214
819.903	19978
820.043	19947
820.184	19917
820.324	20065
820.465	19951
820.605	19868
820.746	19875
820.886	19803
821.026	19841
821.167	19864
821.307	19913
821.447	19894
821.588	19734
821.728	19552
821.868	19533
822.008	19339
822.149	19308
822.289	19324
822.429	19038
822.569	19088
822.709	18951
822.849	18837
822.99	18909
823.13	18817
823.27	18814
823.41	18593
823.55	18441
823.69	18623
823.83	18639
823.97	18498
824.11	18460
824.25	18365
824.389	18361
824.529	18330
824.669	18376
824.809	18555
824.949	18460
825.089	18433
825.228	18422
825.368	18209
825.508	18239
825.648	18079
825.787	18174
825.927	18209
826.067	18117
826.206	18220
826.346	18201
826.485	18125
826.625	18190
826.765	18235
826.904	18129
827.044	17916
827.183	17870
827.323	17843
827.462	17866
827.601	17794
827.741	17805
827.88	17836
828.02	17741
828.159	17863
828.298	17817
828.437	17973
828.577	17767
828.716	17935
828.855	17805
828.994	17619
829.134	17615
829.273	17676
829.412	17535
829.551	17490
829.69	17585
829.829	17554
829.968	17627
830.107	17623
830.246	17623
830.385	17528
830.524	17436
830.663	17406
830.802	17353
830.941	17159
831.08	17204
831.219	17227
831.357	17193
831.496	17497
831.635	17235
831.774	17147
831.913	17181
832.051	17098
832.19	17067
832.329	17010
832.467	16972
832.606	16911
832.744	16748
832.883	16869
833.022	16889
833.16	16968
833.299	17014
833.437	16793
833.576	16953
833.714	16877
833.852	16991
833.991	16949
834.129	17010
834.267	16904
834.406	16965
834.544	16984
834.682	16976
834.821	16869
834.959	17113
835.097	16854
835.235	17041
835.373	16881
835.511	16896
835.65	16733
835.788	16809
835.926	16793
836.064	16687
836.202	16725
836.34	16812
836.478	16850
836.615	16824
836.753	16858
836.891	16900
837.029	16908
837.167	16892
837.305	16771
837.443	16733
837.58	16679
837.718	16706
837.856	16778
837.993	16691
838.131	16771
838.269	16664
838.406	16660
838.544	16550
838.681	16424
838.819	16382
838.956	16246
839.094	16268
839.231	16265
839.369	16413
839.506	16580
839.643	16428
839.781	16268
839.918	16280
840.055	16253
840.193	16284
840.33	16261
840.467	16166
840.604	16131
840.742	16535
840.879	16017
841.016	16139
841.153	16188
841.29	16337
841.427	16135
841.564	16318
841.701	16268
841.838	16120
841.975	16101
842.112	16192
842.249	16032
842.385	16116
842.522	16158
842.659	16006
842.796	15975
842.933	16032
843.069	15987
843.206	15945
843.343	16139
843.479	15998
843.616	16013
843.752	15846
843.889	15770
844.025	15922
844.162	15739
844.298	15842
844.435	15835
844.571	15819
844.708	15918
844.844	15991
844.98	16048
845.117	15892
845.253	15823
845.389	15800
845.525	15876
845.661	15819
845.798	15766
845.934	15869
846.07	15907
846.206	15949
846.342	16032
846.478	15641
846.614	15496
846.75	15397
846.886	15389
847.022	15526
847.158	15374
847.294	15370
847.429	15351
847.565	15283
847.701	15538
847.837	15131
847.972	15055
848.108	15230
848.244	15165
848.379	14994
848.515	14883
848.65	14944
848.786	14937
848.921	14979
849.057	15154
849.192	15013
849.328	15036
849.463	14929
849.598	14906
849.734	14864
849.869	14811
850.004	14708
850.14	14792
850.275	14724
850.41	14659
850.545	14629
850.68	14648
850.815	14720
850.95	14834
851.085	14918
851.22	14804
851.355	14773
851.49	14674
851.625	14701
851.76	14762
851.895	14587
852.03	14655
852.165	14746
852.299	14777
852.434	14743
852.569	14792
852.703	14769
852.838	14777
852.973	14925
853.107	14815
853.242	14716
853.376	14632
853.511	14533
853.645	14549
853.78	14727
853.914	14655
854.048	14708
854.183	14568
854.317	14648
854.451	14868
854.585	14598
854.72	14606
854.854	14701
854.988	14480
855.122	14564
855.256	14438
855.39	14659
855.524	14674
855.658	14636
855.792	14579
855.926	14708
856.06	14636
856.194	14743
856.327	14651
856.461	14594
856.595	14514
856.729	14545
856.862	14651
856.996	14686
857.13	14750
857.263	14712
857.397	14845
857.53	14667
857.664	14689
857.797	14788
857.931	14735
858.064	14689
858.197	14720
858.331	14621
858.464	14549
858.597	14480
858.731	14590
858.864	14594
858.997	14724
859.13	14640
859.263	14663
859.396	14667
859.529	14621
859.662	14610
859.795	14556
859.928	14648
860.061	14796
860.194	14746
860.327	14693
860.46	14594
860.592	14686
860.725	14686
860.858	14842
860.99	14689
861.123	14568
861.256	14564
861.388	14655
861.521	15195
861.653	14503
861.786	14377
861.918	14568
862.05	14541
862.183	14613
862.315	14644
862.447	14765
862.58	14537
862.712	14328
862.844	14358
862.976	14385
863.108	14396
863.24	14948
863.372	14202
863.504	14446
863.636	14362
863.768	14507
863.9	14423
864.032	14370
864.164	14476
864.296	14465
864.428	14549
864.559	14419
864.691	14473
864.823	14446
864.954	14469
865.086	14362
865.217	14412
865.349	14286
865.48	14377
865.612	14400
865.743	14476
865.875	14381
866.006	14328
866.137	14412
866.269	14457
866.4	14393
866.531	14366
866.662	14282
866.793	14362
866.924	14381
867.055	14351
867.186	14385
867.317	14317
867.448	14244
867.579	14336
867.71	14282
867.841	14237
867.972	14370
868.103	14393
868.233	14393
868.364	14423
868.495	14465
868.625	14663
868.756	14743
868.886	14583
869.017	14670
869.147	14746
869.278	14705
869.408	14731
869.539	14602
869.669	14648
869.799	14644
869.929	14739
870.06	14750
870.19	14967
870.32	14914
870.45	14998
870.58	15097
870.71	15184
870.84	15146
870.97	14944
871.1	15043
871.23	15142
871.36	15169
871.489	15097
871.619	15199
871.749	15214
871.879	15272
872.008	15272
872.138	15214
872.267	15260
872.397	15123
872.526	15043
872.656	14971
872.785	15017
872.915	15252
873.044	15332
873.173	15378
873.303	15268
873.432	15336
873.561	15389
873.69	15325
873.819	15275
873.948	15279
874.077	15260
874.206	15237
874.335	15317
874.464	15500
874.593	15549
874.722	15530
874.851	15587
874.979	15481
875.108	15576
875.237	15568
875.365	15523
875.494	15580
875.623	15648
875.751	15622
875.88	15523
876.008	15770
876.136	15690
876.265	16071
876.393	16158
876.521	16021
876.65	15994
876.778	16128
876.906	15895
877.034	15907
877.162	15983
877.29	15899
877.418	15911
877.546	16158
877.674	16010
877.802	15994
877.93	15949
878.058	16032
878.185	15960
878.313	16006
878.441	15861
878.568	15835
878.696	15953
878.824	16139
878.951	16215
879.079	16268
879.206	16413
879.333	16284
879.461	16242
879.588	16257
879.715	16348
879.842	16516
879.97	16246
880.097	15945
880.224	15876
880.351	15994
880.478	15915
880.605	15907
880.732	15975
880.859	16154
880.986	16093
881.112	15888
881.239	15694
881.366	15599
881.493	15549
881.619	15584
881.746	15599
881.872	15591
881.999	15580
882.125	15511
882.252	15553
882.378	15572
882.505	15625
882.631	15481
882.757	15378
882.883	15420
883.01	15386
883.136	15382
883.262	15237
883.388	15188
883.514	15420
883.64	15443
883.766	15302
883.892	15062
884.018	15207
884.143	15306
884.269	15363
884.395	15104
884.52	14998
884.646	15047
884.772	15024
884.897	14952
885.023	14937
885.148	15150
885.274	15195
885.399	15199
885.524	15020
885.65	15062
885.775	15100
885.9	15001
886.025	15169
886.15	15043
886.275	15032
886.4	14883
886.525	14956
886.65	15005
886.775	14967
886.9	15264
887.025	15249
887.149	15093
887.274	14868
887.399	14792
887.523	14834
887.648	14804
887.773	14853
887.897	15036
888.021	14910
888.146	14895
888.27	15013
888.395	15020
888.519	14880
888.643	14933
888.767	14948
888.891	14796
889.015	14739
889.139	14750
889.263	14697
889.387	14815
889.511	14891
889.635	14792
889.759	14724
889.883	14659
890.006	14655
890.13	14800
890.254	14545
890.377	14705
890.501	14556
890.624	14533
890.748	14594
890.871	14484
890.995	14423
891.118	14343
891.241	14492
891.364	14339
891.488	14522
891.611	14404
891.734	14549
891.857	14442
891.98	14454
892.103	14480
892.226	14537
892.349	14362
892.471	14309
892.594	14313
892.717	14446
892.839	14450
892.962	14408
893.085	14499
893.207	14381
893.33	14263
893.452	14313
893.575	14404
893.697	14317
893.819	14655
893.941	14568
894.064	14545
894.186	14343
894.308	14366
894.43	14488
894.552	14606
894.674	14602
894.796	14400
894.918	14358
895.04	14488
895.161	14590
895.283	14495
895.405	14427
895.526	14457
895.648	14499
895.769	14476
895.891	14556
896.012	14735
896.134	14507
896.255	14522
896.376	14610
896.498	14537
896.619	14602
896.74	14659
896.861	14632
896.982	14876
897.103	15047
897.224	14773
897.345	14838
897.466	14792
897.587	14735
897.708	14933
897.828	14872
897.949	14750
898.07	14678
898.19	14785
898.311	15017
898.431	14845
898.552	14845
898.672	14952
898.792	14963
898.913	14849
899.033	14830
899.153	14678
899.273	14689
899.393	14727
899.513	14739
899.633	14705
899.753	14765
899.873	14674
899.993	14788
900.113	14667
900.232	14796
900.352	14853
900.472	14655
900.591	14545
900.711	14667
900.83	14575
900.95	14678
901.069	14777
901.189	14663
901.308	14355
901.427	14271
901.546	14290
901.665	14412
901.784	14313
901.904	14157
902.023	14073
902.141	13925
902.26	13875
902.379	13947
902.498	13803
902.617	13860
902.735	13978
902.854	13776
902.973	13780
903.091	13525
903.21	13563
903.328	13601
903.446	13624
903.565	13426
903.683	13480
903.801	13365
903.919	13362
904.038	13312
904.156	13255
904.274	13331
904.392	13171
904.51	13145
904.627	13213
904.745	13244
904.863	13343
904.981	13015
905.098	12856
905.216	12954
905.334	12928
905.451	12935
905.569	12905
905.686	13046
905.803	12859
905.921	12745
906.038	12798
906.155	12772
906.272	12589
906.389	12688
906.506	12521
906.623	12445
906.74	12540
906.857	12372
906.974	12429
907.091	12578
907.208	12623
907.324	12616
907.441	12399
907.557	12315
907.674	12285
907.79	12194
907.907	12228
908.023	12228
908.139	12304
908.256	12258
908.372	12190
908.488	12091
908.604	12072
908.72	11939
908.836	11965
908.952	11977
909.068	11904
909.184	12068
909.3	11977
909.415	12114
909.531	11999
909.647	11802
909.762	11885
909.878	11684
909.993	11767
910.108	11703
910.224	11767
910.339	11748
910.454	11741
910.57	11695
910.685	11634
910.8	11840
910.915	11737
911.03	11722
911.145	11493
911.259	11372
911.374	11379
911.489	11410
911.604	11391
911.718	11269
911.833	11208
911.947	11124
912.062	11037
912.176	11159
912.291	11185
912.405	11201
912.519	11398
912.633	11364
912.748	11216
912.862	11284
912.976	11143
913.09	11006
913.204	11132
913.318	11090
913.431	11155
913.545	11212
913.659	11124
913.772	11098
913.886	10873
914	10930
914.113	10968
914.226	11090
914.34	11113
914.453	10957
914.566	11041
914.68	10889
914.793	10889
914.906	10812
915.019	10653
915.132	10618
915.245	10702
915.358	10809
915.47	10736
915.583	10698
915.696	10714
915.809	10869
915.921	10862
916.034	10687
916.146	10683
916.259	10630
916.371	10816
916.483	10630
916.595	10675
916.708	10634
916.82	10599
916.932	10596
917.044	10577
917.156	10466
917.268	10466
917.38	10607
917.491	10459
917.603	10573
917.715	10637
917.826	10580
917.938	10527
918.049	10402
918.161	10554
918.272	10687
918.384	10733
918.495	10485
918.606	10363
918.717	10287
918.828	10394
918.939	10466
919.05	10314
919.161	10291
919.272	10166
919.383	10276
919.494	10440
919.604	10637
919.715	10428
919.826	10371
919.936	10402
920.047	10504
920.157	10436
920.267	10607
920.378	10413
920.488	10451
920.598	10641
920.708	10767
920.818	10626
920.928	10478
921.038	10809
921.148	10714
921.258	10421
921.368	10284
921.477	10287
921.587	10291
921.697	10207
921.806	10291
921.916	10173
922.025	10006
922.134	9972
922.244	9918
922.353	10010
922.462	9911
922.571	9823
922.68	9663
922.789	9622
922.898	9679
923.007	9641
923.116	9743
923.224	9728
923.333	9564
923.442	9549
923.55	9507
923.659	9549
923.767	9553
923.876	9458
923.984	9633
924.092	9454
924.201	9538
924.309	9542
924.417	9568
924.525	9515
924.633	9485
924.741	10459
924.849	9298
924.956	9530
925.064	9310
925.172	9313
925.279	9279
925.387	9321
925.494	9336
925.602	9462
925.709	9382
925.816	9317
925.924	9294
926.031	9416
926.138	9302
926.245	9367
926.352	9256
926.459	9405
926.566	9393
926.673	9260
926.779	9100
926.886	9131
926.993	9150
927.099	9066
927.206	9001
927.312	8982
927.419	9093
927.525	9062
927.631	9055
927.737	9005
927.843	8887
927.95	8845
928.056	8960
928.162	8986
928.267	9005
928.373	9599
928.479	9085
928.585	8781
928.69	8845
928.796	9047
928.901	8864
929.007	8758
929.112	8872
929.218	8819
929.323	8746
929.428	8777
929.533	8906
929.638	8693
929.743	8804
929.848	8731
929.953	8693
930.058	8659
930.163	8541
930.267	8541
930.372	8655
930.477	8518
930.581	8727
930.685	8640
930.79	8495
930.894	8503
930.998	8465
931.103	8598
931.207	8225
931.311	8202
931.415	8183
931.519	8050
931.623	7940
