Data from test_V78500241_2708.txt Node
Date: Fri Mar 25 14:52:34 CST 2022
User: usil
Spectrometer: V785-0024
Trigger mode: 0
Integration Time (sec): 4.000000E-1
Scans to average: 1
Nonlinearity correction enabled: false
Boxcar width: 0
Storing dark spectrum: false
XAxis mode: Wavelengths
Number of Pixels in Spectrum: 1024
>>>>>Begin Spectral Data<<<<<
801.071	22097
801.214	21956
801.356	21614
801.499	21526
801.641	21310
801.783	21473
801.926	21439
802.068	21310
802.211	21291
802.353	21127
802.496	20975
802.638	20796
802.78	20849
802.923	20727
803.065	20590
803.208	20651
803.35	20682
803.492	20823
803.635	20826
803.777	20636
803.919	20762
804.061	21020
804.204	20765
804.346	20579
804.488	20590
804.63	20682
804.773	20636
804.915	20701
805.057	20716
805.199	20609
805.341	20697
805.483	20735
805.626	20750
805.768	20629
805.91	20575
806.052	20625
806.194	20503
806.336	20735
806.478	20602
806.62	20514
806.762	20659
806.904	20842
807.046	21009
807.188	20910
807.33	20906
807.472	20963
807.614	20868
807.756	20845
807.898	20583
808.04	20632
808.182	20758
808.324	20716
808.465	20587
808.607	20887
808.749	21081
808.891	21062
809.033	21055
809.174	21116
809.316	20925
809.458	20960
809.6	20891
809.741	20982
809.883	21116
810.025	21104
810.166	21161
810.308	21081
810.45	21096
810.591	21005
810.733	20823
810.875	20902
811.016	20731
811.158	20609
811.299	20655
811.441	20883
811.582	20842
811.724	20861
811.865	20689
812.007	20743
812.148	20727
812.29	20735
812.431	20883
812.573	21169
812.714	21230
812.855	21154
812.997	21294
813.138	21576
813.279	21401
813.421	21230
813.562	21096
813.703	20952
813.845	20971
813.986	20602
814.127	20427
814.268	20290
814.41	20328
814.551	20187
814.692	20454
814.833	20153
814.974	20187
815.115	20301
815.256	20180
815.397	20122
815.539	20145
815.68	20096
815.821	20039
815.962	20046
816.103	20084
816.244	19833
816.385	19765
816.526	19704
816.666	19559
816.807	19438
816.948	19525
817.089	19594
817.23	19419
817.371	19460
817.512	19316
817.653	19297
817.793	19339
817.934	19400
818.075	19381
818.216	19373
818.356	19346
818.497	19236
818.638	19099
818.778	19027
818.919	19137
819.06	19145
819.2	19316
819.341	19297
819.481	19263
819.622	19384
819.762	19582
819.903	19468
820.043	19441
820.184	19438
820.324	19297
820.465	19422
820.605	19358
820.746	19388
820.886	19206
821.026	19259
821.167	19411
821.307	19422
821.447	19320
821.588	19255
821.728	19091
821.868	18985
822.008	18859
822.149	18787
822.289	18760
822.429	18555
822.569	18475
822.709	18585
822.849	18353
822.99	18262
823.13	18304
823.27	18194
823.41	18121
823.55	18129
823.69	18239
823.83	18072
823.97	18045
824.11	17851
824.25	17912
824.389	17946
824.529	17973
824.669	17878
824.809	18015
824.949	17942
825.089	17904
825.228	17893
825.368	17741
825.508	17687
825.648	17646
825.787	17684
825.927	17752
826.067	17592
826.206	17554
826.346	17752
826.485	17676
826.625	17733
826.765	17737
826.904	17745
827.044	17516
827.183	17353
827.323	17277
827.462	17391
827.601	17258
827.741	17273
827.88	17322
828.02	17284
828.159	17353
828.298	17436
828.437	17406
828.577	17261
828.716	17524
828.855	17322
828.994	17124
829.134	17140
829.273	17136
829.412	17102
829.551	17048
829.69	17056
829.829	17113
829.968	17166
830.107	17128
830.246	17193
830.385	16961
830.524	17090
830.663	16915
830.802	16797
830.941	16873
831.08	16763
831.219	16801
831.357	16763
831.496	16896
831.635	16729
831.774	16778
831.913	16660
832.051	16577
832.19	16508
832.329	16599
832.467	16436
832.606	16443
832.744	16329
832.883	16352
833.022	16398
833.16	16367
833.299	16497
833.437	16455
833.576	16440
833.714	16421
833.852	16687
833.991	16512
834.129	16519
834.267	16580
834.406	16478
834.544	16588
834.682	16451
834.821	16485
834.959	16759
835.097	16443
835.235	16577
835.373	16504
835.511	16489
835.65	16440
835.788	16432
835.926	16219
836.064	16196
836.202	16265
836.34	16413
836.478	16470
836.615	16329
836.753	16428
836.891	16531
837.029	16485
837.167	16344
837.305	16371
837.443	16211
837.58	16215
837.718	16379
837.856	16234
837.993	16314
838.131	16287
838.269	16325
838.406	16230
838.544	16169
838.681	16048
838.819	15994
838.956	15816
839.094	15838
839.231	15994
839.369	15972
839.506	16280
839.643	16093
839.781	15892
839.918	15739
840.055	15876
840.193	15865
840.33	15831
840.467	15831
840.604	15876
840.742	16051
840.879	15766
841.016	15679
841.153	15732
841.29	15884
841.427	15854
841.564	15846
841.701	15812
841.838	15785
841.975	15743
842.112	15690
842.249	15595
842.385	15667
842.522	15770
842.659	15717
842.796	15603
842.933	15660
843.069	15450
843.206	15530
843.343	15641
843.479	15530
843.616	15591
843.752	15405
843.889	15408
844.025	15614
844.162	15401
844.298	15477
844.435	15393
844.571	15268
844.708	15397
844.844	15504
844.98	15526
845.117	15545
845.253	15363
845.389	15226
845.525	15416
845.661	15378
845.798	15214
845.934	15237
846.07	15131
846.206	15245
846.342	15321
846.478	15241
846.614	14925
846.75	15020
846.886	14902
847.022	15150
847.158	15047
847.294	14971
847.429	14971
847.565	14963
847.701	15203
847.837	14777
847.972	14693
848.108	14849
848.244	14701
848.379	14644
848.515	14602
848.65	14549
848.786	14556
848.921	14545
849.057	14663
849.192	14708
849.328	14610
849.463	14606
849.598	14552
849.734	14415
849.869	14442
850.004	14324
850.14	14434
850.275	14522
850.41	14206
850.545	14286
850.68	14377
850.815	14301
850.95	14332
851.085	14473
851.22	14404
851.355	14412
851.49	14362
851.625	14317
851.76	14381
851.895	14240
852.03	14176
852.165	14256
852.299	14389
852.434	14377
852.569	14450
852.703	14355
852.838	14434
852.973	14385
853.107	14442
853.242	14263
853.376	14328
853.511	14054
853.645	14153
853.78	14358
853.914	14286
854.048	14164
854.183	14164
854.317	14218
854.451	14343
854.585	14180
854.72	14244
854.854	14298
854.988	14126
855.122	14229
855.256	14024
855.39	14195
855.524	14305
855.658	14294
855.792	14248
855.926	14210
856.06	14256
856.194	14317
856.327	14263
856.461	14126
856.595	14077
856.729	14259
856.862	14240
856.996	14225
857.13	14271
857.263	14400
857.397	14225
857.53	14237
857.664	14214
857.797	14396
857.931	14256
858.064	14267
858.197	14313
858.331	14172
858.464	14115
858.597	14043
858.731	14153
858.864	14202
858.997	14191
859.13	14161
859.263	14229
859.396	14301
859.529	14248
859.662	14271
859.795	14058
859.928	14298
860.061	14336
860.194	14408
860.327	14313
860.46	14176
860.592	14282
860.725	14336
860.858	14320
860.99	14183
861.123	14210
861.256	14214
861.388	14134
861.521	14731
861.653	14142
861.786	14062
861.918	14054
862.05	14039
862.183	14191
862.315	14180
862.447	14336
862.58	14115
862.712	14031
862.844	13864
862.976	14077
863.108	14027
863.24	14476
863.372	14008
863.504	13974
863.636	13940
863.768	14039
863.9	14001
864.032	13936
864.164	13978
864.296	14024
864.428	14138
864.559	14043
864.691	14103
864.823	14058
864.954	14035
865.086	14107
865.217	13974
865.349	14012
865.48	14016
865.612	14035
865.743	14126
865.875	13989
866.006	13982
866.137	14008
866.269	13890
866.4	13963
866.531	13902
866.662	13890
866.793	13921
866.924	13921
867.055	14008
867.186	13940
867.317	13967
867.448	13849
867.579	13959
867.71	13826
867.841	13940
867.972	13974
868.103	13963
868.233	14016
868.364	14107
868.495	14035
868.625	14248
868.756	14309
868.886	14183
869.017	14168
869.147	14320
869.278	14313
869.408	14256
869.539	14267
869.669	14309
869.799	14240
869.929	14393
870.06	14309
870.19	14587
870.32	14575
870.45	14484
870.58	14640
870.71	14724
870.84	14739
870.97	14537
871.1	14526
871.23	14845
871.36	14842
871.489	14701
871.619	14796
871.749	14826
871.879	14880
872.008	14925
872.138	14807
872.267	14891
872.397	14670
872.526	14731
872.656	14625
872.785	14788
872.915	14933
873.044	14998
873.173	14815
873.303	14971
873.432	14982
873.561	15005
873.69	14902
873.819	14925
873.948	14941
874.077	14967
874.206	14765
874.335	14910
874.464	15074
874.593	15211
874.722	15127
874.851	15173
874.979	15275
875.108	15138
875.237	15188
875.365	15070
875.494	15135
875.623	15298
875.751	15116
875.88	15302
876.008	15416
876.136	15450
876.265	15610
876.393	15713
876.521	15675
876.65	15629
876.778	15698
876.906	15553
877.034	15686
877.162	15557
877.29	15500
877.418	15736
877.546	15633
877.674	15576
877.802	15656
877.93	15625
878.058	15469
878.185	15439
878.313	15587
878.441	15656
878.568	15447
878.696	15542
878.824	15682
878.951	15648
879.079	15728
879.206	15869
879.333	15778
879.461	15629
879.588	15732
879.715	15903
879.842	15865
879.97	15873
880.097	15507
880.224	15500
880.351	15466
880.478	15526
880.605	15500
880.732	15469
880.859	15682
880.986	15629
881.112	15431
881.239	15329
881.366	15264
881.493	15184
881.619	15074
881.746	15028
881.872	15199
881.999	15062
882.125	15089
882.252	15195
882.378	15203
882.505	15252
882.631	15017
882.757	15062
882.883	14937
883.01	14853
883.136	14902
883.262	14815
883.388	14739
883.514	14967
883.64	14967
883.766	14842
883.892	14731
884.018	14800
884.143	15013
884.269	15009
884.395	14724
884.52	14621
884.646	14606
884.772	14583
884.897	14522
885.023	14610
885.148	14750
885.274	14811
885.399	14765
885.524	14731
885.65	14640
885.775	14670
885.9	14689
886.025	14800
886.15	14705
886.275	14670
886.4	14469
886.525	14610
886.65	14560
886.775	14499
886.9	14834
887.025	14739
887.149	14606
887.274	14450
887.399	14427
887.523	14457
887.648	14438
887.773	14336
887.897	14568
888.021	14522
888.146	14556
888.27	14602
888.395	14697
888.519	14484
888.643	14533
888.767	14526
888.891	14431
889.015	14282
889.139	14355
889.263	14240
889.387	14385
889.511	14507
889.635	14393
889.759	14286
889.883	14336
890.006	14343
890.13	14476
890.254	14393
890.377	14199
890.501	14119
890.624	14183
890.748	14298
890.871	14035
890.995	14039
891.118	13974
891.241	14039
891.364	14069
891.488	14195
891.611	14043
891.734	14096
891.857	14092
891.98	14024
892.103	14218
892.226	14107
892.349	14012
892.471	13887
892.594	14035
892.717	13997
892.839	14005
892.962	14100
893.085	13993
893.207	14100
893.33	13982
893.452	13936
893.575	14134
893.697	14016
893.819	14218
893.941	14278
894.064	14210
894.186	14050
894.308	14012
894.43	14164
894.552	14218
894.674	14202
894.796	14043
894.918	14054
895.04	14077
895.161	14119
895.283	14153
895.405	14115
895.526	14172
895.648	14176
895.769	14157
895.891	14259
896.012	14229
896.134	14221
896.255	14298
896.376	14183
896.498	14176
896.619	14180
896.74	14183
896.861	14229
896.982	14564
897.103	14735
897.224	14495
897.345	14514
897.466	14450
897.587	14476
897.708	14678
897.828	14560
897.949	14514
898.07	14343
898.19	14419
898.311	14712
898.431	14530
898.552	14590
898.672	14678
898.792	14610
898.913	14621
899.033	14545
899.153	14408
899.273	14309
899.393	14427
899.513	14385
899.633	14393
899.753	14461
899.873	14465
899.993	14568
900.113	14427
900.232	14370
900.352	14347
900.472	14309
900.591	14244
900.711	14301
900.83	14282
900.95	14381
901.069	14377
901.189	14324
901.308	14020
901.427	13982
901.546	13925
901.665	14001
901.784	13936
901.904	13811
902.023	13704
902.141	13552
902.26	13571
902.379	13620
902.498	13571
902.617	13441
902.735	13575
902.854	13533
902.973	13457
903.091	13206
903.21	13202
903.328	13225
903.446	13206
903.565	13129
903.683	13209
903.801	13050
903.919	13069
904.038	13091
904.156	12939
904.274	12920
904.392	12859
904.51	12810
904.627	12905
904.745	12928
904.863	12947
904.981	12768
905.098	12642
905.216	12639
905.334	12627
905.451	12589
905.569	12654
905.686	12574
905.803	12532
905.921	12407
906.038	12517
906.155	12380
906.272	12281
906.389	12350
906.506	12194
906.623	12224
906.74	12152
906.857	12079
906.974	12144
907.091	12232
907.208	12262
907.324	12243
907.441	12064
907.557	11988
907.674	12030
907.79	11847
907.907	11927
908.023	11988
908.139	11923
908.256	11821
908.372	11847
908.488	11859
908.604	11760
908.72	11718
908.836	11722
908.952	11657
909.068	11779
909.184	11863
909.3	11771
909.415	11863
909.531	11786
909.647	11535
909.762	11596
909.878	11383
909.993	11501
910.108	11452
910.224	11467
910.339	11467
910.454	11440
910.57	11311
910.685	11299
910.8	11501
910.915	11604
911.03	11364
911.145	11269
911.259	11181
911.374	11185
911.489	11128
911.604	10980
911.718	10999
911.833	10991
911.947	10854
912.062	10820
912.176	10904
912.291	10923
912.405	10892
912.519	11140
912.633	11124
912.748	11037
912.862	10919
912.976	10835
913.09	10748
913.204	10714
913.318	10831
913.431	10869
913.545	10873
913.659	10927
913.772	10809
913.886	10759
914	10721
914.113	10847
914.226	10881
914.34	10835
914.453	10691
914.566	10828
914.68	10714
914.793	10649
914.906	10569
915.019	10447
915.132	10337
915.245	10428
915.358	10451
915.47	10535
915.583	10432
915.696	10558
915.809	10584
915.921	10641
916.034	10493
916.146	10394
916.259	10440
916.371	10485
916.483	10447
916.595	10333
916.708	10375
916.82	10432
916.932	10398
917.044	10333
917.156	10322
917.268	10257
917.38	10333
917.491	10402
917.603	10348
917.715	10436
917.826	10455
917.938	10234
918.049	10177
918.161	10261
918.272	10451
918.384	10428
918.495	10367
918.606	10177
918.717	10112
918.828	10204
918.939	10261
919.05	10086
919.161	10067
919.272	9998
919.383	10017
919.494	10177
919.604	10363
919.715	10280
919.826	10124
919.936	10169
920.047	10223
920.157	10169
920.267	10508
920.378	10242
920.488	10158
920.598	10443
920.708	10523
920.818	10382
920.928	10360
921.038	10569
921.148	10558
921.258	10192
921.368	10177
921.477	10063
921.587	10059
921.697	9930
921.806	9987
921.916	9892
922.025	9785
922.134	9698
922.244	9701
922.353	9854
922.462	9656
922.571	9523
922.68	9363
922.789	9348
922.898	9428
923.007	9317
923.116	9488
923.224	9462
923.333	9420
923.442	9344
923.55	9359
923.659	9298
923.767	9431
923.876	9340
923.984	9321
924.092	9180
924.201	9313
924.309	9306
924.417	9348
924.525	9264
924.633	9279
924.741	9994
924.849	9116
924.956	9226
925.064	9070
925.172	8956
925.279	9097
925.387	9123
925.494	9077
925.602	9275
925.709	9207
925.816	9013
925.924	9131
926.031	9192
926.138	9097
926.245	9157
926.352	9028
926.459	9173
926.566	9184
926.673	9051
926.779	8895
926.886	8861
926.993	8853
927.099	8823
927.206	8746
927.312	8731
927.419	8864
927.525	8819
927.631	8883
927.737	8766
927.843	8689
927.95	8583
928.056	8686
928.162	8712
928.267	8826
928.373	9233
928.479	8826
928.585	8564
928.69	8693
928.796	8804
928.901	8636
929.007	8484
929.112	8602
929.218	8625
929.323	8499
929.428	8579
929.533	8727
929.638	8476
929.743	8434
929.848	8568
929.953	8511
930.058	8423
930.163	8282
930.267	8324
930.372	8476
930.477	8221
930.581	8480
930.685	8301
930.79	8176
930.894	8248
930.998	8244
931.103	8370
931.207	7940
931.311	7970
931.415	7955
931.519	7753
931.623	7826
