Data from test_V78500241_2164.txt Node
Date: Fri Mar 25 14:48:46 CST 2022
User: usil
Spectrometer: V785-0024
Trigger mode: 0
Integration Time (sec): 4.000000E-1
Scans to average: 1
Nonlinearity correction enabled: false
Boxcar width: 0
Storing dark spectrum: false
XAxis mode: Wavelengths
Number of Pixels in Spectrum: 1024
>>>>>Begin Spectral Data<<<<<
801.071	22207
801.214	22070
801.356	21759
801.499	21774
801.641	21633
801.783	21618
801.926	21553
802.068	21405
802.211	21462
802.353	21317
802.496	21062
802.638	21013
802.78	20998
802.923	20826
803.065	20986
803.208	20750
803.35	20830
803.492	21036
803.635	21062
803.777	20762
803.919	20948
804.061	21241
804.204	21013
804.346	20849
804.488	20891
804.63	20887
804.773	20724
804.915	20796
805.057	20826
805.199	20811
805.341	20857
805.483	20861
805.626	20826
805.768	20853
805.91	20838
806.052	20902
806.194	20667
806.336	20777
806.478	20735
806.62	20697
806.762	20724
806.904	20857
807.046	21283
807.188	21104
807.33	21146
807.472	21241
807.614	20918
807.756	21051
807.898	20872
808.04	20941
808.182	20853
808.324	20929
808.465	20910
808.607	21085
808.749	21192
808.891	21169
809.033	21325
809.174	21214
809.316	21039
809.458	21195
809.6	21218
809.741	21226
809.883	21310
810.025	21332
810.166	21405
810.308	21348
810.45	21302
810.591	21142
810.733	21043
810.875	21020
811.016	20853
811.158	20739
811.299	20937
811.441	21058
811.582	21062
811.724	20990
811.865	20944
812.007	20887
812.148	20899
812.29	20929
812.431	21077
812.573	21176
812.714	21291
812.855	21401
812.997	21488
813.138	21679
813.279	21492
813.421	21401
813.562	21332
813.703	21154
813.845	21131
813.986	20819
814.127	20632
814.268	20579
814.41	20560
814.551	20644
814.692	20598
814.833	20393
814.974	20454
815.115	20415
815.256	20244
815.397	20218
815.539	20374
815.68	20298
815.821	20119
815.962	20138
816.103	20199
816.244	20103
816.385	19986
816.526	19913
816.666	19795
816.807	19723
816.948	19715
817.089	19662
817.23	19677
817.371	19605
817.512	19567
817.653	19590
817.793	19540
817.934	19666
818.075	19780
818.216	19693
818.356	19605
818.497	19502
818.638	19282
818.778	19206
818.919	19354
819.06	19400
819.2	19483
819.341	19430
819.481	19449
819.622	19620
819.762	19807
819.903	19772
820.043	19715
820.184	19628
820.324	19590
820.465	19776
820.605	19571
820.746	19521
820.886	19586
821.026	19514
821.167	19590
821.307	19670
821.447	19514
821.588	19400
821.728	19339
821.868	19232
822.008	19050
822.149	19023
822.289	18901
822.429	18768
822.569	18635
822.709	18768
822.849	18483
822.99	18521
823.13	18486
823.27	18426
823.41	18384
823.55	18174
823.69	18266
823.83	18376
823.97	18334
824.11	18060
824.25	18064
824.389	18136
824.529	18098
824.669	18079
824.809	18213
824.949	18129
825.089	18243
825.228	18091
825.368	18064
825.508	17969
825.648	17893
825.787	17946
825.927	17992
826.067	17954
826.206	17802
826.346	17977
826.485	17874
826.625	17794
826.765	18087
826.904	17874
827.044	17733
827.183	17596
827.323	17554
827.462	17543
827.601	17638
827.741	17596
827.88	17672
828.02	17490
828.159	17570
828.298	17577
828.437	17634
828.577	17558
828.716	17699
828.855	17543
828.994	17307
829.134	17288
829.273	17395
829.412	17322
829.551	17246
829.69	17269
829.829	17417
829.968	17383
830.107	17452
830.246	17421
830.385	17296
830.524	17273
830.663	17231
830.802	17052
830.941	17075
831.08	16972
831.219	17025
831.357	16923
831.496	17014
831.635	16904
831.774	16767
831.913	16816
832.051	16778
832.19	16820
832.329	16839
832.467	16649
832.606	16618
832.744	16577
832.883	16675
833.022	16634
833.16	16554
833.299	16713
833.437	16733
833.576	16744
833.714	16736
833.852	16649
833.991	16733
834.129	16729
834.267	16717
834.406	16645
834.544	16774
834.682	16588
834.821	16637
834.959	16866
835.097	16698
835.235	16812
835.373	16626
835.511	16675
835.65	16584
835.788	16626
835.926	16485
836.064	16390
836.202	16428
836.34	16554
836.478	16691
836.615	16527
836.753	16573
836.891	16698
837.029	16588
837.167	16592
837.305	16504
837.443	16424
837.58	16398
837.718	16542
837.856	16409
837.993	16424
838.131	16436
838.269	16455
838.406	16356
838.544	16329
838.681	16246
838.819	16078
838.956	16044
839.094	15994
839.231	16071
839.369	16166
839.506	16356
839.643	16177
839.781	16082
839.918	16048
840.055	16029
840.193	16021
840.33	15960
840.467	15960
840.604	15945
840.742	16192
840.879	15869
841.016	15960
841.153	15876
841.29	16120
841.427	15994
841.564	16074
841.701	16036
841.838	16036
841.975	15899
842.112	15960
842.249	15854
842.385	15694
842.522	15960
842.659	15808
842.796	15694
842.933	15812
843.069	15816
843.206	15705
843.343	15850
843.479	15816
843.616	15857
843.752	15580
843.889	15530
844.025	15671
844.162	15485
844.298	15641
844.435	15553
844.571	15530
844.708	15572
844.844	15728
844.98	15682
845.117	15717
845.253	15477
845.389	15454
845.525	15466
845.661	15466
845.798	15367
845.934	15340
846.07	15344
846.206	15382
846.342	15488
846.478	15355
846.614	15176
846.75	14982
846.886	15074
847.022	15116
847.158	15074
847.294	15154
847.429	15127
847.565	15085
847.701	15317
847.837	14853
847.972	14826
848.108	14986
848.244	14880
848.379	14781
848.515	14686
848.65	14602
848.786	14716
848.921	14705
849.057	14773
849.192	14845
849.328	14708
849.463	14682
849.598	14739
849.734	14579
849.869	14655
850.004	14549
850.14	14537
850.275	14552
850.41	14427
850.545	14412
850.68	14438
850.815	14423
850.95	14476
851.085	14594
851.22	14560
851.355	14454
851.49	14461
851.625	14503
851.76	14492
851.895	14457
852.03	14336
852.165	14434
852.299	14610
852.434	14564
852.569	14511
852.703	14537
852.838	14541
852.973	14625
853.107	14655
853.242	14457
853.376	14423
853.511	14233
853.645	14355
853.78	14374
853.914	14469
854.048	14370
854.183	14259
854.317	14301
854.451	14480
854.585	14404
854.72	14301
854.854	14461
854.988	14214
855.122	14309
855.256	14256
855.39	14381
855.524	14461
855.658	14438
855.792	14450
855.926	14385
856.06	14408
856.194	14476
856.327	14339
856.461	14271
856.595	14275
856.729	14366
856.862	14533
856.996	14362
857.13	14461
857.263	14465
857.397	14503
857.53	14343
857.664	14377
857.797	14442
857.931	14476
858.064	14385
858.197	14473
858.331	14362
858.464	14385
858.597	14286
858.731	14336
858.864	14324
858.997	14278
859.13	14362
859.263	14328
859.396	14465
859.529	14294
859.662	14362
859.795	14324
859.928	14358
860.061	14545
860.194	14571
860.327	14427
860.46	14385
860.592	14454
860.725	14537
860.858	14556
860.99	14412
861.123	14347
861.256	14187
861.388	14389
861.521	14948
861.653	14221
861.786	14263
861.918	14199
862.05	14294
862.183	14290
862.315	14351
862.447	14438
862.58	14385
862.712	14123
862.844	14046
862.976	14248
863.108	14164
863.24	14355
863.372	14043
863.504	14149
863.636	14126
863.768	14187
863.9	14218
864.032	14001
864.164	14069
864.296	14191
864.428	14240
864.559	14267
864.691	14286
864.823	14237
864.954	14218
865.086	14172
865.217	14111
865.349	14069
865.48	14130
865.612	14176
865.743	14259
865.875	14119
866.006	14142
866.137	14024
866.269	14157
866.4	14103
866.531	14180
866.662	14062
866.793	13970
866.924	14073
867.055	14088
867.186	14130
867.317	14077
867.448	13986
867.579	14050
867.71	14084
867.841	14005
867.972	14183
868.103	14073
868.233	14111
868.364	14103
868.495	14286
868.625	14290
868.756	14332
868.886	14237
869.017	14317
869.147	14450
869.278	14476
869.408	14305
869.539	14492
869.669	14419
869.799	14446
869.929	14480
870.06	14545
870.19	14727
870.32	14712
870.45	14670
870.58	14739
870.71	14830
870.84	14838
870.97	14758
871.1	14708
871.23	14868
871.36	14963
871.489	14853
871.619	14857
871.749	14906
871.879	15032
872.008	15077
872.138	15055
872.267	14921
872.397	14842
872.526	14727
872.656	14842
872.785	14804
872.915	14914
873.044	15097
873.173	14975
873.303	14952
873.432	15112
873.561	15146
873.69	14971
873.819	14982
873.948	15058
874.077	15077
874.206	15001
874.335	15119
874.464	15138
874.593	15340
874.722	15222
874.851	15329
874.979	15317
875.108	15492
875.237	15367
875.365	15241
875.494	15355
875.623	15355
875.751	15279
875.88	15351
876.008	15481
876.136	15587
876.265	15720
876.393	15816
876.521	15873
876.65	15861
876.778	15800
876.906	15675
877.034	15694
877.162	15720
877.29	15720
877.418	15781
877.546	15739
877.674	15690
877.802	15690
877.93	15766
878.058	15709
878.185	15599
878.313	15819
878.441	15701
878.568	15610
878.696	15637
878.824	15728
878.951	15789
879.079	15884
879.206	16074
879.333	15861
879.461	15793
879.588	15736
879.715	15880
879.842	16067
879.97	15797
880.097	15599
880.224	15534
880.351	15641
880.478	15542
880.605	15614
880.732	15701
880.859	15717
880.986	15751
881.112	15766
881.239	15523
881.366	15443
881.493	15283
881.619	15097
881.746	15355
881.872	15260
881.999	15233
882.125	15272
882.252	15256
882.378	15222
882.505	15412
882.631	15180
882.757	15097
882.883	15081
883.01	15028
883.136	15047
883.262	14941
883.388	14861
883.514	15051
883.64	15017
883.766	14994
883.892	14823
884.018	14880
884.143	14933
884.269	15138
884.395	14910
884.52	14746
884.646	14735
884.772	14659
884.897	14678
885.023	14773
885.148	14906
885.274	14872
885.399	14849
885.524	14788
885.65	14720
885.775	14883
885.9	14785
886.025	14921
886.15	14765
886.275	14731
886.4	14724
886.525	14830
886.65	14716
886.775	14640
886.9	14887
887.025	14910
887.149	14857
887.274	14552
887.399	14503
887.523	14651
887.648	14621
887.773	14465
887.897	14670
888.021	14594
888.146	14492
888.27	14629
888.395	14705
888.519	14632
888.643	14602
888.767	14644
888.891	14537
889.015	14362
889.139	14404
889.263	14446
889.387	14602
889.511	14583
889.635	14533
889.759	14366
889.883	14457
890.006	14537
890.13	14579
890.254	14389
890.377	14442
890.501	14263
890.624	14263
890.748	14351
890.871	14244
890.995	14123
891.118	14069
891.241	14103
891.364	14164
891.488	14286
891.611	14180
891.734	14130
891.857	14149
891.98	14229
892.103	14301
892.226	14172
892.349	14153
892.471	14020
892.594	14062
892.717	14157
892.839	14130
892.962	14157
893.085	14153
893.207	14142
893.33	14001
893.452	14088
893.575	14183
893.697	14123
893.819	14305
893.941	14275
894.064	14305
894.186	14046
894.308	14126
894.43	14244
894.552	14271
894.674	14400
894.796	14164
894.918	14142
895.04	14183
895.161	14267
895.283	14298
895.405	14126
895.526	14275
895.648	14248
895.769	14237
895.891	14320
896.012	14320
896.134	14404
896.255	14370
896.376	14134
896.498	14351
896.619	14381
896.74	14347
896.861	14434
896.982	14708
897.103	14762
897.224	14602
897.345	14511
897.466	14552
897.587	14670
897.708	14746
897.828	14667
897.949	14473
898.07	14473
898.19	14549
898.311	14693
898.431	14655
898.552	14655
898.672	14762
898.792	14667
898.913	14746
899.033	14655
899.153	14423
899.273	14434
899.393	14469
899.513	14667
899.633	14484
899.753	14659
899.873	14522
899.993	14629
900.113	14526
900.232	14610
900.352	14564
900.472	14507
900.591	14438
900.711	14374
900.83	14267
900.95	14507
901.069	14602
901.189	14301
901.308	14096
901.427	14157
901.546	13970
901.665	14084
901.784	14145
901.904	13982
902.023	13925
902.141	13643
902.26	13616
902.379	13795
902.498	13647
902.617	13609
902.735	13708
902.854	13647
902.973	13518
903.091	13415
903.21	13301
903.328	13331
903.446	13240
903.565	13190
903.683	13232
903.801	13114
903.919	13213
904.038	13202
904.156	13008
904.274	12996
904.392	13099
904.51	13023
904.627	13012
904.745	13103
904.863	13042
904.981	12901
905.098	12741
905.216	12745
905.334	12814
905.451	12791
905.569	12658
905.686	12703
905.803	12764
905.921	12544
906.038	12654
906.155	12589
906.272	12395
906.389	12460
906.506	12338
906.623	12273
906.74	12327
906.857	12171
906.974	12197
907.091	12399
907.208	12433
907.324	12258
907.441	12209
907.557	12057
907.674	12125
907.79	11931
907.907	11988
908.023	11988
908.139	12087
908.256	11988
908.372	11893
908.488	11950
908.604	11874
908.72	11737
908.836	11680
908.952	11726
909.068	11767
909.184	11878
909.3	11786
909.415	11786
909.531	11767
909.647	11642
909.762	11570
909.878	11547
909.993	11592
910.108	11600
910.224	11592
910.339	11642
910.454	11543
910.57	11360
910.685	11364
910.8	11665
910.915	11554
911.03	11421
911.145	11269
911.259	11296
911.374	11315
911.489	11261
911.604	11185
911.718	11003
911.833	11056
911.947	10885
912.062	10809
912.176	10953
912.291	11094
912.405	11056
912.519	11181
912.633	11216
912.748	11033
912.862	10995
912.976	10930
913.09	10862
913.204	10877
913.318	10850
913.431	11067
913.545	11018
913.659	11113
913.772	10854
913.886	10786
914	10717
914.113	10831
914.226	10881
914.34	10839
914.453	10660
914.566	10892
914.68	10736
914.793	10771
914.906	10592
915.019	10500
915.132	10436
915.245	10440
915.358	10500
915.47	10558
915.583	10519
915.696	10504
915.809	10656
915.921	10744
916.034	10523
916.146	10440
916.259	10512
916.371	10577
916.483	10519
916.595	10466
916.708	10504
916.82	10432
916.932	10447
917.044	10436
917.156	10447
917.268	10329
917.38	10344
917.491	10379
917.603	10352
917.715	10474
917.826	10497
917.938	10367
918.049	10272
918.161	10329
918.272	10436
918.384	10523
918.495	10428
918.606	10234
918.717	10181
918.828	10207
918.939	10310
919.05	10162
919.161	10166
919.272	10002
919.383	10101
919.494	10318
919.604	10535
919.715	10188
919.826	10131
919.936	10253
920.047	10352
920.157	10295
920.267	10512
920.378	10265
920.488	10238
920.598	10428
920.708	10512
920.818	10436
920.928	10493
921.038	10565
921.148	10588
921.258	10268
921.368	10177
921.477	10128
921.587	10082
921.697	9968
921.806	10177
921.916	10013
922.025	9797
922.134	9823
922.244	9755
922.353	9911
922.462	9713
922.571	9641
922.68	9496
922.789	9458
922.898	9473
923.007	9500
923.116	9500
923.224	9488
923.333	9530
923.442	9378
923.55	9351
923.659	9466
923.767	9466
923.876	9374
923.984	9458
924.092	9226
924.201	9348
924.309	9397
924.417	9431
924.525	9386
924.633	9386
924.741	10074
924.849	9074
924.956	9283
925.064	9146
925.172	9051
925.279	9123
925.387	9165
925.494	9150
925.602	9233
925.709	9256
925.816	9070
925.924	9116
926.031	9211
926.138	9085
926.245	9249
926.352	9028
926.459	9207
926.566	9279
926.673	9009
926.779	9043
926.886	8994
926.993	8842
927.099	8834
927.206	8724
927.312	8792
927.419	8948
927.525	8944
927.631	8914
927.737	8834
927.843	8811
927.95	8648
928.056	8746
928.162	8727
928.267	8727
928.373	9302
928.479	8864
928.585	8644
928.69	8716
928.796	8853
928.901	8781
929.007	8469
929.112	8731
929.218	8648
929.323	8541
929.428	8564
929.533	8724
929.638	8564
929.743	8587
929.848	8648
929.953	8518
930.058	8530
930.163	8332
930.267	8332
930.372	8492
930.477	8317
930.581	8621
930.685	8427
930.79	8294
930.894	8351
930.998	8347
931.103	8427
931.207	8081
931.311	7989
931.415	7967
931.519	7814
931.623	7811
