Data from test_V78500241_496.txt Node
Date: Fri Mar 25 14:37:10 CST 2022
User: usil
Spectrometer: V785-0024
Trigger mode: 0
Integration Time (sec): 4.000000E-1
Scans to average: 1
Nonlinearity correction enabled: false
Boxcar width: 0
Storing dark spectrum: false
XAxis mode: Wavelengths
Number of Pixels in Spectrum: 1024
>>>>>Begin Spectral Data<<<<<
801.071	26693
801.214	26564
801.356	26332
801.499	26427
801.641	26210
801.783	25993
801.926	26164
802.068	25947
802.211	25966
802.353	25917
802.496	25723
802.638	25677
802.78	25852
802.923	25514
803.065	25495
803.208	25590
803.35	25609
803.492	25643
803.635	25651
803.777	25476
803.919	25639
804.061	25921
804.204	25616
804.346	25715
804.488	25525
804.63	25609
804.773	25487
804.915	25643
805.057	25559
805.199	25495
805.341	25518
805.483	25757
805.626	25616
805.768	25518
805.91	25491
806.052	25556
806.194	25559
806.336	25757
806.478	25525
806.62	25597
806.762	25704
806.904	25921
807.046	26069
807.188	25849
807.33	26073
807.472	26024
807.614	26081
807.756	26069
807.898	26039
808.04	26024
808.182	26039
808.324	26237
808.465	26332
808.607	26522
808.749	26651
808.891	27070
809.033	26982
809.174	26788
809.316	26598
809.458	26583
809.6	26442
809.741	26385
809.883	26221
810.025	26396
810.166	26549
810.308	26366
810.45	26267
810.591	26210
810.733	26073
810.875	25966
811.016	25917
811.158	26020
811.299	26073
811.441	26058
811.582	26084
811.724	25887
811.865	25868
812.007	25871
812.148	25940
812.29	25887
812.431	26046
812.573	26214
812.714	26347
812.855	26324
812.997	26484
813.138	26655
813.279	26606
813.421	26419
813.562	26256
813.703	26119
813.845	25944
813.986	25746
814.127	25559
814.268	25544
814.41	25620
814.551	25426
814.692	25506
814.833	25411
814.974	25381
815.115	25392
815.256	25331
815.397	25373
815.539	25400
815.68	25255
815.821	25084
815.962	25103
816.103	25152
816.244	24954
816.385	24863
816.526	24821
816.666	24612
816.807	24490
816.948	24528
817.089	24669
817.23	24642
817.371	24517
817.512	24650
817.653	24544
817.793	24494
817.934	24452
818.075	24604
818.216	24616
818.356	24418
818.497	24544
818.638	24289
818.778	24311
818.919	24155
819.06	24216
819.2	24433
819.341	24467
819.481	24365
819.622	24467
819.762	24677
819.903	24673
820.043	24700
820.184	24646
820.324	24483
820.465	24627
820.605	24441
820.746	24608
820.886	24365
821.026	24460
821.167	24426
821.307	24521
821.447	24486
821.588	24346
821.728	24159
821.868	24121
822.008	23878
822.149	23889
822.289	23992
822.429	23646
822.569	23505
822.709	23539
822.849	23322
822.99	23383
823.13	23200
823.27	23261
823.41	23273
823.55	23006
823.69	23086
823.83	23044
823.97	23166
824.11	22900
824.25	22828
824.389	22923
824.529	23014
824.669	22793
824.809	22991
824.949	23029
825.089	22915
825.228	22847
825.368	22622
825.508	22698
825.648	22778
825.787	22710
825.927	22653
826.067	22622
826.206	22584
826.346	22675
826.485	22752
826.625	22516
826.765	22812
826.904	22820
827.044	22436
827.183	22379
827.323	22333
827.462	22329
827.601	22314
827.741	22348
827.88	22382
828.02	22257
828.159	22230
828.298	22421
828.437	22432
828.577	22329
828.716	22500
828.855	22261
828.994	22074
829.134	22185
829.273	22105
829.412	22101
829.551	21876
829.69	22059
829.829	21968
829.968	22040
830.107	22147
830.246	22070
830.385	21918
830.524	21926
830.663	21812
830.802	21686
830.941	21633
831.08	21485
831.219	21545
831.357	21690
831.496	21835
831.635	21545
831.774	21583
831.913	21420
832.051	21416
832.19	21412
832.329	21416
832.467	21256
832.606	21249
832.744	21184
832.883	21291
833.022	21176
833.16	21230
833.299	21435
833.437	21287
833.576	21317
833.714	21332
833.852	21405
833.991	21355
834.129	21431
834.267	21408
834.406	21340
834.544	21370
834.682	21393
834.821	21222
834.959	21298
835.097	21245
835.235	21291
835.373	21272
835.511	21222
835.65	21214
835.788	21195
835.926	20921
836.064	20853
836.202	21005
836.34	21104
836.478	21093
836.615	21020
836.753	21180
836.891	21169
837.029	21230
837.167	21077
837.305	21017
837.443	21043
837.58	21020
837.718	21066
837.856	20899
837.993	20948
838.131	20990
838.269	20804
838.406	20982
838.544	20758
838.681	20583
838.819	20583
838.956	20511
839.094	20423
839.231	20446
839.369	20606
839.506	20754
839.643	20674
839.781	20332
839.918	20332
840.055	20332
840.193	20336
840.33	20366
840.467	20328
840.604	20374
840.742	20556
840.879	20263
841.016	20244
841.153	20187
841.29	20309
841.427	20324
841.564	20278
841.701	20244
841.838	20164
841.975	20225
842.112	20088
842.249	20046
842.385	20008
842.522	20229
842.659	20073
842.796	19982
842.933	20008
843.069	19982
843.206	19963
843.343	20096
843.479	20008
843.616	20107
843.752	19788
843.889	19833
844.025	19982
844.162	19750
844.298	19887
844.435	19776
844.571	19696
844.708	19799
844.844	19967
844.98	19932
845.117	19951
845.253	19849
845.389	19772
845.525	19997
845.661	20149
845.798	20267
845.934	20412
846.07	20575
846.206	20587
846.342	20377
846.478	20206
846.614	19746
846.75	19483
846.886	19331
847.022	19510
847.158	19400
847.294	19301
847.429	19274
847.565	19133
847.701	19407
847.837	18958
847.972	19012
848.108	19126
848.244	18943
848.379	18890
848.515	18848
848.65	18783
848.786	18741
848.921	18772
849.057	18795
849.192	18863
849.328	18772
849.463	18886
849.598	18757
849.734	18642
849.869	18684
850.004	18570
850.14	18620
850.275	18627
850.41	18467
850.545	18593
850.68	18418
850.815	18612
850.95	18525
851.085	18760
851.22	18650
851.355	18585
851.49	18460
851.625	18547
851.76	18509
851.895	18467
852.03	18475
852.165	18509
852.299	18570
852.434	18585
852.569	18601
852.703	18532
852.838	18528
852.973	18597
853.107	18623
853.242	18509
853.376	18346
853.511	18296
853.645	18338
853.78	18460
853.914	18403
854.048	18346
854.183	18353
854.317	18391
854.451	18563
854.585	18334
854.72	18422
854.854	18365
854.988	18292
855.122	18376
855.256	18228
855.39	18273
855.524	18471
855.658	18407
855.792	18395
855.926	18346
856.06	18365
856.194	18502
856.327	18311
856.461	18251
856.595	18220
856.729	18357
856.862	18357
856.996	18308
857.13	18361
857.263	18410
857.397	18448
857.53	18266
857.664	18380
857.797	18388
857.931	18544
858.064	18376
858.197	18410
858.331	18311
858.464	18224
858.597	18129
858.731	18330
858.864	18330
858.997	18243
859.13	18319
859.263	18251
859.396	18494
859.529	18403
859.662	18292
859.795	18174
859.928	18228
860.061	18460
860.194	18426
860.327	18353
860.46	18140
860.592	18418
860.725	18448
860.858	18388
860.99	18304
861.123	18228
861.256	18167
861.388	18315
861.521	18985
861.653	18129
861.786	18030
861.918	18117
862.05	18174
862.183	18262
862.315	18254
862.447	18323
862.58	18209
862.712	18163
862.844	18038
862.976	18079
863.108	18045
863.24	18490
863.372	17939
863.504	17973
863.636	18083
863.768	17999
863.9	18019
864.032	17904
864.164	17954
864.296	17954
864.428	18106
864.559	18114
864.691	18106
864.823	18102
864.954	17954
865.086	17969
865.217	17965
865.349	17817
865.48	17916
865.612	17882
865.743	18045
865.875	17863
866.006	17893
866.137	17916
866.269	17920
866.4	17961
866.531	17874
866.662	17843
866.793	17859
866.924	17908
867.055	17843
867.186	17859
867.317	17840
867.448	17790
867.579	17798
867.71	17703
867.841	17821
867.972	17912
868.103	17939
868.233	17874
868.364	17882
868.495	18034
868.625	18106
868.756	18254
868.886	18057
869.017	18129
869.147	18186
869.278	18292
869.408	18117
869.539	18144
869.669	18167
869.799	18125
869.929	18194
870.06	18235
870.19	18346
870.32	18361
870.45	18456
870.58	18460
870.71	18757
870.84	18585
870.97	18513
871.1	18506
871.23	18544
871.36	18730
871.489	18608
871.619	18688
871.749	18665
871.879	18730
872.008	18848
872.138	18711
872.267	18684
872.397	18547
872.526	18467
872.656	18604
872.785	18616
872.915	18757
873.044	18681
873.173	18639
873.303	18734
873.432	18783
873.561	18817
873.69	18787
873.819	18593
873.948	18867
874.077	18654
874.206	18623
874.335	18783
874.464	18943
874.593	18977
874.722	18829
874.851	19034
874.979	19046
875.108	19145
875.237	19050
875.365	19023
875.494	19099
875.623	19076
875.751	19088
875.88	19133
876.008	19217
876.136	19278
876.265	19487
876.393	19578
876.521	19624
876.65	19571
876.778	19495
876.906	19419
877.034	19403
877.162	19419
877.29	19331
877.418	19415
877.546	19403
877.674	19460
877.802	19487
877.93	19521
878.058	19499
878.185	19396
878.313	19472
878.441	19464
878.568	19331
878.696	19533
878.824	19510
878.951	19750
879.079	19784
879.206	19970
879.333	20016
879.461	19932
879.588	20024
879.715	20111
879.842	20176
879.97	19898
880.097	19594
880.224	19647
880.351	19609
880.478	19487
880.605	19411
880.732	19373
880.859	19647
880.986	19499
881.112	19407
881.239	19304
881.366	19114
881.493	19050
881.619	19046
881.746	19050
881.872	18954
881.999	18913
882.125	19027
882.252	19114
882.378	19004
882.505	19080
882.631	18935
882.757	18684
882.883	18863
883.01	18821
883.136	18791
883.262	18741
883.388	18696
883.514	18852
883.64	18814
883.766	18669
883.892	18589
884.018	18635
884.143	18707
884.269	18768
884.395	18585
884.52	18433
884.646	18471
884.772	18346
884.897	18410
885.023	18494
885.148	18441
885.274	18525
885.399	18528
885.524	18471
885.65	18361
885.775	18426
885.9	18353
886.025	18517
886.15	18475
886.275	18308
886.4	18254
886.525	18395
886.65	18216
886.775	18197
886.9	18464
887.025	18483
887.149	18338
887.274	18224
887.399	18095
887.523	18209
887.648	18019
887.773	18079
887.897	18235
888.021	18254
888.146	18125
888.27	18095
888.395	18266
888.519	18117
888.643	18197
888.767	18182
888.891	18125
889.015	17824
889.139	18030
889.263	17843
889.387	17969
889.511	18209
889.635	18079
889.759	17828
889.883	17882
890.006	17965
890.13	18083
890.254	17897
890.377	17832
890.501	17703
890.624	17699
890.748	17695
890.871	17634
890.995	17516
891.118	17459
891.241	17490
891.364	17558
891.488	17687
891.611	17501
891.734	17566
891.857	17604
891.98	17581
892.103	17520
892.226	17596
892.349	17532
892.471	17326
892.594	17455
892.717	17478
892.839	17501
892.962	17516
893.085	17509
893.207	17543
893.33	17360
893.452	17341
893.575	17543
893.697	17429
893.819	17649
893.941	17752
894.064	17737
894.186	17402
894.308	17398
894.43	17577
894.552	17680
894.674	17581
894.796	17459
894.918	17493
895.04	17425
895.161	17687
895.283	17543
895.405	17436
895.526	17532
895.648	17467
895.769	17497
895.891	17501
896.012	17539
896.134	17524
896.255	17585
896.376	17558
896.498	17649
896.619	17729
896.74	17619
896.861	17642
896.982	17996
897.103	18045
897.224	17893
897.345	17764
897.466	17767
897.587	17775
897.708	17965
897.828	17809
897.949	17809
898.07	17767
898.19	17668
898.311	17866
898.431	17707
898.552	17836
898.672	17889
898.792	17859
898.913	17802
899.033	17779
899.153	17558
899.273	17459
899.393	17570
899.513	17687
899.633	17562
899.753	17608
899.873	17672
899.993	17707
900.113	17467
900.232	17551
900.352	17478
900.472	17444
900.591	17353
900.711	17459
900.83	17425
900.95	17547
901.069	17661
901.189	17341
901.308	17197
901.427	17037
901.546	16995
901.665	17121
901.784	17113
901.904	16968
902.023	16668
902.141	16603
902.26	16626
902.379	16641
902.498	16546
902.617	16516
902.735	16577
902.854	16561
902.973	16447
903.091	16299
903.21	16280
903.328	16238
903.446	16207
903.565	16158
903.683	16093
903.801	15968
903.919	16013
904.038	16135
904.156	15819
904.274	15953
904.392	15819
904.51	15816
904.627	15789
904.745	15892
904.863	15865
904.981	15595
905.098	15523
905.216	15568
905.334	15625
905.451	15584
905.569	15492
905.686	15530
905.803	15549
905.921	15378
906.038	15294
906.155	15332
906.272	15291
906.389	15256
906.506	15089
906.623	15150
906.74	14971
906.857	14944
906.974	15009
907.091	15207
907.208	15093
907.324	15066
907.441	14986
907.557	14769
907.674	14724
907.79	14682
907.907	14731
908.023	14781
908.139	14762
908.256	14651
908.372	14659
908.488	14621
908.604	14503
908.72	14514
908.836	14514
908.952	14415
909.068	14473
909.184	14473
909.3	14396
909.415	14571
909.531	14431
909.647	14256
909.762	14161
909.878	14100
909.993	14248
910.108	14107
910.224	14130
910.339	14119
910.454	14058
910.57	14027
910.685	14016
910.8	14183
910.915	14180
911.03	14027
911.145	13982
911.259	13712
911.374	13849
911.489	13772
911.604	13677
911.718	13537
911.833	13616
911.947	13582
912.062	13495
912.176	13483
912.291	13510
912.405	13571
912.519	13647
912.633	13757
912.748	13578
912.862	13552
912.976	13453
913.09	13324
913.204	13308
913.318	13346
913.431	13407
913.545	13438
913.659	13453
913.772	13392
913.886	13270
914	13198
914.113	13270
914.226	13430
914.34	13350
914.453	13194
914.566	13301
914.68	13122
914.793	13133
914.906	12966
915.019	12981
915.132	12817
915.245	12909
915.358	12913
915.47	12916
915.583	12958
915.696	12935
915.809	13091
915.921	13107
916.034	12817
916.146	12829
916.259	12905
916.371	12867
916.483	12962
916.595	12783
916.708	12741
916.82	12795
916.932	12700
917.044	12730
917.156	12719
917.268	12688
917.38	12574
917.491	12555
917.603	12604
917.715	12722
917.826	12776
917.938	12574
918.049	12513
918.161	12669
918.272	12722
918.384	12711
918.495	12585
918.606	12551
918.717	12426
918.828	12528
918.939	12483
919.05	12338
919.161	12441
919.272	12266
919.383	12228
919.494	12521
919.604	12677
919.715	12426
919.826	12323
919.936	12365
920.047	12544
920.157	12471
920.267	12650
920.378	12429
920.488	12399
920.598	12597
920.708	12764
920.818	12612
920.928	12521
921.038	12684
921.148	12700
921.258	12433
921.368	12304
921.477	12213
921.587	12239
921.697	12034
921.806	12209
921.916	12030
922.025	11954
922.134	11920
922.244	11767
922.353	11958
922.462	11745
922.571	11680
922.68	11509
922.789	11535
922.898	11478
923.007	11493
923.116	11577
923.224	11547
923.333	11490
923.442	11391
923.55	11353
923.659	11387
923.767	11440
923.876	11277
923.984	11360
924.092	11326
924.201	11318
924.309	11364
924.417	11337
924.525	11201
924.633	11265
924.741	12247
924.849	11128
924.956	11174
925.064	11067
925.172	10953
925.279	11033
925.387	11090
925.494	11056
925.602	11239
925.709	11124
925.816	11018
925.924	10987
926.031	11147
926.138	11098
926.245	11162
926.352	10885
926.459	11113
926.566	11056
926.673	10896
926.779	10915
926.886	10786
926.993	10729
927.099	10641
927.206	10675
927.312	10675
927.419	10714
927.525	10752
927.631	10793
927.737	10565
927.843	10592
927.95	10398
928.056	10516
928.162	10561
928.267	10611
928.373	10995
928.479	10580
928.585	10382
928.69	10451
928.796	10577
928.901	10348
929.007	10242
929.112	10459
929.218	10421
929.323	10363
929.428	10287
929.533	10409
929.638	10265
929.743	10188
929.848	10356
929.953	10261
930.058	10177
930.163	10006
930.267	9972
930.372	10192
930.477	10055
930.581	10227
930.685	10131
930.79	9968
930.894	9945
930.998	9949
931.103	9949
931.207	9732
931.311	9660
931.415	9557
931.519	9424
931.623	9363
