Data from test_V78500241_2611.txt Node
Date: Fri Mar 25 14:51:53 CST 2022
User: usil
Spectrometer: V785-0024
Trigger mode: 0
Integration Time (sec): 4.000000E-1
Scans to average: 1
Nonlinearity correction enabled: false
Boxcar width: 0
Storing dark spectrum: false
XAxis mode: Wavelengths
Number of Pixels in Spectrum: 1024
>>>>>Begin Spectral Data<<<<<
801.071	22074
801.214	21975
801.356	21576
801.499	21515
801.641	21393
801.783	21329
801.926	21389
802.068	21370
802.211	21245
802.353	21165
802.496	20872
802.638	20823
802.78	20773
802.923	20735
803.065	20750
803.208	20587
803.35	20640
803.492	20777
803.635	20925
803.777	20648
803.919	20765
804.061	21112
804.204	20693
804.346	20629
804.488	20499
804.63	20571
804.773	20552
804.915	20541
805.057	20533
805.199	20492
805.341	20625
805.483	20739
805.626	20697
805.768	20488
805.91	20514
806.052	20564
806.194	20499
806.336	20792
806.478	20556
806.62	20530
806.762	20724
806.904	20762
807.046	20921
807.188	20876
807.33	20842
807.472	21032
807.614	20781
807.756	20773
807.898	20701
808.04	20530
808.182	20594
808.324	20556
808.465	20682
808.607	20872
808.749	21005
808.891	21093
809.033	21154
809.174	21020
809.316	20933
809.458	20948
809.6	20811
809.741	20967
809.883	21028
810.025	21062
810.166	21131
810.308	21089
810.45	21142
810.591	20960
810.733	20883
810.875	20746
811.016	20583
811.158	20511
811.299	20788
811.441	20872
811.582	20849
811.724	20629
811.865	20777
812.007	20606
812.148	20697
812.29	20758
812.431	20849
812.573	21024
812.714	21180
812.855	21203
812.997	21374
813.138	21382
813.279	21389
813.421	21138
813.562	21287
813.703	20952
813.845	20842
813.986	20674
814.127	20446
814.268	20294
814.41	20366
814.551	20267
814.692	20370
814.833	20126
814.974	20176
815.115	20233
815.256	20149
815.397	20096
815.539	20195
815.68	20012
815.821	19978
815.962	20058
816.103	19951
816.244	19879
816.385	19674
816.526	19727
816.666	19624
816.807	19403
816.948	19609
817.089	19586
817.23	19438
817.371	19400
817.512	19346
817.653	19373
817.793	19362
817.934	19411
818.075	19468
818.216	19449
818.356	19304
818.497	19209
818.638	19080
818.778	19099
818.919	19057
819.06	19190
819.2	19247
819.341	19346
819.481	19202
819.622	19422
819.762	19548
819.903	19480
820.043	19476
820.184	19327
820.324	19331
820.465	19464
820.605	19441
820.746	19369
820.886	19251
821.026	19434
821.167	19354
821.307	19388
821.447	19236
821.588	19148
821.728	19168
821.868	18894
822.008	18810
822.149	18878
822.289	18856
822.429	18601
822.569	18506
822.709	18555
822.849	18410
822.99	18308
823.13	18186
823.27	18209
823.41	18121
823.55	17942
823.69	18129
823.83	18159
823.97	17870
824.11	17817
824.25	17870
824.389	17878
824.529	17969
824.669	17999
824.809	17973
824.949	17996
825.089	17904
825.228	17950
825.368	17699
825.508	17764
825.648	17745
825.787	17703
825.927	17741
826.067	17642
826.206	17554
826.346	17653
826.485	17680
826.625	17642
826.765	17779
826.904	17623
827.044	17417
827.183	17471
827.323	17353
827.462	17334
827.601	17273
827.741	17376
827.88	17307
828.02	17181
828.159	17326
828.298	17315
828.437	17341
828.577	17250
828.716	17436
828.855	17299
828.994	17189
829.134	17102
829.273	17159
829.412	17105
829.551	17048
829.69	17052
829.829	17155
829.968	17227
830.107	17132
830.246	17200
830.385	17105
830.524	17090
830.663	16858
830.802	16843
830.941	16790
831.08	16713
831.219	16892
831.357	16759
831.496	16965
831.635	16687
831.774	16702
831.913	16603
832.051	16569
832.19	16466
832.329	16432
832.467	16413
832.606	16413
832.744	16341
832.883	16394
833.022	16413
833.16	16428
833.299	16451
833.437	16436
833.576	16436
833.714	16485
833.852	16596
833.991	16527
834.129	16527
834.267	16558
834.406	16470
834.544	16360
834.682	16398
834.821	16428
834.959	16637
835.097	16398
835.235	16580
835.373	16443
835.511	16478
835.65	16413
835.788	16394
835.926	16287
836.064	16196
836.202	16200
836.34	16421
836.478	16500
836.615	16306
836.753	16306
836.891	16447
837.029	16329
837.167	16424
837.305	16417
837.443	16333
837.58	16249
837.718	16333
837.856	16333
837.993	16128
838.131	16238
838.269	16188
838.406	16223
838.544	16200
838.681	15812
838.819	15975
838.956	15823
839.094	15774
839.231	15869
839.369	15937
839.506	16291
839.643	16078
839.781	15842
839.918	15846
840.055	15888
840.193	15785
840.33	15755
840.467	15934
840.604	15785
840.742	16025
840.879	15686
841.016	15705
841.153	15698
841.29	15934
841.427	15857
841.564	15778
841.701	15755
841.838	15808
841.975	15778
842.112	15766
842.249	15587
842.385	15644
842.522	15759
842.659	15580
842.796	15534
842.933	15515
843.069	15603
843.206	15485
843.343	15724
843.479	15561
843.616	15618
843.752	15370
843.889	15401
844.025	15637
844.162	15424
844.298	15523
844.435	15447
844.571	15283
844.708	15477
844.844	15568
844.98	15526
845.117	15538
845.253	15256
845.389	15249
845.525	15302
845.661	15256
845.798	15176
845.934	15161
846.07	15161
846.206	15188
846.342	15272
846.478	15036
846.614	15070
846.75	15005
846.886	14975
847.022	14979
847.158	15017
847.294	15077
847.429	15051
847.565	15005
847.701	15294
847.837	14769
847.972	14632
848.108	14804
848.244	14781
848.379	14598
848.515	14518
848.65	14560
848.786	14655
848.921	14632
849.057	14648
849.192	14693
849.328	14621
849.463	14682
849.598	14469
849.734	14533
849.869	14594
850.004	14294
850.14	14415
850.275	14355
850.41	14301
850.545	14412
850.68	14309
850.815	14317
850.95	14248
851.085	14579
851.22	14545
851.355	14282
851.49	14290
851.625	14385
851.76	14320
851.895	14317
852.03	14244
852.165	14290
852.299	14385
852.434	14438
852.569	14427
852.703	14263
852.838	14313
852.973	14446
853.107	14518
853.242	14267
853.376	14313
853.511	14092
853.645	14199
853.78	14385
853.914	14343
854.048	14259
854.183	14142
854.317	14263
854.451	14438
854.585	14237
854.72	14221
854.854	14450
854.988	14233
855.122	14248
855.256	14084
855.39	14210
855.524	14362
855.658	14320
855.792	14244
855.926	14347
856.06	14339
856.194	14328
856.327	14233
856.461	14221
856.595	14142
856.729	14180
856.862	14343
856.996	14366
857.13	14267
857.263	14351
857.397	14419
857.53	14252
857.664	14336
857.797	14381
857.931	14377
858.064	14339
858.197	14324
858.331	14229
858.464	14180
858.597	14103
858.731	14263
858.864	14263
858.997	14240
859.13	14324
859.263	14278
859.396	14358
859.529	14164
859.662	14240
859.795	14210
859.928	14309
860.061	14434
860.194	14495
860.327	14218
860.46	14286
860.592	14309
860.725	14396
860.858	14343
860.99	14206
861.123	14180
861.256	14176
861.388	14221
861.521	14910
861.653	14123
861.786	14111
861.918	14069
862.05	14176
862.183	14275
862.315	14237
862.447	14305
862.58	14286
862.712	14062
862.844	13970
862.976	14020
863.108	13997
863.24	14507
863.372	13970
863.504	14046
863.636	14005
863.768	14107
863.9	14081
864.032	13955
864.164	14001
864.296	14123
864.428	14161
864.559	14115
864.691	14187
864.823	14020
864.954	14107
865.086	14107
865.217	13978
865.349	14031
865.48	14065
865.612	14008
865.743	14119
865.875	14020
866.006	14035
866.137	14020
866.269	14058
866.4	13967
866.531	14005
866.662	13925
866.793	13879
866.924	13906
867.055	14035
867.186	13967
867.317	13963
867.448	13951
867.579	13917
867.71	14027
867.841	13986
867.972	13982
868.103	13970
868.233	13997
868.364	13959
868.495	14073
868.625	14244
868.756	14233
868.886	14172
869.017	14191
869.147	14336
869.278	14393
869.408	14355
869.539	14202
869.669	14305
869.799	14336
869.929	14328
870.06	14423
870.19	14613
870.32	14545
870.45	14575
870.58	14667
870.71	14636
870.84	14769
870.97	14663
871.1	14693
871.23	14811
871.36	14838
871.489	14750
871.619	14746
871.749	14876
871.879	14807
872.008	14971
872.138	14777
872.267	14788
872.397	14773
872.526	14655
872.656	14632
872.785	14712
872.915	14899
873.044	14990
873.173	14933
873.303	14891
873.432	14952
873.561	14960
873.69	14921
873.819	14895
873.948	14979
874.077	15001
874.206	14925
874.335	14925
874.464	15051
874.593	15146
874.722	15142
874.851	15306
874.979	15325
875.108	15241
875.237	15173
875.365	15070
875.494	15173
875.623	15313
875.751	15275
875.88	15344
876.008	15374
876.136	15515
876.265	15622
876.393	15732
876.521	15762
876.65	15675
876.778	15625
876.906	15629
877.034	15553
877.162	15671
877.29	15591
877.418	15698
877.546	15679
877.674	15595
877.802	15633
877.93	15652
878.058	15542
878.185	15538
878.313	15603
878.441	15595
878.568	15492
878.696	15572
878.824	15572
878.951	15717
879.079	15827
879.206	15865
879.333	15739
879.461	15652
879.588	15797
879.715	15755
879.842	15907
879.97	15751
880.097	15625
880.224	15469
880.351	15591
880.478	15523
880.605	15523
880.732	15538
880.859	15743
880.986	15519
881.112	15534
881.239	15325
881.366	15226
881.493	15192
881.619	15214
881.746	15146
881.872	15135
881.999	15051
882.125	15146
882.252	15165
882.378	15173
882.505	15237
882.631	15024
882.757	15017
882.883	14948
883.01	14921
883.136	14948
883.262	14765
883.388	14842
883.514	14967
883.64	15093
883.766	14929
883.892	14796
884.018	14727
884.143	14845
884.269	15032
884.395	14731
884.52	14644
884.646	14746
884.772	14644
884.897	14602
885.023	14701
885.148	14853
885.274	14868
885.399	14701
885.524	14693
885.65	14720
885.775	14678
885.9	14712
886.025	14807
886.15	14739
886.275	14663
886.4	14587
886.525	14625
886.65	14579
886.775	14632
886.9	14895
887.025	14861
887.149	14781
887.274	14530
887.399	14461
887.523	14499
887.648	14530
887.773	14495
887.897	14503
888.021	14499
888.146	14465
888.27	14575
888.395	14613
888.519	14446
888.643	14556
888.767	14503
888.891	14507
889.015	14328
889.139	14480
889.263	14309
889.387	14457
889.511	14606
889.635	14522
889.759	14294
889.883	14393
890.006	14427
890.13	14427
890.254	14263
890.377	14282
890.501	14206
890.624	14164
890.748	14320
890.871	14077
890.995	14027
891.118	14012
891.241	14001
891.364	14046
891.488	14237
891.611	14024
891.734	14142
891.857	14168
891.98	14069
892.103	14199
892.226	14062
892.349	14031
892.471	13906
892.594	14027
892.717	14050
892.839	14027
892.962	14081
893.085	14206
893.207	14069
893.33	13890
893.452	13978
893.575	14164
893.697	14050
893.819	14229
893.941	14225
894.064	14214
894.186	14043
894.308	14100
894.43	14229
894.552	14233
894.674	14145
894.796	14088
894.918	14119
895.04	14126
895.161	14263
895.283	14142
895.405	14138
895.526	14180
895.648	14267
895.769	14187
895.891	14256
896.012	14286
896.134	14259
896.255	14172
896.376	14180
896.498	14202
896.619	14263
896.74	14370
896.861	14271
896.982	14583
897.103	14731
897.224	14583
897.345	14469
897.466	14484
897.587	14518
897.708	14594
897.828	14533
897.949	14427
898.07	14393
898.19	14431
898.311	14632
898.431	14450
898.552	14587
898.672	14629
898.792	14651
898.913	14678
899.033	14545
899.153	14434
899.273	14385
899.393	14415
899.513	14450
899.633	14404
899.753	14431
899.873	14450
899.993	14537
900.113	14446
900.232	14434
900.352	14469
900.472	14267
900.591	14305
900.711	14358
900.83	14271
900.95	14396
901.069	14476
901.189	14214
901.308	13974
901.427	13967
901.546	14020
901.665	13967
901.784	13989
901.904	13826
902.023	13776
902.141	13715
902.26	13506
902.379	13586
902.498	13540
902.617	13441
902.735	13533
902.854	13613
902.973	13415
903.091	13194
903.21	13270
903.328	13221
903.446	13206
903.565	13190
903.683	13263
903.801	13019
903.919	13095
904.038	13023
904.156	13004
904.274	13023
904.392	12989
904.51	12989
904.627	12924
904.745	13034
904.863	12947
904.981	12734
905.098	12627
905.216	12646
905.334	12616
905.451	12620
905.569	12566
905.686	12776
905.803	12684
905.921	12403
906.038	12521
906.155	12456
906.272	12372
906.389	12350
906.506	12247
906.623	12247
906.74	12209
906.857	12034
906.974	12140
907.091	12300
907.208	12365
907.324	12216
907.441	12117
907.557	12083
907.674	12022
907.79	11996
907.907	11950
908.023	11996
908.139	11927
908.256	11920
908.372	11946
908.488	11954
908.604	11718
908.72	11646
908.836	11726
908.952	11672
909.068	11828
909.184	11821
909.3	11680
909.415	11813
909.531	11710
909.647	11501
909.762	11448
909.878	11497
909.993	11566
910.108	11509
910.224	11528
910.339	11455
910.454	11395
910.57	11341
910.685	11277
910.8	11554
910.915	11482
911.03	11387
911.145	11174
911.259	11162
911.374	11147
911.489	11052
911.604	11102
911.718	11014
911.833	10961
911.947	10805
912.062	10820
912.176	10896
912.291	10953
912.405	10915
912.519	11162
912.633	11204
912.748	11102
912.862	11006
912.976	10809
913.09	10694
913.204	10774
913.318	10809
913.431	10961
913.545	10942
913.659	10953
913.772	10896
913.886	10721
914	10611
914.113	10862
914.226	10831
914.34	10774
914.453	10596
914.566	10824
914.68	10698
914.793	10641
914.906	10459
915.019	10413
915.132	10367
915.245	10470
915.358	10500
915.47	10466
915.583	10485
915.696	10531
915.809	10645
915.921	10641
916.034	10421
916.146	10394
916.259	10382
916.371	10474
916.483	10500
916.595	10382
916.708	10451
916.82	10424
916.932	10356
917.044	10424
917.156	10424
917.268	10238
917.38	10333
917.491	10386
917.603	10379
917.715	10390
917.826	10497
917.938	10341
918.049	10177
918.161	10310
918.272	10462
918.384	10440
918.495	10310
918.606	10200
918.717	10166
918.828	10299
918.939	10219
919.05	10211
919.161	10116
919.272	10010
919.383	10067
919.494	10356
919.604	10527
919.715	10215
919.826	10139
919.936	10207
920.047	10303
920.157	10272
920.267	10436
920.378	10299
920.488	10196
920.598	10451
920.708	10618
920.818	10367
920.928	10386
921.038	10580
921.148	10565
921.258	10360
921.368	10238
921.477	10128
921.587	10067
921.697	9987
921.806	10055
921.916	9960
922.025	9876
922.134	9724
922.244	9762
922.353	9842
922.462	9671
922.571	9625
922.68	9572
922.789	9447
922.898	9557
923.007	9469
923.116	9549
923.224	9439
923.333	9389
923.442	9386
923.55	9355
923.659	9481
923.767	9447
923.876	9355
923.984	9374
924.092	9313
924.201	9302
924.309	9325
924.417	9397
924.525	9294
924.633	9321
924.741	10044
924.849	9146
924.956	9336
925.064	9135
925.172	9051
925.279	9089
925.387	9138
925.494	9070
925.602	9287
925.709	9199
925.816	9123
925.924	9188
926.031	9214
926.138	9195
926.245	9093
926.352	9108
926.459	9218
926.566	9207
926.673	9051
926.779	8921
926.886	9005
926.993	8883
927.099	8849
927.206	8758
927.312	8766
927.419	8895
927.525	8826
927.631	8944
927.737	8785
927.843	8746
927.95	8629
928.056	8689
928.162	8746
928.267	8807
928.373	9450
928.479	8937
928.585	8583
928.69	8720
928.796	8766
928.901	8667
929.007	8556
929.112	8670
929.218	8667
929.323	8556
929.428	8514
929.533	8705
929.638	8476
929.743	8533
929.848	8545
929.953	8507
930.058	8427
930.163	8282
930.267	8313
930.372	8450
930.477	8393
930.581	8575
930.685	8370
930.79	8225
930.894	8309
930.998	8290
931.103	8503
931.207	8027
931.311	8050
931.415	7947
931.519	7792
931.623	7727
