Data from test_V78500241_1153.txt Node
Date: Fri Mar 25 14:41:44 CST 2022
User: usil
Spectrometer: V785-0024
Trigger mode: 0
Integration Time (sec): 4.000000E-1
Scans to average: 1
Nonlinearity correction enabled: false
Boxcar width: 0
Storing dark spectrum: false
XAxis mode: Wavelengths
Number of Pixels in Spectrum: 1024
>>>>>Begin Spectral Data<<<<<
801.071	22599
801.214	22443
801.356	22230
801.499	22070
801.641	21838
801.783	21964
801.926	21953
802.068	21846
802.211	21739
802.353	21663
802.496	21485
802.638	21321
802.78	21237
802.923	21272
803.065	21214
803.208	21283
803.35	21241
803.492	21405
803.635	21336
803.777	21230
803.919	21355
804.061	21599
804.204	21374
804.346	21336
804.488	21108
804.63	21150
804.773	21150
804.915	21233
805.057	21211
805.199	21131
805.341	21169
805.483	21260
805.626	21317
805.768	21135
805.91	21074
806.052	21252
806.194	21093
806.336	21477
806.478	21165
806.62	21142
806.762	21275
806.904	21393
807.046	21523
807.188	21637
807.33	21526
807.472	21492
807.614	21595
807.756	21492
807.898	21351
808.04	21199
808.182	21325
808.324	21298
808.465	21466
808.607	21644
808.749	21755
808.891	21941
809.033	21953
809.174	21895
809.316	21804
809.458	21698
809.6	21549
809.741	21701
809.883	21759
810.025	21838
810.166	21819
810.308	21842
810.45	21747
810.591	21720
810.733	21557
810.875	21340
811.016	21340
811.158	21313
811.299	21386
811.441	21553
811.582	21545
811.724	21355
811.865	21389
812.007	21386
812.148	21370
812.29	21370
812.431	21553
812.573	21736
812.714	21899
812.855	21842
812.997	21911
813.138	22044
813.279	22067
813.421	21956
813.562	21854
813.703	21652
813.845	21450
813.986	21192
814.127	21154
814.268	21081
814.41	20906
814.551	20948
814.692	20963
814.833	20834
814.974	20902
815.115	20845
815.256	20769
815.397	20758
815.539	20705
815.68	20686
815.821	20556
815.962	20686
816.103	20727
816.244	20415
816.385	20404
816.526	20374
816.666	20252
816.807	20062
816.948	20157
817.089	20161
817.23	20176
817.371	20043
817.512	20050
817.653	19955
817.793	19989
817.934	20084
818.075	20062
818.216	20130
818.356	20073
818.497	19826
818.638	19719
818.778	19761
818.919	19731
819.06	19826
819.2	19841
819.341	20001
819.481	19875
819.622	20100
819.762	20233
819.903	20050
820.043	20145
820.184	20024
820.324	20153
820.465	20103
820.605	20111
820.746	19936
820.886	19925
821.026	20027
821.167	19928
821.307	20050
821.447	19997
821.588	19913
821.728	19742
821.868	19696
822.008	19483
822.149	19392
822.289	19453
822.429	19156
822.569	19232
822.709	19019
822.849	18913
822.99	18928
823.13	18905
823.27	18859
823.41	18776
823.55	18814
823.69	18844
823.83	18764
823.97	18631
824.11	18540
824.25	18464
824.389	18464
824.529	18601
824.669	18566
824.809	18623
824.949	18650
825.089	18707
825.228	18509
825.368	18437
825.508	18319
825.648	18365
825.787	18338
825.927	18330
826.067	18388
826.206	18190
826.346	18330
826.485	18399
826.625	18334
826.765	18422
826.904	18350
827.044	18155
827.183	18159
827.323	17984
827.462	18064
827.601	18015
827.741	17904
827.88	18030
828.02	17813
828.159	18015
828.298	18034
828.437	18038
828.577	17958
828.716	18079
828.855	17969
828.994	17798
829.134	17809
829.273	17809
829.412	17707
829.551	17783
829.69	17707
829.829	17813
829.968	17824
830.107	17859
830.246	17783
830.385	17714
830.524	17680
830.663	17547
830.802	17486
830.941	17326
831.08	17337
831.219	17455
831.357	17493
831.496	17619
831.635	17277
831.774	17315
831.913	17235
832.051	17204
832.19	17235
832.329	17246
832.467	17071
832.606	17170
832.744	17086
832.883	17079
833.022	17003
833.16	17098
833.299	17159
833.437	17155
833.576	17136
833.714	17140
833.852	17105
833.991	17204
834.129	17239
834.267	17151
834.406	17239
834.544	17124
834.682	17227
834.821	17178
834.959	17368
835.097	17048
835.235	17174
835.373	17071
835.511	17117
835.65	17018
835.788	16968
835.926	16869
836.064	16885
836.202	16873
836.34	17064
836.478	17162
836.615	16987
836.753	17075
836.891	17178
837.029	16999
837.167	17056
837.305	17037
837.443	16889
837.58	16866
837.718	17029
837.856	16896
837.993	16927
838.131	16892
838.269	16824
838.406	16778
838.544	16755
838.681	16599
838.819	16512
838.956	16447
839.094	16382
839.231	16447
839.369	16622
839.506	16858
839.643	16767
839.781	16466
839.918	16470
840.055	16478
840.193	16466
840.33	16497
840.467	16508
840.604	16386
840.742	16637
840.879	16219
841.016	16421
841.153	16428
841.29	16455
841.427	16447
841.564	16565
841.701	16428
841.838	16367
841.975	16382
842.112	16329
842.249	16268
842.385	16173
842.522	16413
842.659	16246
842.796	16246
842.933	16215
843.069	16196
843.206	16196
843.343	16314
843.479	16223
843.616	16371
843.752	16067
843.889	16032
844.025	16230
844.162	15880
844.298	16154
844.435	16048
844.571	16013
844.708	16093
844.844	16268
844.98	16150
845.117	16162
845.253	15991
845.389	15918
845.525	15991
845.661	16063
845.798	15964
845.934	16032
846.07	16112
846.206	16078
846.342	16215
846.478	15937
846.614	15720
846.75	15648
846.886	15618
847.022	15641
847.158	15622
847.294	15644
847.429	15717
847.565	15561
847.701	15789
847.837	15313
847.972	15340
848.108	15473
848.244	15450
848.379	15302
848.515	15138
848.65	15214
848.786	15226
848.921	15310
849.057	15310
849.192	15374
849.328	15245
849.463	15348
849.598	15150
849.734	15123
849.869	15058
850.004	14982
850.14	14979
850.275	15058
850.41	14941
850.545	14826
850.68	14895
850.815	14975
850.95	14925
851.085	15138
851.22	15074
851.355	14960
851.49	14986
851.625	14998
851.76	14849
851.895	14960
852.03	14902
852.165	14982
852.299	15009
852.434	15047
852.569	15051
852.703	15055
852.838	15017
852.973	15173
853.107	15081
853.242	15036
853.376	14792
853.511	14788
853.645	14743
853.78	14998
853.914	14887
854.048	14811
854.183	14777
854.317	14864
854.451	15001
854.585	14819
854.72	14838
854.854	14845
854.988	14750
855.122	14727
855.256	14735
855.39	14868
855.524	14792
855.658	14960
855.792	14895
855.926	14838
856.06	14887
856.194	14963
856.327	14800
856.461	14792
856.595	14826
856.729	14868
856.862	15013
856.996	14918
857.13	14956
857.263	14891
857.397	15013
857.53	14796
857.664	14895
857.797	14872
857.931	14914
858.064	14933
858.197	15009
858.331	14807
858.464	14811
858.597	14804
858.731	14750
858.864	14876
858.997	14845
859.13	14918
859.263	14895
859.396	14956
859.529	14800
859.662	14781
859.795	14727
859.928	14861
860.061	14990
860.194	15024
860.327	14918
860.46	14834
860.592	14982
860.725	14975
860.858	14944
860.99	14834
861.123	14830
861.256	14708
861.388	14849
861.521	15633
861.653	14708
861.786	14693
861.918	14727
862.05	14823
862.183	14785
862.315	14838
862.447	14872
862.58	14765
862.712	14651
862.844	14499
862.976	14823
863.108	14746
863.24	15093
863.372	14629
863.504	14648
863.636	14613
863.768	14678
863.9	14583
864.032	14537
864.164	14610
864.296	14625
864.428	14693
864.559	14625
864.691	14686
864.823	14674
864.954	14610
865.086	14697
865.217	14632
865.349	14549
865.48	14621
865.612	14518
865.743	14746
865.875	14606
866.006	14499
866.137	14549
866.269	14579
866.4	14522
866.531	14473
866.662	14518
866.793	14598
866.924	14537
867.055	14606
867.186	14465
867.317	14454
867.448	14366
867.579	14575
867.71	14442
867.841	14450
867.972	14579
868.103	14545
868.233	14617
868.364	14590
868.495	14511
868.625	14720
868.756	14899
868.886	14746
869.017	14800
869.147	14876
869.278	14925
869.408	14906
869.539	14792
869.669	14914
869.799	14849
869.929	14986
870.06	14937
870.19	15146
870.32	15119
870.45	15176
870.58	15245
870.71	15389
870.84	15374
870.97	15199
871.1	15176
871.23	15386
871.36	15405
871.489	15321
871.619	15397
871.749	15397
871.879	15416
872.008	15542
872.138	15481
872.267	15408
872.397	15283
872.526	15245
872.656	15264
872.785	15348
872.915	15492
873.044	15576
873.173	15435
873.303	15492
873.432	15469
873.561	15549
873.69	15416
873.819	15454
873.948	15534
874.077	15473
874.206	15504
874.335	15466
874.464	15564
874.593	15808
874.722	15709
874.851	15755
874.979	15945
875.108	15895
875.237	15732
875.365	15778
875.494	15720
875.623	15804
875.751	15728
875.88	15766
876.008	15960
876.136	15941
876.265	16188
876.393	16276
876.521	16181
876.65	16272
876.778	16211
876.906	16131
877.034	16078
877.162	16211
877.29	16253
877.418	16242
877.546	16188
877.674	16215
877.802	16204
877.93	16207
878.058	16185
878.185	16078
878.313	16090
878.441	16200
878.568	16109
878.696	16173
878.824	16219
878.951	16234
879.079	16390
879.206	16558
879.333	16394
879.461	16371
879.588	16405
879.715	16451
879.842	16683
879.97	16325
880.097	16188
880.224	16101
880.351	16215
880.478	16082
880.605	16120
880.732	15953
880.859	16394
880.986	16234
881.112	16181
881.239	15915
881.366	15884
881.493	15762
881.619	15781
881.746	15739
881.872	15690
881.999	15622
882.125	15701
882.252	15785
882.378	15686
882.505	15854
882.631	15660
882.757	15526
882.883	15603
883.01	15545
883.136	15466
883.262	15302
883.388	15340
883.514	15534
883.64	15580
883.766	15454
883.892	15260
884.018	15351
884.143	15576
884.269	15625
884.395	15302
884.52	15108
884.646	15233
884.772	15237
884.897	15062
885.023	15233
885.148	15329
885.274	15431
885.399	15268
885.524	15272
885.65	15157
885.775	15237
885.9	15211
886.025	15313
886.15	15268
886.275	15173
886.4	15112
886.525	15279
886.65	15150
886.775	15123
886.9	15264
887.025	15336
887.149	15245
887.274	15077
887.399	15017
887.523	15001
887.648	15024
887.773	14944
887.897	15173
888.021	15100
888.146	14979
888.27	15138
888.395	15157
888.519	15104
888.643	15112
888.767	15146
888.891	15043
889.015	14834
889.139	14963
889.263	14921
889.387	14956
889.511	15184
889.635	14960
889.759	14956
889.883	14739
890.006	14902
890.13	14990
890.254	14693
890.377	14758
890.501	14648
890.624	14670
890.748	14743
890.871	14575
890.995	14571
891.118	14552
891.241	14526
891.364	14705
891.488	14765
891.611	14537
891.734	14533
891.857	14758
891.98	14560
892.103	14678
892.226	14621
892.349	14579
892.471	14393
892.594	14560
892.717	14526
892.839	14518
892.962	14549
893.085	14629
893.207	14503
893.33	14480
893.452	14461
893.575	14636
893.697	14450
893.819	14792
893.941	14705
894.064	14636
894.186	14606
894.308	14499
894.43	14644
894.552	14830
894.674	14697
894.796	14484
894.918	14655
895.04	14560
895.161	14720
895.283	14754
895.405	14571
895.526	14583
895.648	14640
895.769	14746
895.891	14731
896.012	14785
896.134	14868
896.255	14754
896.376	14651
896.498	14735
896.619	14689
896.74	14804
896.861	14864
896.982	15058
897.103	15154
897.224	15055
897.345	14929
897.466	14937
897.587	14986
897.708	15085
897.828	15066
897.949	14956
898.07	14804
898.19	14902
898.311	15062
898.431	15020
898.552	15039
898.672	15089
898.792	15154
898.913	15131
899.033	14982
899.153	14868
899.273	14800
899.393	14872
899.513	14899
899.633	14918
899.753	14918
899.873	14906
899.993	14986
900.113	14838
900.232	14910
900.352	14880
900.472	14804
900.591	14705
900.711	14830
900.83	14693
900.95	14804
901.069	14883
901.189	14712
901.308	14480
901.427	14476
901.546	14446
901.665	14473
901.784	14511
901.904	14259
902.023	14267
902.141	14012
902.26	13986
902.379	14020
902.498	13970
902.617	13944
902.735	14027
902.854	13974
902.973	13890
903.091	13738
903.21	13693
903.328	13727
903.446	13636
903.565	13567
903.683	13601
903.801	13476
903.919	13502
904.038	13556
904.156	13514
904.274	13407
904.392	13293
904.51	13434
904.627	13301
904.745	13350
904.863	13422
904.981	13259
905.098	12958
905.216	13076
905.334	13046
905.451	13050
905.569	13053
905.686	13091
905.803	13023
905.921	12817
906.038	12947
906.155	12878
906.272	12817
906.389	12802
906.506	12650
906.623	12593
906.74	12673
906.857	12509
906.974	12502
907.091	12669
907.208	12844
907.324	12703
907.441	12517
907.557	12281
907.674	12342
907.79	12273
907.907	12239
908.023	12418
908.139	12422
908.256	12304
908.372	12353
908.488	12338
908.604	12232
908.72	12053
908.836	12159
908.952	12144
909.068	12095
909.184	12224
909.3	12205
909.415	12216
909.531	12034
909.647	11939
909.762	11920
909.878	11901
909.993	11840
910.108	11859
910.224	11847
910.339	11927
910.454	11889
910.57	11726
910.685	11646
910.8	11923
910.915	11859
911.03	11794
911.145	11638
911.259	11577
911.374	11596
911.489	11512
911.604	11505
911.718	11414
911.833	11459
911.947	11246
912.062	11159
912.176	11269
912.291	11315
912.405	11391
912.519	11592
912.633	11512
912.748	11421
912.862	11315
912.976	11128
913.09	11090
913.204	11159
913.318	11159
913.431	11273
913.545	11349
913.659	11345
913.772	11220
913.886	11132
914	11064
914.113	11117
914.226	11246
914.34	11227
914.453	11067
914.566	11208
914.68	11064
914.793	11010
914.906	10847
915.019	10843
915.132	10687
915.245	10835
915.358	10824
915.47	10885
915.583	10805
915.696	10847
915.809	11022
915.921	10972
916.034	10805
916.146	10869
916.259	10793
916.371	10911
916.483	10847
916.595	10736
916.708	10801
916.82	10736
916.932	10755
917.044	10759
917.156	10786
917.268	10683
917.38	10725
917.491	10611
917.603	10763
917.715	10809
917.826	10710
917.938	10573
918.049	10596
918.161	10607
918.272	10831
918.384	10889
918.495	10611
918.606	10538
918.717	10550
918.828	10599
918.939	10672
919.05	10497
919.161	10516
919.272	10348
919.383	10413
919.494	10504
919.604	10801
919.715	10607
919.826	10474
919.936	10550
920.047	10641
920.157	10573
920.267	10774
920.378	10622
920.488	10535
920.598	10805
920.708	10869
920.818	10725
920.928	10752
921.038	10873
921.148	10805
921.258	10527
921.368	10489
921.477	10398
921.587	10344
921.697	10344
921.806	10417
921.916	10306
922.025	10116
922.134	10086
922.244	10071
922.353	10078
922.462	10093
922.571	9918
922.68	9759
922.789	9740
922.898	9880
923.007	9755
923.116	9793
923.224	9770
923.333	9766
923.442	9713
923.55	9564
923.659	9675
923.767	9762
923.876	9576
923.984	9709
924.092	9576
924.201	9652
924.309	9656
924.417	9663
924.525	9542
924.633	9614
924.741	10352
924.849	9447
924.956	9580
925.064	9431
925.172	9386
925.279	9367
925.387	9431
925.494	9393
925.602	9557
925.709	9443
925.816	9405
925.924	9386
926.031	9526
926.138	9412
926.245	9549
926.352	9393
926.459	9492
926.566	9538
926.673	9454
926.779	9264
926.886	9241
926.993	9188
927.099	9097
927.206	9154
927.312	9066
927.419	9226
927.525	9157
927.631	9230
927.737	9085
927.843	8998
927.95	8914
928.056	8948
928.162	9001
928.267	9116
928.373	9686
928.479	9108
928.585	8864
928.69	8960
928.796	9062
928.901	8880
929.007	8834
929.112	9028
929.218	8906
929.323	8819
929.428	8845
929.533	8963
929.638	8834
929.743	8762
929.848	8933
929.953	8781
930.058	8750
930.163	8621
930.267	8629
930.372	8788
930.477	8533
930.581	8823
930.685	8693
930.79	8522
930.894	8613
930.998	8522
931.103	8686
931.207	8290
931.311	8221
931.415	8187
931.519	8046
931.623	8012
