Data from test_V78500241_3675.txt Node
Date: Fri Mar 25 14:59:18 CST 2022
User: usil
Spectrometer: V785-0024
Trigger mode: 0
Integration Time (sec): 4.000000E-1
Scans to average: 1
Nonlinearity correction enabled: false
Boxcar width: 0
Storing dark spectrum: false
XAxis mode: Wavelengths
Number of Pixels in Spectrum: 1024
>>>>>Begin Spectral Data<<<<<
801.071	21956
801.214	21823
801.356	21583
801.499	21519
801.641	21378
801.783	21325
801.926	21317
802.068	21165
802.211	21142
802.353	20929
802.496	20819
802.638	20838
802.78	20663
802.923	20587
803.065	20629
803.208	20629
803.35	20651
803.492	20686
803.635	20762
803.777	20545
803.919	20594
804.061	20872
804.204	20701
804.346	20541
804.488	20484
804.63	20636
804.773	20480
804.915	20503
805.057	20571
805.199	20495
805.341	20575
805.483	20609
805.626	20587
805.768	20469
805.91	20499
806.052	20457
806.194	20400
806.336	20655
806.478	20454
806.62	20431
806.762	20537
806.904	20689
807.046	20834
807.188	20823
807.33	20857
807.472	20906
807.614	20823
807.756	20746
807.898	20625
808.04	20469
808.182	20575
808.324	20598
808.465	20541
808.607	20720
808.749	20891
808.891	20861
809.033	20960
809.174	20998
809.316	20880
809.458	20834
809.6	20689
809.741	20979
809.883	20975
810.025	20933
810.166	20948
810.308	21096
810.45	20849
810.591	20823
810.733	20663
810.875	20663
811.016	20469
811.158	20427
811.299	20731
811.441	20830
811.582	20811
811.724	20667
811.865	20701
812.007	20659
812.148	20617
812.29	20708
812.431	20857
812.573	20823
812.714	21093
812.855	21058
812.997	21275
813.138	21279
813.279	21313
813.421	21085
813.562	21112
813.703	20902
813.845	20682
813.986	20393
814.127	20366
814.268	20290
814.41	20176
814.551	20206
814.692	20119
814.833	20157
814.974	20138
815.115	20149
815.256	19970
815.397	19963
815.539	19997
815.68	19868
815.821	19833
815.962	19837
816.103	19860
816.244	19738
816.385	19651
816.526	19616
816.666	19468
816.807	19346
816.948	19472
817.089	19480
817.23	19362
817.371	19419
817.512	19304
817.653	19228
817.793	19209
817.934	19320
818.075	19324
818.216	19206
818.356	19228
818.497	19285
818.638	18977
818.778	18958
818.919	18966
819.06	18875
819.2	19110
819.341	19285
819.481	19164
819.622	19285
819.762	19559
819.903	19472
820.043	19324
820.184	19316
820.324	19282
820.465	19392
820.605	19324
820.746	19202
820.886	19137
821.026	19213
821.167	19183
821.307	19202
821.447	19225
821.588	19206
821.728	18928
821.868	18863
822.008	18795
822.149	18719
822.289	18719
822.429	18429
822.569	18494
822.709	18357
822.849	18285
822.99	18323
823.13	18136
823.27	18174
823.41	17942
823.55	17935
823.69	17916
823.83	18030
823.97	17920
824.11	17710
824.25	17764
824.389	17646
824.529	17920
824.669	17729
824.809	17809
824.949	17866
825.089	17851
825.228	17707
825.368	17661
825.508	17570
825.648	17478
825.787	17642
825.927	17592
826.067	17509
826.206	17493
826.346	17482
826.485	17596
826.625	17558
826.765	17710
826.904	17592
827.044	17322
827.183	17254
827.323	17273
827.462	17326
827.601	17311
827.741	17299
827.88	17345
828.02	17117
828.159	17261
828.298	17292
828.437	17315
828.577	17330
828.716	17471
828.855	17254
828.994	17067
829.134	17010
829.273	17094
829.412	17006
829.551	16995
829.69	16961
829.829	17060
829.968	17048
830.107	17064
830.246	17052
830.385	17041
830.524	16869
830.663	16824
830.802	16778
830.941	16634
831.08	16634
831.219	16820
831.357	16725
831.496	16991
831.635	16542
831.774	16516
831.913	16481
832.051	16398
832.19	16409
832.329	16519
832.467	16451
832.606	16280
832.744	16295
832.883	16314
833.022	16379
833.16	16284
833.299	16379
833.437	16394
833.576	16367
833.714	16390
833.852	16367
833.991	16428
834.129	16447
834.267	16440
834.406	16398
834.544	16421
834.682	16367
834.821	16356
834.959	16607
835.097	16405
835.235	16462
835.373	16432
835.511	16432
835.65	16394
835.788	16249
835.926	16188
836.064	16215
836.202	16120
836.34	16371
836.478	16402
836.615	16318
836.753	16253
836.891	16523
837.029	16329
837.167	16325
837.305	16173
837.443	16310
837.58	16177
837.718	16154
837.856	16234
837.993	16116
838.131	16177
838.269	16173
838.406	16116
838.544	16116
838.681	15994
838.819	15945
838.956	15804
839.094	15720
839.231	15819
839.369	15953
839.506	16185
839.643	16055
839.781	15755
839.918	15823
840.055	15762
840.193	15762
840.33	15686
840.467	15762
840.604	15739
840.742	16036
840.879	15603
841.016	15671
841.153	15637
841.29	15953
841.427	15800
841.564	15774
841.701	15728
841.838	15637
841.975	15614
842.112	15705
842.249	15500
842.385	15485
842.522	15667
842.659	15561
842.796	15515
842.933	15500
843.069	15462
843.206	15443
843.343	15545
843.479	15439
843.616	15603
843.752	15325
843.889	15382
844.025	15511
844.162	15256
844.298	15370
844.435	15317
844.571	15340
844.708	15401
844.844	15443
844.98	15447
845.117	15412
845.253	15298
845.389	15252
845.525	15237
845.661	15249
845.798	15173
845.934	15233
846.07	15089
846.206	15188
846.342	15321
846.478	15066
846.614	14986
846.75	14902
846.886	14902
847.022	14956
847.158	14967
847.294	14944
847.429	14910
847.565	14914
847.701	15154
847.837	14697
847.972	14682
848.108	14701
848.244	14640
848.379	14579
848.515	14473
848.65	14492
848.786	14549
848.921	14522
849.057	14610
849.192	14583
849.328	14480
849.463	14533
849.598	14450
849.734	14423
849.869	14259
850.004	14214
850.14	14336
850.275	14320
850.41	14195
850.545	14214
850.68	14278
850.815	14164
850.95	14271
851.085	14511
851.22	14351
851.355	14324
851.49	14210
851.625	14187
851.76	14282
851.895	14180
852.03	14145
852.165	14225
852.299	14328
852.434	14313
852.569	14309
852.703	14301
852.838	14233
852.973	14408
853.107	14404
853.242	14191
853.376	14164
853.511	14039
853.645	14081
853.78	14233
853.914	14145
854.048	14119
854.183	14252
854.317	14149
854.451	14187
854.585	14153
854.72	14107
854.854	14187
854.988	14069
855.122	14142
855.256	13970
855.39	14134
855.524	14123
855.658	14161
855.792	14142
855.926	14233
856.06	14263
856.194	14240
856.327	14111
856.461	14119
856.595	14149
856.729	14187
856.862	14221
856.996	14210
857.13	14199
857.263	14336
857.397	14240
857.53	14218
857.664	14229
857.797	14199
857.931	14248
858.064	14168
858.197	14214
858.331	14195
858.464	14073
858.597	14035
858.731	14145
858.864	14054
858.997	14100
859.13	14134
859.263	14157
859.396	14221
859.529	14126
859.662	14069
859.795	14115
859.928	14244
860.061	14298
860.194	14324
860.327	14161
860.46	14229
860.592	14195
860.725	14256
860.858	14263
860.99	14107
861.123	14027
861.256	14119
861.388	14138
861.521	14773
861.653	13955
861.786	13875
861.918	13989
862.05	14081
862.183	14123
862.315	14100
862.447	14100
862.58	14153
862.712	13837
862.844	13803
862.976	13925
863.108	13913
863.24	14278
863.372	13868
863.504	13917
863.636	13925
863.768	13974
863.9	13841
864.032	13837
864.164	13875
864.296	13909
864.428	13970
864.559	13978
864.691	14016
864.823	13982
864.954	13932
865.086	13932
865.217	13917
865.349	13906
865.48	13887
865.612	13921
865.743	13978
865.875	13909
866.006	13890
866.137	13917
866.269	13947
866.4	13887
866.531	13928
866.662	13890
866.793	13803
866.924	13856
867.055	13887
867.186	13837
867.317	13837
867.448	13868
867.579	13864
867.71	13856
867.841	13765
867.972	13856
868.103	13921
868.233	13955
868.364	13955
868.495	14005
868.625	14077
868.756	14195
868.886	14123
869.017	14092
869.147	14259
869.278	14328
869.408	14218
869.539	14138
869.669	14210
869.799	14210
869.929	14221
870.06	14252
870.19	14503
870.32	14389
870.45	14495
870.58	14549
870.71	14674
870.84	14621
870.97	14526
871.1	14514
871.23	14705
871.36	14830
871.489	14632
871.619	14712
871.749	14811
871.879	14762
872.008	14777
872.138	14868
872.267	14807
872.397	14678
872.526	14602
872.656	14617
872.785	14693
872.915	14819
873.044	14815
873.173	14636
873.303	14838
873.432	14902
873.561	14895
873.69	14880
873.819	14788
873.948	14902
874.077	14796
874.206	14853
874.335	14739
874.464	14975
874.593	15116
874.722	14971
874.851	15089
874.979	15173
875.108	15135
875.237	15039
875.365	15043
875.494	15081
875.623	15230
875.751	15013
875.88	15138
876.008	15264
876.136	15340
876.265	15652
876.393	15713
876.521	15595
876.65	15679
876.778	15500
876.906	15610
877.034	15454
877.162	15534
877.29	15325
877.418	15519
877.546	15553
877.674	15523
877.802	15492
877.93	15576
878.058	15549
878.185	15428
878.313	15466
878.441	15633
878.568	15458
878.696	15526
878.824	15519
878.951	15603
879.079	15633
879.206	15899
879.333	15686
879.461	15584
879.588	15629
879.715	15774
879.842	15835
879.97	15622
880.097	15348
880.224	15389
880.351	15405
880.478	15412
880.605	15370
880.732	15401
880.859	15644
880.986	15473
881.112	15431
881.239	15393
881.366	15104
881.493	15043
881.619	14990
881.746	15089
881.872	15093
881.999	14906
882.125	14944
882.252	15001
882.378	15108
882.505	15218
882.631	14941
882.757	14895
882.883	14826
883.01	14864
883.136	14929
883.262	14701
883.388	14720
883.514	14834
883.64	14849
883.766	14815
883.892	14667
884.018	14670
884.143	14868
884.269	14990
884.395	14583
884.52	14541
884.646	14518
884.772	14476
884.897	14492
885.023	14659
885.148	14735
885.274	14731
885.399	14788
885.524	14545
885.65	14533
885.775	14636
885.9	14526
886.025	14712
886.15	14686
886.275	14625
886.4	14514
886.525	14514
886.65	14446
886.775	14541
886.9	14640
887.025	14849
887.149	14617
887.274	14415
887.399	14317
887.523	14385
887.648	14381
887.773	14381
887.897	14465
888.021	14507
888.146	14347
888.27	14503
888.395	14613
888.519	14377
888.643	14434
888.767	14374
888.891	14389
889.015	14218
889.139	14343
889.263	14244
889.387	14351
889.511	14488
889.635	14389
889.759	14244
889.883	14271
890.006	14218
890.13	14370
890.254	14237
890.377	14195
890.501	14008
890.624	14077
890.748	14275
890.871	13982
890.995	13959
891.118	13841
891.241	14024
891.364	14024
891.488	14062
891.611	13997
891.734	13947
891.857	13917
891.98	13997
892.103	13986
892.226	14031
892.349	13955
892.471	13864
892.594	13982
892.717	14050
892.839	13955
892.962	13974
893.085	14054
893.207	13978
893.33	13856
893.452	13883
893.575	14046
893.697	13963
893.819	14233
893.941	14145
894.064	14126
894.186	13890
894.308	13959
894.43	14058
894.552	14096
894.674	14062
894.796	14046
894.918	14035
895.04	14008
895.161	14183
895.283	14065
895.405	13955
895.526	14069
895.648	14153
895.769	14149
895.891	14077
896.012	14202
896.134	14081
896.255	14100
896.376	14103
896.498	14157
896.619	14233
896.74	14183
896.861	14263
896.982	14518
897.103	14655
897.224	14438
897.345	14305
897.466	14381
897.587	14320
897.708	14556
897.828	14518
897.949	14374
898.07	14229
898.19	14343
898.311	14648
898.431	14328
898.552	14522
898.672	14659
898.792	14617
898.913	14507
899.033	14377
899.153	14400
899.273	14317
899.393	14385
899.513	14393
899.633	14282
899.753	14374
899.873	14294
899.993	14377
900.113	14412
900.232	14393
900.352	14412
900.472	14271
900.591	14134
900.711	14210
900.83	14187
900.95	14240
901.069	14301
901.189	14153
901.308	13959
901.427	13967
901.546	13871
901.665	13944
901.784	13928
901.904	13693
902.023	13647
902.141	13491
902.26	13434
902.379	13540
902.498	13434
902.617	13411
902.735	13438
902.854	13506
902.973	13297
903.091	13282
903.21	13145
903.328	13156
903.446	13076
903.565	13069
903.683	12993
903.801	13015
903.919	13012
904.038	13031
904.156	12958
904.274	12901
904.392	12878
904.51	12901
904.627	12768
904.745	12779
904.863	12989
904.981	12715
905.098	12517
905.216	12513
905.334	12589
905.451	12521
905.569	12448
905.686	12555
905.803	12525
905.921	12384
906.038	12483
906.155	12315
906.272	12251
906.389	12277
906.506	12148
906.623	12110
906.74	12140
906.857	11977
906.974	12091
907.091	12140
907.208	12334
907.324	12136
907.441	12083
907.557	11950
907.674	11912
907.79	11897
907.907	11794
908.023	11920
908.139	11923
908.256	11802
908.372	11775
908.488	11767
908.604	11665
908.72	11592
908.836	11672
908.952	11627
909.068	11699
909.184	11779
909.3	11646
909.415	11828
909.531	11596
909.647	11383
909.762	11372
909.878	11414
909.993	11501
910.108	11474
910.224	11376
910.339	11364
910.454	11345
910.57	11265
910.685	11246
910.8	11497
910.915	11448
911.03	11288
911.145	11117
911.259	11041
911.374	11048
911.489	10984
911.604	11086
911.718	10843
911.833	10934
911.947	10755
912.062	10683
912.176	10892
912.291	10908
912.405	10911
912.519	11079
912.633	11147
912.748	10991
912.862	10934
912.976	10767
913.09	10710
913.204	10672
913.318	10763
913.431	10904
913.545	10858
913.659	10839
913.772	10820
913.886	10656
914	10668
914.113	10740
914.226	10824
914.34	10774
914.453	10523
914.566	10717
914.68	10618
914.793	10615
914.906	10417
915.019	10303
915.132	10363
915.245	10367
915.358	10367
915.47	10455
915.583	10379
915.696	10421
915.809	10561
915.921	10558
916.034	10325
916.146	10333
916.259	10329
916.371	10409
916.483	10489
916.595	10344
916.708	10314
916.82	10314
916.932	10398
917.044	10352
917.156	10234
917.268	10242
917.38	10230
917.491	10204
917.603	10246
917.715	10310
917.826	10360
917.938	10147
918.049	10067
918.161	10253
918.272	10428
918.384	10402
918.495	10306
918.606	10120
918.717	10147
918.828	10109
918.939	10166
919.05	10044
919.161	10150
919.272	9804
919.383	10013
919.494	10204
919.604	10413
919.715	10150
919.826	10040
919.936	10029
920.047	10196
920.157	10162
920.267	10314
920.378	10173
920.488	10032
920.598	10299
920.708	10440
920.818	10325
920.928	10337
921.038	10508
921.148	10402
921.258	10230
921.368	10086
921.477	10017
921.587	9899
921.697	9850
921.806	9991
921.916	9831
922.025	9747
922.134	9709
922.244	9644
922.353	9667
922.462	9629
922.571	9538
922.68	9382
922.789	9275
922.898	9397
923.007	9389
923.116	9424
923.224	9405
923.333	9355
923.442	9272
923.55	9268
923.659	9310
923.767	9287
923.876	9272
923.984	9275
924.092	9233
924.201	9302
924.309	9226
924.417	9264
924.525	9260
924.633	9207
924.741	9953
924.849	8994
924.956	9161
925.064	8986
925.172	8910
925.279	8986
925.387	9089
925.494	8990
925.602	9173
925.709	9100
925.816	8967
925.924	9062
926.031	9097
926.138	9051
926.245	9161
926.352	8918
926.459	9070
926.566	9116
926.673	9024
926.779	8971
926.886	8910
926.993	8762
927.099	8804
927.206	8716
927.312	8693
927.419	8769
927.525	8739
927.631	8842
927.737	8686
927.843	8670
927.95	8556
928.056	8590
928.162	8644
928.267	8701
928.373	9173
928.479	8762
928.585	8507
928.69	8648
928.796	8701
928.901	8560
929.007	8457
929.112	8610
929.218	8545
929.323	8541
929.428	8492
929.533	8568
929.638	8412
929.743	8442
929.848	8492
929.953	8412
930.058	8400
930.163	8218
930.267	8252
930.372	8396
930.477	8248
930.581	8427
930.685	8343
930.79	8149
930.894	8229
930.998	8157
931.103	8377
931.207	7951
931.311	7978
931.415	7849
931.519	7708
931.623	7700
