Data from test_V78500241_3220.txt Node
Date: Fri Mar 25 14:56:08 CST 2022
User: usil
Spectrometer: V785-0024
Trigger mode: 0
Integration Time (sec): 4.000000E-1
Scans to average: 1
Nonlinearity correction enabled: false
Boxcar width: 0
Storing dark spectrum: false
XAxis mode: Wavelengths
Number of Pixels in Spectrum: 1024
>>>>>Begin Spectral Data<<<<<
801.071	22040
801.214	21903
801.356	21656
801.499	21450
801.641	21458
801.783	21367
801.926	21389
802.068	21275
802.211	21169
802.353	21146
802.496	20967
802.638	20853
802.78	20777
802.923	20826
803.065	20701
803.208	20655
803.35	20785
803.492	20838
803.635	20842
803.777	20781
803.919	20750
804.061	21005
804.204	20830
804.346	20636
804.488	20507
804.63	20731
804.773	20632
804.915	20625
805.057	20746
805.199	20644
805.341	20853
805.483	20648
805.626	20667
805.768	20686
805.91	20579
806.052	20571
806.194	20537
806.336	20777
806.478	20518
806.62	20537
806.762	20743
806.904	20765
807.046	21005
807.188	21032
807.33	20990
807.472	21104
807.614	20765
807.756	20880
807.898	20823
808.04	20701
808.182	20659
808.324	20613
808.465	20708
808.607	20948
808.749	21036
808.891	21085
809.033	21192
809.174	20960
809.316	21017
809.458	20933
809.6	20941
809.741	21051
809.883	21039
810.025	21108
810.166	21112
810.308	21070
810.45	21077
810.591	21009
810.733	20834
810.875	20739
811.016	20518
811.158	20655
811.299	20678
811.441	20883
811.582	20815
811.724	20777
811.865	20785
812.007	20750
812.148	20731
812.29	20667
812.431	20876
812.573	20944
812.714	21131
812.855	21249
812.997	21355
813.138	21443
813.279	21298
813.421	21226
813.562	21135
813.703	20998
813.845	20807
813.986	20640
814.127	20419
814.268	20298
814.41	20358
814.551	20324
814.692	20476
814.833	20149
814.974	20377
815.115	20320
815.256	20259
815.397	20111
815.539	20153
815.68	20001
815.821	20031
815.962	20024
816.103	19883
816.244	19887
816.385	19696
816.526	19674
816.666	19685
816.807	19320
816.948	19533
817.089	19552
817.23	19537
817.371	19582
817.512	19384
817.653	19377
817.793	19331
817.934	19453
818.075	19491
818.216	19445
818.356	19343
818.497	19183
818.638	18996
818.778	19080
818.919	19137
819.06	19091
819.2	19194
819.341	19263
819.481	19316
819.622	19384
819.762	19578
819.903	19529
820.043	19552
820.184	19502
820.324	19407
820.465	19510
820.605	19316
820.746	19438
820.886	19266
821.026	19354
821.167	19373
821.307	19430
821.447	19251
821.588	19221
821.728	19088
821.868	18897
822.008	18840
822.149	18734
822.289	18817
822.429	18589
822.569	18448
822.709	18540
822.849	18216
822.99	18380
823.13	18232
823.27	18114
823.41	18144
823.55	18057
823.69	18125
823.83	18041
823.97	18030
824.11	17783
824.25	17889
824.389	17901
824.529	18022
824.669	17859
824.809	18034
824.949	17935
825.089	17946
825.228	17786
825.368	17661
825.508	17619
825.648	17634
825.787	17665
825.927	17642
826.067	17608
826.206	17592
826.346	17608
826.485	17600
826.625	17608
826.765	17695
826.904	17627
827.044	17387
827.183	17387
827.323	17356
827.462	17402
827.601	17261
827.741	17315
827.88	17315
828.02	17223
828.159	17303
828.298	17364
828.437	17372
828.577	17273
828.716	17455
828.855	17227
828.994	17037
829.134	17166
829.273	17071
829.412	16987
829.551	16972
829.69	17079
829.829	17102
829.968	17128
830.107	17113
830.246	17143
830.385	16930
830.524	17003
830.663	16915
830.802	16793
830.941	16759
831.08	16759
831.219	16835
831.357	16790
831.496	16968
831.635	16664
831.774	16694
831.913	16554
832.051	16424
832.19	16592
832.329	16645
832.467	16390
832.606	16348
832.744	16485
832.883	16375
833.022	16413
833.16	16360
833.299	16421
833.437	16421
833.576	16436
833.714	16558
833.852	16542
833.991	16481
834.129	16588
834.267	16561
834.406	16402
834.544	16428
834.682	16455
834.821	16466
834.959	16577
835.097	16421
835.235	16497
835.373	16417
835.511	16489
835.65	16257
835.788	16386
835.926	16173
836.064	16177
836.202	16147
836.34	16314
836.478	16440
836.615	16344
836.753	16363
836.891	16367
837.029	16417
837.167	16424
837.305	16284
837.443	16219
837.58	16185
837.718	16382
837.856	16181
837.993	16162
838.131	16230
838.269	16173
838.406	16124
838.544	16143
838.681	15930
838.819	15861
838.956	15778
839.094	15774
839.231	15819
839.369	15960
839.506	16280
839.643	16078
839.781	15770
839.918	15671
840.055	15781
840.193	15789
840.33	15675
840.467	15793
840.604	15778
840.742	16017
840.879	15679
841.016	15705
841.153	15762
841.29	15888
841.427	15873
841.564	15739
841.701	15892
841.838	15766
841.975	15675
842.112	15701
842.249	15568
842.385	15500
842.522	15762
842.659	15526
842.796	15587
842.933	15473
843.069	15485
843.206	15538
843.343	15663
843.479	15507
843.616	15595
843.752	15287
843.889	15393
844.025	15542
844.162	15283
844.298	15485
844.435	15294
844.571	15180
844.708	15408
844.844	15473
844.98	15462
845.117	15458
845.253	15298
845.389	15272
845.525	15233
845.661	15408
845.798	15188
845.934	15207
846.07	14998
846.206	15180
846.342	15260
846.478	15199
846.614	14975
846.75	14941
846.886	14960
847.022	15024
847.158	15020
847.294	15009
847.429	14967
847.565	14811
847.701	15218
847.837	14705
847.972	14663
848.108	14769
848.244	14727
848.379	14480
848.515	14476
848.65	14499
848.786	14522
848.921	14461
849.057	14568
849.192	14610
849.328	14514
849.463	14495
849.598	14457
849.734	14454
849.869	14400
850.004	14313
850.14	14347
850.275	14393
850.41	14183
850.545	14221
850.68	14298
850.815	14290
850.95	14221
851.085	14526
851.22	14358
851.355	14385
851.49	14206
851.625	14252
851.76	14233
851.895	14191
852.03	14103
852.165	14248
852.299	14282
852.434	14328
852.569	14366
852.703	14301
852.838	14317
852.973	14438
853.107	14427
853.242	14206
853.376	14153
853.511	14138
853.645	14225
853.78	14221
853.914	14191
854.048	14164
854.183	14058
854.317	14115
854.451	14294
854.585	14199
854.72	14123
854.854	14259
854.988	14084
855.122	14210
855.256	14005
855.39	14077
855.524	14229
855.658	14187
855.792	14176
855.926	14218
856.06	14187
856.194	14256
856.327	14054
856.461	14077
856.595	14043
856.729	14126
856.862	14328
856.996	14221
857.13	14267
857.263	14305
857.397	14290
857.53	14157
857.664	14237
857.797	14259
857.931	14267
858.064	14282
858.197	14263
858.331	14240
858.464	14157
858.597	14012
858.731	14153
858.864	14149
858.997	14149
859.13	14149
859.263	14248
859.396	14252
859.529	14206
859.662	14073
859.795	14107
859.928	14199
860.061	14282
860.194	14339
860.327	14206
860.46	14153
860.592	14271
860.725	14355
860.858	14263
860.99	14161
861.123	14084
861.256	14050
861.388	14145
861.521	14914
861.653	14046
861.786	14054
861.918	14031
862.05	14138
862.183	14180
862.315	14164
862.447	14206
862.58	14138
862.712	13955
862.844	13871
862.976	14111
863.108	14001
863.24	14461
863.372	13860
863.504	13890
863.636	13932
863.768	14016
863.9	13940
864.032	13890
864.164	13894
864.296	13928
864.428	14062
864.559	14012
864.691	13955
864.823	13997
864.954	13921
865.086	13925
865.217	13864
865.349	13803
865.48	13955
865.612	13944
865.743	14005
865.875	13970
866.006	13871
866.137	13868
866.269	13917
866.4	13883
866.531	13959
866.662	13830
866.793	13871
866.924	13890
867.055	13913
867.186	13860
867.317	13974
867.448	13811
867.579	13925
867.71	13871
867.841	13795
867.972	14001
868.103	13898
868.233	13898
868.364	13955
868.495	13982
868.625	14123
868.756	14301
868.886	14062
869.017	14221
869.147	14259
869.278	14381
869.408	14214
869.539	14180
869.669	14282
869.799	14229
869.929	14313
870.06	14195
870.19	14488
870.32	14488
870.45	14473
870.58	14629
870.71	14613
870.84	14659
870.97	14526
871.1	14526
871.23	14765
871.36	14705
871.489	14579
871.619	14716
871.749	14815
871.879	14781
872.008	14906
872.138	14762
872.267	14750
872.397	14705
872.526	14617
872.656	14579
872.785	14613
872.915	14746
873.044	14834
873.173	14758
873.303	14834
873.432	14864
873.561	14880
873.69	14819
873.819	14769
873.948	14910
874.077	14785
874.206	14792
874.335	14800
874.464	14956
874.593	15097
874.722	14933
874.851	15192
874.979	15104
875.108	15195
875.237	15116
875.365	15036
875.494	15108
875.623	15188
875.751	15135
875.88	15154
876.008	15310
876.136	15397
876.265	15614
876.393	15682
876.521	15641
876.65	15614
876.778	15572
876.906	15580
877.034	15572
877.162	15523
877.29	15488
877.418	15553
877.546	15523
877.674	15606
877.802	15576
877.93	15576
878.058	15568
878.185	15526
878.313	15500
878.441	15553
878.568	15378
878.696	15492
878.824	15648
878.951	15603
879.079	15816
879.206	15816
879.333	15663
879.461	15542
879.588	15618
879.715	15736
879.842	15842
879.97	15705
880.097	15488
880.224	15370
880.351	15416
880.478	15408
880.605	15348
880.732	15466
880.859	15595
880.986	15332
881.112	15450
881.239	15321
881.366	15252
881.493	15013
881.619	15074
881.746	15032
881.872	15116
881.999	14990
882.125	15112
882.252	15161
882.378	15097
882.505	15214
882.631	15051
882.757	14910
882.883	14872
883.01	14868
883.136	14819
883.262	14788
883.388	14800
883.514	14804
883.64	14872
883.766	14800
883.892	14625
884.018	14712
884.143	14819
884.269	15055
884.395	14560
884.52	14560
884.646	14670
884.772	14492
884.897	14530
885.023	14682
885.148	14746
885.274	14807
885.399	14708
885.524	14636
885.65	14545
885.775	14625
885.9	14636
886.025	14655
886.15	14663
886.275	14613
886.4	14469
886.525	14522
886.65	14552
886.775	14465
886.9	14606
887.025	14796
887.149	14598
887.274	14480
887.399	14324
887.523	14301
887.648	14366
887.773	14214
887.897	14339
888.021	14366
888.146	14336
888.27	14488
888.395	14530
888.519	14415
888.643	14473
888.767	14545
888.891	14355
889.015	14358
889.139	14301
889.263	14248
889.387	14385
889.511	14476
889.635	14362
889.759	14221
889.883	14336
890.006	14248
890.13	14446
890.254	14199
890.377	14225
890.501	14050
890.624	14084
890.748	14180
890.871	13986
890.995	13970
891.118	13963
891.241	13978
891.364	13989
891.488	14172
891.611	14027
891.734	14046
891.857	14092
891.98	13944
892.103	14008
892.226	14035
892.349	13947
892.471	13860
892.594	14012
892.717	13917
892.839	14020
892.962	14069
893.085	14058
893.207	13959
893.33	13909
893.452	13864
893.575	14062
893.697	13890
893.819	14123
893.941	14210
894.064	14225
894.186	13932
894.308	13925
894.43	14183
894.552	14077
894.674	14153
894.796	13936
894.918	14058
895.04	14046
895.161	14157
895.283	14069
895.405	14107
895.526	14077
895.648	14088
895.769	14043
895.891	14195
896.012	14263
896.134	14199
896.255	14020
896.376	14062
896.498	14157
896.619	14206
896.74	14077
896.861	14187
896.982	14571
897.103	14579
897.224	14579
897.345	14381
897.466	14347
897.587	14465
897.708	14594
897.828	14537
897.949	14442
898.07	14305
898.19	14457
898.311	14564
898.431	14450
898.552	14503
898.672	14651
898.792	14621
898.913	14518
899.033	14480
899.153	14412
899.273	14271
899.393	14339
899.513	14332
899.633	14336
899.753	14362
899.873	14313
899.993	14389
900.113	14320
900.232	14476
900.352	14393
900.472	14214
900.591	14187
900.711	14237
900.83	14187
900.95	14301
901.069	14385
901.189	14225
901.308	13955
901.427	13879
901.546	13856
901.665	13936
901.784	13936
901.904	13814
902.023	13685
902.141	13468
902.26	13468
902.379	13464
902.498	13457
902.617	13460
902.735	13510
902.854	13407
902.973	13483
903.091	13152
903.21	13202
903.328	13217
903.446	13194
903.565	12966
903.683	13114
903.801	12973
903.919	13000
904.038	13015
904.156	12909
904.274	12962
904.392	12890
904.51	12741
904.627	12840
904.745	12909
904.863	12947
904.981	12639
905.098	12642
905.216	12608
905.334	12593
905.451	12540
905.569	12448
905.686	12623
905.803	12635
905.921	12479
906.038	12471
906.155	12418
906.272	12232
906.389	12289
906.506	12213
906.623	12114
906.74	12087
906.857	11961
906.974	12038
907.091	12254
907.208	12281
907.324	12163
907.441	11984
907.557	11927
907.674	11920
907.79	11824
907.907	11889
908.023	11969
908.139	11923
908.256	11832
908.372	11802
908.488	11843
908.604	11733
908.72	11668
908.836	11638
908.952	11634
909.068	11611
909.184	11756
909.3	11771
909.415	11748
909.531	11707
909.647	11414
909.762	11463
909.878	11398
909.993	11463
910.108	11398
910.224	11387
910.339	11436
910.454	11349
910.57	11254
910.685	11204
910.8	11493
910.915	11414
911.03	11345
911.145	11204
911.259	11162
911.374	11166
911.489	11090
911.604	10999
911.718	10869
911.833	10999
911.947	10816
912.062	10778
912.176	10850
912.291	10919
912.405	10923
912.519	11109
912.633	11166
912.748	11029
912.862	10946
912.976	10755
913.09	10618
913.204	10744
913.318	10782
913.431	10869
913.545	10866
913.659	10957
913.772	10748
913.886	10687
914	10637
914.113	10778
914.226	10774
914.34	10736
914.453	10535
914.566	10774
914.68	10675
914.793	10554
914.906	10489
915.019	10344
915.132	10375
915.245	10329
915.358	10424
915.47	10428
915.583	10493
915.696	10402
915.809	10558
915.921	10535
916.034	10375
916.146	10325
916.259	10352
916.371	10375
916.483	10333
916.595	10424
916.708	10424
916.82	10253
916.932	10398
917.044	10291
917.156	10268
917.268	10169
917.38	10223
917.491	10169
917.603	10238
917.715	10325
917.826	10367
917.938	10227
918.049	10162
918.161	10280
918.272	10474
918.384	10409
918.495	10227
918.606	10105
918.717	10040
918.828	10101
918.939	10227
919.05	10029
919.161	10147
919.272	9949
919.383	9979
919.494	10177
919.604	10462
919.715	10158
919.826	10044
919.936	10154
920.047	10230
920.157	10131
920.267	10333
920.378	10192
920.488	10131
920.598	10352
920.708	10527
920.818	10310
920.928	10375
921.038	10500
921.148	10493
921.258	10185
921.368	10078
921.477	9941
921.587	9922
921.697	9888
921.806	10090
921.916	9941
922.025	9701
922.134	9713
922.244	9705
922.353	9690
922.462	9545
922.571	9576
922.68	9454
922.789	9378
922.898	9439
923.007	9317
923.116	9405
923.224	9393
923.333	9439
923.442	9310
923.55	9302
923.659	9241
923.767	9386
923.876	9272
923.984	9275
924.092	9256
924.201	9294
924.309	9256
924.417	9245
924.525	9226
924.633	9272
924.741	10150
924.849	9036
924.956	9203
925.064	9093
925.172	9001
925.279	8956
925.387	9097
925.494	8982
925.602	9241
925.709	9100
925.816	8994
925.924	9032
926.031	9135
926.138	9093
926.245	9074
926.352	8979
926.459	9085
926.566	9116
926.673	8952
926.779	8944
926.886	8948
926.993	8834
927.099	8758
927.206	8792
927.312	8716
927.419	8845
927.525	8849
927.631	8845
927.737	8686
927.843	8739
927.95	8541
928.056	8682
928.162	8731
928.267	8777
928.373	9211
928.479	8842
928.585	8533
928.69	8659
928.796	8758
928.901	8632
929.007	8427
929.112	8640
929.218	8507
929.323	8522
929.428	8575
929.533	8598
929.638	8423
929.743	8480
929.848	8514
929.953	8454
930.058	8415
930.163	8218
930.267	8221
930.372	8362
930.477	8187
930.581	8514
930.685	8301
930.79	8214
930.894	8259
930.998	8221
931.103	8351
931.207	8024
931.311	7947
931.415	7936
931.519	7731
931.623	7700
