Data from test_V78500241_2515.txt Node
Date: Fri Mar 25 14:51:13 CST 2022
User: usil
Spectrometer: V785-0024
Trigger mode: 0
Integration Time (sec): 4.000000E-1
Scans to average: 1
Nonlinearity correction enabled: false
Boxcar width: 0
Storing dark spectrum: false
XAxis mode: Wavelengths
Number of Pixels in Spectrum: 1024
>>>>>Begin Spectral Data<<<<<
801.071	22074
801.214	21964
801.356	21633
801.499	21606
801.641	21458
801.783	21492
801.926	21431
802.068	21416
802.211	21249
802.353	21241
802.496	21093
802.638	20918
802.78	20883
802.923	20731
803.065	20739
803.208	20594
803.35	20765
803.492	20811
803.635	20918
803.777	20807
803.919	20796
804.061	21188
804.204	20842
804.346	20682
804.488	20686
804.63	20636
804.773	20613
804.915	20773
805.057	20796
805.199	20590
805.341	20800
805.483	20735
805.626	20765
805.768	20560
805.91	20617
806.052	20750
806.194	20659
806.336	20682
806.478	20564
806.62	20606
806.762	20804
806.904	20807
807.046	21051
807.188	21001
807.33	21020
807.472	21066
807.614	20845
807.756	20845
807.898	20701
808.04	20670
808.182	20792
808.324	20724
808.465	20651
808.607	20842
808.749	21017
808.891	21009
809.033	21245
809.174	21009
809.316	21001
809.458	21009
809.6	20948
809.741	21074
809.883	21135
810.025	21116
810.166	21123
810.308	21146
810.45	21096
810.591	21184
810.733	20883
810.875	20861
811.016	20697
811.158	20613
811.299	20914
811.441	20929
811.582	20944
811.724	20811
811.865	20758
812.007	20689
812.148	20735
812.29	20724
812.431	20986
812.573	20986
812.714	21173
812.855	21226
812.997	21443
813.138	21511
813.279	21428
813.421	21344
813.562	21207
813.703	21074
813.845	20910
813.986	20746
814.127	20514
814.268	20465
814.41	20469
814.551	20278
814.692	20370
814.833	20294
814.974	20248
815.115	20294
815.256	20267
815.397	20240
815.539	20130
815.68	20096
815.821	20001
815.962	20069
816.103	20069
816.244	20020
816.385	19951
816.526	19803
816.666	19620
816.807	19521
816.948	19624
817.089	19677
817.23	19723
817.371	19495
817.512	19453
817.653	19407
817.793	19457
817.934	19468
818.075	19362
818.216	19464
818.356	19499
818.497	19232
818.638	19175
818.778	19095
818.919	19187
819.06	19259
819.2	19225
819.341	19362
819.481	19335
819.622	19415
819.762	19616
819.903	19533
820.043	19502
820.184	19453
820.324	19502
820.465	19544
820.605	19487
820.746	19358
820.886	19346
821.026	19529
821.167	19491
821.307	19354
821.447	19316
821.588	19407
821.728	19114
821.868	19057
822.008	18810
822.149	18878
822.289	18764
822.429	18650
822.569	18559
822.709	18525
822.849	18361
822.99	18311
823.13	18319
823.27	18289
823.41	18251
823.55	18125
823.69	18213
823.83	18281
823.97	18045
824.11	17973
824.25	17954
824.389	18041
824.529	18026
824.669	17828
824.809	18019
824.949	17999
825.089	17988
825.228	17992
825.368	17729
825.508	17695
825.648	17748
825.787	17687
825.927	17779
826.067	17722
826.206	17554
826.346	17775
826.485	17680
826.625	17779
826.765	17790
826.904	17756
827.044	17562
827.183	17433
827.323	17452
827.462	17577
827.601	17433
827.741	17402
827.88	17467
828.02	17299
828.159	17497
828.298	17425
828.437	17444
828.577	17341
828.716	17478
828.855	17368
828.994	17227
829.134	17239
829.273	17254
829.412	17098
829.551	17170
829.69	17128
829.829	17147
829.968	17254
830.107	17345
830.246	17250
830.385	17143
830.524	16987
830.663	16965
830.802	16889
830.941	16892
831.08	16820
831.219	16919
831.357	16774
831.496	17025
831.635	16767
831.774	16824
831.913	16736
832.051	16615
832.19	16653
832.329	16626
832.467	16550
832.606	16500
832.744	16542
832.883	16535
833.022	16459
833.16	16542
833.299	16592
833.437	16558
833.576	16588
833.714	16660
833.852	16603
833.991	16664
834.129	16546
834.267	16634
834.406	16527
834.544	16538
834.682	16637
834.821	16637
834.959	16698
835.097	16558
835.235	16626
835.373	16615
835.511	16603
835.65	16462
835.788	16466
835.926	16325
836.064	16291
836.202	16356
836.34	16535
836.478	16550
836.615	16325
836.753	16413
836.891	16523
837.029	16440
837.167	16337
837.305	16428
837.443	16367
837.58	16314
837.718	16356
837.856	16413
837.993	16363
838.131	16348
838.269	16200
838.406	16291
838.544	16162
838.681	16002
838.819	16044
838.956	15899
839.094	15838
839.231	15998
839.369	15983
839.506	16261
839.643	16029
839.781	15876
839.918	15903
840.055	15915
840.193	15876
840.33	15850
840.467	15857
840.604	15922
840.742	16150
840.879	15675
841.016	15797
841.153	15857
841.29	15930
841.427	15903
841.564	15850
841.701	15869
841.838	15972
841.975	15835
842.112	15800
842.249	15759
842.385	15667
842.522	15911
842.659	15698
842.796	15679
842.933	15720
843.069	15618
843.206	15625
843.343	15800
843.479	15686
843.616	15690
843.752	15450
843.889	15393
844.025	15686
844.162	15397
844.298	15534
844.435	15492
844.571	15477
844.708	15530
844.844	15637
844.98	15641
845.117	15660
845.253	15325
845.389	15428
845.525	15367
845.661	15401
845.798	15332
845.934	15195
846.07	15256
846.206	15313
846.342	15416
846.478	15237
846.614	15093
846.75	14960
846.886	15047
847.022	15039
847.158	15001
847.294	14994
847.429	15116
847.565	15009
847.701	15325
847.837	14804
847.972	14743
848.108	14899
848.244	14906
848.379	14674
848.515	14610
848.65	14674
848.786	14617
848.921	14663
849.057	14762
849.192	14701
849.328	14682
849.463	14746
849.598	14636
849.734	14511
849.869	14461
850.004	14480
850.14	14423
850.275	14461
850.41	14362
850.545	14328
850.68	14347
850.815	14400
850.95	14450
851.085	14606
851.22	14503
851.355	14454
851.49	14278
851.625	14351
851.76	14385
851.895	14343
852.03	14290
852.165	14366
852.299	14454
852.434	14476
852.569	14419
852.703	14408
852.838	14465
852.973	14549
853.107	14522
853.242	14393
853.376	14298
853.511	14233
853.645	14275
853.78	14320
853.914	14332
854.048	14233
854.183	14263
854.317	14278
854.451	14480
854.585	14282
854.72	14332
854.854	14301
854.988	14229
855.122	14237
855.256	14107
855.39	14237
855.524	14286
855.658	14290
855.792	14282
855.926	14374
856.06	14385
856.194	14332
856.327	14278
856.461	14252
856.595	14180
856.729	14237
856.862	14385
856.996	14263
857.13	14324
857.263	14434
857.397	14389
857.53	14278
857.664	14267
857.797	14400
857.931	14301
858.064	14347
858.197	14385
858.331	14317
858.464	14183
858.597	14233
858.731	14256
858.864	14267
858.997	14275
859.13	14282
859.263	14259
859.396	14385
859.529	14153
859.662	14187
859.795	14267
859.928	14324
860.061	14400
860.194	14434
860.327	14263
860.46	14336
860.592	14415
860.725	14415
860.858	14282
860.99	14309
861.123	14240
861.256	14157
861.388	14221
861.521	14880
861.653	14153
861.786	14062
861.918	14065
862.05	14062
862.183	14153
862.315	14244
862.447	14282
862.58	14187
862.712	14088
862.844	14039
862.976	14115
863.108	13997
863.24	14431
863.372	14046
863.504	14035
863.636	14031
863.768	14039
863.9	14024
864.032	13940
864.164	14012
864.296	14130
864.428	14073
864.559	14237
864.691	14138
864.823	14008
864.954	14134
865.086	14092
865.217	13974
865.349	14008
865.48	14008
865.612	14092
865.743	14142
865.875	14020
866.006	14039
866.137	13997
866.269	14039
866.4	14043
866.531	13944
866.662	13993
866.793	14012
866.924	13970
867.055	14100
867.186	14062
867.317	14001
867.448	13887
867.579	13925
867.71	13986
867.841	14043
867.972	14069
868.103	14012
868.233	14088
868.364	14027
868.495	14092
868.625	14343
868.756	14431
868.886	14164
869.017	14221
869.147	14343
869.278	14374
869.408	14225
869.539	14286
869.669	14328
869.799	14324
869.929	14446
870.06	14351
870.19	14579
870.32	14590
870.45	14644
870.58	14708
870.71	14876
870.84	14746
870.97	14613
871.1	14720
871.23	14804
871.36	14868
871.489	14849
871.619	14849
871.749	14838
871.879	14849
872.008	15051
872.138	14849
872.267	14785
872.397	14834
872.526	14705
872.656	14659
872.785	14765
872.915	14891
873.044	14994
873.173	14937
873.303	14914
873.432	14998
873.561	15013
873.69	14883
873.819	14929
873.948	15001
874.077	15005
874.206	14864
874.335	14990
874.464	15070
874.593	15367
874.722	15108
874.851	15089
874.979	15199
875.108	15245
875.237	15211
875.365	15154
875.494	15184
875.623	15386
875.751	15218
875.88	15329
876.008	15469
876.136	15549
876.265	15713
876.393	15717
876.521	15686
876.65	15751
876.778	15755
876.906	15656
877.034	15622
877.162	15667
877.29	15652
877.418	15667
877.546	15705
877.674	15728
877.802	15564
877.93	15641
878.058	15591
878.185	15580
878.313	15629
878.441	15667
878.568	15488
878.696	15523
878.824	15644
878.951	15766
879.079	15816
879.206	16101
879.333	15755
879.461	15637
879.588	15861
879.715	15857
879.842	15930
879.97	15717
880.097	15473
880.224	15523
880.351	15629
880.478	15507
880.605	15393
880.732	15488
880.859	15819
880.986	15557
881.112	15530
881.239	15500
881.366	15279
881.493	15260
881.619	15138
881.746	15165
881.872	15203
881.999	15089
882.125	15184
882.252	15241
882.378	15230
882.505	15279
882.631	15051
882.757	15024
882.883	15104
883.01	15017
883.136	14914
883.262	14834
883.388	14880
883.514	15097
883.64	15051
883.766	14990
883.892	14746
884.018	14830
884.143	15043
884.269	15032
884.395	14811
884.52	14659
884.646	14632
884.772	14693
884.897	14636
885.023	14731
885.148	14804
885.274	14819
885.399	14853
885.524	14693
885.65	14667
885.775	14663
885.9	14712
886.025	14830
886.15	14716
886.275	14727
886.4	14533
886.525	14667
886.65	14678
886.775	14568
886.9	14834
887.025	14883
887.149	14765
887.274	14530
887.399	14423
887.523	14499
887.648	14431
887.773	14385
887.897	14602
888.021	14644
888.146	14518
888.27	14571
888.395	14663
888.519	14507
888.643	14587
888.767	14625
888.891	14560
889.015	14221
889.139	14442
889.263	14343
889.387	14446
889.511	14526
889.635	14495
889.759	14419
889.883	14434
890.006	14454
890.13	14484
890.254	14324
890.377	14370
890.501	14221
890.624	14225
890.748	14290
890.871	14134
890.995	14084
891.118	14001
891.241	14077
891.364	14138
891.488	14195
891.611	14054
891.734	14153
891.857	14058
891.98	14168
892.103	14191
892.226	14073
892.349	13967
892.471	13925
892.594	14039
892.717	14077
892.839	13989
892.962	14130
893.085	14183
893.207	14043
893.33	13982
893.452	13951
893.575	14092
893.697	14024
893.819	14240
893.941	14286
894.064	14244
894.186	13986
894.308	14069
894.43	14221
894.552	14286
894.674	14267
894.796	14062
894.918	14103
895.04	14069
895.161	14210
895.283	14210
895.405	14069
895.526	14138
895.648	14206
895.769	14123
895.891	14252
896.012	14275
896.134	14324
896.255	14168
896.376	14164
896.498	14218
896.619	14145
896.74	14252
896.861	14301
896.982	14495
897.103	14689
897.224	14556
897.345	14454
897.466	14423
897.587	14495
897.708	14613
897.828	14606
897.949	14461
898.07	14347
898.19	14476
898.311	14636
898.431	14511
898.552	14518
898.672	14610
898.792	14716
898.913	14708
899.033	14488
899.153	14461
899.273	14393
899.393	14450
899.513	14488
899.633	14415
899.753	14446
899.873	14404
899.993	14503
900.113	14408
900.232	14442
900.352	14450
900.472	14286
900.591	14240
900.711	14355
900.83	14214
900.95	14320
901.069	14336
901.189	14244
901.308	14054
901.427	13978
901.546	13947
901.665	13997
901.784	14031
901.904	13830
902.023	13700
902.141	13559
902.26	13575
902.379	13575
902.498	13529
902.617	13468
902.735	13559
902.854	13506
902.973	13476
903.091	13324
903.21	13266
903.328	13190
903.446	13274
903.565	13141
903.683	13149
903.801	12962
903.919	13133
904.038	13080
904.156	12935
904.274	13057
904.392	12939
904.51	13023
904.627	12890
904.745	12985
904.863	12947
904.981	12677
905.098	12639
905.216	12623
905.334	12597
905.451	12688
905.569	12627
905.686	12738
905.803	12673
905.921	12509
906.038	12532
906.155	12410
906.272	12384
906.389	12315
906.506	12235
906.623	12213
906.74	12213
906.857	12213
906.974	12186
907.091	12258
907.208	12365
907.324	12228
907.441	12144
907.557	12011
907.674	11942
907.79	11931
907.907	11912
908.023	11969
908.139	12003
908.256	11847
908.372	11870
908.488	11874
908.604	11745
908.72	11623
908.836	11752
908.952	11779
909.068	11718
909.184	11840
909.3	11756
909.415	11771
909.531	11703
909.647	11532
909.762	11615
909.878	11417
909.993	11547
910.108	11501
910.224	11474
910.339	11493
910.454	11459
910.57	11288
910.685	11284
910.8	11547
910.915	11482
911.03	11395
911.145	11147
911.259	11242
911.374	11242
911.489	11197
911.604	11083
911.718	10968
911.833	11048
911.947	10892
912.062	10820
912.176	10965
912.291	10980
912.405	10980
912.519	11174
912.633	11269
912.748	11022
912.862	10965
912.976	10778
913.09	10744
913.204	10850
913.318	10854
913.431	10976
913.545	10908
913.659	10900
913.772	10812
913.886	10778
914	10637
914.113	10877
914.226	10854
914.34	10786
914.453	10691
914.566	10824
914.68	10641
914.793	10630
914.906	10432
915.019	10390
915.132	10379
915.245	10424
915.358	10462
915.47	10485
915.583	10615
915.696	10443
915.809	10565
915.921	10660
916.034	10470
916.146	10413
916.259	10417
916.371	10546
916.483	10519
916.595	10462
916.708	10405
916.82	10382
916.932	10386
917.044	10367
917.156	10375
917.268	10268
917.38	10238
917.491	10284
917.603	10230
917.715	10428
917.826	10390
917.938	10318
918.049	10211
918.161	10318
918.272	10504
918.384	10478
918.495	10348
918.606	10150
918.717	10109
918.828	10135
918.939	10234
919.05	10006
919.161	10185
919.272	10013
919.383	10051
919.494	10295
919.604	10398
919.715	10211
919.826	10131
919.936	10120
920.047	10344
920.157	10227
920.267	10363
920.378	10112
920.488	10109
920.598	10394
920.708	10512
920.818	10386
920.928	10367
921.038	10546
921.148	10573
921.258	10196
921.368	10131
921.477	10051
921.587	9964
921.697	9899
921.806	10048
921.916	9964
922.025	9694
922.134	9720
922.244	9694
922.353	9797
922.462	9641
922.571	9519
922.68	9428
922.789	9420
922.898	9443
923.007	9439
923.116	9466
923.224	9382
923.333	9462
923.442	9329
923.55	9321
923.659	9378
923.767	9523
923.876	9336
923.984	9386
924.092	9230
924.201	9268
924.309	9279
924.417	9348
924.525	9260
924.633	9214
924.741	10169
924.849	9085
924.956	9268
925.064	9085
925.172	9043
925.279	9097
925.387	9070
925.494	9108
925.602	9287
925.709	9154
925.816	9062
925.924	9005
926.031	9154
926.138	9089
926.245	9070
926.352	9017
926.459	9112
926.566	9226
926.673	9066
926.779	8918
926.886	8956
926.993	8853
927.099	8819
927.206	8762
927.312	8754
927.419	8861
927.525	8792
927.631	8807
927.737	8773
927.843	8750
927.95	8667
928.056	8693
928.162	8720
928.267	8788
928.373	9416
928.479	8872
928.585	8545
928.69	8674
928.796	8689
928.901	8579
929.007	8571
929.112	8583
929.218	8655
929.323	8560
929.428	8518
929.533	8697
929.638	8469
929.743	8461
929.848	8571
929.953	8549
930.058	8423
930.163	8298
930.267	8271
930.372	8370
930.477	8290
930.581	8488
930.685	8469
930.79	8233
930.894	8199
930.998	8237
931.103	8492
931.207	8046
931.311	7986
931.415	7989
931.519	7795
931.623	7715
