Data from test_V78500241_1910.txt Node
Date: Fri Mar 25 14:47:00 CST 2022
User: usil
Spectrometer: V785-0024
Trigger mode: 0
Integration Time (sec): 4.000000E-1
Scans to average: 1
Nonlinearity correction enabled: false
Boxcar width: 0
Storing dark spectrum: false
XAxis mode: Wavelengths
Number of Pixels in Spectrum: 1024
>>>>>Begin Spectral Data<<<<<
801.071	22139
801.214	21979
801.356	21800
801.499	21610
801.641	21507
801.783	21481
801.926	21458
802.068	21344
802.211	21344
802.353	21268
802.496	21039
802.638	21085
802.78	20921
802.923	20769
803.065	20750
803.208	20651
803.35	20811
803.492	20960
803.635	20921
803.777	20781
803.919	20826
804.061	21074
804.204	20891
804.346	20735
804.488	20670
804.63	20781
804.773	20575
804.915	20716
805.057	20800
805.199	20727
805.341	20785
805.483	20849
805.626	20701
805.768	20613
805.91	20492
806.052	20632
806.194	20587
806.336	20842
806.478	20689
806.62	20739
806.762	20720
806.904	20849
807.046	21169
807.188	21051
807.33	20952
807.472	21043
807.614	20998
807.756	20918
807.898	20834
808.04	20693
808.182	20701
808.324	20788
808.465	20670
808.607	20891
808.749	20967
808.891	21077
809.033	21142
809.174	21138
809.316	21051
809.458	21142
809.6	21013
809.741	21074
809.883	21226
810.025	21237
810.166	21169
810.308	21275
810.45	21096
810.591	21146
810.733	20990
810.875	20819
811.016	20746
811.158	20765
811.299	20929
811.441	20963
811.582	20967
811.724	20952
811.865	20868
812.007	20868
812.148	20868
812.29	20960
812.431	20845
812.573	20971
812.714	21119
812.855	21310
812.997	21344
813.138	21515
813.279	21317
813.421	21374
813.562	21329
813.703	21070
813.845	20941
813.986	20613
814.127	20488
814.268	20434
814.41	20393
814.551	20393
814.692	20473
814.833	20256
814.974	20358
815.115	20404
815.256	20221
815.397	20126
815.539	20153
815.68	20069
815.821	20073
815.962	20130
816.103	20084
816.244	20016
816.385	19807
816.526	19852
816.666	19647
816.807	19540
816.948	19521
817.089	19719
817.23	19613
817.371	19514
817.512	19381
817.653	19582
817.793	19453
817.934	19487
818.075	19491
818.216	19495
818.356	19525
818.497	19320
818.638	19202
818.778	19236
818.919	19187
819.06	19365
819.2	19331
819.341	19365
819.481	19324
819.622	19567
819.762	19746
819.903	19666
820.043	19613
820.184	19487
820.324	19476
820.465	19548
820.605	19472
820.746	19430
820.886	19369
821.026	19453
821.167	19476
821.307	19480
821.447	19476
821.588	19251
821.728	19168
821.868	19038
822.008	18909
822.149	18863
822.289	18878
822.429	18783
822.569	18601
822.709	18467
822.849	18422
822.99	18410
823.13	18426
823.27	18391
823.41	18178
823.55	18114
823.69	18205
823.83	18342
823.97	18197
824.11	18125
824.25	17973
824.389	17984
824.529	18098
824.669	17954
824.809	18106
824.949	18057
825.089	18133
825.228	18087
825.368	17767
825.508	17813
825.648	17733
825.787	17836
825.927	17935
826.067	17745
826.206	17741
826.346	17695
826.485	17817
826.625	17665
826.765	17889
826.904	17672
827.044	17547
827.183	17596
827.323	17455
827.462	17528
827.601	17547
827.741	17391
827.88	17459
828.02	17334
828.159	17417
828.298	17414
828.437	17501
828.577	17341
828.716	17471
828.855	17429
828.994	17136
829.134	17151
829.273	17360
829.412	17212
829.551	17132
829.69	17162
829.829	17140
829.968	17288
830.107	17242
830.246	17208
830.385	16984
830.524	17056
830.663	17003
830.802	16991
830.941	16812
831.08	16820
831.219	16942
831.357	16850
831.496	17102
831.635	16755
831.774	16759
831.913	16733
832.051	16592
832.19	16573
832.329	16710
832.467	16580
832.606	16565
832.744	16481
832.883	16527
833.022	16504
833.16	16546
833.299	16508
833.437	16535
833.576	16584
833.714	16508
833.852	16599
833.991	16702
834.129	16630
834.267	16660
834.406	16702
834.544	16599
834.682	16542
834.821	16622
834.959	16805
835.097	16558
835.235	16687
835.373	16656
835.511	16637
835.65	16417
835.788	16390
835.926	16265
836.064	16284
836.202	16322
836.34	16550
836.478	16565
836.615	16417
836.753	16558
836.891	16637
837.029	16569
837.167	16443
837.305	16447
837.443	16455
837.58	16424
837.718	16421
837.856	16390
837.993	16299
838.131	16360
838.269	16257
838.406	16280
838.544	16226
838.681	16097
838.819	15987
838.956	15926
839.094	15934
839.231	16040
839.369	16071
839.506	16348
839.643	16101
839.781	15934
839.918	15994
840.055	15911
840.193	15907
840.33	15915
840.467	15930
840.604	15903
840.742	16265
840.879	15793
841.016	15911
841.153	15880
841.29	16097
841.427	15949
841.564	15968
841.701	15960
841.838	15854
841.975	15865
842.112	15907
842.249	15709
842.385	15785
842.522	15850
842.659	15694
842.796	15755
842.933	15728
843.069	15496
843.206	15686
843.343	15759
843.479	15663
843.616	15895
843.752	15561
843.889	15519
844.025	15724
844.162	15450
844.298	15667
844.435	15496
844.571	15462
844.708	15511
844.844	15682
844.98	15561
845.117	15610
845.253	15519
845.389	15405
845.525	15473
845.661	15374
845.798	15207
845.934	15363
846.07	15329
846.206	15367
846.342	15420
846.478	15264
846.614	15077
846.75	15077
846.886	14998
847.022	15119
847.158	15047
847.294	15131
847.429	15180
847.565	15017
847.701	15378
847.837	14800
847.972	14739
848.108	14948
848.244	14918
848.379	14762
848.515	14587
848.65	14705
848.786	14693
848.921	14712
849.057	14807
849.192	14705
849.328	14701
849.463	14724
849.598	14674
849.734	14533
849.869	14583
850.004	14514
850.14	14457
850.275	14473
850.41	14377
850.545	14442
850.68	14377
850.815	14476
850.95	14530
851.085	14575
851.22	14530
851.355	14492
851.49	14389
851.625	14465
851.76	14438
851.895	14332
852.03	14377
852.165	14396
852.299	14415
852.434	14549
852.569	14484
852.703	14450
852.838	14545
852.973	14598
853.107	14579
853.242	14457
853.376	14355
853.511	14218
853.645	14180
853.78	14419
853.914	14305
854.048	14298
854.183	14309
854.317	14374
854.451	14507
854.585	14336
854.72	14343
854.854	14385
854.988	14240
855.122	14298
855.256	14100
855.39	14259
855.524	14415
855.658	14385
855.792	14290
855.926	14351
856.06	14419
856.194	14294
856.327	14256
856.461	14259
856.595	14309
856.729	14298
856.862	14461
856.996	14298
857.13	14423
857.263	14454
857.397	14492
857.53	14362
857.664	14412
857.797	14377
857.931	14427
858.064	14374
858.197	14446
858.331	14332
858.464	14351
858.597	14199
858.731	14374
858.864	14324
858.997	14275
859.13	14381
859.263	14427
859.396	14438
859.529	14332
859.662	14252
859.795	14305
859.928	14332
860.061	14476
860.194	14454
860.327	14301
860.46	14263
860.592	14446
860.725	14495
860.858	14503
860.99	14229
861.123	14180
861.256	14237
861.388	14267
861.521	15085
861.653	14240
861.786	14149
861.918	14172
862.05	14282
862.183	14271
862.315	14358
862.447	14400
862.58	14343
862.712	14172
862.844	13986
862.976	14202
863.108	14172
863.24	14400
863.372	14046
863.504	14092
863.636	14096
863.768	14134
863.9	14088
864.032	14001
864.164	14008
864.296	14172
864.428	14202
864.559	14275
864.691	14138
864.823	14214
864.954	14214
865.086	14111
865.217	14107
865.349	14039
865.48	14043
865.612	14138
865.743	14290
865.875	14054
866.006	14058
866.137	14081
866.269	13993
866.4	14096
866.531	14012
866.662	13955
866.793	14016
866.924	13959
867.055	14084
867.186	13967
867.317	14119
867.448	14077
867.579	14027
867.71	13967
867.841	14043
867.972	14069
868.103	14100
868.233	14050
868.364	14142
868.495	14172
868.625	14366
868.756	14446
868.886	14286
869.017	14290
869.147	14431
869.278	14469
869.408	14381
869.539	14339
869.669	14351
869.799	14389
869.929	14469
870.06	14343
870.19	14663
870.32	14682
870.45	14731
870.58	14727
870.71	14712
870.84	14781
870.97	14872
871.1	14765
871.23	14883
871.36	15001
871.489	14781
871.619	14883
871.749	14899
871.879	15047
872.008	14948
872.138	14891
872.267	14899
872.397	14857
872.526	14781
872.656	14746
872.785	14777
872.915	14910
873.044	15058
873.173	14880
873.303	15039
873.432	15039
873.561	15028
873.69	14883
873.819	14967
873.948	15043
874.077	15020
874.206	15036
874.335	14998
874.464	15123
874.593	15249
874.722	15207
874.851	15279
874.979	15214
875.108	15329
875.237	15252
875.365	15135
875.494	15275
875.623	15393
875.751	15332
875.88	15275
876.008	15428
876.136	15530
876.265	15739
876.393	15816
876.521	15766
876.65	15766
876.778	15652
876.906	15747
877.034	15724
877.162	15652
877.29	15584
877.418	15644
877.546	15808
877.674	15732
877.802	15686
877.93	15736
878.058	15698
878.185	15553
878.313	15755
878.441	15728
878.568	15469
878.696	15591
878.824	15728
878.951	15682
879.079	15884
879.206	15968
879.333	15899
879.461	15816
879.588	15759
879.715	15926
879.842	15922
879.97	15800
880.097	15504
880.224	15561
880.351	15625
880.478	15625
880.605	15553
880.732	15637
880.859	15827
880.986	15507
881.112	15618
881.239	15473
881.366	15416
881.493	15256
881.619	15195
881.746	15226
881.872	15275
881.999	15268
882.125	15184
882.252	15252
882.378	15252
882.505	15428
882.631	15074
882.757	15001
882.883	15070
883.01	15047
883.136	15051
883.262	14929
883.388	14887
883.514	15024
883.64	15024
883.766	14986
883.892	14826
884.018	14937
884.143	14971
884.269	15051
884.395	14785
884.52	14788
884.646	14781
884.772	14686
884.897	14636
885.023	14648
885.148	14823
885.274	14842
885.399	14773
885.524	14720
885.65	14724
885.775	14777
885.9	14819
886.025	14986
886.15	14849
886.275	14727
886.4	14587
886.525	14670
886.65	14697
886.775	14724
886.9	14853
887.025	14876
887.149	14727
887.274	14625
887.399	14587
887.523	14530
887.648	14514
887.773	14442
887.897	14545
888.021	14712
888.146	14473
888.27	14663
888.395	14731
888.519	14617
888.643	14663
888.767	14686
888.891	14370
889.015	14450
889.139	14461
889.263	14385
889.387	14503
889.511	14560
889.635	14640
889.759	14476
889.883	14427
890.006	14404
890.13	14613
890.254	14305
890.377	14355
890.501	14263
890.624	14248
890.748	14267
890.871	14233
890.995	14134
891.118	14012
891.241	14142
891.364	14035
891.488	14313
891.611	14016
891.734	14161
891.857	14252
891.98	14176
892.103	14145
892.226	14134
892.349	14107
892.471	13997
892.594	14123
892.717	14298
892.839	14187
892.962	14103
893.085	14157
893.207	14187
893.33	14062
893.452	13974
893.575	14126
893.697	14077
893.819	14267
893.941	14271
894.064	14317
894.186	14088
894.308	14046
894.43	14180
894.552	14358
894.674	14225
894.796	14123
894.918	14130
895.04	14134
895.161	14210
895.283	14286
895.405	14119
895.526	14286
895.648	14123
895.769	14248
895.891	14301
896.012	14286
896.134	14400
896.255	14298
896.376	14278
896.498	14225
896.619	14355
896.74	14275
896.861	14347
896.982	14518
897.103	14731
897.224	14678
897.345	14606
897.466	14507
897.587	14533
897.708	14686
897.828	14765
897.949	14541
898.07	14427
898.19	14503
898.311	14724
898.431	14625
898.552	14689
898.672	14705
898.792	14765
898.913	14697
899.033	14632
899.153	14488
899.273	14461
899.393	14514
899.513	14442
899.633	14522
899.753	14495
899.873	14560
899.993	14667
900.113	14476
900.232	14541
900.352	14503
900.472	14438
900.591	14351
900.711	14454
900.83	14305
900.95	14488
901.069	14400
901.189	14290
901.308	14134
901.427	14020
901.546	14088
901.665	14103
901.784	14065
901.904	13963
902.023	13845
902.141	13620
902.26	13613
902.379	13632
902.498	13559
902.617	13495
902.735	13647
902.854	13540
902.973	13476
903.091	13346
903.21	13308
903.328	13327
903.446	13278
903.565	13175
903.683	13225
903.801	13118
903.919	13084
904.038	13213
904.156	12996
904.274	13114
904.392	12993
904.51	12954
904.627	13034
904.745	13000
904.863	13057
904.981	12844
905.098	12662
905.216	12627
905.334	12700
905.451	12673
905.569	12696
905.686	12658
905.803	12719
905.921	12467
906.038	12525
906.155	12479
906.272	12429
906.389	12441
906.506	12285
906.623	12254
906.74	12220
906.857	12110
906.974	12232
907.091	12346
907.208	12365
907.324	12247
907.441	12254
907.557	12091
907.674	12057
907.79	11946
907.907	12011
908.023	12049
908.139	12026
908.256	12007
908.372	11984
908.488	11927
908.604	11832
908.72	11813
908.836	11828
908.952	11722
909.068	11767
909.184	11889
909.3	11775
909.415	11836
909.531	11775
909.647	11509
909.762	11532
909.878	11600
909.993	11512
910.108	11524
910.224	11478
910.339	11615
910.454	11558
910.57	11364
910.685	11311
910.8	11634
910.915	11539
911.03	11566
911.145	11277
911.259	11280
911.374	11223
911.489	11223
911.604	11235
911.718	11029
911.833	11029
911.947	11006
912.062	10843
912.176	10976
912.291	10965
912.405	11041
912.519	11159
912.633	11296
912.748	11079
912.862	11037
912.976	10911
913.09	10774
913.204	10881
913.318	10919
913.431	10961
913.545	11018
913.659	10946
913.772	10923
913.886	10843
914	10721
914.113	10885
914.226	10892
914.34	10889
914.453	10687
914.566	10843
914.68	10725
914.793	10706
914.906	10542
915.019	10447
915.132	10440
915.245	10550
915.358	10512
915.47	10531
915.583	10645
915.696	10569
915.809	10683
915.921	10771
916.034	10519
916.146	10421
916.259	10421
916.371	10500
916.483	10569
916.595	10409
916.708	10409
916.82	10413
916.932	10424
917.044	10451
917.156	10535
917.268	10287
917.38	10386
917.491	10333
917.603	10287
917.715	10436
917.826	10470
917.938	10356
918.049	10211
918.161	10382
918.272	10481
918.384	10485
918.495	10375
918.606	10310
918.717	10192
918.828	10257
918.939	10306
919.05	10143
919.161	10207
919.272	10032
919.383	10082
919.494	10204
919.604	10360
919.715	10238
919.826	10162
919.936	10219
920.047	10318
920.157	10257
920.267	10443
920.378	10348
920.488	10234
920.598	10462
920.708	10577
920.818	10447
920.928	10470
921.038	10596
921.148	10516
921.258	10246
921.368	10173
921.477	10112
921.587	10013
921.697	9907
921.806	10128
921.916	10017
922.025	9751
922.134	9823
922.244	9759
922.353	9850
922.462	9698
922.571	9622
922.68	9519
922.789	9447
922.898	9538
923.007	9450
923.116	9576
923.224	9477
923.333	9435
923.442	9397
923.55	9332
923.659	9428
923.767	9431
923.876	9378
923.984	9416
924.092	9268
924.201	9283
924.309	9401
924.417	9340
924.525	9344
924.633	9275
924.741	10154
924.849	9100
924.956	9272
925.064	9089
925.172	9055
925.279	9093
925.387	9150
925.494	9112
925.602	9279
925.709	9207
925.816	9081
925.924	9070
926.031	9230
926.138	9097
926.245	9256
926.352	9081
926.459	9211
926.566	9249
926.673	9051
926.779	8960
926.886	8956
926.993	8902
927.099	8785
927.206	8887
927.312	8781
927.419	8880
927.525	8929
927.631	8971
927.737	8758
927.843	8788
927.95	8640
928.056	8663
928.162	8785
928.267	8766
928.373	9416
928.479	8883
928.585	8651
928.69	8773
928.796	8853
928.901	8708
929.007	8492
929.112	8636
929.218	8617
929.323	8526
929.428	8587
929.533	8670
929.638	8571
929.743	8598
929.848	8568
929.953	8564
930.058	8438
930.163	8320
930.267	8381
930.372	8518
930.477	8324
930.581	8575
930.685	8358
930.79	8290
930.894	8313
930.998	8317
931.103	8461
931.207	8168
931.311	7978
931.415	7951
931.519	7734
931.623	7826
