Data from test_V78500241_2847.txt Node
Date: Fri Mar 25 14:53:32 CST 2022
User: usil
Spectrometer: V785-0024
Trigger mode: 0
Integration Time (sec): 4.000000E-1
Scans to average: 1
Nonlinearity correction enabled: false
Boxcar width: 0
Storing dark spectrum: false
XAxis mode: Wavelengths
Number of Pixels in Spectrum: 1024
>>>>>Begin Spectral Data<<<<<
801.071	21972
801.214	21911
801.356	21667
801.499	21698
801.641	21538
801.783	21367
801.926	21572
802.068	21340
802.211	21291
802.353	21211
802.496	20967
802.638	20948
802.78	20830
802.923	20727
803.065	20796
803.208	20689
803.35	20746
803.492	20883
803.635	20826
803.777	20826
803.919	20918
804.061	20868
804.204	20807
804.346	20765
804.488	20697
804.63	20743
804.773	20533
804.915	20743
805.057	20724
805.199	20602
805.341	20735
805.483	20845
805.626	20705
805.768	20678
805.91	20686
806.052	20613
806.194	20598
806.336	20857
806.478	20617
806.62	20579
806.762	20746
806.904	20868
807.046	21093
807.188	20990
807.33	20963
807.472	21066
807.614	20899
807.756	20910
807.898	20754
808.04	20606
808.182	20724
808.324	20735
808.465	20693
808.607	20857
808.749	21058
808.891	21116
809.033	21192
809.174	21036
809.316	20933
809.458	21062
809.6	20952
809.741	21055
809.883	21116
810.025	21214
810.166	21264
810.308	21241
810.45	21146
810.591	21077
810.733	20994
810.875	20979
811.016	20724
811.158	20826
811.299	20769
811.441	20925
811.582	20891
811.724	20796
811.865	20819
812.007	20781
812.148	20788
812.29	20933
812.431	20971
812.573	20986
812.714	21207
812.855	21226
812.997	21386
813.138	21424
813.279	21485
813.421	21287
813.562	21138
813.703	20918
813.845	20952
813.986	20781
814.127	20537
814.268	20461
814.41	20351
814.551	20320
814.692	20560
814.833	20324
814.974	20263
815.115	20298
815.256	20058
815.397	20176
815.539	20142
815.68	20187
815.821	19997
815.962	20142
816.103	20024
816.244	19776
816.385	19852
816.526	19811
816.666	19605
816.807	19510
816.948	19537
817.089	19681
817.23	19491
817.371	19533
817.512	19419
817.653	19544
817.793	19396
817.934	19502
818.075	19510
818.216	19457
818.356	19430
818.497	19206
818.638	19240
818.778	19122
818.919	19217
819.06	19217
819.2	19187
819.341	19339
819.481	19388
819.622	19510
819.762	19624
819.903	19571
820.043	19483
820.184	19415
820.324	19472
820.465	19594
820.605	19384
820.746	19460
820.886	19343
821.026	19468
821.167	19495
821.307	19438
821.447	19373
821.588	19232
821.728	19183
821.868	19061
822.008	18954
822.149	18916
822.289	18871
822.429	18639
822.569	18608
822.709	18589
822.849	18357
822.99	18391
823.13	18285
823.27	18323
823.41	18083
823.55	18083
823.69	18308
823.83	18083
823.97	18152
824.11	18015
824.25	17931
824.389	17874
824.529	18003
824.669	17874
824.809	17923
824.949	18034
825.089	17958
825.228	17882
825.368	17752
825.508	17802
825.648	17714
825.787	17775
825.927	17790
826.067	17653
826.206	17585
826.346	17775
826.485	17726
826.625	17665
826.765	17859
826.904	17790
827.044	17520
827.183	17528
827.323	17356
827.462	17387
827.601	17402
827.741	17376
827.88	17459
828.02	17398
828.159	17383
828.298	17402
828.437	17516
828.577	17360
828.716	17436
828.855	17379
828.994	17239
829.134	17113
829.273	17090
829.412	17220
829.551	16991
829.69	17067
829.829	17307
829.968	17166
830.107	17208
830.246	17098
830.385	17147
830.524	17136
830.663	16991
830.802	16828
830.941	16812
831.08	16744
831.219	16877
831.357	16786
831.496	16980
831.635	16736
831.774	16668
831.913	16717
832.051	16626
832.19	16478
832.329	16599
832.467	16405
832.606	16443
832.744	16500
832.883	16329
833.022	16314
833.16	16470
833.299	16497
833.437	16485
833.576	16527
833.714	16462
833.852	16523
833.991	16421
834.129	16523
834.267	16542
834.406	16523
834.544	16489
834.682	16459
834.821	16516
834.959	16752
835.097	16573
835.235	16637
835.373	16550
835.511	16615
835.65	16402
835.788	16409
835.926	16280
836.064	16124
836.202	16265
836.34	16409
836.478	16470
836.615	16405
836.753	16398
836.891	16436
837.029	16451
837.167	16436
837.305	16276
837.443	16363
837.58	16207
837.718	16409
837.856	16284
837.993	16230
838.131	16268
838.269	16257
838.406	16287
838.544	16166
838.681	15972
838.819	15983
838.956	15865
839.094	15797
839.231	15960
839.369	15968
839.506	16188
839.643	16109
839.781	15835
839.918	15808
840.055	15892
840.193	15770
840.33	15876
840.467	15781
840.604	15895
840.742	16040
840.879	15709
841.016	15720
841.153	15751
841.29	15934
841.427	15816
841.564	15895
841.701	15835
841.838	15831
841.975	15709
842.112	15743
842.249	15641
842.385	15542
842.522	15739
842.659	15690
842.796	15595
842.933	15603
843.069	15580
843.206	15663
843.343	15713
843.479	15584
843.616	15511
843.752	15393
843.889	15405
844.025	15435
844.162	15329
844.298	15534
844.435	15420
844.571	15336
844.708	15485
844.844	15542
844.98	15519
845.117	15450
845.253	15397
845.389	15268
845.525	15313
845.661	15283
845.798	15157
845.934	15272
846.07	15104
846.206	15264
846.342	15306
846.478	15268
846.614	14918
846.75	14849
846.886	14899
847.022	14986
847.158	15036
847.294	14982
847.429	15085
847.565	14952
847.701	15146
847.837	14697
847.972	14670
848.108	14739
848.244	14819
848.379	14621
848.515	14564
848.65	14522
848.786	14473
848.921	14598
849.057	14716
849.192	14705
849.328	14575
849.463	14613
849.598	14450
849.734	14484
849.869	14370
850.004	14389
850.14	14298
850.275	14374
850.41	14202
850.545	14233
850.68	14298
850.815	14221
850.95	14301
851.085	14568
851.22	14511
851.355	14377
851.49	14343
851.625	14263
851.76	14282
851.895	14305
852.03	14248
852.165	14332
852.299	14271
852.434	14434
852.569	14358
852.703	14355
852.838	14381
852.973	14469
853.107	14480
853.242	14298
853.376	14286
853.511	13967
853.645	14058
853.78	14237
853.914	14210
854.048	14210
854.183	14275
854.317	14237
854.451	14339
854.585	14214
854.72	14130
854.854	14252
854.988	14187
855.122	14164
855.256	13978
855.39	14172
855.524	14305
855.658	14298
855.792	14180
855.926	14275
856.06	14343
856.194	14271
856.327	14233
856.461	14164
856.595	14103
856.729	14202
856.862	14233
856.996	14244
857.13	14256
857.263	14301
857.397	14419
857.53	14267
857.664	14259
857.797	14267
857.931	14278
858.064	14206
858.197	14244
858.331	14229
858.464	14161
858.597	14138
858.731	14138
858.864	14164
858.997	14202
859.13	14206
859.263	14195
859.396	14286
859.529	14172
859.662	14187
859.795	14119
859.928	14256
860.061	14431
860.194	14408
860.327	14256
860.46	14172
860.592	14313
860.725	14366
860.858	14305
860.99	14176
861.123	14149
861.256	14176
861.388	14218
861.521	14769
861.653	14039
861.786	14043
861.918	14119
862.05	14035
862.183	14191
862.315	14111
862.447	14290
862.58	14050
862.712	13967
862.844	13963
862.976	14054
863.108	14050
863.24	14476
863.372	13909
863.504	14046
863.636	14008
863.768	14065
863.9	13978
864.032	13883
864.164	13936
864.296	13993
864.428	14138
864.559	14111
864.691	14005
864.823	14077
864.954	14024
865.086	13947
865.217	13963
865.349	13928
865.48	14046
865.612	14001
865.743	14103
865.875	13959
866.006	13970
866.137	13932
866.269	13963
866.4	13993
866.531	13940
866.662	13845
866.793	13894
866.924	13928
867.055	14043
867.186	13936
867.317	13879
867.448	13811
867.579	13921
867.71	13887
867.841	13883
867.972	13982
868.103	13993
868.233	13955
868.364	13978
868.495	14084
868.625	14161
868.756	14278
868.886	14145
869.017	14142
869.147	14355
869.278	14347
869.408	14263
869.539	14180
869.669	14305
869.799	14263
869.929	14313
870.06	14267
870.19	14564
870.32	14522
870.45	14526
870.58	14568
870.71	14727
870.84	14754
870.97	14560
871.1	14511
871.23	14735
871.36	14785
871.489	14811
871.619	14750
871.749	14807
871.879	14762
872.008	14902
872.138	14883
872.267	14815
872.397	14640
872.526	14659
872.656	14674
872.785	14724
872.915	14883
873.044	14979
873.173	14788
873.303	14891
873.432	14880
873.561	14975
873.69	14876
873.819	14853
873.948	14899
874.077	14906
874.206	14811
874.335	14937
874.464	15039
874.593	15157
874.722	15032
874.851	15142
874.979	15214
875.108	15199
875.237	15154
875.365	15085
875.494	15146
875.623	15184
875.751	15123
875.88	15272
876.008	15275
876.136	15443
876.265	15591
876.393	15732
876.521	15648
876.65	15652
876.778	15568
876.906	15515
877.034	15500
877.162	15511
877.29	15500
877.418	15530
877.546	15595
877.674	15584
877.802	15545
877.93	15599
878.058	15587
878.185	15431
878.313	15603
878.441	15660
878.568	15473
878.696	15466
878.824	15599
878.951	15644
879.079	15785
879.206	15941
879.333	15724
879.461	15595
879.588	15679
879.715	15755
879.842	15922
879.97	15679
880.097	15439
880.224	15370
880.351	15523
880.478	15481
880.605	15481
880.732	15408
880.859	15694
880.986	15504
881.112	15511
881.239	15275
881.366	15184
881.493	15226
881.619	15062
881.746	15108
881.872	15100
881.999	15100
882.125	15161
882.252	15142
882.378	15214
882.505	15195
882.631	15074
882.757	14918
882.883	14906
883.01	14975
883.136	14712
883.262	14777
883.388	14800
883.514	15020
883.64	14872
883.766	14914
883.892	14689
884.018	14811
884.143	14921
884.269	14914
884.395	14644
884.52	14594
884.646	14625
884.772	14530
884.897	14495
885.023	14621
885.148	14861
885.274	14853
885.399	14746
885.524	14682
885.65	14613
885.775	14678
885.9	14693
886.025	14823
886.15	14613
886.275	14625
886.4	14545
886.525	14594
886.65	14495
886.775	14495
886.9	14735
887.025	14876
887.149	14594
887.274	14423
887.399	14408
887.523	14488
887.648	14408
887.773	14347
887.897	14480
888.021	14560
888.146	14374
888.27	14575
888.395	14606
888.519	14598
888.643	14518
888.767	14499
888.891	14385
889.015	14446
889.139	14408
889.263	14370
889.387	14419
889.511	14469
889.635	14355
889.759	14282
889.883	14298
890.006	14465
890.13	14393
890.254	14221
890.377	14298
890.501	14088
890.624	14058
890.748	14180
890.871	14145
890.995	13940
891.118	13932
891.241	14069
891.364	14001
891.488	14183
891.611	14138
891.734	13989
891.857	14058
891.98	14069
892.103	14084
892.226	14073
892.349	13955
892.471	13947
892.594	13982
892.717	14092
892.839	13921
892.962	14031
893.085	14107
893.207	14062
893.33	13993
893.452	14050
893.575	14100
893.697	13921
893.819	14130
893.941	14271
894.064	14275
894.186	14035
894.308	13993
894.43	14119
894.552	14218
894.674	14210
894.796	13989
894.918	14016
895.04	14062
895.161	14168
895.283	14267
895.405	13955
895.526	14065
895.648	14126
895.769	14157
895.891	14164
896.012	14214
896.134	14134
896.255	14221
896.376	14248
896.498	14180
896.619	14267
896.74	14180
896.861	14320
896.982	14465
897.103	14655
897.224	14518
897.345	14476
897.466	14324
897.587	14484
897.708	14625
897.828	14598
897.949	14480
898.07	14343
898.19	14457
898.311	14583
898.431	14492
898.552	14537
898.672	14575
898.792	14583
898.913	14590
899.033	14412
899.153	14461
899.273	14355
899.393	14358
899.513	14408
899.633	14347
899.753	14427
899.873	14400
899.993	14476
900.113	14442
900.232	14450
900.352	14298
900.472	14423
900.591	14237
900.711	14317
900.83	14233
900.95	14324
901.069	14396
901.189	14168
901.308	13982
901.427	13883
901.546	13871
901.665	13974
901.784	14024
901.904	13811
902.023	13742
902.141	13578
902.26	13548
902.379	13548
902.498	13510
902.617	13388
902.735	13510
902.854	13464
902.973	13552
903.091	13282
903.21	13228
903.328	13285
903.446	13141
903.565	13095
903.683	13160
903.801	13015
903.919	13088
904.038	13031
904.156	12829
904.274	12833
904.392	12886
904.51	12905
904.627	12981
904.745	13008
904.863	12932
904.981	12681
905.098	12585
905.216	12593
905.334	12696
905.451	12719
905.569	12593
905.686	12665
905.803	12620
905.921	12490
906.038	12521
906.155	12445
906.272	12296
906.389	12304
906.506	12243
906.623	12186
906.74	12186
906.857	12121
906.974	12049
907.091	12270
907.208	12285
907.324	12205
907.441	12110
907.557	11958
907.674	11912
907.79	11824
907.907	11832
908.023	11920
908.139	11965
908.256	11851
908.372	11824
908.488	11802
908.604	11707
908.72	11718
908.836	11733
908.952	11684
909.068	11714
909.184	11809
909.3	11756
909.415	11767
909.531	11722
909.647	11467
909.762	11486
909.878	11330
909.993	11539
910.108	11433
910.224	11463
910.339	11429
910.454	11391
910.57	11307
910.685	11296
910.8	11585
910.915	11493
911.03	11330
911.145	11239
911.259	11155
911.374	11121
911.489	11124
911.604	11086
911.718	10896
911.833	10908
911.947	10786
912.062	10771
912.176	10885
912.291	10885
912.405	10976
912.519	11109
912.633	11151
912.748	10953
912.862	10831
912.976	10793
913.09	10668
913.204	10592
913.318	10862
913.431	10866
913.545	10850
913.659	10927
913.772	10782
913.886	10759
914	10615
914.113	10873
914.226	10805
914.34	10793
914.453	10626
914.566	10801
914.68	10660
914.793	10641
914.906	10398
915.019	10356
915.132	10367
915.245	10379
915.358	10447
915.47	10462
915.583	10519
915.696	10440
915.809	10618
915.921	10645
916.034	10402
916.146	10375
916.259	10375
916.371	10535
916.483	10409
916.595	10344
916.708	10356
916.82	10424
916.932	10417
917.044	10306
917.156	10333
917.268	10242
917.38	10227
917.491	10204
917.603	10390
917.715	10352
917.826	10322
917.938	10265
918.049	10166
918.161	10185
918.272	10417
918.384	10421
918.495	10280
918.606	10154
918.717	10074
918.828	10158
918.939	10112
919.05	10040
919.161	10105
919.272	9892
919.383	9930
919.494	10257
919.604	10379
919.715	10131
919.826	10112
919.936	10101
920.047	10185
920.157	10257
920.267	10322
920.378	10147
920.488	10109
920.598	10280
920.708	10519
920.818	10303
920.928	10325
921.038	10558
921.148	10531
921.258	10215
921.368	10116
921.477	10086
921.587	10006
921.697	9854
921.806	10029
921.916	9934
922.025	9778
922.134	9713
922.244	9705
922.353	9766
922.462	9549
922.571	9561
922.68	9355
922.789	9401
922.898	9420
923.007	9340
923.116	9374
923.224	9488
923.333	9332
923.442	9340
923.55	9359
923.659	9344
923.767	9424
923.876	9302
923.984	9473
924.092	9214
924.201	9370
924.309	9367
924.417	9325
924.525	9233
924.633	9256
924.741	10196
924.849	9123
924.956	9249
925.064	9104
925.172	9032
925.279	9077
925.387	9089
925.494	9074
925.602	9249
925.709	9180
925.816	9043
925.924	9123
926.031	9233
926.138	9135
926.245	9192
926.352	9039
926.459	9157
926.566	9268
926.673	9051
926.779	9020
926.886	8967
926.993	8819
927.099	8906
927.206	8815
927.312	8746
927.419	8895
927.525	8811
927.631	8929
927.737	8834
927.843	8697
927.95	8678
928.056	8689
928.162	8708
928.267	8727
928.373	9332
928.479	8883
928.585	8560
928.69	8750
928.796	8769
928.901	8651
929.007	8495
929.112	8560
929.218	8583
929.323	8602
929.428	8556
929.533	8701
929.638	8522
929.743	8499
929.848	8610
929.953	8549
930.058	8473
930.163	8301
930.267	8389
930.372	8438
930.477	8282
930.581	8556
930.685	8438
930.79	8244
930.894	8355
930.998	8233
931.103	8419
931.207	8092
931.311	8008
931.415	7982
931.519	7765
931.623	7769
