Data from test_V78500241_3062.txt Node
Date: Fri Mar 25 14:55:02 CST 2022
User: usil
Spectrometer: V785-0024
Trigger mode: 0
Integration Time (sec): 4.000000E-1
Scans to average: 1
Nonlinearity correction enabled: false
Boxcar width: 0
Storing dark spectrum: false
XAxis mode: Wavelengths
Number of Pixels in Spectrum: 1024
>>>>>Begin Spectral Data<<<<<
801.071	21979
801.214	21838
801.356	21701
801.499	21637
801.641	21507
801.783	21340
801.926	21424
802.068	21466
802.211	21344
802.353	21218
802.496	21108
802.638	20948
802.78	20918
802.923	20952
803.065	20727
803.208	20773
803.35	20716
803.492	20830
803.635	20842
803.777	20807
803.919	20819
804.061	21085
804.204	20788
804.346	20724
804.488	20564
804.63	20777
804.773	20632
804.915	20693
805.057	20842
805.199	20518
805.341	20727
805.483	20739
805.626	20807
805.768	20686
805.91	20785
806.052	20811
806.194	20613
806.336	20826
806.478	20705
806.62	20609
806.762	20659
806.904	20944
807.046	21123
807.188	20971
807.33	20986
807.472	21058
807.614	20975
807.756	20925
807.898	20899
808.04	20720
808.182	20781
808.324	20792
808.465	20876
808.607	20960
808.749	21020
808.891	21127
809.033	21260
809.174	21036
809.316	21096
809.458	21074
809.6	20971
809.741	21051
809.883	21161
810.025	21100
810.166	21207
810.308	21268
810.45	21150
810.591	21116
810.733	20986
810.875	20948
811.016	20811
811.158	20705
811.299	20902
811.441	20960
811.582	20918
811.724	20731
811.865	20804
812.007	20765
812.148	20743
812.29	20811
812.431	21013
812.573	21074
812.714	21195
812.855	21279
812.997	21336
813.138	21496
813.279	21435
813.421	21332
813.562	21351
813.703	21093
813.845	20963
813.986	20674
814.127	20518
814.268	20267
814.41	20358
814.551	20362
814.692	20351
814.833	20271
814.974	20233
815.115	20404
815.256	20248
815.397	20248
815.539	20157
815.68	20134
815.821	20001
815.962	20168
816.103	20012
816.244	19997
816.385	19883
816.526	19784
816.666	19635
816.807	19415
816.948	19670
817.089	19597
817.23	19601
817.371	19548
817.512	19445
817.653	19441
817.793	19502
817.934	19594
818.075	19533
818.216	19400
818.356	19411
818.497	19400
818.638	19225
818.778	19095
818.919	19278
819.06	19285
819.2	19247
819.341	19430
819.481	19373
819.622	19510
819.762	19693
819.903	19556
820.043	19559
820.184	19476
820.324	19472
820.465	19453
820.605	19487
820.746	19441
820.886	19316
821.026	19407
821.167	19407
821.307	19480
821.447	19350
821.588	19266
821.728	19088
821.868	18924
822.008	18985
822.149	18958
822.289	18985
822.429	18597
822.569	18574
822.709	18544
822.849	18410
822.99	18426
823.13	18376
823.27	18308
823.41	18235
823.55	18091
823.69	18243
823.83	18171
823.97	18182
824.11	17912
824.25	17931
824.389	17999
824.529	17912
824.669	17920
824.809	17946
824.949	18072
825.089	17992
825.228	17904
825.368	17824
825.508	17775
825.648	17783
825.787	17783
825.927	17741
826.067	17733
826.206	17733
826.346	17783
826.485	17672
826.625	17558
826.765	17809
826.904	17687
827.044	17501
827.183	17490
827.323	17379
827.462	17493
827.601	17433
827.741	17493
827.88	17410
828.02	17208
828.159	17273
828.298	17368
828.437	17493
828.577	17280
828.716	17391
828.855	17296
828.994	17166
829.134	17246
829.273	17117
829.412	17140
829.551	16999
829.69	17071
829.829	17136
829.968	17296
830.107	17181
830.246	17105
830.385	17025
830.524	17014
830.663	16949
830.802	16824
830.941	16759
831.08	16752
831.219	16843
831.357	16786
831.496	16984
831.635	16782
831.774	16664
831.913	16706
832.051	16558
832.19	16504
832.329	16447
832.467	16481
832.606	16344
832.744	16451
832.883	16481
833.022	16459
833.16	16455
833.299	16516
833.437	16432
833.576	16550
833.714	16462
833.852	16470
833.991	16474
834.129	16546
834.267	16447
834.406	16573
834.544	16592
834.682	16451
834.821	16535
834.959	16561
835.097	16573
835.235	16485
835.373	16451
835.511	16531
835.65	16337
835.788	16382
835.926	16280
836.064	16124
836.202	16272
836.34	16451
836.478	16405
836.615	16303
836.753	16371
836.891	16440
837.029	16386
837.167	16344
837.305	16348
837.443	16344
837.58	16306
837.718	16211
837.856	16390
837.993	16154
838.131	16246
838.269	16230
838.406	16150
838.544	16219
838.681	15903
838.819	15964
838.956	15869
839.094	15781
839.231	15823
839.369	15964
839.506	16219
839.643	16021
839.781	15797
839.918	15808
840.055	15850
840.193	15781
840.33	15778
840.467	15854
840.604	15911
840.742	16120
840.879	15633
841.016	15667
841.153	15694
841.29	15892
841.427	15854
841.564	15778
841.701	15793
841.838	15808
841.975	15720
842.112	15652
842.249	15561
842.385	15530
842.522	15682
842.659	15618
842.796	15576
842.933	15557
843.069	15644
843.206	15530
843.343	15682
843.479	15542
843.616	15507
843.752	15447
843.889	15359
844.025	15553
844.162	15428
844.298	15431
844.435	15378
844.571	15287
844.708	15412
844.844	15515
844.98	15572
845.117	15477
845.253	15344
845.389	15203
845.525	15222
845.661	15351
845.798	15127
845.934	15176
846.07	15108
846.206	15188
846.342	15264
846.478	15142
846.614	15123
846.75	14948
846.886	14933
847.022	15051
847.158	15005
847.294	14929
847.429	14853
847.565	14960
847.701	15222
847.837	14640
847.972	14697
848.108	14872
848.244	14724
848.379	14590
848.515	14571
848.65	14522
848.786	14541
848.921	14488
849.057	14697
849.192	14625
849.328	14556
849.463	14659
849.598	14461
849.734	14488
849.869	14347
850.004	14294
850.14	14298
850.275	14294
850.41	14210
850.545	14259
850.68	14355
850.815	14362
850.95	14256
851.085	14511
851.22	14465
851.355	14298
851.49	14210
851.625	14259
851.76	14248
851.895	14126
852.03	14195
852.165	14263
852.299	14301
852.434	14328
852.569	14336
852.703	14237
852.838	14419
852.973	14480
853.107	14438
853.242	14290
853.376	14096
853.511	14001
853.645	14069
853.78	14271
853.914	14248
854.048	14195
854.183	14096
854.317	14142
854.451	14355
854.585	14103
854.72	14130
854.854	14248
854.988	14130
855.122	14062
855.256	14096
855.39	14263
855.524	14191
855.658	14221
855.792	14123
855.926	14233
856.06	14153
856.194	14301
856.327	14214
856.461	14138
856.595	14073
856.729	14149
856.862	14271
856.996	14202
857.13	14149
857.263	14225
857.397	14298
857.53	14134
857.664	14218
857.797	14263
857.931	14347
858.064	14149
858.197	14309
858.331	14138
858.464	14138
858.597	14100
858.731	14115
858.864	14069
858.997	14180
859.13	14149
859.263	14229
859.396	14259
859.529	14123
859.662	14069
859.795	14115
859.928	14100
860.061	14351
860.194	14290
860.327	14214
860.46	14050
860.592	14347
860.725	14404
860.858	14347
860.99	14168
861.123	14050
861.256	13928
861.388	14126
861.521	14743
861.653	13978
861.786	13986
861.918	13993
862.05	14092
862.183	14126
862.315	14111
862.447	14111
862.58	14142
862.712	13993
862.844	14016
862.976	14001
863.108	14012
863.24	14111
863.372	13883
863.504	13940
863.636	13963
863.768	14012
863.9	13963
864.032	13875
864.164	13909
864.296	14005
864.428	14069
864.559	14077
864.691	14054
864.823	13921
864.954	13913
865.086	14039
865.217	13921
865.349	13951
865.48	13890
865.612	14084
865.743	14088
865.875	14016
866.006	13852
866.137	13917
866.269	13944
866.4	13898
866.531	13849
866.662	13803
866.793	13959
866.924	13913
867.055	13898
867.186	14035
867.317	13871
867.448	13830
867.579	13940
867.71	13845
867.841	13765
867.972	13947
868.103	13906
868.233	13909
868.364	13921
868.495	14001
868.625	14191
868.756	14290
868.886	14058
869.017	14123
869.147	14282
869.278	14351
869.408	14256
869.539	14176
869.669	14301
869.799	14218
869.929	14294
870.06	14244
870.19	14484
870.32	14507
870.45	14431
870.58	14530
870.71	14697
870.84	14659
870.97	14571
871.1	14488
871.23	14842
871.36	14823
871.489	14697
871.619	14701
871.749	14762
871.879	14804
872.008	14899
872.138	14804
872.267	14743
872.397	14735
872.526	14659
872.656	14651
872.785	14610
872.915	14823
873.044	14880
873.173	14902
873.303	14826
873.432	14933
873.561	14826
873.69	14861
873.819	14986
873.948	14960
874.077	14849
874.206	14887
874.335	14834
874.464	14906
874.593	15024
874.722	15032
874.851	15180
874.979	15180
875.108	15237
875.237	15173
875.365	15146
875.494	15169
875.623	15214
875.751	15100
875.88	15180
876.008	15230
876.136	15329
876.265	15595
876.393	15743
876.521	15671
876.65	15656
876.778	15587
876.906	15507
877.034	15443
877.162	15614
877.29	15447
877.418	15564
877.546	15576
877.674	15580
877.802	15644
877.93	15561
878.058	15603
878.185	15435
878.313	15488
878.441	15538
878.568	15408
878.696	15561
878.824	15595
878.951	15656
879.079	15663
879.206	15770
879.333	15698
879.461	15595
879.588	15667
879.715	15739
879.842	15857
879.97	15625
880.097	15370
880.224	15386
880.351	15428
880.478	15450
880.605	15344
880.732	15481
880.859	15637
880.986	15519
881.112	15428
881.239	15351
881.366	15135
881.493	15100
881.619	15020
881.746	15112
881.872	15112
881.999	14986
882.125	15047
882.252	15047
882.378	15074
882.505	15233
882.631	15013
882.757	14849
882.883	14921
883.01	14941
883.136	14826
883.262	14826
883.388	14712
883.514	14925
883.64	14902
883.766	14906
883.892	14686
884.018	14724
884.143	14781
884.269	14941
884.395	14648
884.52	14450
884.646	14625
884.772	14507
884.897	14503
885.023	14651
885.148	14670
885.274	14743
885.399	14705
885.524	14571
885.65	14545
885.775	14610
885.9	14564
886.025	14720
886.15	14663
886.275	14492
886.4	14465
886.525	14556
886.65	14503
886.775	14606
886.9	14670
887.025	14838
887.149	14648
887.274	14370
887.399	14366
887.523	14366
887.648	14317
887.773	14507
887.897	14457
888.021	14393
888.146	14499
888.27	14473
888.395	14484
888.519	14518
888.643	14541
888.767	14488
888.891	14423
889.015	14309
889.139	14282
889.263	14252
889.387	14355
889.511	14579
889.635	14503
889.759	14259
889.883	14313
890.006	14290
890.13	14389
890.254	14199
890.377	14240
890.501	14107
890.624	14081
890.748	14210
890.871	14005
890.995	13940
891.118	13936
891.241	14020
891.364	13963
891.488	14229
891.611	13974
891.734	13955
891.857	14020
891.98	14058
892.103	14100
892.226	14050
892.349	14031
892.471	13830
892.594	13963
892.717	13978
892.839	14081
892.962	13940
893.085	14107
893.207	13978
893.33	13765
893.452	13849
893.575	14073
893.697	13989
893.819	14199
893.941	14282
894.064	14164
894.186	13963
894.308	14001
894.43	14069
894.552	14275
894.674	14210
894.796	13890
894.918	14050
895.04	14111
895.161	14115
895.283	14149
895.405	14050
895.526	14031
895.648	14069
895.769	14237
895.891	14157
896.012	14206
896.134	14187
896.255	14157
896.376	14168
896.498	14157
896.619	14218
896.74	14252
896.861	14305
896.982	14476
897.103	14610
897.224	14488
897.345	14465
897.466	14393
897.587	14412
897.708	14537
897.828	14507
897.949	14377
898.07	14263
898.19	14393
898.311	14594
898.431	14511
898.552	14549
898.672	14629
898.792	14674
898.913	14507
899.033	14480
899.153	14358
899.273	14355
899.393	14347
899.513	14286
899.633	14305
899.753	14389
899.873	14385
899.993	14404
900.113	14389
900.232	14492
900.352	14358
900.472	14278
900.591	14214
900.711	14324
900.83	14199
900.95	14267
901.069	14404
901.189	14233
901.308	14001
901.427	13932
901.546	13997
901.665	13902
901.784	13811
901.904	13757
902.023	13807
902.141	13613
902.26	13468
902.379	13586
902.498	13521
902.617	13453
902.735	13483
902.854	13472
902.973	13354
903.091	13156
903.21	13202
903.328	13324
903.446	13137
903.565	13053
903.683	13057
903.801	13000
903.919	13175
904.038	12970
904.156	12871
904.274	12939
904.392	12867
904.51	12897
904.627	12829
904.745	12928
904.863	12859
904.981	12722
905.098	12601
905.216	12582
905.334	12578
905.451	12513
905.569	12479
905.686	12597
905.803	12490
905.921	12475
906.038	12559
906.155	12384
906.272	12201
906.389	12273
906.506	12155
906.623	12072
906.74	12216
906.857	11942
906.974	12083
907.091	12190
907.208	12323
907.324	12209
907.441	12015
907.557	11836
907.674	11935
907.79	11809
907.907	11866
908.023	11889
908.139	11942
908.256	11923
908.372	11813
908.488	11745
908.604	11684
908.72	11699
908.836	11661
908.952	11562
909.068	11646
909.184	11790
909.3	11691
909.415	11722
909.531	11752
909.647	11402
909.762	11448
909.878	11433
909.993	11429
910.108	11429
910.224	11440
910.339	11433
910.454	11326
910.57	11250
910.685	11242
910.8	11551
910.915	11410
911.03	11337
911.145	11159
911.259	11143
911.374	11136
911.489	11121
911.604	10934
911.718	10908
911.833	10942
911.947	10843
912.062	10763
912.176	10869
912.291	10911
912.405	10904
912.519	11147
912.633	11136
912.748	10980
912.862	10915
912.976	10797
913.09	10691
913.204	10721
913.318	10744
913.431	10976
913.545	10786
913.659	10915
913.772	10805
913.886	10637
914	10649
914.113	10729
914.226	10736
914.34	10744
914.453	10565
914.566	10668
914.68	10656
914.793	10588
914.906	10432
915.019	10478
915.132	10344
915.245	10299
915.358	10325
915.47	10436
915.583	10432
915.696	10512
915.809	10516
915.921	10592
916.034	10375
916.146	10440
916.259	10325
916.371	10421
916.483	10405
916.595	10341
916.708	10318
916.82	10363
916.932	10299
917.044	10348
917.156	10325
917.268	10227
917.38	10261
917.491	10192
917.603	10242
917.715	10303
917.826	10318
917.938	10207
918.049	10063
918.161	10200
918.272	10329
918.384	10379
918.495	10238
918.606	10131
918.717	10059
918.828	10101
918.939	10166
919.05	9998
919.161	10112
919.272	9907
919.383	10032
919.494	10093
919.604	10344
919.715	10169
919.826	10044
919.936	10055
920.047	10196
920.157	10204
920.267	10379
920.378	10188
920.488	10120
920.598	10303
920.708	10466
920.818	10310
920.928	10341
921.038	10561
921.148	10485
921.258	10192
921.368	10105
921.477	9964
921.587	10017
921.697	9918
921.806	9911
921.916	9915
922.025	9736
922.134	9713
922.244	9724
922.353	9751
922.462	9561
922.571	9572
922.68	9435
922.789	9428
922.898	9367
923.007	9355
923.116	9488
923.224	9504
923.333	9374
923.442	9294
923.55	9241
923.659	9329
923.767	9363
923.876	9264
923.984	9294
924.092	9199
924.201	9291
924.309	9272
924.417	9329
924.525	9195
924.633	9199
924.741	10051
924.849	9070
924.956	9192
925.064	9070
925.172	9005
925.279	9020
925.387	9062
925.494	9005
925.602	9165
925.709	9157
925.816	8971
925.924	9020
926.031	9123
926.138	9093
926.245	9142
926.352	8975
926.459	9119
926.566	9176
926.673	8963
926.779	8963
926.886	8948
926.993	8811
927.099	8773
927.206	8716
927.312	8758
927.419	8811
927.525	8746
927.631	8819
927.737	8766
927.843	8731
927.95	8617
928.056	8678
928.162	8705
928.267	8804
928.373	9211
928.479	8785
928.585	8552
928.69	8670
928.796	8766
928.901	8602
929.007	8473
929.112	8613
929.218	8568
929.323	8556
929.428	8507
929.533	8674
929.638	8457
929.743	8484
929.848	8450
929.953	8461
930.058	8450
930.163	8237
930.267	8259
930.372	8412
930.477	8218
930.581	8480
930.685	8351
930.79	8271
930.894	8195
930.998	8145
931.103	8393
931.207	8005
931.311	7951
931.415	7909
931.519	7765
931.623	7712
