Data from test_V78500241_1096.txt Node
Date: Fri Mar 25 14:41:20 CST 2022
User: usil
Spectrometer: V785-0024
Trigger mode: 0
Integration Time (sec): 4.000000E-1
Scans to average: 1
Nonlinearity correction enabled: false
Boxcar width: 0
Storing dark spectrum: false
XAxis mode: Wavelengths
Number of Pixels in Spectrum: 1024
>>>>>Begin Spectral Data<<<<<
801.071	22683
801.214	22512
801.356	22413
801.499	22234
801.641	22029
801.783	22036
801.926	22116
802.068	21983
802.211	21926
802.353	21808
802.496	21675
802.638	21504
802.78	21408
802.923	21321
803.065	21298
803.208	21348
803.35	21348
803.492	21500
803.635	21504
803.777	21348
803.919	21344
804.061	21812
804.204	21344
804.346	21249
804.488	21283
804.63	21363
804.773	21218
804.915	21237
805.057	21405
805.199	21302
805.341	21374
805.483	21424
805.626	21325
805.768	21287
805.91	21233
806.052	21302
806.194	21199
806.336	21359
806.478	21252
806.62	21287
806.762	21367
806.904	21545
807.046	21774
807.188	21804
807.33	21644
807.472	21720
807.614	21720
807.756	21701
807.898	21561
808.04	21542
808.182	21587
808.324	21720
808.465	21819
808.607	21930
808.749	22029
808.891	22158
809.033	22344
809.174	22230
809.316	21949
809.458	21994
809.6	21991
809.741	22032
809.883	21892
810.025	21964
810.166	21934
810.308	21937
810.45	21979
810.591	21907
810.733	21736
810.875	21622
811.016	21549
811.158	21488
811.299	21583
811.441	21667
811.582	21580
811.724	21473
811.865	21622
812.007	21557
812.148	21500
812.29	21606
812.431	21656
812.573	21823
812.714	21998
812.855	22032
812.997	22112
813.138	22211
813.279	22086
813.421	22093
813.562	21915
813.703	21793
813.845	21770
813.986	21488
814.127	21306
814.268	21123
814.41	21150
814.551	21146
814.692	21249
814.833	20925
814.974	20933
815.115	21074
815.256	20914
815.397	20921
815.539	20906
815.68	20804
815.821	20746
815.962	20769
816.103	20887
816.244	20606
816.385	20613
816.526	20537
816.666	20366
816.807	20119
816.948	20305
817.089	20290
817.23	20252
817.371	20168
817.512	20183
817.653	20161
817.793	20092
817.934	20237
818.075	20244
818.216	20301
818.356	20176
818.497	19986
818.638	19921
818.778	19753
818.919	19959
819.06	19864
819.2	20062
819.341	20046
819.481	20107
819.622	20221
819.762	20454
819.903	20362
820.043	20282
820.184	20142
820.324	20290
820.465	20301
820.605	20183
820.746	20252
820.886	20153
821.026	20172
821.167	20153
821.307	20195
821.447	20100
821.588	20084
821.728	19906
821.868	19685
822.008	19723
822.149	19681
822.289	19468
822.429	19297
822.569	19312
822.709	19365
822.849	19107
822.99	19118
823.13	19129
823.27	19141
823.41	18947
823.55	18791
823.69	18772
823.83	18951
823.97	18859
824.11	18673
824.25	18677
824.389	18559
824.529	18779
824.669	18726
824.809	18707
824.949	18859
825.089	18722
825.228	18677
825.368	18528
825.508	18544
825.648	18483
825.787	18471
825.927	18601
826.067	18490
826.206	18475
826.346	18517
826.485	18456
826.625	18445
826.765	18585
826.904	18448
827.044	18232
827.183	18155
827.323	18197
827.462	18167
827.601	18117
827.741	18152
827.88	18167
828.02	18091
828.159	18091
828.298	18155
828.437	18205
828.577	18213
828.716	18254
828.855	18079
828.994	17980
829.134	17885
829.273	17946
829.412	17931
829.551	17885
829.69	17931
829.829	17878
829.968	18038
830.107	18007
830.246	17927
830.385	17874
830.524	17745
830.663	17805
830.802	17600
830.941	17547
831.08	17463
831.219	17684
831.357	17577
831.496	17859
831.635	17573
831.774	17452
831.913	17490
832.051	17353
832.19	17307
832.329	17356
832.467	17303
832.606	17322
832.744	17337
832.883	17208
833.022	17159
833.16	17299
833.299	17277
833.437	17246
833.576	17193
833.714	17250
833.852	17353
833.991	17334
834.129	17402
834.267	17368
834.406	17277
834.544	17383
834.682	17299
834.821	17360
834.959	17490
835.097	17273
835.235	17341
835.373	17421
835.511	17383
835.65	17159
835.788	17231
835.926	17067
836.064	17003
836.202	16946
836.34	17242
836.478	17220
836.615	17155
836.753	17299
836.891	17303
837.029	17197
837.167	17162
837.305	17147
837.443	17056
837.58	17014
837.718	17239
837.856	17109
837.993	17060
838.131	17056
838.269	16968
838.406	17086
838.544	16953
838.681	16793
838.819	16767
838.956	16508
839.094	16645
839.231	16649
839.369	16801
839.506	16991
839.643	16866
839.781	16672
839.918	16592
840.055	16497
840.193	16599
840.33	16523
840.467	16554
840.604	16561
840.742	16828
840.879	16382
841.016	16546
841.153	16504
841.29	16664
841.427	16660
841.564	16611
841.701	16615
841.838	16592
841.975	16519
842.112	16584
842.249	16322
842.385	16402
842.522	16497
842.659	16413
842.796	16329
842.933	16451
843.069	16306
843.206	16352
843.343	16451
843.479	16360
843.616	16409
843.752	16112
843.889	16154
844.025	16242
844.162	16162
844.298	16295
844.435	16257
844.571	16078
844.708	16253
844.844	16341
844.98	16413
845.117	16280
845.253	16116
845.389	16223
845.525	16226
845.661	16238
845.798	16318
845.934	16527
846.07	16421
846.206	16531
846.342	16538
846.478	16196
846.614	15922
846.75	15747
846.886	15785
847.022	15873
847.158	15793
847.294	15698
847.429	15789
847.565	15717
847.701	16036
847.837	15542
847.972	15439
848.108	15572
848.244	15447
848.379	15306
848.515	15355
848.65	15241
848.786	15397
848.921	15321
849.057	15386
849.192	15386
849.328	15313
849.463	15420
849.598	15241
849.734	15264
849.869	15173
850.004	15131
850.14	15112
850.275	15123
850.41	15005
850.545	15005
850.68	15020
850.815	15077
850.95	15074
851.085	15226
851.22	15211
851.355	15138
851.49	15089
851.625	15024
851.76	15036
851.895	14963
852.03	15013
852.165	15150
852.299	15062
852.434	15157
852.569	15024
852.703	15062
852.838	15127
852.973	15252
853.107	15268
853.242	15009
853.376	15032
853.511	14868
853.645	14883
853.78	15131
853.914	15036
854.048	14861
854.183	14990
854.317	14899
854.451	15135
854.585	14960
854.72	14864
854.854	15024
854.988	14887
855.122	14933
855.256	14845
855.39	14925
855.524	15005
855.658	15017
855.792	14895
855.926	15093
856.06	14960
856.194	14998
856.327	14948
856.461	14887
856.595	14933
856.729	14880
856.862	15020
856.996	14956
857.13	14918
857.263	15089
857.397	15020
857.53	14902
857.664	15104
857.797	15036
857.931	15024
858.064	14933
858.197	15112
858.331	14944
858.464	14876
858.597	14777
858.731	14937
858.864	14918
858.997	14891
859.13	14891
859.263	14967
859.396	15039
859.529	15036
859.662	14895
859.795	14906
859.928	14986
860.061	15104
860.194	15169
860.327	14971
860.46	14956
860.592	15123
860.725	15127
860.858	15009
860.99	14948
861.123	14830
861.256	14880
861.388	14948
861.521	15686
861.653	14933
861.786	14720
861.918	14800
862.05	14804
862.183	14834
862.315	14918
862.447	14929
862.58	14834
862.712	14617
862.844	14651
862.976	14819
863.108	14842
863.24	15100
863.372	14697
863.504	14697
863.636	14754
863.768	14735
863.9	14724
864.032	14644
864.164	14579
864.296	14659
864.428	14758
864.559	14769
864.691	14807
864.823	14792
864.954	14697
865.086	14724
865.217	14689
865.349	14590
865.48	14689
865.612	14678
865.743	14800
865.875	14727
866.006	14590
866.137	14651
866.269	14636
866.4	14606
866.531	14727
866.662	14594
866.793	14598
866.924	14644
867.055	14617
867.186	14625
867.317	14610
867.448	14590
867.579	14644
867.71	14682
867.841	14602
867.972	14670
868.103	14651
868.233	14712
868.364	14636
868.495	14796
868.625	14960
868.756	15062
868.886	14849
869.017	14880
869.147	14986
869.278	15005
869.408	14899
869.539	14952
869.669	15058
869.799	15001
869.929	14967
870.06	15055
870.19	15260
870.32	15165
870.45	15226
870.58	15275
870.71	15458
870.84	15382
870.97	15291
871.1	15241
871.23	15435
871.36	15538
871.489	15477
871.619	15408
871.749	15420
871.879	15557
872.008	15557
872.138	15454
872.267	15500
872.397	15515
872.526	15466
872.656	15374
872.785	15355
872.915	15656
873.044	15667
873.173	15549
873.303	15526
873.432	15500
873.561	15599
873.69	15671
873.819	15473
873.948	15603
874.077	15603
874.206	15584
874.335	15603
874.464	15755
874.593	15846
874.722	15857
874.851	15930
874.979	15880
875.108	15941
875.237	15869
875.365	15800
875.494	15842
875.623	15823
875.751	15949
875.88	16010
876.008	16025
876.136	16002
876.265	16242
876.393	16394
876.521	16371
876.65	16352
876.778	16344
876.906	16230
877.034	16211
877.162	16147
877.29	16200
877.418	16367
877.546	16325
877.674	16299
877.802	16314
877.93	16333
878.058	16249
878.185	16219
878.313	16375
878.441	16390
878.568	16242
878.696	16185
878.824	16329
878.951	16451
879.079	16599
879.206	16672
879.333	16664
879.461	16645
879.588	16691
879.715	16725
879.842	16729
879.97	16565
880.097	16284
880.224	16253
880.351	16200
880.478	16265
880.605	16261
880.732	16238
880.859	16489
880.986	16226
881.112	16207
881.239	16086
881.366	15998
881.493	15869
881.619	15835
881.746	15861
881.872	15903
881.999	15804
882.125	15766
882.252	15838
882.378	15857
882.505	15884
882.631	15861
882.757	15671
882.883	15679
883.01	15652
883.136	15671
883.262	15534
883.388	15443
883.514	15701
883.64	15808
883.766	15545
883.892	15477
884.018	15519
884.143	15675
884.269	15671
884.395	15435
884.52	15412
884.646	15279
884.772	15192
884.897	15310
885.023	15340
885.148	15485
885.274	15504
885.399	15439
885.524	15256
885.65	15363
885.775	15386
885.9	15306
886.025	15412
886.15	15367
886.275	15214
886.4	15287
886.525	15230
886.65	15188
886.775	15294
886.9	15408
887.025	15542
887.149	15367
887.274	15207
887.399	15108
887.523	15184
887.648	15055
887.773	15077
887.897	15256
888.021	15116
888.146	15070
888.27	15203
888.395	15256
888.519	15207
888.643	15260
888.767	15169
888.891	15017
889.015	14921
889.139	15043
889.263	14986
889.387	15093
889.511	15169
889.635	15195
889.759	14906
889.883	14960
890.006	15055
890.13	15131
890.254	14944
890.377	14910
890.501	14796
890.624	14762
890.748	14876
890.871	14746
890.995	14587
891.118	14533
891.241	14648
891.364	14708
891.488	14792
891.611	14636
891.734	14739
891.857	14678
891.98	14701
892.103	14769
892.226	14689
892.349	14705
892.471	14499
892.594	14648
892.717	14708
892.839	14617
892.962	14686
893.085	14743
893.207	14708
893.33	14499
893.452	14552
893.575	14682
893.697	14720
893.819	14765
893.941	14849
894.064	14762
894.186	14594
894.308	14655
894.43	14796
894.552	14868
894.674	14807
894.796	14617
894.918	14682
895.04	14655
895.161	14883
895.283	14815
895.405	14610
895.526	14716
895.648	14796
895.769	14819
895.891	14785
896.012	14887
896.134	14826
896.255	14765
896.376	14705
896.498	14861
896.619	14906
896.74	14823
896.861	14781
896.982	15135
897.103	15272
897.224	15116
897.345	15100
897.466	15093
897.587	15081
897.708	15138
897.828	15195
897.949	15074
898.07	14941
898.19	15017
898.311	15214
898.431	15150
898.552	15165
898.672	15154
898.792	15195
898.913	15173
899.033	15089
899.153	15077
899.273	14872
899.393	15055
899.513	15032
899.633	14925
899.753	15036
899.873	15020
899.993	15020
900.113	14967
900.232	14967
900.352	14990
900.472	14902
900.591	14800
900.711	14872
900.83	14819
900.95	15013
901.069	14872
901.189	14712
901.308	14511
901.427	14537
901.546	14450
901.665	14541
901.784	14457
901.904	14476
902.023	14286
902.141	14142
902.26	14161
902.379	14062
902.498	14126
902.617	14008
902.735	14073
902.854	14046
902.973	14065
903.091	13795
903.21	13712
903.328	13734
903.446	13704
903.565	13655
903.683	13685
903.801	13518
903.919	13491
904.038	13620
904.156	13449
904.274	13590
904.392	13388
904.51	13350
904.627	13453
904.745	13552
904.863	13514
904.981	13289
905.098	13114
905.216	13031
905.334	13202
905.451	13133
905.569	13141
905.686	13057
905.803	13194
905.921	12878
906.038	12993
906.155	12878
906.272	12802
906.389	12844
906.506	12749
906.623	12745
906.74	12696
906.857	12585
906.974	12589
907.091	12719
907.208	12852
907.324	12665
907.441	12631
907.557	12536
907.674	12506
907.79	12380
907.907	12475
908.023	12448
908.139	12498
908.256	12441
908.372	12486
908.488	12334
908.604	12235
908.72	12129
908.836	12201
908.952	12136
909.068	12213
909.184	12155
909.3	12201
909.415	12220
909.531	12175
909.647	11942
909.762	12022
909.878	11950
909.993	12083
910.108	11942
910.224	11836
910.339	11950
910.454	11920
910.57	11809
910.685	11809
910.8	12015
910.915	11980
911.03	11855
911.145	11608
911.259	11551
911.374	11741
911.489	11554
911.604	11592
911.718	11429
911.833	11497
911.947	11250
912.062	11265
912.176	11376
912.291	11505
912.405	11440
912.519	11688
912.633	11665
912.748	11505
912.862	11509
912.976	11292
913.09	11159
913.204	11258
913.318	11269
913.431	11410
913.545	11425
913.659	11372
913.772	11254
913.886	11136
914	11098
914.113	11212
914.226	11277
914.34	11185
914.453	11075
914.566	11254
914.68	11178
914.793	11117
914.906	10930
915.019	10873
915.132	10816
915.245	10778
915.358	10908
915.47	10949
915.583	10896
915.696	10858
915.809	10965
915.921	11109
916.034	10877
916.146	10873
916.259	10862
916.371	10892
916.483	10904
916.595	10733
916.708	10858
916.82	10828
916.932	10831
917.044	10828
917.156	10797
917.268	10687
917.38	10668
917.491	10706
917.603	10839
917.715	10820
917.826	10767
917.938	10786
918.049	10626
918.161	10717
918.272	10862
918.384	10797
918.495	10740
918.606	10630
918.717	10489
918.828	10653
918.939	10630
919.05	10474
919.161	10599
919.272	10322
919.383	10466
919.494	10622
919.604	10763
919.715	10584
919.826	10508
919.936	10569
920.047	10698
920.157	10596
920.267	10812
920.378	10615
920.488	10523
920.598	10835
920.708	10858
920.818	10843
920.928	10771
921.038	10946
921.148	10843
921.258	10725
921.368	10611
921.477	10432
921.587	10375
921.697	10318
921.806	10394
921.916	10344
922.025	10192
922.134	10166
922.244	10139
922.353	10128
922.462	10067
922.571	9926
922.68	9873
922.789	9816
922.898	9831
923.007	9770
923.116	9892
923.224	9800
923.333	9781
923.442	9686
923.55	9652
923.659	9728
923.767	9766
923.876	9648
923.984	9781
924.092	9625
924.201	9675
924.309	9686
924.417	9606
924.525	9633
924.633	9675
924.741	10561
924.849	9435
924.956	9587
925.064	9443
925.172	9424
925.279	9344
925.387	9485
925.494	9401
925.602	9580
925.709	9568
925.816	9408
925.924	9515
926.031	9542
926.138	9401
926.245	9507
926.352	9321
926.459	9477
926.566	9481
926.673	9408
926.779	9302
926.886	9310
926.993	9192
927.099	9093
927.206	9097
927.312	9119
927.419	9241
927.525	9142
927.631	9165
927.737	9055
927.843	9009
927.95	8990
928.056	9001
928.162	9077
928.267	9100
928.373	9724
928.479	9150
928.585	8937
928.69	9097
928.796	9036
928.901	8963
929.007	8838
929.112	8929
929.218	8963
929.323	8845
929.428	8929
929.533	9066
929.638	8754
929.743	8883
929.848	8921
929.953	8830
930.058	8727
930.163	8632
930.267	8659
930.372	8754
930.477	8541
930.581	8792
930.685	8708
930.79	8488
930.894	8594
930.998	8621
931.103	8727
931.207	8347
931.311	8298
931.415	8248
931.519	8084
931.623	7997
