Data from test_V78500241_309.txt Node
Date: Fri Mar 25 14:35:52 CST 2022
User: usil
Spectrometer: V785-0024
Trigger mode: 0
Integration Time (sec): 4.000000E-1
Scans to average: 1
Nonlinearity correction enabled: false
Boxcar width: 0
Storing dark spectrum: false
XAxis mode: Wavelengths
Number of Pixels in Spectrum: 1024
>>>>>Begin Spectral Data<<<<<
801.071	27203
801.214	27154
801.356	26826
801.499	26689
801.641	26659
801.783	26659
801.926	26602
802.068	26526
802.211	26431
802.353	26282
802.496	26138
802.638	26126
802.78	26202
802.923	26062
803.065	25951
803.208	26008
803.35	26077
803.492	26229
803.635	26237
803.777	26016
803.919	26214
804.061	26495
804.204	26206
804.346	26161
804.488	26027
804.63	25986
804.773	25925
804.915	26081
805.057	26115
805.199	26054
805.341	26088
805.483	26199
805.626	26115
805.768	26046
805.91	26168
806.052	26100
806.194	26138
806.336	26225
806.478	26206
806.62	26069
806.762	26119
806.904	26374
807.046	26625
807.188	26389
807.33	26415
807.472	26629
807.614	26427
807.756	26465
807.898	26377
808.04	26389
808.182	26313
808.324	26446
808.465	26320
808.607	26514
808.749	26724
808.891	26765
809.033	26933
809.174	26815
809.316	26693
809.458	26762
809.6	26522
809.741	26598
809.883	26670
810.025	26800
810.166	26830
810.308	26883
810.45	26788
810.591	26826
810.733	26575
810.875	26560
811.016	26381
811.158	26415
811.299	26450
811.441	26625
811.582	26526
811.724	26393
811.865	26556
812.007	26526
812.148	26473
812.29	26511
812.431	26697
812.573	26678
812.714	26804
812.855	26956
812.997	27119
813.138	27043
813.279	27089
813.421	27131
813.562	27009
813.703	26788
813.845	26571
813.986	26507
814.127	26229
814.268	26138
814.41	26111
814.551	26100
814.692	26050
814.833	26084
814.974	26043
815.115	26020
815.256	25963
815.397	25845
815.539	25822
815.68	25830
815.821	25719
815.962	25814
816.103	25586
816.244	25601
816.385	25616
816.526	25518
816.666	25236
816.807	25179
816.948	25213
817.089	25274
817.23	25335
817.371	25148
817.512	25148
817.653	25289
817.793	25156
817.934	25179
818.075	25225
818.216	25053
818.356	25031
818.497	24958
818.638	24856
818.778	24856
818.919	24760
819.06	24878
819.2	24977
819.341	25118
819.481	25053
819.622	25289
819.762	25247
819.903	25365
820.043	25137
820.184	25145
820.324	25057
820.465	25217
820.605	25187
820.746	25084
820.886	25023
821.026	25141
821.167	25137
821.307	25122
821.447	25027
821.588	24875
821.728	24890
821.868	24661
822.008	24547
822.149	24608
822.289	24418
822.429	24266
822.569	24144
822.709	24110
822.849	23859
822.99	23843
823.13	23942
823.27	23870
823.41	23824
823.55	23627
823.69	23604
823.83	23649
823.97	23665
824.11	23604
824.25	23436
824.389	23573
824.529	23615
824.669	23467
824.809	23657
824.949	23570
825.089	23459
825.228	23592
825.368	23433
825.508	23330
825.648	23406
825.787	23387
825.927	23296
826.067	23288
826.206	23356
826.346	23200
826.485	23318
826.625	23273
826.765	23379
826.904	23265
827.044	23018
827.183	22957
827.323	22927
827.462	22923
827.601	22938
827.741	22854
827.88	23006
828.02	22866
828.159	22942
828.298	22938
828.437	22980
828.577	22991
828.716	23014
828.855	22915
828.994	22622
829.134	22782
829.273	22645
829.412	22725
829.551	22596
829.69	22615
829.829	22554
829.968	22736
830.107	22744
830.246	22550
830.385	22462
830.524	22371
830.663	22481
830.802	22466
830.941	22185
831.08	22112
831.219	22322
831.357	22116
831.496	22428
831.635	22059
831.774	22261
831.913	21994
832.051	21915
832.19	21956
832.329	21960
832.467	21899
832.606	21922
832.744	21747
832.883	21827
833.022	21797
833.16	21884
833.299	21899
833.437	21876
833.576	21975
833.714	21861
833.852	21934
833.991	21941
834.129	21835
834.267	22006
834.406	21926
834.544	22006
834.682	21930
834.821	21785
834.959	21964
835.097	21660
835.235	21838
835.373	21888
835.511	21937
835.65	21736
835.788	21587
835.926	21667
836.064	21443
836.202	21507
836.34	21743
836.478	21743
836.615	21720
836.753	21500
836.891	21854
837.029	21751
837.167	21606
837.305	21614
837.443	21576
837.58	21534
837.718	21542
837.856	21542
837.993	21443
838.131	21405
838.269	21401
838.406	21443
838.544	21329
838.681	21116
838.819	21142
838.956	20944
839.094	20956
839.231	20948
839.369	21165
839.506	21428
839.643	21287
839.781	20956
839.918	20918
840.055	20842
840.193	20914
840.33	20899
840.467	20864
840.604	21009
840.742	21195
840.879	20697
841.016	20781
841.153	20765
841.29	21032
841.427	20929
841.564	20883
841.701	20743
841.838	20720
841.975	20804
842.112	20792
842.249	20678
842.385	20564
842.522	20861
842.659	20693
842.796	20609
842.933	20686
843.069	20648
843.206	20594
843.343	20571
843.479	20590
843.616	20651
843.752	20404
843.889	20355
844.025	20564
844.162	20313
844.298	20488
844.435	20355
844.571	20320
844.708	20317
844.844	20450
844.98	20434
845.117	20526
845.253	20377
845.389	20142
845.525	20343
845.661	20294
845.798	20183
845.934	20252
846.07	20248
846.206	20275
846.342	20309
846.478	20187
846.614	19894
846.75	19864
846.886	19693
847.022	19879
847.158	19875
847.294	19890
847.429	19921
847.565	19738
847.701	20062
847.837	19533
847.972	19506
848.108	19639
848.244	19655
848.379	19464
848.515	19506
848.65	19388
848.786	19339
848.921	19438
849.057	19506
849.192	19426
849.328	19422
849.463	19403
849.598	19213
849.734	19194
849.869	19270
850.004	19171
850.14	19114
850.275	19133
850.41	19069
850.545	19050
850.68	19076
850.815	19179
850.95	19137
851.085	19354
851.22	19183
851.355	19095
851.49	19095
851.625	19080
851.76	19019
851.895	18977
852.03	19023
852.165	19175
852.299	19156
852.434	19129
852.569	19053
852.703	19141
852.838	19076
852.973	19247
853.107	19168
853.242	18989
853.376	18966
853.511	18707
853.645	18886
853.78	19099
853.914	19023
854.048	18840
854.183	19042
854.317	18954
854.451	19065
854.585	18882
854.72	18954
854.854	18958
854.988	18760
855.122	18973
855.256	18715
855.39	18935
855.524	18924
855.658	18996
855.792	18943
855.926	18852
856.06	19023
856.194	19095
856.327	18776
856.461	18901
856.595	18859
856.729	18897
856.862	19080
856.996	18882
857.13	18973
857.263	19042
857.397	18894
857.53	18890
857.664	18882
857.797	18909
857.931	18970
858.064	18905
858.197	18977
858.331	18840
858.464	18802
858.597	18760
858.731	18840
858.864	18901
858.997	18875
859.13	18882
859.263	18840
859.396	18947
859.529	18878
859.662	18760
859.795	18810
859.928	18863
860.061	19031
860.194	19015
860.327	18806
860.46	18852
860.592	18829
860.725	19080
860.858	18981
860.99	18700
861.123	18760
861.256	18757
861.388	18749
861.521	19445
861.653	18654
861.786	18654
861.918	18631
862.05	18814
862.183	18779
862.315	18913
862.447	18878
862.58	18890
862.712	18616
862.844	18597
862.976	18734
863.108	18578
863.24	18993
863.372	18525
863.504	18585
863.636	18604
863.768	18506
863.9	18517
864.032	18445
864.164	18483
864.296	18502
864.428	18604
864.559	18665
864.691	18650
864.823	18597
864.954	18597
865.086	18597
865.217	18597
865.349	18544
865.48	18486
865.612	18494
865.743	18612
865.875	18544
866.006	18570
866.137	18464
866.269	18429
866.4	18475
866.531	18426
866.662	18464
866.793	18452
866.924	18384
867.055	18525
867.186	18399
867.317	18464
867.448	18216
867.579	18391
867.71	18327
867.841	18426
867.972	18441
868.103	18410
868.233	18475
868.364	18395
868.495	18525
868.625	18669
868.756	18829
868.886	18623
869.017	18677
869.147	18719
869.278	18772
869.408	18681
869.539	18658
869.669	18741
869.799	18776
869.929	18779
870.06	18821
870.19	19099
870.32	18962
870.45	18977
870.58	19000
870.71	19137
870.84	19042
870.97	19012
871.1	19088
871.23	19251
871.36	19278
871.489	19107
871.619	19221
871.749	19301
871.879	19285
872.008	19183
872.138	19255
872.267	19225
872.397	19145
872.526	18996
872.656	19046
872.785	18958
872.915	19263
873.044	19327
873.173	19240
873.303	19362
873.432	19354
873.561	19320
873.69	19285
873.819	19289
873.948	19316
874.077	19278
874.206	19293
874.335	19221
874.464	19304
874.593	19643
874.722	19377
874.851	19521
874.979	19499
875.108	19655
875.237	19563
875.365	19502
875.494	19575
875.623	19529
875.751	19567
875.88	19540
876.008	19708
876.136	19693
876.265	20016
876.393	20012
876.521	20050
876.65	20046
876.778	19860
876.906	19837
877.034	19928
877.162	19932
877.29	19822
877.418	19864
877.546	19860
877.674	19978
877.802	19902
877.93	19909
878.058	19909
878.185	19753
878.313	19925
878.441	19902
878.568	19700
878.696	19860
878.824	19875
878.951	20043
879.079	20031
879.206	20202
879.333	20035
879.461	20012
879.588	20157
879.715	20145
879.842	20233
879.97	19978
880.097	19849
880.224	19731
880.351	19902
880.478	19750
880.605	19746
880.732	19772
880.859	19947
880.986	19746
881.112	19780
881.239	19643
881.366	19605
881.493	19518
881.619	19346
881.746	19400
881.872	19331
881.999	19362
882.125	19274
882.252	19533
882.378	19445
882.505	19567
882.631	19388
882.757	19225
882.883	19179
883.01	19072
883.136	19152
883.262	19065
883.388	18897
883.514	19236
883.64	19240
883.766	18996
883.892	18905
884.018	19023
884.143	19164
884.269	19228
884.395	18806
884.52	18802
884.646	18791
884.772	18726
884.897	18696
885.023	18741
885.148	18985
885.274	18878
885.399	18985
885.524	18749
885.65	18764
885.775	18829
885.9	18772
886.025	18916
886.15	18932
886.275	18696
886.4	18715
886.525	18608
886.65	18734
886.775	18650
886.9	19023
887.025	19099
887.149	18741
887.274	18551
887.399	18631
887.523	18585
887.648	18521
887.773	18391
887.897	18604
888.021	18593
888.146	18574
888.27	18730
888.395	18658
888.519	18631
888.643	18555
888.767	18631
888.891	18422
889.015	18281
889.139	18334
889.263	18429
889.387	18566
889.511	18620
889.635	18448
889.759	18296
889.883	18311
890.006	18448
890.13	18445
890.254	18338
890.377	18292
890.501	18167
890.624	18114
890.748	18186
890.871	18106
890.995	17893
891.118	17912
891.241	18003
891.364	17920
891.488	18068
891.611	17939
891.734	17954
891.857	18041
891.98	18003
892.103	18053
892.226	17885
892.349	17927
892.471	17722
892.594	17946
892.717	17908
892.839	17961
892.962	17870
893.085	18076
893.207	17950
893.33	17748
893.452	17729
893.575	17996
893.697	17882
893.819	18091
893.941	18216
894.064	18049
894.186	17920
894.308	17901
894.43	17973
894.552	18140
894.674	17984
894.796	17851
894.918	17874
895.04	17923
895.161	18087
895.283	17946
895.405	17824
895.526	17973
895.648	17893
895.769	18049
895.891	17965
896.012	18015
896.134	17977
896.255	18011
896.376	17942
896.498	18030
896.619	18140
896.74	17996
896.861	18136
896.982	18380
897.103	18433
897.224	18277
897.345	18232
897.466	18182
897.587	18243
897.708	18311
897.828	18205
897.949	18216
898.07	18098
898.19	18106
898.311	18350
898.431	18148
898.552	18270
898.672	18289
898.792	18270
898.913	18220
899.033	18068
899.153	17961
899.273	18007
899.393	17973
899.513	17958
899.633	17984
899.753	17988
899.873	17942
899.993	18011
900.113	17950
900.232	18083
900.352	18003
900.472	17916
900.591	17828
900.711	17859
900.83	17729
900.95	18015
901.069	17817
901.189	17813
901.308	17600
901.427	17353
901.546	17505
901.665	17444
901.784	17512
901.904	17337
902.023	17273
902.141	17105
902.26	16968
902.379	17037
902.498	16957
902.617	17029
902.735	17018
902.854	17025
902.973	16942
903.091	16698
903.21	16611
903.328	16565
903.446	16603
903.565	16558
903.683	16508
903.801	16451
903.919	16436
904.038	16398
904.156	16246
904.274	16375
904.392	16249
904.51	16131
904.627	16177
904.745	16230
904.863	16261
904.981	16006
905.098	15831
905.216	15972
905.334	15934
905.451	15857
905.569	15861
905.686	15953
905.803	15956
905.921	15701
906.038	15850
906.155	15686
906.272	15629
906.389	15652
906.506	15511
906.623	15572
906.74	15435
906.857	15291
906.974	15302
907.091	15542
907.208	15504
907.324	15462
907.441	15382
907.557	15275
907.674	15203
907.79	15047
907.907	15116
908.023	15226
908.139	15100
908.256	15058
908.372	14963
908.488	15112
908.604	14906
908.72	14842
908.836	14823
908.952	14705
909.068	14807
909.184	14948
909.3	14754
909.415	14948
909.531	14830
909.647	14602
909.762	14537
909.878	14594
909.993	14560
910.108	14549
910.224	14552
910.339	14507
910.454	14549
910.57	14484
910.685	14256
910.8	14587
910.915	14579
911.03	14355
911.145	14278
911.259	14191
911.374	14119
911.489	14115
911.604	14119
911.718	13982
911.833	14012
911.947	13860
912.062	13723
912.176	13906
912.291	13887
912.405	13879
912.519	14103
912.633	14142
912.748	13890
912.862	13917
912.976	13852
913.09	13753
913.204	13643
913.318	13818
913.431	13894
913.545	13742
913.659	13932
913.772	13757
913.886	13658
914	13639
914.113	13639
914.226	13639
914.34	13776
914.453	13480
914.566	13715
914.68	13521
914.793	13407
914.906	13403
915.019	13316
915.132	13187
915.245	13282
915.358	13324
915.47	13221
915.583	13179
915.696	13278
915.809	13350
915.921	13453
916.034	13225
916.146	13183
916.259	13129
916.371	13263
916.483	13327
916.595	13118
916.708	13156
916.82	13141
916.932	13053
917.044	13152
917.156	12996
917.268	12973
917.38	12920
917.491	12932
917.603	12928
917.715	13091
917.826	13027
917.938	12848
918.049	12890
918.161	12920
918.272	13084
918.384	13137
918.495	12985
918.606	12749
918.717	12760
918.828	12833
918.939	12886
919.05	12639
919.161	12757
919.272	12540
919.383	12654
919.494	12707
919.604	13000
919.715	12749
919.826	12631
919.936	12681
920.047	12798
920.157	12753
920.267	12932
920.378	12791
920.488	12688
920.598	12856
920.708	13031
920.818	12848
920.928	12829
921.038	13107
921.148	12993
921.258	12741
921.368	12642
921.477	12555
921.587	12452
921.697	12296
921.806	12525
921.916	12414
922.025	12159
922.134	12163
922.244	12049
922.353	12197
922.462	12079
922.571	11935
922.68	11836
922.789	11790
922.898	11859
923.007	11748
923.116	11771
923.224	11783
923.333	11828
923.442	11729
923.55	11634
923.659	11710
923.767	11798
923.876	11592
923.984	11726
924.092	11672
924.201	11535
924.309	11638
924.417	11611
924.525	11566
924.633	11577
924.741	12273
924.849	11315
924.956	11501
925.064	11398
925.172	11273
925.279	11330
925.387	11368
925.494	11364
925.602	11417
925.709	11349
925.816	11296
925.924	11326
926.031	11402
926.138	11220
926.245	11299
926.352	11280
926.459	11318
926.566	11376
926.673	11299
926.779	11151
926.886	11056
926.993	10957
927.099	10946
927.206	10968
927.312	10889
927.419	11025
927.525	10953
927.631	11014
927.737	10892
927.843	10850
927.95	10736
928.056	10828
928.162	10812
928.267	10854
928.373	11410
928.479	10869
928.585	10668
928.69	10755
928.796	10774
928.901	10668
929.007	10421
929.112	10698
929.218	10622
929.323	10577
929.428	10558
929.533	10668
929.638	10516
929.743	10523
929.848	10569
929.953	10527
930.058	10421
930.163	10234
930.267	10367
930.372	10329
930.477	10287
930.581	10440
930.685	10291
930.79	10120
930.894	10181
930.998	10139
931.103	10280
931.207	9911
931.311	9800
931.415	9762
931.519	9652
931.623	9660
