Data from test_V78500241_109.txt Node
Date: Fri Mar 25 14:34:29 CST 2022
User: usil
Spectrometer: V785-0024
Trigger mode: 0
Integration Time (sec): 4.000000E-1
Scans to average: 1
Nonlinearity correction enabled: false
Boxcar width: 0
Storing dark spectrum: false
XAxis mode: Wavelengths
Number of Pixels in Spectrum: 1024
>>>>>Begin Spectral Data<<<<<
801.071	29847
801.214	29783
801.356	29585
801.499	29368
801.641	29315
801.783	29414
801.926	29391
802.068	29178
802.211	29269
802.353	29242
802.496	29006
802.638	28949
802.78	29033
802.923	28999
803.065	28972
803.208	28949
803.35	29060
803.492	29212
803.635	29299
803.777	29212
803.919	29330
804.061	29455
804.204	29353
804.346	29212
804.488	29178
804.63	29261
804.773	29067
804.915	29337
805.057	29410
805.199	29353
805.341	29619
805.483	29516
805.626	29680
805.768	29642
805.91	29589
806.052	29840
806.194	29737
806.336	30060
806.478	29939
806.62	29882
806.762	30125
806.904	30589
807.046	30817
807.188	30901
807.33	31088
807.472	31377
807.614	31708
807.756	31890
807.898	32450
808.04	33112
808.182	34124
808.324	35349
808.465	36513
808.607	37913
808.749	39264
808.891	39964
809.033	40036
809.174	39214
809.316	38005
809.458	36467
809.6	34965
809.741	33922
809.883	33039
810.025	32393
810.166	31921
810.308	31639
810.45	31274
810.591	31114
810.733	30806
810.875	30486
811.016	30273
811.158	30205
811.299	30273
811.441	30460
811.582	30152
811.724	30011
811.865	29935
812.007	30003
812.148	29840
812.29	29893
812.431	30064
812.573	30213
812.714	30152
812.855	30304
812.997	30407
813.138	30483
813.279	30620
813.421	30194
813.562	30087
813.703	29897
813.845	29958
813.986	29539
814.127	29467
814.268	29254
814.41	29235
814.551	29292
814.692	29322
814.833	29094
814.974	29128
815.115	29197
815.256	29079
815.397	28873
815.539	28885
815.68	28904
815.821	28774
815.962	28892
816.103	28888
816.244	28607
816.385	28596
816.526	28675
816.666	28234
816.807	28253
816.948	28284
817.089	28268
817.23	28242
817.371	28261
817.512	28143
817.653	28116
817.793	28169
817.934	28154
818.075	28158
818.216	28158
818.356	28086
818.497	28097
818.638	27876
818.778	27838
818.919	27831
819.06	27884
819.2	28006
819.341	28040
819.481	28101
819.622	28238
819.762	28401
819.903	28280
820.043	28109
820.184	28200
820.324	28131
820.465	28124
820.605	27968
820.746	27994
820.886	27998
821.026	27937
821.167	27987
821.307	27907
821.447	27930
821.588	27732
821.728	27804
821.868	27431
822.008	27237
822.149	27291
822.289	27294
822.429	26918
822.569	26940
822.709	26861
822.849	26716
822.99	26644
823.13	26712
823.27	26659
823.41	26457
823.55	26507
823.69	26484
823.83	26511
823.97	26556
824.11	26328
824.25	26294
824.389	26336
824.529	26339
824.669	26214
824.809	26339
824.949	26244
825.089	26393
825.228	26381
825.368	26221
825.508	26119
825.648	26225
825.787	26100
825.927	26126
826.067	26035
826.206	26107
826.346	26142
826.485	26119
826.625	26088
826.765	26138
826.904	26195
827.044	25715
827.183	25818
827.323	25822
827.462	25864
827.601	25769
827.741	25681
827.88	25795
828.02	25635
828.159	25868
828.298	25685
828.437	25868
828.577	25655
828.716	25704
828.855	25609
828.994	25483
829.134	25499
829.273	25491
829.412	25354
829.551	25282
829.69	25392
829.829	25407
829.968	25396
830.107	25312
830.246	25438
830.385	25312
830.524	25221
830.663	25152
830.802	25190
830.941	25004
831.08	25023
831.219	25084
831.357	25080
831.496	25206
831.635	24962
831.774	24863
831.913	24939
832.051	24905
832.19	24745
832.329	24806
832.467	24703
832.606	24745
832.744	24738
832.883	24776
833.022	24844
833.16	24639
833.299	24760
833.437	24867
833.576	24920
833.714	25004
833.852	25023
833.991	25171
834.129	25209
834.267	25232
834.406	25091
834.544	25141
834.682	24924
834.821	25008
834.959	25072
835.097	24875
835.235	24825
835.373	24810
835.511	24696
835.65	24631
835.788	24650
835.926	24342
836.064	24258
836.202	24304
836.34	24490
836.478	24502
836.615	24414
836.753	24407
836.891	24593
837.029	24384
837.167	24342
837.305	24338
837.443	24228
837.58	24216
837.718	24429
837.856	24285
837.993	24270
838.131	24053
838.269	24060
838.406	24129
838.544	24117
838.681	23813
838.819	23874
838.956	23531
839.094	23535
839.231	23638
839.369	23821
839.506	23840
839.643	23832
839.781	23611
839.918	23520
840.055	23543
840.193	23589
840.33	23547
840.467	23551
840.604	23490
840.742	23779
840.879	23429
841.016	23353
841.153	23486
841.29	23516
841.427	23455
841.564	23585
841.701	23360
841.838	23474
841.975	23414
842.112	23372
842.249	23246
842.385	23265
842.522	23360
842.659	23299
842.796	23258
842.933	23269
843.069	23223
843.206	23231
843.343	23349
843.479	23246
843.616	23372
843.752	23094
843.889	23162
844.025	23383
844.162	23136
844.298	23250
844.435	23223
844.571	23315
844.708	23452
844.844	23771
844.98	23843
845.117	24140
845.253	24532
845.389	25270
845.525	26670
845.661	28987
845.798	32001
845.934	34341
846.07	35261
846.206	34953
846.342	32967
846.478	29904
846.614	27367
846.75	25335
846.886	24494
847.022	23729
847.158	23387
847.294	23022
847.429	22839
847.565	22656
847.701	22881
847.837	22402
847.972	22261
848.108	22394
848.244	22306
848.379	22101
848.515	21968
848.65	22021
848.786	22040
848.921	21998
849.057	22131
849.192	22109
849.328	22036
849.463	21953
849.598	21884
849.734	21846
849.869	21797
850.004	21774
850.14	21698
850.275	21800
850.41	21568
850.545	21682
850.68	21622
850.815	21622
850.95	21625
851.085	21850
851.22	21739
851.355	21667
851.49	21622
851.625	21679
851.76	21637
851.895	21469
852.03	21701
852.165	21747
852.299	21625
852.434	21759
852.569	21641
852.703	21701
852.838	21720
852.973	21778
853.107	21800
853.242	21629
853.376	21580
853.511	21538
853.645	21625
853.78	21675
853.914	21663
854.048	21515
854.183	21629
854.317	21698
854.451	21892
854.585	21675
854.72	21523
854.854	21762
854.988	21580
855.122	21557
855.256	21439
855.39	21507
855.524	21603
855.658	21526
855.792	21652
855.926	21549
856.06	21500
856.194	21656
856.327	21378
856.461	21416
856.595	21405
856.729	21386
856.862	21485
856.996	21507
857.13	21542
857.263	21629
857.397	21488
857.53	21264
857.664	21424
857.797	21408
857.931	21530
858.064	21412
858.197	21466
858.331	21298
858.464	21336
858.597	21214
858.731	21264
858.864	21241
858.997	21416
859.13	21313
859.263	21287
859.396	21355
859.529	21374
859.662	21336
859.795	21317
859.928	21340
860.061	21428
860.194	21469
860.327	21386
860.46	21138
860.592	21348
860.725	21458
860.858	21321
860.99	21245
861.123	21173
861.256	21214
861.388	21256
861.521	21956
861.653	21146
861.786	21127
861.918	21195
862.05	21294
862.183	21386
862.315	21287
862.447	21348
862.58	21298
862.712	21131
862.844	21013
862.976	21077
863.108	21096
863.24	21435
863.372	21001
863.504	20883
863.636	20952
863.768	20819
863.9	21032
864.032	20914
864.164	20823
864.296	20918
864.428	20929
864.559	20887
864.691	21005
864.823	21009
864.954	20902
865.086	21028
865.217	20906
865.349	20762
865.48	20872
865.612	20891
865.743	20948
865.875	20826
866.006	20697
866.137	20944
866.269	20796
866.4	20773
866.531	20765
866.662	20845
866.793	20735
866.924	20853
867.055	20758
867.186	20880
867.317	20785
867.448	20678
867.579	20823
867.71	20773
867.841	20644
867.972	20849
868.103	20788
868.233	20823
868.364	20819
868.495	20792
868.625	20960
868.756	21173
868.886	21001
869.017	21074
869.147	21089
869.278	21058
869.408	21028
869.539	21043
869.669	21032
869.799	21184
869.929	21161
870.06	21184
870.19	21298
870.32	21283
870.45	21462
870.58	21408
870.71	21622
870.84	21580
870.97	21454
871.1	21329
871.23	21663
871.36	21766
871.489	21488
871.619	21561
871.749	21717
871.879	21766
872.008	21717
872.138	21682
872.267	21720
872.397	21549
872.526	21534
872.656	21564
872.785	21557
872.915	21743
873.044	21808
873.173	21743
873.303	21812
873.432	21831
873.561	21892
873.69	21884
873.819	21854
873.948	21785
874.077	22040
874.206	21720
874.335	21899
874.464	22021
874.593	22070
874.722	22093
874.851	22169
874.979	22200
875.108	22253
875.237	22150
875.365	22070
875.494	22185
875.623	22333
875.751	22185
875.88	22386
876.008	22360
876.136	22523
876.265	22691
876.393	22786
876.521	22793
876.65	22759
876.778	22786
876.906	22923
877.034	22763
877.162	22801
877.29	22812
877.418	23022
877.546	23071
877.674	23086
877.802	23098
877.93	23280
878.058	23109
878.185	23029
878.313	23318
878.441	23570
878.568	23558
878.696	23794
878.824	24270
878.951	24897
879.079	25571
879.206	26480
879.333	27218
879.461	28063
879.588	28664
879.715	28869
879.842	28337
879.97	27397
880.097	26347
880.224	25567
880.351	25072
880.478	24665
880.605	24513
880.732	24300
880.859	24327
880.986	24083
881.112	24022
881.239	23874
881.366	23687
881.493	23668
881.619	23585
881.746	23592
881.872	23668
881.999	23547
882.125	23551
882.252	23718
882.378	23596
882.505	23783
882.631	23577
882.757	23490
882.883	23512
883.01	23414
883.136	23452
883.262	23330
883.388	23353
883.514	23421
883.64	23596
883.766	23277
883.892	23181
884.018	23185
884.143	23318
884.269	23471
884.395	23204
884.52	23067
884.646	23136
884.772	23083
884.897	22938
885.023	23098
885.148	23086
885.274	23083
885.399	23124
885.524	22972
885.65	22915
885.775	22744
885.9	22664
886.025	22786
886.15	22729
886.275	22497
886.4	22375
886.525	22291
886.65	22211
886.775	22352
886.9	22443
887.025	22405
887.149	22272
887.274	22025
887.399	21915
887.523	21918
887.648	21747
887.773	21755
887.897	21766
888.021	21816
888.146	21648
888.27	21717
888.395	21873
888.519	21732
888.643	21618
888.767	21641
888.891	21492
889.015	21374
889.139	21321
889.263	21412
889.387	21287
889.511	21462
889.635	21507
889.759	21287
889.883	21180
890.006	21287
890.13	21351
890.254	21081
890.377	21093
890.501	20952
890.624	20823
890.748	21020
890.871	20853
890.995	20606
891.118	20613
891.241	20746
891.364	20526
891.488	20754
891.611	20667
891.734	20461
891.857	20701
891.98	20617
892.103	20632
892.226	20632
892.349	20579
892.471	20381
892.594	20556
892.717	20499
892.839	20427
892.962	20465
893.085	20495
893.207	20366
893.33	20267
893.452	20275
893.575	20366
893.697	20328
893.819	20389
893.941	20492
894.064	20484
894.186	20153
894.308	20202
894.43	20358
894.552	20454
894.674	20294
894.796	20221
894.918	20240
895.04	20081
895.161	20358
895.283	20168
895.405	20031
895.526	20172
895.648	20107
895.769	20244
895.891	20183
896.012	20233
896.134	20199
896.255	20225
896.376	20180
896.498	20130
896.619	20145
896.74	20062
896.861	20153
896.982	20381
897.103	20560
897.224	20332
897.345	20438
897.466	20347
897.587	20332
897.708	20461
897.828	20317
897.949	20218
898.07	20119
898.19	20366
898.311	20309
898.431	20202
898.552	20248
898.672	20240
898.792	20263
898.913	20271
899.033	20096
899.153	19970
899.273	19856
899.393	19951
899.513	20027
899.633	19868
899.753	19871
899.873	19879
899.993	19967
900.113	19936
900.232	19837
900.352	19830
900.472	19780
900.591	19693
900.711	19803
900.83	19753
900.95	19818
901.069	19814
901.189	19643
901.308	19487
901.427	19301
901.546	19320
901.665	19460
901.784	19392
901.904	19183
902.023	19027
902.141	18856
902.26	18825
902.379	18878
902.498	18665
902.617	18616
902.735	18692
902.854	18779
902.973	18627
903.091	18471
903.21	18388
903.328	18372
903.446	18289
903.565	18270
903.683	18300
903.801	18064
903.919	18144
904.038	18213
904.156	18117
904.274	17996
904.392	17999
904.51	17961
904.627	18049
904.745	18053
904.863	18091
904.981	17741
905.098	17554
905.216	17600
905.334	17714
905.451	17592
905.569	17547
905.686	17646
905.803	17558
905.921	17440
906.038	17482
906.155	17391
906.272	17334
906.389	17318
906.506	17250
906.623	17090
906.74	17250
906.857	17029
906.974	16965
907.091	17246
907.208	17277
907.324	17185
907.441	17094
907.557	16957
907.674	16850
907.79	16778
907.907	16816
908.023	16786
908.139	16831
908.256	16683
908.372	16660
908.488	16691
908.604	16592
908.72	16436
908.836	16531
908.952	16516
909.068	16645
909.184	16558
909.3	16497
909.415	16485
909.531	16436
909.647	16177
909.762	16196
909.878	16128
909.993	16226
910.108	16215
910.224	16124
910.339	16090
910.454	16029
910.57	16109
910.685	15987
910.8	16287
910.915	16204
911.03	15918
911.145	15880
911.259	15854
911.374	15895
911.489	15739
911.604	15618
911.718	15568
911.833	15561
911.947	15439
912.062	15348
912.176	15504
912.291	15561
912.405	15435
912.519	15720
912.633	15720
912.748	15564
912.862	15595
912.976	15435
913.09	15237
913.204	15351
913.318	15340
913.431	15526
913.545	15515
913.659	15332
913.772	15268
913.886	15260
914	15157
914.113	15298
914.226	15393
914.34	15287
914.453	15135
914.566	15138
914.68	15256
914.793	14998
914.906	14845
915.019	14853
915.132	14754
915.245	14758
915.358	14864
915.47	14819
915.583	14842
915.696	14941
915.809	14921
915.921	14979
916.034	14705
916.146	14708
916.259	14743
916.371	14883
916.483	14773
916.595	14655
916.708	14743
916.82	14762
916.932	14651
917.044	14610
917.156	14461
917.268	14530
917.38	14492
917.491	14507
917.603	14454
917.715	14495
917.826	14465
917.938	14370
918.049	14332
918.161	14469
918.272	14541
918.384	14575
918.495	14434
918.606	14252
918.717	14187
918.828	14263
918.939	14206
919.05	14081
919.161	14119
919.272	14039
919.383	13932
919.494	14142
919.604	14320
919.715	14195
919.826	14024
919.936	14153
920.047	14191
920.157	14062
920.267	14221
920.378	14107
920.488	14103
920.598	14343
920.708	14393
920.818	14244
920.928	14237
921.038	14282
921.148	14374
921.258	13997
921.368	13970
921.477	13860
921.587	13833
921.697	13727
921.806	13795
921.916	13689
922.025	13556
922.134	13552
922.244	13426
922.353	13502
922.462	13365
922.571	13244
922.68	13179
922.789	13095
922.898	13145
923.007	13050
923.116	13164
923.224	13004
923.333	13095
923.442	12958
923.55	12905
923.659	13004
923.767	12977
923.876	12905
923.984	12977
924.092	12791
924.201	12787
924.309	12814
924.417	12856
924.525	12848
924.633	12734
924.741	13689
924.849	12662
924.956	12703
925.064	12627
925.172	12532
925.279	12623
925.387	12475
925.494	12589
925.602	12692
925.709	12578
925.816	12509
925.924	12475
926.031	12612
926.138	12578
926.245	12506
926.352	12338
926.459	12528
926.566	12563
926.673	12323
926.779	12327
926.886	12270
926.993	12106
927.099	12121
927.206	12015
927.312	12026
927.419	12182
927.525	12034
927.631	12194
927.737	11999
927.843	12045
927.95	11847
928.056	11870
928.162	11992
928.267	11969
928.373	12517
928.479	11980
928.585	11798
928.69	11847
928.796	11912
928.901	11779
929.007	11619
929.112	11920
929.218	11752
929.323	11764
929.428	11630
929.533	11802
929.638	11611
929.743	11615
929.848	11581
929.953	11638
930.058	11467
930.163	11455
930.267	11448
930.372	11444
930.477	11318
930.581	11512
930.685	11436
930.79	11239
930.894	11265
930.998	11178
931.103	11387
931.207	11033
931.311	10881
931.415	10790
931.519	10653
931.623	10611
