Data from test_V78500241_2056.txt Node
Date: Fri Mar 25 14:48:01 CST 2022
User: usil
Spectrometer: V785-0024
Trigger mode: 0
Integration Time (sec): 4.000000E-1
Scans to average: 1
Nonlinearity correction enabled: false
Boxcar width: 0
Storing dark spectrum: false
XAxis mode: Wavelengths
Number of Pixels in Spectrum: 1024
>>>>>Begin Spectral Data<<<<<
801.071	22158
801.214	22059
801.356	21660
801.499	21660
801.641	21500
801.783	21466
801.926	21679
802.068	21519
802.211	21367
802.353	21184
802.496	21146
802.638	20975
802.78	20979
802.923	20861
803.065	20815
803.208	20823
803.35	20880
803.492	20834
803.635	20914
803.777	20830
803.919	20902
804.061	21157
804.204	20994
804.346	20792
804.488	20689
804.63	20804
804.773	20731
804.915	20705
805.057	20887
805.199	20735
805.341	20906
805.483	20868
805.626	20921
805.768	20731
805.91	20693
806.052	20765
806.194	20659
806.336	20883
806.478	20758
806.62	20632
806.762	20686
806.904	20921
807.046	21218
807.188	21043
807.33	21131
807.472	21062
807.614	20899
807.756	20861
807.898	20891
808.04	20708
808.182	20765
808.324	20845
808.465	20929
808.607	20948
808.749	21020
808.891	21218
809.033	21348
809.174	21154
809.316	21043
809.458	21127
809.6	21104
809.741	21142
809.883	21142
810.025	21302
810.166	21306
810.308	21294
810.45	21211
810.591	21211
810.733	20998
810.875	20990
811.016	20807
811.158	20864
811.299	20979
811.441	21013
811.582	20921
811.724	20918
811.865	20819
812.007	20845
812.148	20895
812.29	20963
812.431	21055
812.573	21142
812.714	21340
812.855	21306
812.997	21485
813.138	21656
813.279	21561
813.421	21370
813.562	21291
813.703	21203
813.845	21150
813.986	20758
814.127	20731
814.268	20488
814.41	20408
814.551	20438
814.692	20495
814.833	20332
814.974	20427
815.115	20465
815.256	20305
815.397	20225
815.539	20275
815.68	20183
815.821	20206
815.962	20202
816.103	20134
816.244	19974
816.385	19978
816.526	19898
816.666	19799
816.807	19662
816.948	19681
817.089	19674
817.23	19556
817.371	19533
817.512	19639
817.653	19487
817.793	19521
817.934	19601
818.075	19559
818.216	19575
818.356	19586
818.497	19438
818.638	19247
818.778	19244
818.919	19209
819.06	19339
819.2	19335
819.341	19373
819.481	19445
819.622	19609
819.762	19883
819.903	19658
820.043	19658
820.184	19449
820.324	19616
820.465	19746
820.605	19510
820.746	19514
820.886	19415
821.026	19559
821.167	19502
821.307	19422
821.447	19460
821.588	19354
821.728	19209
821.868	19164
822.008	18924
822.149	19084
822.289	18947
822.429	18650
822.569	18608
822.709	18582
822.849	18445
822.99	18452
823.13	18365
823.27	18395
823.41	18308
823.55	18174
823.69	18308
823.83	18281
823.97	18133
824.11	17897
824.25	18034
824.389	18076
824.529	18038
824.669	18038
824.809	18060
824.949	18026
825.089	18121
825.228	18121
825.368	17832
825.508	17866
825.648	17828
825.787	17832
825.927	17840
826.067	17775
826.206	17703
826.346	17767
826.485	17836
826.625	17809
826.765	17931
826.904	17821
827.044	17581
827.183	17478
827.323	17520
827.462	17539
827.601	17524
827.741	17539
827.88	17501
828.02	17235
828.159	17467
828.298	17539
828.437	17528
828.577	17372
828.716	17551
828.855	17459
828.994	17242
829.134	17235
829.273	17284
829.412	17170
829.551	17128
829.69	17299
829.829	17303
829.968	17379
830.107	17345
830.246	17147
830.385	17193
830.524	17105
830.663	17052
830.802	17132
830.941	16831
831.08	16767
831.219	16984
831.357	16927
831.496	17151
831.635	16911
831.774	16782
831.913	16790
832.051	16664
832.19	16626
832.329	16698
832.467	16630
832.606	16542
832.744	16531
832.883	16558
833.022	16493
833.16	16577
833.299	16577
833.437	16592
833.576	16535
833.714	16573
833.852	16542
833.991	16641
834.129	16675
834.267	16668
834.406	16561
834.544	16637
834.682	16592
834.821	16630
834.959	16725
835.097	16508
835.235	16744
835.373	16630
835.511	16653
835.65	16523
835.788	16519
835.926	16329
836.064	16405
836.202	16394
836.34	16451
836.478	16573
836.615	16455
836.753	16569
836.891	16641
837.029	16519
837.167	16512
837.305	16500
837.443	16432
837.58	16398
837.718	16466
837.856	16409
837.993	16284
838.131	16424
838.269	16310
838.406	16352
838.544	16371
838.681	16166
838.819	16029
838.956	16044
839.094	16017
839.231	15953
839.369	16055
839.506	16386
839.643	16223
839.781	15987
839.918	15873
840.055	15895
840.193	15953
840.33	16071
840.467	15903
840.604	15994
840.742	16158
840.879	15823
841.016	15812
841.153	15945
841.29	15979
841.427	16010
841.564	16006
841.701	15987
841.838	15949
841.975	15873
842.112	15865
842.249	15648
842.385	15663
842.522	15915
842.659	15789
842.796	15701
842.933	15755
843.069	15648
843.206	15679
843.343	15819
843.479	15736
843.616	15827
843.752	15488
843.889	15534
844.025	15679
844.162	15542
844.298	15587
844.435	15500
844.571	15431
844.708	15545
844.844	15682
844.98	15648
845.117	15663
845.253	15504
845.389	15428
845.525	15519
845.661	15401
845.798	15260
845.934	15332
846.07	15348
846.206	15363
846.342	15389
846.478	15325
846.614	15241
846.75	15024
846.886	15058
847.022	15157
847.158	15081
847.294	15116
847.429	15131
847.565	15039
847.701	15279
847.837	14937
847.972	14853
848.108	14834
848.244	14963
848.379	14678
848.515	14693
848.65	14640
848.786	14765
848.921	14632
849.057	14781
849.192	14746
849.328	14785
849.463	14716
849.598	14689
849.734	14621
849.869	14556
850.004	14495
850.14	14522
850.275	14476
850.41	14446
850.545	14370
850.68	14358
850.815	14503
850.95	14396
851.085	14689
851.22	14522
851.355	14473
851.49	14552
851.625	14294
851.76	14404
851.895	14313
852.03	14343
852.165	14328
852.299	14404
852.434	14571
852.569	14446
852.703	14526
852.838	14564
852.973	14541
853.107	14549
853.242	14492
853.376	14431
853.511	14202
853.645	14271
853.78	14476
853.914	14400
854.048	14336
854.183	14286
854.317	14259
854.451	14446
854.585	14374
854.72	14282
854.854	14389
854.988	14259
855.122	14305
855.256	14259
855.39	14286
855.524	14495
855.658	14324
855.792	14370
855.926	14412
856.06	14343
856.194	14393
856.327	14355
856.461	14252
856.595	14389
856.729	14225
856.862	14469
856.996	14313
857.13	14442
857.263	14408
857.397	14415
857.53	14263
857.664	14328
857.797	14423
857.931	14385
858.064	14366
858.197	14415
858.331	14286
858.464	14214
858.597	14202
858.731	14282
858.864	14358
858.997	14259
859.13	14240
859.263	14446
859.396	14320
859.529	14320
859.662	14294
859.795	14248
859.928	14370
860.061	14473
860.194	14530
860.327	14221
860.46	14187
860.592	14343
860.725	14423
860.858	14404
860.99	14237
861.123	14214
861.256	14282
861.388	14240
861.521	15043
861.653	14119
861.786	14191
861.918	14187
862.05	14298
862.183	14301
862.315	14336
862.447	14317
862.58	14267
862.712	14107
862.844	14001
862.976	14103
863.108	14195
863.24	14465
863.372	13986
863.504	14092
863.636	14031
863.768	14180
863.9	14107
864.032	14069
864.164	14119
864.296	14092
864.428	14195
864.559	14130
864.691	14168
864.823	14221
864.954	14123
865.086	14103
865.217	14039
865.349	14024
865.48	14107
865.612	14058
865.743	14130
865.875	14088
866.006	14092
866.137	14020
866.269	14069
866.4	14065
866.531	14084
866.662	14100
866.793	14065
866.924	14039
867.055	14130
867.186	14020
867.317	13982
867.448	13928
867.579	14039
867.71	14020
867.841	14069
867.972	14081
868.103	14065
868.233	14107
868.364	14100
868.495	14195
868.625	14324
868.756	14328
868.886	14218
869.017	14282
869.147	14362
869.278	14499
869.408	14499
869.539	14317
869.669	14434
869.799	14355
869.929	14400
870.06	14507
870.19	14606
870.32	14522
870.45	14701
870.58	14754
870.71	14796
870.84	14804
870.97	14754
871.1	14705
871.23	14883
871.36	14826
871.489	14891
871.619	14830
871.749	14876
871.879	14773
872.008	14952
872.138	14994
872.267	14929
872.397	14777
872.526	14663
872.656	14731
872.785	14788
872.915	14918
873.044	15123
873.173	14918
873.303	14933
873.432	14963
873.561	15123
873.69	15077
873.819	14982
873.948	14990
874.077	15005
874.206	15043
874.335	15097
874.464	15192
874.593	15256
874.722	15161
874.851	15283
874.979	15348
875.108	15317
875.237	15237
875.365	15218
875.494	15332
875.623	15363
875.751	15355
875.88	15370
876.008	15393
876.136	15538
876.265	15781
876.393	15880
876.521	15789
876.65	15835
876.778	15739
876.906	15701
877.034	15736
877.162	15671
877.29	15595
877.418	15690
877.546	15846
877.674	15709
877.802	15690
877.93	15679
878.058	15618
878.185	15663
878.313	15743
878.441	15675
878.568	15549
878.696	15694
878.824	15667
878.951	15793
879.079	15831
879.206	16120
879.333	15972
879.461	15766
879.588	15854
879.715	15884
879.842	16101
879.97	15717
880.097	15652
880.224	15504
880.351	15633
880.478	15534
880.605	15564
880.732	15526
880.859	15819
880.986	15584
881.112	15523
881.239	15488
881.366	15306
881.493	15272
881.619	15192
881.746	15283
881.872	15230
881.999	15233
882.125	15188
882.252	15294
882.378	15226
882.505	15386
882.631	15100
882.757	15062
882.883	15100
883.01	15001
883.136	14914
883.262	14872
883.388	14880
883.514	14963
883.64	15058
883.766	15043
883.892	14845
884.018	14941
884.143	15047
884.269	15127
884.395	14762
884.52	14731
884.646	14773
884.772	14678
884.897	14606
885.023	14796
885.148	14868
885.274	14842
885.399	14899
885.524	14682
885.65	14739
885.775	14769
885.9	14762
886.025	14887
886.15	14765
886.275	14686
886.4	14682
886.525	14644
886.65	14670
886.775	14705
886.9	14853
887.025	14975
887.149	14735
887.274	14526
887.399	14549
887.523	14575
887.648	14549
887.773	14514
887.897	14583
888.021	14537
888.146	14503
888.27	14670
888.395	14686
888.519	14556
888.643	14606
888.767	14537
888.891	14552
889.015	14370
889.139	14511
889.263	14355
889.387	14579
889.511	14667
889.635	14484
889.759	14374
889.883	14404
890.006	14423
890.13	14583
890.254	14317
890.377	14385
890.501	14275
890.624	14214
890.748	14301
890.871	14187
890.995	14065
891.118	14058
891.241	14008
891.364	14073
891.488	14126
891.611	14043
891.734	14096
891.857	14195
891.98	14153
892.103	14290
892.226	14157
892.349	14073
892.471	14088
892.594	14073
892.717	14103
892.839	14176
892.962	14069
893.085	14149
893.207	14119
893.33	14096
893.452	14065
893.575	14187
893.697	14187
893.819	14370
893.941	14324
894.064	14290
894.186	14149
894.308	14084
894.43	14214
894.552	14317
894.674	14237
894.796	14176
894.918	14092
895.04	14149
895.161	14248
895.283	14240
895.405	14157
895.526	14130
895.648	14240
895.769	14278
895.891	14240
896.012	14347
896.134	14396
896.255	14271
896.376	14252
896.498	14199
896.619	14389
896.74	14259
896.861	14309
896.982	14682
897.103	14811
897.224	14674
897.345	14545
897.466	14465
897.587	14552
897.708	14659
897.828	14590
897.949	14446
898.07	14476
898.19	14518
898.311	14659
898.431	14663
898.552	14640
898.672	14697
898.792	14743
898.913	14640
899.033	14583
899.153	14461
899.273	14442
899.393	14526
899.513	14533
899.633	14571
899.753	14484
899.873	14381
899.993	14495
900.113	14454
900.232	14511
900.352	14518
900.472	14400
900.591	14278
900.711	14282
900.83	14324
900.95	14571
901.069	14541
901.189	14317
901.308	14062
901.427	13963
901.546	14024
901.665	14008
901.784	14001
901.904	13890
902.023	13906
902.141	13643
902.26	13636
902.379	13655
902.498	13567
902.617	13499
902.735	13655
902.854	13639
902.973	13590
903.091	13407
903.21	13358
903.328	13240
903.446	13217
903.565	13187
903.683	13179
903.801	13038
903.919	13175
904.038	13160
904.156	13015
904.274	13126
904.392	12890
904.51	13019
904.627	12951
904.745	13088
904.863	13038
904.981	12806
905.098	12658
905.216	12658
905.334	12749
905.451	12688
905.569	12547
905.686	12692
905.803	12719
905.921	12502
906.038	12604
906.155	12574
906.272	12475
906.389	12486
906.506	12273
906.623	12315
906.74	12304
906.857	12251
906.974	12155
907.091	12426
907.208	12410
907.324	12289
907.441	12277
907.557	12064
907.674	12068
907.79	11980
907.907	12095
908.023	12068
908.139	12057
908.256	12034
908.372	11958
908.488	11939
908.604	11851
908.72	11794
908.836	11805
908.952	11729
909.068	11798
909.184	11882
909.3	11752
909.415	11859
909.531	11767
909.647	11634
909.762	11653
909.878	11604
909.993	11619
910.108	11585
910.224	11585
910.339	11623
910.454	11444
910.57	11383
910.685	11353
910.8	11611
910.915	11672
911.03	11417
911.145	11284
911.259	11288
911.374	11296
911.489	11246
911.604	11212
911.718	11064
911.833	11064
911.947	10995
912.062	10866
912.176	11006
912.291	11083
912.405	11022
912.519	11250
912.633	11299
912.748	11136
912.862	11090
912.976	10934
913.09	10812
913.204	10858
913.318	11003
913.431	11067
913.545	10980
913.659	10934
913.772	10896
913.886	10862
914	10694
914.113	10927
914.226	10908
914.34	10831
914.453	10733
914.566	10824
914.68	10748
914.793	10748
914.906	10561
915.019	10546
915.132	10527
915.245	10485
915.358	10656
915.47	10527
915.583	10577
915.696	10580
915.809	10725
915.921	10660
916.034	10535
916.146	10519
916.259	10519
916.371	10580
916.483	10599
916.595	10470
916.708	10394
916.82	10466
916.932	10447
917.044	10485
917.156	10417
917.268	10299
917.38	10398
917.491	10314
917.603	10352
917.715	10443
917.826	10421
917.938	10344
918.049	10230
918.161	10337
918.272	10466
918.384	10504
918.495	10390
918.606	10227
918.717	10242
918.828	10276
918.939	10344
919.05	10124
919.161	10207
919.272	9998
919.383	10078
919.494	10276
919.604	10447
919.715	10265
919.826	10253
919.936	10211
920.047	10341
920.157	10276
920.267	10485
920.378	10390
920.488	10257
920.598	10409
920.708	10634
920.818	10493
920.928	10344
921.038	10615
921.148	10630
921.258	10314
921.368	10211
921.477	10150
921.587	10101
921.697	10025
921.806	10135
921.916	10074
922.025	9876
922.134	9888
922.244	9732
922.353	9934
922.462	9686
922.571	9743
922.68	9572
922.789	9515
922.898	9519
923.007	9401
923.116	9591
923.224	9488
923.333	9485
923.442	9378
923.55	9359
923.659	9511
923.767	9477
923.876	9393
923.984	9393
924.092	9367
924.201	9363
924.309	9378
924.417	9405
924.525	9332
924.633	9351
924.741	10303
924.849	9199
924.956	9336
925.064	9165
925.172	9058
925.279	9093
925.387	9230
925.494	9154
925.602	9260
925.709	9382
925.816	9123
925.924	9199
926.031	9253
926.138	9184
926.245	9207
926.352	9093
926.459	9222
926.566	9294
926.673	9180
926.779	9039
926.886	9032
926.993	8899
927.099	8845
927.206	8887
927.312	8785
927.419	8887
927.525	8948
927.631	8876
927.737	8823
927.843	8746
927.95	8693
928.056	8804
928.162	8788
928.267	8864
928.373	9435
928.479	8952
928.585	8617
928.69	8792
928.796	8815
928.901	8766
929.007	8571
929.112	8686
929.218	8735
929.323	8560
929.428	8606
929.533	8750
929.638	8579
929.743	8636
929.848	8697
929.953	8598
930.058	8549
930.163	8381
930.267	8400
930.372	8507
930.477	8423
930.581	8663
930.685	8454
930.79	8313
930.894	8313
930.998	8248
931.103	8419
931.207	8119
931.311	8016
931.415	7986
931.519	7845
931.623	7761
