Data from test_V78500241_435.txt Node
Date: Fri Mar 25 14:36:45 CST 2022
User: usil
Spectrometer: V785-0024
Trigger mode: 0
Integration Time (sec): 4.000000E-1
Scans to average: 1
Nonlinearity correction enabled: false
Boxcar width: 0
Storing dark spectrum: false
XAxis mode: Wavelengths
Number of Pixels in Spectrum: 1024
>>>>>Begin Spectral Data<<<<<
801.071	26492
801.214	26476
801.356	26237
801.499	26244
801.641	26081
801.783	25879
801.926	26077
802.068	26005
802.211	25761
802.353	25811
802.496	25658
802.638	25597
802.78	25552
802.923	25495
803.065	25506
803.208	25548
803.35	25419
803.492	25628
803.635	25750
803.777	25529
803.919	25693
804.061	25822
804.204	25559
804.346	25483
804.488	25419
804.63	25514
804.773	25422
804.915	25529
805.057	25624
805.199	25635
805.341	25601
805.483	25479
805.626	25544
805.768	25506
805.91	25476
806.052	25460
806.194	25392
806.336	25685
806.478	25460
806.62	25487
806.762	25544
806.904	25704
807.046	26077
807.188	25890
807.33	25788
807.472	25966
807.614	25715
807.756	25845
807.898	25761
808.04	25518
808.182	25605
808.324	25715
808.465	25666
808.607	25830
808.749	25989
808.891	26122
809.033	26199
809.174	26187
809.316	26016
809.458	26077
809.6	26062
809.741	26092
809.883	26073
810.025	26199
810.166	26256
810.308	26191
810.45	26199
810.591	26134
810.733	25974
810.875	25830
811.016	25761
811.158	25738
811.299	25906
811.441	26027
811.582	25959
811.724	25936
811.865	25757
812.007	25769
812.148	25830
812.29	25921
812.431	26001
812.573	26100
812.714	26237
812.855	26362
812.997	26374
813.138	26629
813.279	26438
813.421	26305
813.562	26191
813.703	26039
813.845	26088
813.986	25601
814.127	25537
814.268	25479
814.41	25422
814.551	25392
814.692	25556
814.833	25301
814.974	25350
815.115	25198
815.256	25228
815.397	25339
815.539	25278
815.68	25266
815.821	25107
815.962	25084
816.103	25038
816.244	24992
816.385	24928
816.526	24863
816.666	24525
816.807	24544
816.948	24578
817.089	24608
817.23	24688
817.371	24555
817.512	24525
817.653	24399
817.793	24410
817.934	24448
818.075	24616
818.216	24448
818.356	24494
818.497	24273
818.638	24174
818.778	24243
818.919	24216
819.06	24304
819.2	24319
819.341	24456
819.481	24456
819.622	24563
819.762	24833
819.903	24741
820.043	24566
820.184	24540
820.324	24658
820.465	24642
820.605	24429
820.746	24407
820.886	24456
821.026	24460
821.167	24460
821.307	24376
821.447	24346
821.588	24350
821.728	24106
821.868	24079
822.008	23851
822.149	23843
822.289	23832
822.429	23649
822.569	23585
822.709	23512
822.849	23326
822.99	23334
823.13	23349
823.27	23269
823.41	23147
823.55	23174
823.69	23162
823.83	23166
823.97	23052
824.11	22896
824.25	22915
824.389	22774
824.529	22961
824.669	22934
824.809	22984
824.949	22965
825.089	22991
825.228	22866
825.368	22748
825.508	22710
825.648	22752
825.787	22653
825.927	22752
826.067	22698
826.206	22736
826.346	22771
826.485	22660
826.625	22618
826.765	22873
826.904	22634
827.044	22470
827.183	22371
827.323	22481
827.462	22455
827.601	22421
827.741	22299
827.88	22249
828.02	22223
828.159	22310
828.298	22371
828.437	22459
828.577	22246
828.716	22394
828.855	22204
828.994	22051
829.134	22082
829.273	22173
829.412	21953
829.551	22090
829.69	22013
829.829	22067
829.968	22029
830.107	22128
830.246	22063
830.385	21911
830.524	22010
830.663	21842
830.802	21808
830.941	21759
831.08	21564
831.219	21732
831.357	21698
831.496	21838
831.635	21492
831.774	21564
831.913	21458
832.051	21393
832.19	21405
832.329	21351
832.467	21306
832.606	21268
832.744	21157
832.883	21298
833.022	21317
833.16	21260
833.299	21173
833.437	21230
833.576	21359
833.714	21340
833.852	21405
833.991	21321
834.129	21428
834.267	21389
834.406	21321
834.544	21370
834.682	21230
834.821	21313
834.959	21504
835.097	21222
835.235	21355
835.373	21340
835.511	21226
835.65	21104
835.788	21089
835.926	21024
836.064	21051
836.202	21062
836.34	21081
836.478	21214
836.615	21142
836.753	21165
836.891	21157
837.029	21199
837.167	21116
837.305	21043
837.443	21055
837.58	20986
837.718	21131
837.856	20982
837.993	20967
838.131	20948
838.269	20895
838.406	20876
838.544	20819
838.681	20678
838.819	20594
838.956	20495
839.094	20446
839.231	20575
839.369	20625
839.506	20724
839.643	20545
839.781	20427
839.918	20187
840.055	20415
840.193	20370
840.33	20374
840.467	20214
840.604	20469
840.742	20640
840.879	20111
841.016	20206
841.153	20313
841.29	20556
841.427	20317
841.564	20404
841.701	20370
841.838	20278
841.975	20290
842.112	20191
842.249	20130
842.385	20126
842.522	20259
842.659	19982
842.796	20164
842.933	20081
843.069	20073
843.206	19925
843.343	20153
843.479	20115
843.616	20005
843.752	19902
843.889	19833
844.025	19959
844.162	19902
844.298	19932
844.435	19837
844.571	19784
844.708	19898
844.844	19871
844.98	19951
845.117	20027
845.253	19765
845.389	19677
845.525	19704
845.661	19750
845.798	19601
845.934	19704
846.07	19548
846.206	19700
846.342	19719
846.478	19514
846.614	19533
846.75	19301
846.886	19377
847.022	19327
847.158	19346
847.294	19255
847.429	19343
847.565	19301
847.701	19403
847.837	19091
847.972	18924
848.108	19053
848.244	19038
848.379	19034
848.515	18791
848.65	18787
848.786	18829
848.921	18829
849.057	18954
849.192	18856
849.328	18859
849.463	18878
849.598	18753
849.734	18829
849.869	18848
850.004	18646
850.14	18665
850.275	18597
850.41	18471
850.545	18407
850.68	18627
850.815	18730
850.95	18570
851.085	18745
851.22	18700
851.355	18700
851.49	18532
851.625	18528
851.76	18532
851.895	18479
852.03	18498
852.165	18502
852.299	18623
852.434	18677
852.569	18688
852.703	18631
852.838	18578
852.973	18692
853.107	18715
853.242	18563
853.376	18547
853.511	18418
853.645	18490
853.78	18513
853.914	18410
854.048	18422
854.183	18388
854.317	18441
854.451	18597
854.585	18460
854.72	18395
854.854	18589
854.988	18353
855.122	18399
855.256	18258
855.39	18296
855.524	18391
855.658	18407
855.792	18422
855.926	18437
856.06	18380
856.194	18532
856.327	18407
856.461	18277
856.595	18327
856.729	18372
856.862	18403
856.996	18429
857.13	18582
857.263	18414
857.397	18502
857.53	18429
857.664	18429
857.797	18429
857.931	18426
858.064	18388
858.197	18380
858.331	18486
858.464	18338
858.597	18281
858.731	18410
858.864	18315
858.997	18353
859.13	18270
859.263	18384
859.396	18410
859.529	18281
859.662	18338
859.795	18315
859.928	18456
860.061	18479
860.194	18551
860.327	18330
860.46	18308
860.592	18486
860.725	18437
860.858	18448
860.99	18270
861.123	18243
861.256	18197
861.388	18254
861.521	18977
861.653	18190
861.786	18182
861.918	18232
862.05	18281
862.183	18418
862.315	18422
862.447	18460
862.58	18182
862.712	18072
862.844	18076
862.976	18220
863.108	18148
863.24	18456
863.372	17999
863.504	18068
863.636	17988
863.768	18102
863.9	17927
864.032	17954
864.164	17988
864.296	18083
864.428	18110
864.559	18182
864.691	18171
864.823	18144
864.954	18057
865.086	17969
865.217	17988
865.349	17859
865.48	17874
865.612	17904
865.743	18129
865.875	18011
866.006	17927
866.137	17935
866.269	18038
866.4	17908
866.531	17996
866.662	17904
866.793	17813
866.924	17954
867.055	17946
867.186	17977
867.317	17965
867.448	17931
867.579	17897
867.71	17805
867.841	17817
867.972	17882
868.103	17882
868.233	17935
868.364	17973
868.495	18091
868.625	18060
868.756	18281
868.886	18186
869.017	18148
869.147	18304
869.278	18380
869.408	18197
869.539	18140
869.669	18281
869.799	18194
869.929	18220
870.06	18296
870.19	18498
870.32	18506
870.45	18422
870.58	18528
870.71	18681
870.84	18597
870.97	18513
871.1	18574
871.23	18684
871.36	18779
871.489	18681
871.619	18707
871.749	18783
871.879	18738
872.008	18901
872.138	18779
872.267	18715
872.397	18601
872.526	18559
872.656	18551
872.785	18608
872.915	18837
873.044	18814
873.173	18738
873.303	18753
873.432	18837
873.561	18958
873.69	18817
873.819	18863
873.948	18993
874.077	18875
874.206	18829
874.335	18867
874.464	18962
874.593	19110
874.722	18981
874.851	19076
874.979	19091
875.108	19187
875.237	18970
875.365	19015
875.494	19091
875.623	19114
875.751	19088
875.88	19190
876.008	19221
876.136	19308
876.265	19540
876.393	19632
876.521	19540
876.65	19582
876.778	19514
876.906	19529
877.034	19384
877.162	19506
877.29	19476
877.418	19480
877.546	19464
877.674	19533
877.802	19540
877.93	19411
878.058	19422
878.185	19274
878.313	19422
878.441	19468
878.568	19312
878.696	19362
878.824	19453
878.951	19632
879.079	19620
879.206	19818
879.333	19620
879.461	19632
879.588	19601
879.715	19632
879.842	19696
879.97	19594
880.097	19270
880.224	19384
880.351	19316
880.478	19388
880.605	19301
880.732	19320
880.859	19502
880.986	19339
881.112	19301
881.239	19171
881.366	19004
881.493	18985
881.619	18916
881.746	18932
881.872	18924
881.999	18901
882.125	18783
882.252	19019
882.378	18939
882.505	19031
882.631	18875
882.757	18764
882.883	18730
883.01	18715
883.136	18768
883.262	18563
883.388	18486
883.514	18715
883.64	18677
883.766	18673
883.892	18403
884.018	18464
884.143	18684
884.269	18688
884.395	18494
884.52	18330
884.646	18422
884.772	18258
884.897	18277
885.023	18361
885.148	18403
885.274	18445
885.399	18525
885.524	18475
885.65	18277
885.775	18357
885.9	18289
886.025	18448
886.15	18464
886.275	18197
886.4	18277
886.525	18296
886.65	18178
886.775	18117
886.9	18426
887.025	18540
887.149	18384
887.274	18087
887.399	18064
887.523	18091
887.648	18102
887.773	17992
887.897	18289
888.021	18133
888.146	18019
888.27	18174
888.395	18281
888.519	18182
888.643	18174
888.767	18091
888.891	18022
889.015	18019
889.139	18083
889.263	17843
889.387	18072
889.511	18110
889.635	18095
889.759	17931
889.883	17965
890.006	17954
890.13	18026
890.254	17889
890.377	17843
890.501	17714
890.624	17630
890.748	17764
890.871	17596
890.995	17608
891.118	17471
891.241	17497
891.364	17478
891.488	17672
891.611	17467
891.734	17619
891.857	17649
891.98	17551
892.103	17642
892.226	17630
892.349	17566
892.471	17376
892.594	17436
892.717	17562
892.839	17478
892.962	17638
893.085	17486
893.207	17600
893.33	17414
893.452	17444
893.575	17570
893.697	17455
893.819	17642
893.941	17676
894.064	17611
894.186	17429
894.308	17452
894.43	17596
894.552	17687
894.674	17623
894.796	17433
894.918	17551
895.04	17486
895.161	17512
895.283	17604
895.405	17474
895.526	17482
895.648	17562
895.769	17570
895.891	17699
896.012	17665
896.134	17558
896.255	17604
896.376	17611
896.498	17707
896.619	17627
896.74	17600
896.861	17722
896.982	17950
897.103	18110
897.224	17916
897.345	17866
897.466	17794
897.587	17771
897.708	17969
897.828	17863
897.949	17729
898.07	17668
898.19	17783
898.311	17843
898.431	17707
898.552	17908
898.672	17946
898.792	17874
898.913	17699
899.033	17680
899.153	17657
899.273	17608
899.393	17596
899.513	17524
899.633	17467
899.753	17581
899.873	17547
899.993	17691
900.113	17649
900.232	17653
900.352	17547
900.472	17585
900.591	17539
900.711	17570
900.83	17356
900.95	17512
901.069	17463
901.189	17417
901.308	17064
901.427	17132
901.546	17102
901.665	17124
901.784	17071
901.904	16919
902.023	16774
902.141	16584
902.26	16580
902.379	16649
902.498	16565
902.617	16493
902.735	16588
902.854	16474
902.973	16417
903.091	16322
903.21	16299
903.328	16284
903.446	16139
903.565	16051
903.683	16207
903.801	15994
903.919	16048
904.038	16059
904.156	15846
904.274	15907
904.392	15884
904.51	15850
904.627	15785
904.745	15899
904.863	15956
904.981	15614
905.098	15545
905.216	15587
905.334	15557
905.451	15584
905.569	15572
905.686	15618
905.803	15530
905.921	15393
906.038	15443
906.155	15226
906.272	15272
906.389	15241
906.506	15028
906.623	15093
906.74	15104
906.857	14937
906.974	15013
907.091	15085
907.208	15176
907.324	15036
907.441	14921
907.557	14842
907.674	14727
907.79	14872
907.907	14758
908.023	14845
908.139	14804
908.256	14746
908.372	14689
908.488	14701
908.604	14564
908.72	14450
908.836	14575
908.952	14518
909.068	14480
909.184	14533
909.3	14533
909.415	14507
909.531	14423
909.647	14328
909.762	14237
909.878	14317
909.993	14134
910.108	14244
910.224	14119
910.339	14199
910.454	14153
910.57	14043
910.685	14001
910.8	14282
910.915	14161
911.03	14084
911.145	13944
911.259	13818
911.374	13845
911.489	13780
911.604	13757
911.718	13636
911.833	13681
911.947	13449
912.062	13369
912.176	13647
912.291	13696
912.405	13609
912.519	13807
912.633	13719
912.748	13704
912.862	13628
912.976	13411
913.09	13453
913.204	13320
913.318	13415
913.431	13533
913.545	13430
913.659	13472
913.772	13346
913.886	13339
914	13358
914.113	13354
914.226	13354
914.34	13358
914.453	13149
914.566	13362
914.68	13164
914.793	13221
914.906	13053
915.019	13000
915.132	12859
915.245	13046
915.358	12863
915.47	12973
915.583	13008
915.696	13015
915.809	13061
915.921	13072
916.034	13019
916.146	12825
916.259	12920
916.371	13042
916.483	12977
916.595	12798
916.708	12863
916.82	12810
916.932	12886
917.044	12837
917.156	12703
917.268	12692
917.38	12768
917.491	12642
917.603	12635
917.715	12768
917.826	12779
917.938	12623
918.049	12597
918.161	12631
918.272	12734
918.384	12776
918.495	12665
918.606	12582
918.717	12532
918.828	12517
918.939	12517
919.05	12452
919.161	12471
919.272	12323
919.383	12281
919.494	12467
919.604	12715
919.715	12441
919.826	12323
919.936	12551
920.047	12513
920.157	12517
920.267	12635
920.378	12452
920.488	12445
920.598	12631
920.708	12844
920.818	12601
920.928	12528
921.038	12787
921.148	12669
921.258	12422
921.368	12346
921.477	12239
921.587	12224
921.697	12053
921.806	12311
921.916	12155
922.025	11965
922.134	11866
922.244	11931
922.353	11961
922.462	11764
922.571	11722
922.68	11566
922.789	11581
922.898	11547
923.007	11551
923.116	11581
923.224	11573
923.333	11501
923.442	11452
923.55	11391
923.659	11387
923.767	11486
923.876	11345
923.984	11490
924.092	11322
924.201	11368
924.309	11395
924.417	11330
924.525	11307
924.633	11311
924.741	12144
924.849	11143
924.956	11216
925.064	11033
925.172	11003
925.279	11064
925.387	11155
925.494	11136
925.602	11201
925.709	11197
925.816	11060
925.924	11079
926.031	11155
926.138	11075
926.245	11136
926.352	10976
926.459	11113
926.566	11083
926.673	10968
926.779	10904
926.886	10873
926.993	10752
927.099	10683
927.206	10653
927.312	10672
927.419	10786
927.525	10729
927.631	10721
927.737	10687
927.843	10565
927.95	10424
928.056	10588
928.162	10577
928.267	10649
928.373	11284
928.479	10649
928.585	10462
928.69	10634
928.796	10653
928.901	10417
929.007	10291
929.112	10538
929.218	10451
929.323	10280
929.428	10306
929.533	10375
929.638	10265
929.743	10291
929.848	10360
929.953	10276
930.058	10303
930.163	9968
930.267	10059
930.372	10158
930.477	10048
930.581	10249
930.685	10112
930.79	9953
930.894	9994
930.998	9888
931.103	10097
931.207	9694
931.311	9705
931.415	9584
931.519	9500
931.623	9428
