Data from test_V78500241_2979.txt Node
Date: Fri Mar 25 14:54:27 CST 2022
User: usil
Spectrometer: V785-0024
Trigger mode: 0
Integration Time (sec): 4.000000E-1
Scans to average: 1
Nonlinearity correction enabled: false
Boxcar width: 0
Storing dark spectrum: false
XAxis mode: Wavelengths
Number of Pixels in Spectrum: 1024
>>>>>Begin Spectral Data<<<<<
801.071	22017
801.214	21998
801.356	21637
801.499	21709
801.641	21610
801.783	21515
801.926	21523
802.068	21405
802.211	21378
802.353	21310
802.496	21020
802.638	20975
802.78	20918
802.923	20857
803.065	20716
803.208	20716
803.35	20796
803.492	20826
803.635	20838
803.777	20777
803.919	20876
804.061	21127
804.204	20785
804.346	20788
804.488	20682
804.63	20769
804.773	20621
804.915	20689
805.057	20777
805.199	20552
805.341	20804
805.483	20781
805.626	20758
805.768	20678
805.91	20689
806.052	20781
806.194	20625
806.336	20807
806.478	20609
806.62	20552
806.762	20712
806.904	20925
807.046	21173
807.188	20925
807.33	20990
807.472	21066
807.614	21013
807.756	21108
807.898	20815
808.04	20708
808.182	20762
808.324	20758
808.465	20925
808.607	20960
808.749	21066
808.891	21203
809.033	21329
809.174	21298
809.316	21055
809.458	21119
809.6	21108
809.741	21028
809.883	21051
810.025	21218
810.166	21192
810.308	21161
810.45	21142
810.591	21161
810.733	21028
810.875	20880
811.016	20735
811.158	20754
811.299	20944
811.441	20921
811.582	20914
811.724	20906
811.865	20807
812.007	20705
812.148	20830
812.29	20872
812.431	20975
812.573	21043
812.714	21336
812.855	21317
812.997	21348
813.138	21504
813.279	21466
813.421	21443
813.562	21325
813.703	21077
813.845	20998
813.986	20560
814.127	20571
814.268	20511
814.41	20461
814.551	20484
814.692	20374
814.833	20438
814.974	20317
815.115	20442
815.256	20233
815.397	20286
815.539	20244
815.68	20134
815.821	19989
815.962	20062
816.103	20119
816.244	19947
816.385	19791
816.526	19917
816.666	19708
816.807	19632
816.948	19563
817.089	19518
817.23	19552
817.371	19434
817.512	19544
817.653	19518
817.793	19464
817.934	19472
818.075	19468
818.216	19415
818.356	19407
818.497	19293
818.638	19164
818.778	19274
818.919	19175
819.06	19274
819.2	19441
819.341	19491
819.481	19381
819.622	19499
819.762	19655
819.903	19556
820.043	19582
820.184	19422
820.324	19434
820.465	19533
820.605	19449
820.746	19464
820.886	19388
821.026	19464
821.167	19346
821.307	19491
821.447	19449
821.588	19335
821.728	19187
821.868	19183
822.008	18871
822.149	18909
822.289	18890
822.429	18665
822.569	18597
822.709	18566
822.849	18486
822.99	18456
823.13	18407
823.27	18311
823.41	18205
823.55	18110
823.69	18194
823.83	18148
823.97	18125
824.11	17901
824.25	17840
824.389	17855
824.529	18003
824.669	17980
824.809	18072
824.949	18030
825.089	18003
825.228	17878
825.368	17699
825.508	17718
825.648	17893
825.787	17927
825.927	17779
826.067	17733
826.206	17623
826.346	17714
826.485	17718
826.625	17699
826.765	17920
826.904	17726
827.044	17558
827.183	17486
827.323	17376
827.462	17505
827.601	17406
827.741	17444
827.88	17364
828.02	17376
828.159	17360
828.298	17410
828.437	17467
828.577	17402
828.716	17516
828.855	17376
828.994	17303
829.134	17067
829.273	17220
829.412	17090
829.551	17048
829.69	17185
829.829	17269
829.968	17223
830.107	17254
830.246	17216
830.385	17151
830.524	17075
830.663	16934
830.802	16904
830.941	16843
831.08	16733
831.219	16877
831.357	16835
831.496	17029
831.635	16763
831.774	16702
831.913	16679
832.051	16668
832.19	16603
832.329	16668
832.467	16474
832.606	16428
832.744	16489
832.883	16489
833.022	16360
833.16	16512
833.299	16508
833.437	16573
833.576	16500
833.714	16558
833.852	16546
833.991	16493
834.129	16523
834.267	16694
834.406	16542
834.544	16637
834.682	16542
834.821	16542
834.959	16790
835.097	16462
835.235	16774
835.373	16687
835.511	16558
835.65	16504
835.788	16554
835.926	16306
836.064	16261
836.202	16367
836.34	16428
836.478	16485
836.615	16371
836.753	16481
836.891	16424
837.029	16470
837.167	16478
837.305	16531
837.443	16360
837.58	16337
837.718	16379
837.856	16382
837.993	16318
838.131	16314
838.269	16276
838.406	16131
838.544	16143
838.681	16097
838.819	15975
838.956	15892
839.094	15846
839.231	15812
839.369	15987
839.506	16200
839.643	16158
839.781	15888
839.918	15876
840.055	15857
840.193	15816
840.33	15816
840.467	15785
840.604	15766
840.742	16162
840.879	15713
841.016	15793
841.153	15728
841.29	15964
841.427	15842
841.564	15869
841.701	15884
841.838	15739
841.975	15717
842.112	15789
842.249	15641
842.385	15591
842.522	15781
842.659	15633
842.796	15591
842.933	15690
843.069	15629
843.206	15614
843.343	15648
843.479	15633
843.616	15553
843.752	15393
843.889	15336
844.025	15507
844.162	15481
844.298	15545
844.435	15397
844.571	15359
844.708	15492
844.844	15637
844.98	15561
845.117	15538
845.253	15367
845.389	15329
845.525	15306
845.661	15389
845.798	15184
845.934	15260
846.07	15214
846.206	15275
846.342	15313
846.478	15355
846.614	15039
846.75	14910
846.886	14956
847.022	15062
847.158	14971
847.294	14998
847.429	15051
847.565	14986
847.701	15161
847.837	14644
847.972	14724
848.108	14788
848.244	14853
848.379	14678
848.515	14625
848.65	14507
848.786	14522
848.921	14617
849.057	14712
849.192	14629
849.328	14636
849.463	14678
849.598	14590
849.734	14473
849.869	14415
850.004	14419
850.14	14358
850.275	14427
850.41	14176
850.545	14218
850.68	14381
850.815	14324
850.95	14324
851.085	14488
851.22	14355
851.355	14381
851.49	14415
851.625	14256
851.76	14267
851.895	14199
852.03	14263
852.165	14248
852.299	14442
852.434	14404
852.569	14412
852.703	14381
852.838	14374
852.973	14438
853.107	14522
853.242	14347
853.376	14324
853.511	14153
853.645	14081
853.78	14431
853.914	14221
854.048	14218
854.183	14210
854.317	14263
854.451	14465
854.585	14202
854.72	14077
854.854	14271
854.988	14123
855.122	14221
855.256	14100
855.39	14142
855.524	14370
855.658	14248
855.792	14252
855.926	14256
856.06	14237
856.194	14301
856.327	14081
856.461	14119
856.595	14130
856.729	14172
856.862	14358
856.996	14233
857.13	14225
857.263	14286
857.397	14259
857.53	14271
857.664	14229
857.797	14267
857.931	14286
858.064	14248
858.197	14396
858.331	14358
858.464	14244
858.597	14081
858.731	14187
858.864	14206
858.997	14225
859.13	14191
859.263	14256
859.396	14347
859.529	14259
859.662	14123
859.795	14157
859.928	14206
860.061	14385
860.194	14362
860.327	14240
860.46	14278
860.592	14298
860.725	14366
860.858	14320
860.99	14153
861.123	14096
861.256	14107
861.388	14263
861.521	14967
861.653	14046
861.786	14046
861.918	14115
862.05	14168
862.183	14157
862.315	14229
862.447	14161
862.58	14214
862.712	13970
862.844	13947
862.976	14043
863.108	13944
863.24	14408
863.372	13944
863.504	14115
863.636	14043
863.768	14054
863.9	13963
864.032	13989
864.164	13936
864.296	13970
864.428	14084
864.559	13982
864.691	14084
864.823	14012
864.954	14084
865.086	14027
865.217	13978
865.349	13826
865.48	13982
865.612	14027
865.743	14062
865.875	13993
866.006	13894
866.137	13898
866.269	14039
866.4	13921
866.531	13913
866.662	13944
866.793	13917
866.924	13921
867.055	13993
867.186	13883
867.317	13837
867.448	13890
867.579	13906
867.71	13856
867.841	13921
867.972	13936
868.103	14020
868.233	13974
868.364	13986
868.495	14077
868.625	14180
868.756	14263
868.886	14233
869.017	14103
869.147	14370
869.278	14301
869.408	14225
869.539	14256
869.669	14347
869.799	14301
869.929	14336
870.06	14374
870.19	14514
870.32	14522
870.45	14492
870.58	14625
870.71	14720
870.84	14667
870.97	14484
871.1	14587
871.23	14731
871.36	14811
871.489	14720
871.619	14815
871.749	14815
871.879	14819
872.008	14887
872.138	14838
872.267	14724
872.397	14670
872.526	14632
872.656	14625
872.785	14708
872.915	14872
873.044	14982
873.173	14811
873.303	14857
873.432	14849
873.561	15009
873.69	14815
873.819	14929
873.948	14804
874.077	14883
874.206	14823
874.335	14857
874.464	15085
874.593	15154
874.722	15135
874.851	15173
874.979	15142
875.108	15241
875.237	15169
875.365	15055
875.494	15173
875.623	15214
875.751	15207
875.88	15287
876.008	15382
876.136	15283
876.265	15595
876.393	15720
876.521	15698
876.65	15641
876.778	15599
876.906	15580
877.034	15545
877.162	15515
877.29	15504
877.418	15591
877.546	15492
877.674	15576
877.802	15690
877.93	15580
878.058	15576
878.185	15473
878.313	15595
878.441	15625
878.568	15507
878.696	15473
878.824	15641
878.951	15663
879.079	15819
879.206	15922
879.333	15739
879.461	15652
879.588	15675
879.715	15770
879.842	15884
879.97	15625
880.097	15496
880.224	15424
880.351	15454
880.478	15481
880.605	15386
880.732	15447
880.859	15701
880.986	15488
881.112	15469
881.239	15355
881.366	15237
881.493	15093
881.619	15047
881.746	15268
881.872	15089
881.999	15020
882.125	15017
882.252	15150
882.378	15123
882.505	15249
882.631	15036
882.757	14868
882.883	14960
883.01	14948
883.136	14899
883.262	14769
883.388	14724
883.514	14960
883.64	15020
883.766	14937
883.892	14727
884.018	14788
884.143	14925
884.269	15039
884.395	14651
884.52	14640
884.646	14617
884.772	14560
884.897	14457
885.023	14640
885.148	14762
885.274	14739
885.399	14640
885.524	14640
885.65	14610
885.775	14678
885.9	14564
886.025	14705
886.15	14731
886.275	14499
886.4	14469
886.525	14625
886.65	14636
886.775	14469
886.9	14708
887.025	14777
887.149	14545
887.274	14446
887.399	14374
887.523	14366
887.648	14415
887.773	14431
887.897	14450
888.021	14431
888.146	14343
888.27	14537
888.395	14514
888.519	14503
888.643	14541
888.767	14594
888.891	14377
889.015	14263
889.139	14301
889.263	14244
889.387	14488
889.511	14549
889.635	14469
889.759	14256
889.883	14290
890.006	14294
890.13	14454
890.254	14286
890.377	14267
890.501	14062
890.624	14123
890.748	14183
890.871	14119
890.995	13928
891.118	13989
891.241	13997
891.364	13974
891.488	14138
891.611	13951
891.734	14073
891.857	14062
891.98	14115
892.103	14046
892.226	14081
892.349	14039
892.471	13913
892.594	13963
892.717	14077
892.839	14005
892.962	14058
893.085	14001
893.207	14046
893.33	13890
893.452	13898
893.575	14142
893.697	13974
893.819	14263
893.941	14206
894.064	14069
894.186	13970
894.308	14058
894.43	14161
894.552	14183
894.674	14180
894.796	14054
894.918	14119
895.04	14081
895.161	14252
895.283	14084
895.405	14077
895.526	14077
895.648	14210
895.769	14206
895.891	14195
896.012	14187
896.134	14267
896.255	14187
896.376	14138
896.498	14130
896.619	14282
896.74	14252
896.861	14202
896.982	14499
897.103	14686
897.224	14446
897.345	14465
897.466	14442
897.587	14454
897.708	14560
897.828	14575
897.949	14393
898.07	14423
898.19	14484
898.311	14697
898.431	14473
898.552	14461
898.672	14598
898.792	14701
898.913	14644
899.033	14442
899.153	14446
899.273	14370
899.393	14385
899.513	14332
899.633	14454
899.753	14461
899.873	14454
899.993	14415
900.113	14385
900.232	14446
900.352	14503
900.472	14366
900.591	14210
900.711	14320
900.83	14259
900.95	14408
901.069	14347
901.189	14259
901.308	14027
901.427	13955
901.546	13928
901.665	13986
901.784	14012
901.904	13913
902.023	13833
902.141	13693
902.26	13514
902.379	13613
902.498	13529
902.617	13483
902.735	13548
902.854	13525
902.973	13491
903.091	13266
903.21	13270
903.328	13198
903.446	13187
903.565	13080
903.683	13095
903.801	13080
903.919	13038
904.038	13107
904.156	12924
904.274	13065
904.392	12859
904.51	13038
904.627	12901
904.745	13000
904.863	13057
904.981	12764
905.098	12620
905.216	12597
905.334	12582
905.451	12707
905.569	12574
905.686	12623
905.803	12677
905.921	12494
906.038	12555
906.155	12460
906.272	12372
906.389	12327
906.506	12239
906.623	12266
906.74	12213
906.857	12057
906.974	12186
907.091	12228
907.208	12384
907.324	12308
907.441	12106
907.557	11992
907.674	11908
907.79	11912
907.907	11939
908.023	11950
908.139	11931
908.256	11931
908.372	11882
908.488	11855
908.604	11665
908.72	11688
908.836	11722
908.952	11771
909.068	11752
909.184	11783
909.3	11684
909.415	11870
909.531	11653
909.647	11482
909.762	11543
909.878	11402
909.993	11566
910.108	11543
910.224	11433
910.339	11505
910.454	11402
910.57	11307
910.685	11239
910.8	11524
910.915	11463
911.03	11345
911.145	11204
911.259	11143
911.374	11208
911.489	11109
911.604	11045
911.718	10953
911.833	10965
911.947	10847
912.062	10759
912.176	11006
912.291	10965
912.405	10991
912.519	11197
912.633	11151
912.748	11003
912.862	10953
912.976	10850
913.09	10694
913.204	10847
913.318	10885
913.431	10942
913.545	10866
913.659	10873
913.772	10824
913.886	10771
914	10702
914.113	10850
914.226	10904
914.34	10786
914.453	10721
914.566	10820
914.68	10664
914.793	10615
914.906	10516
915.019	10436
915.132	10417
915.245	10417
915.358	10478
915.47	10523
915.583	10558
915.696	10550
915.809	10584
915.921	10641
916.034	10356
916.146	10447
916.259	10367
916.371	10550
916.483	10466
916.595	10386
916.708	10409
916.82	10367
916.932	10310
917.044	10379
917.156	10352
917.268	10306
917.38	10276
917.491	10257
917.603	10295
917.715	10363
917.826	10356
917.938	10265
918.049	10219
918.161	10196
918.272	10402
918.384	10489
918.495	10348
918.606	10204
918.717	10032
918.828	10204
918.939	10276
919.05	10101
919.161	10227
919.272	9937
919.383	10071
919.494	10196
919.604	10409
919.715	10177
919.826	10112
919.936	10185
920.047	10306
920.157	10196
920.267	10402
920.378	10261
920.488	10185
920.598	10440
920.708	10421
920.818	10424
920.928	10318
921.038	10550
921.148	10516
921.258	10287
921.368	10150
921.477	10067
921.587	9991
921.697	9861
921.806	10086
921.916	9926
922.025	9751
922.134	9736
922.244	9774
922.353	9827
922.462	9641
922.571	9618
922.68	9424
922.789	9363
922.898	9504
923.007	9420
923.116	9534
923.224	9428
923.333	9428
923.442	9325
923.55	9310
923.659	9317
923.767	9462
923.876	9287
923.984	9359
924.092	9192
924.201	9302
924.309	9233
924.417	9291
924.525	9237
924.633	9279
924.741	10143
924.849	9043
924.956	9123
925.064	9043
925.172	9043
925.279	9112
925.387	9226
925.494	9104
925.602	9253
925.709	9214
925.816	9081
925.924	9195
926.031	9146
926.138	9127
926.245	9104
926.352	9020
926.459	9218
926.566	9203
926.673	9093
926.779	8948
926.886	8944
926.993	8925
927.099	8895
927.206	8758
927.312	8735
927.419	8853
927.525	8861
927.631	8876
927.737	8807
927.843	8693
927.95	8533
928.056	8640
928.162	8788
928.267	8838
928.373	9355
928.479	8724
928.585	8590
928.69	8663
928.796	8811
928.901	8682
929.007	8495
929.112	8606
929.218	8560
929.323	8552
929.428	8579
929.533	8708
929.638	8488
929.743	8549
929.848	8518
929.953	8610
930.058	8465
930.163	8309
930.267	8286
930.372	8488
930.477	8252
930.581	8537
930.685	8320
930.79	8263
930.894	8275
930.998	8290
931.103	8438
931.207	8035
931.311	8039
931.415	7936
931.519	7734
931.623	7772
