Data from test_V78500241_1170.txt Node
Date: Fri Mar 25 14:41:51 CST 2022
User: usil
Spectrometer: V785-0024
Trigger mode: 0
Integration Time (sec): 4.000000E-1
Scans to average: 1
Nonlinearity correction enabled: false
Boxcar width: 0
Storing dark spectrum: false
XAxis mode: Wavelengths
Number of Pixels in Spectrum: 1024
>>>>>Begin Spectral Data<<<<<
801.071	22413
801.214	22440
801.356	22116
801.499	21987
801.641	21922
801.783	21876
801.926	21960
802.068	21835
802.211	21671
802.353	21595
802.496	21424
802.638	21393
802.78	21336
802.923	21313
803.065	21184
803.208	21123
803.35	21214
803.492	21340
803.635	21367
803.777	21127
803.919	21355
804.061	21564
804.204	21275
804.346	21169
804.488	21146
804.63	21100
804.773	21028
804.915	21146
805.057	21264
805.199	21070
805.341	21112
805.483	21256
805.626	21188
805.768	21119
805.91	21100
806.052	21169
806.194	21062
806.336	21241
806.478	21062
806.62	21199
806.762	21226
806.904	21313
807.046	21466
807.188	21545
807.33	21389
807.472	21542
807.614	21412
807.756	21462
807.898	21291
808.04	21233
808.182	21245
808.324	21325
808.465	21359
808.607	21523
808.749	21747
808.891	21759
809.033	21884
809.174	21660
809.316	21519
809.458	21568
809.6	21534
809.741	21519
809.883	21739
810.025	21778
810.166	21732
810.308	21633
810.45	21720
810.591	21572
810.733	21454
810.875	21230
811.016	21211
811.158	21272
811.299	21367
811.441	21450
811.582	21397
811.724	21222
811.865	21363
812.007	21310
812.148	21317
812.29	21370
812.431	21580
812.573	21603
812.714	21641
812.855	21842
812.997	21861
813.138	21987
813.279	21911
813.421	21827
813.562	21759
813.703	21629
813.845	21466
813.986	21237
814.127	21089
814.268	20990
814.41	21001
814.551	20807
814.692	21131
814.833	20663
814.974	20781
815.115	20895
815.256	20743
815.397	20613
815.539	20651
815.68	20617
815.821	20396
815.962	20689
816.103	20590
816.244	20427
816.385	20362
816.526	20301
816.666	20126
816.807	20005
816.948	20221
817.089	20229
817.23	20107
817.371	20001
817.512	20062
817.653	19974
817.793	20001
817.934	20043
818.075	20062
818.216	19940
818.356	20008
818.497	19818
818.638	19715
818.778	19605
818.919	19734
819.06	19769
819.2	19723
819.341	19860
819.481	19837
819.622	20065
819.762	20233
819.903	20111
820.043	19967
820.184	20088
820.324	19986
820.465	20130
820.605	19898
820.746	20043
820.886	19894
821.026	19974
821.167	19932
821.307	20100
821.447	19890
821.588	19757
821.728	19811
821.868	19635
822.008	19422
822.149	19415
822.289	19331
822.429	19183
822.569	19126
822.709	19065
822.849	18928
822.99	18947
823.13	18840
823.27	18916
823.41	18753
823.55	18722
823.69	18696
823.83	18665
823.97	18639
824.11	18547
824.25	18483
824.389	18521
824.529	18563
824.669	18486
824.809	18563
824.949	18612
825.089	18528
825.228	18544
825.368	18296
825.508	18399
825.648	18266
825.787	18369
825.927	18445
826.067	18292
826.206	18121
826.346	18266
826.485	18258
826.625	18353
826.765	18365
826.904	18372
827.044	17950
827.183	18079
827.323	18003
827.462	18045
827.601	17973
827.741	18011
827.88	17988
828.02	17840
828.159	17878
828.298	18049
828.437	18038
828.577	17935
828.716	18076
828.855	17893
828.994	17786
829.134	17802
829.273	17779
829.412	17710
829.551	17665
829.69	17866
829.829	17794
829.968	17942
830.107	17805
830.246	17737
830.385	17691
830.524	17798
830.663	17585
830.802	17551
830.941	17383
831.08	17326
831.219	17455
831.357	17406
831.496	17512
831.635	17448
831.774	17288
831.913	17307
832.051	17170
832.19	17185
832.329	17208
832.467	17113
832.606	17006
832.744	17121
832.883	17086
833.022	17083
833.16	17113
833.299	17113
833.437	17162
833.576	17014
833.714	17109
833.852	17124
833.991	17136
834.129	17178
834.267	17231
834.406	17151
834.544	17098
834.682	17185
834.821	17014
834.959	17311
835.097	17083
835.235	17235
835.373	17197
835.511	17155
835.65	16999
835.788	17174
835.926	16858
836.064	16938
836.202	16908
836.34	16961
836.478	17113
836.615	17033
836.753	17083
836.891	17140
837.029	17185
837.167	17075
837.305	17033
837.443	16881
837.58	16892
837.718	17003
837.856	16911
837.993	16885
838.131	16938
838.269	16839
838.406	16843
838.544	16805
838.681	16542
838.819	16698
838.956	16382
839.094	16440
839.231	16588
839.369	16656
839.506	16763
839.643	16660
839.781	16481
839.918	16413
840.055	16466
840.193	16356
840.33	16329
840.467	16493
840.604	16558
840.742	16767
840.879	16310
841.016	16405
841.153	16421
841.29	16603
841.427	16421
841.564	16512
841.701	16497
841.838	16371
841.975	16386
842.112	16394
842.249	16223
842.385	16185
842.522	16409
842.659	16261
842.796	16154
842.933	16234
843.069	16166
843.206	16120
843.343	16295
843.479	16169
843.616	16223
843.752	15991
843.889	16017
844.025	16211
844.162	16090
844.298	16071
844.435	16071
844.571	15941
844.708	15991
844.844	16166
844.98	16128
845.117	16162
845.253	16090
845.389	15956
845.525	16135
845.661	15964
845.798	15899
845.934	16078
846.07	15956
846.206	16029
846.342	16093
846.478	15907
846.614	15717
846.75	15587
846.886	15515
847.022	15663
847.158	15587
847.294	15576
847.429	15572
847.565	15526
847.701	15800
847.837	15408
847.972	15264
848.108	15359
848.244	15393
848.379	15260
848.515	15146
848.65	15154
848.786	15028
848.921	15203
849.057	15279
849.192	15329
849.328	15180
849.463	15157
849.598	15256
849.734	15104
849.869	15062
850.004	15032
850.14	14883
850.275	15047
850.41	14929
850.545	14758
850.68	14944
850.815	14979
850.95	14899
851.085	15192
851.22	15032
851.355	14941
851.49	14925
851.625	14902
851.76	14880
851.895	14902
852.03	14872
852.165	14883
852.299	14994
852.434	14918
852.569	15017
852.703	15039
852.838	15077
852.973	15066
853.107	15138
853.242	14910
853.376	14792
853.511	14705
853.645	14811
853.78	14811
853.914	14758
854.048	14773
854.183	14826
854.317	14762
854.451	14982
854.585	14701
854.72	14735
854.854	14861
854.988	14655
855.122	14826
855.256	14659
855.39	14769
855.524	14823
855.658	14838
855.792	14731
855.926	14777
856.06	14826
856.194	14925
856.327	14701
856.461	14731
856.595	14724
856.729	14804
856.862	14899
856.996	14823
857.13	14842
857.263	14929
857.397	14963
857.53	14811
857.664	14800
857.797	14891
857.931	14918
858.064	14880
858.197	14849
858.331	14823
858.464	14739
858.597	14754
858.731	14826
858.864	14842
858.997	14739
859.13	14777
859.263	14823
859.396	14804
859.529	14819
859.662	14769
859.795	14743
859.928	14811
860.061	14982
860.194	14952
860.327	14883
860.46	14701
860.592	14933
860.725	14963
860.858	14838
860.99	14746
861.123	14689
861.256	14720
861.388	14857
861.521	15488
861.653	14758
861.786	14686
861.918	14594
862.05	14762
862.183	14788
862.315	14739
862.447	14826
862.58	14758
862.712	14522
862.844	14579
862.976	14632
863.108	14674
863.24	14990
863.372	14381
863.504	14514
863.636	14613
863.768	14606
863.9	14533
864.032	14533
864.164	14552
864.296	14674
864.428	14686
864.559	14781
864.691	14629
864.823	14659
864.954	14682
865.086	14617
865.217	14495
865.349	14415
865.48	14613
865.612	14545
865.743	14708
865.875	14530
866.006	14549
866.137	14530
866.269	14537
866.4	14499
866.531	14556
866.662	14503
866.793	14480
866.924	14419
867.055	14442
867.186	14473
867.317	14461
867.448	14533
867.579	14480
867.71	14423
867.841	14408
867.972	14598
868.103	14480
868.233	14518
868.364	14537
868.495	14629
868.625	14785
868.756	14899
868.886	14758
869.017	14667
869.147	14826
869.278	14895
869.408	14849
869.539	14678
869.669	14925
869.799	14952
869.929	14944
870.06	14899
870.19	15173
870.32	15077
870.45	15154
870.58	15272
870.71	15321
870.84	15336
870.97	15165
871.1	15180
871.23	15363
871.36	15336
871.489	15237
871.619	15302
871.749	15367
871.879	15454
872.008	15523
872.138	15485
872.267	15325
872.397	15211
872.526	15097
872.656	15123
872.785	15199
872.915	15401
873.044	15530
873.173	15473
873.303	15401
873.432	15488
873.561	15466
873.69	15492
873.819	15447
873.948	15469
874.077	15469
874.206	15355
874.335	15462
874.464	15625
874.593	15759
874.722	15637
874.851	15778
874.979	15831
875.108	15876
875.237	15713
875.365	15682
875.494	15705
875.623	15816
875.751	15709
875.88	15720
876.008	15770
876.136	15949
876.265	16105
876.393	16238
876.521	16166
876.65	16196
876.778	16131
876.906	16063
877.034	16090
877.162	16242
877.29	15972
877.418	16253
877.546	16135
877.674	16162
877.802	16112
877.93	16162
878.058	16131
878.185	15968
878.313	16173
878.441	16234
878.568	16074
878.696	16131
878.824	16185
878.951	16253
879.079	16265
879.206	16531
879.333	16284
879.461	16272
879.588	16287
879.715	16413
879.842	16561
879.97	16333
880.097	16078
880.224	16021
880.351	16048
880.478	16128
880.605	16032
880.732	16051
880.859	16295
880.986	16109
881.112	16090
881.239	16017
881.366	15850
881.493	15766
881.619	15652
881.746	15720
881.872	15637
881.999	15599
882.125	15542
882.252	15751
882.378	15690
882.505	15766
882.631	15667
882.757	15545
882.883	15576
883.01	15386
883.136	15488
883.262	15351
883.388	15317
883.514	15576
883.64	15485
883.766	15439
883.892	15294
884.018	15329
884.143	15526
884.269	15584
884.395	15226
884.52	15184
884.646	15169
884.772	15169
884.897	15146
885.023	15119
885.148	15207
885.274	15310
885.399	15302
885.524	15131
885.65	15176
885.775	15161
885.9	15192
886.025	15245
886.15	15157
886.275	15081
886.4	15176
886.525	15180
886.65	15192
886.775	15176
886.9	15245
887.025	15359
887.149	15154
887.274	15058
887.399	14963
887.523	14963
887.648	14910
887.773	14868
887.897	15051
888.021	15028
888.146	14887
888.27	15039
888.395	15142
888.519	15127
888.643	14975
888.767	15097
888.891	14845
889.015	14819
889.139	14902
889.263	14887
889.387	14990
889.511	15123
889.635	14979
889.759	14769
889.883	14830
890.006	14804
890.13	14933
890.254	14792
890.377	14769
890.501	14636
890.624	14549
890.748	14716
890.871	14541
890.995	14514
891.118	14495
891.241	14579
891.364	14621
891.488	14590
891.611	14575
891.734	14571
891.857	14632
891.98	14636
892.103	14648
892.226	14522
892.349	14503
892.471	14313
892.594	14457
892.717	14533
892.839	14488
892.962	14434
893.085	14533
893.207	14568
893.33	14476
893.452	14431
893.575	14632
893.697	14480
893.819	14670
893.941	14849
894.064	14689
894.186	14476
894.308	14526
894.43	14568
894.552	14716
894.674	14655
894.796	14511
894.918	14571
895.04	14507
895.161	14636
895.283	14583
895.405	14594
895.526	14632
895.648	14571
895.769	14644
895.891	14613
896.012	14731
896.134	14705
896.255	14697
896.376	14629
896.498	14754
896.619	14777
896.74	14686
896.861	14777
896.982	14971
897.103	15100
897.224	15013
897.345	14960
897.466	14834
897.587	14887
897.708	15100
897.828	14944
897.949	14861
898.07	14891
898.19	14986
898.311	15119
898.431	14941
898.552	15032
898.672	15150
898.792	15028
898.913	15100
899.033	14944
899.153	14895
899.273	14777
899.393	14796
899.513	14823
899.633	14857
899.753	14960
899.873	14769
899.993	14956
900.113	14963
900.232	14800
900.352	14819
900.472	14731
900.591	14701
900.711	14735
900.83	14716
900.95	14826
901.069	14769
901.189	14636
901.308	14362
901.427	14396
901.546	14332
901.665	14381
901.784	14503
901.904	14248
902.023	14138
902.141	14031
902.26	13955
902.379	14084
902.498	13967
902.617	13940
902.735	13932
902.854	13936
902.973	13887
903.091	13700
903.21	13616
903.328	13731
903.446	13506
903.565	13563
903.683	13510
903.801	13415
903.919	13483
904.038	13369
904.156	13339
904.274	13396
904.392	13362
904.51	13247
904.627	13285
904.745	13403
904.863	13362
904.981	13213
905.098	13027
905.216	13042
905.334	13053
905.451	12977
905.569	12962
905.686	13122
905.803	13004
905.921	12886
906.038	12897
906.155	12913
906.272	12730
906.389	12722
906.506	12578
906.623	12620
906.74	12506
906.857	12551
906.974	12593
907.091	12642
907.208	12753
907.324	12734
907.441	12475
907.557	12433
907.674	12422
907.79	12296
907.907	12403
908.023	12330
908.139	12346
908.256	12251
908.372	12327
908.488	12289
908.604	12178
908.72	12102
908.836	12171
908.952	12106
909.068	12209
909.184	12213
909.3	12102
909.415	12136
909.531	12121
909.647	11863
909.762	11847
909.878	11802
909.993	11813
910.108	11828
910.224	11798
910.339	11866
910.454	11783
910.57	11752
910.685	11604
910.8	11878
910.915	11885
911.03	11779
911.145	11646
911.259	11490
911.374	11627
911.489	11417
911.604	11490
911.718	11303
911.833	11341
911.947	11193
912.062	11227
912.176	11258
912.291	11322
912.405	11292
912.519	11455
912.633	11486
912.748	11368
912.862	11326
912.976	11147
913.09	11029
913.204	11117
913.318	11181
913.431	11296
913.545	11349
913.659	11307
913.772	11109
913.886	11041
914	11052
914.113	11220
914.226	11140
914.34	11147
914.453	10965
914.566	11174
914.68	10976
914.793	10965
914.906	10839
915.019	10790
915.132	10790
915.245	10740
915.358	10816
915.47	10809
915.583	10869
915.696	10763
915.809	10961
915.921	11041
916.034	10725
916.146	10694
916.259	10767
916.371	10835
916.483	10782
916.595	10679
916.708	10831
916.82	10759
916.932	10736
917.044	10710
917.156	10733
917.268	10622
917.38	10649
917.491	10569
917.603	10618
917.715	10714
917.826	10672
917.938	10573
918.049	10523
918.161	10569
918.272	10843
918.384	10729
918.495	10702
918.606	10527
918.717	10413
918.828	10455
918.939	10542
919.05	10432
919.161	10500
919.272	10280
919.383	10390
919.494	10527
919.604	10759
919.715	10546
919.826	10390
919.936	10421
920.047	10546
920.157	10599
920.267	10721
920.378	10538
920.488	10508
920.598	10660
920.708	10831
920.818	10721
920.928	10683
921.038	10839
921.148	10778
921.258	10580
921.368	10447
921.477	10379
921.587	10352
921.697	10162
921.806	10421
921.916	10246
922.025	10025
922.134	10025
922.244	10071
922.353	10120
922.462	9998
922.571	9835
922.68	9751
922.789	9743
922.898	9781
923.007	9679
923.116	9713
923.224	9686
923.333	9751
923.442	9633
923.55	9523
923.659	9595
923.767	9713
923.876	9610
923.984	9675
924.092	9545
924.201	9564
924.309	9637
924.417	9625
924.525	9545
924.633	9580
924.741	10257
924.849	9329
924.956	9473
925.064	9374
925.172	9264
925.279	9298
925.387	9348
925.494	9439
925.602	9549
925.709	9416
925.816	9272
925.924	9367
926.031	9351
926.138	9340
926.245	9473
926.352	9306
926.459	9424
926.566	9466
926.673	9313
926.779	9287
926.886	9253
926.993	9104
927.099	9055
927.206	9062
927.312	9020
927.419	9154
927.525	9173
927.631	9085
927.737	8998
927.843	8929
927.95	8876
928.056	8967
928.162	9017
928.267	9108
928.373	9637
928.479	9062
928.585	8800
928.69	9013
928.796	9024
928.901	8906
929.007	8746
929.112	8902
929.218	8857
929.323	8864
929.428	8792
929.533	8982
929.638	8773
929.743	8743
929.848	8804
929.953	8743
930.058	8678
930.163	8568
930.267	8621
930.372	8743
930.477	8526
930.581	8807
930.685	8636
930.79	8438
930.894	8533
930.998	8450
931.103	8682
931.207	8279
931.311	8153
931.415	8161
931.519	8005
931.623	8008
