Data from test_V78500241_3444.txt Node
Date: Fri Mar 25 14:57:41 CST 2022
User: usil
Spectrometer: V785-0024
Trigger mode: 0
Integration Time (sec): 4.000000E-1
Scans to average: 1
Nonlinearity correction enabled: false
Boxcar width: 0
Storing dark spectrum: false
XAxis mode: Wavelengths
Number of Pixels in Spectrum: 1024
>>>>>Begin Spectral Data<<<<<
801.071	21835
801.214	21705
801.356	21557
801.499	21412
801.641	21374
801.783	21203
801.926	21291
802.068	21233
802.211	21116
802.353	21085
802.496	20853
802.638	20781
802.78	20754
802.923	20689
803.065	20461
803.208	20594
803.35	20743
803.492	20674
803.635	20891
803.777	20606
803.919	20708
804.061	20998
804.204	20705
804.346	20579
804.488	20488
804.63	20609
804.773	20465
804.915	20476
805.057	20632
805.199	20590
805.341	20648
805.483	20613
805.626	20609
805.768	20549
805.91	20530
806.052	20571
806.194	20488
806.336	20564
806.478	20488
806.62	20602
806.762	20549
806.904	20777
807.046	20921
807.188	20906
807.33	20834
807.472	20906
807.614	20708
807.756	20765
807.898	20594
808.04	20549
808.182	20640
808.324	20625
808.465	20514
808.607	20663
808.749	20823
808.891	20982
809.033	20971
809.174	20826
809.316	20826
809.458	20804
809.6	20887
809.741	20921
809.883	20925
810.025	21039
810.166	20982
810.308	20956
810.45	21009
810.591	20994
810.733	20670
810.875	20689
811.016	20632
811.158	20541
811.299	20640
811.441	20804
811.582	20663
811.724	20537
811.865	20579
812.007	20583
812.148	20617
812.29	20613
812.431	20800
812.573	20952
812.714	21032
812.855	21237
812.997	21249
813.138	21355
813.279	21157
813.421	21013
813.562	21047
813.703	20914
813.845	20705
813.986	20583
814.127	20431
814.268	20077
814.41	20317
814.551	20225
814.692	20164
814.833	20088
814.974	20092
815.115	20210
815.256	19963
815.397	20084
815.539	20012
815.68	19947
815.821	19845
815.962	19967
816.103	19875
816.244	19757
816.385	19628
816.526	19620
816.666	19369
816.807	19331
816.948	19388
817.089	19354
817.23	19350
817.371	19259
817.512	19304
817.653	19274
817.793	19244
817.934	19301
818.075	19263
818.216	19312
818.356	19209
818.497	19080
818.638	18928
818.778	18977
818.919	18958
819.06	19015
819.2	19148
819.341	19232
819.481	19221
819.622	19365
819.762	19419
819.903	19377
820.043	19381
820.184	19187
820.324	19289
820.465	19301
820.605	19285
820.746	19247
820.886	19137
821.026	19316
821.167	19190
821.307	19327
821.447	19251
821.588	19053
821.728	19069
821.868	18837
822.008	18734
822.149	18734
822.289	18673
822.429	18437
822.569	18395
822.709	18414
822.849	18174
822.99	18178
823.13	18148
823.27	18068
823.41	18045
823.55	17939
823.69	18045
823.83	17980
823.97	17885
824.11	17707
824.25	17756
824.389	17710
824.529	17870
824.669	17790
824.809	17836
824.949	17836
825.089	17813
825.228	17783
825.368	17623
825.508	17539
825.648	17573
825.787	17554
825.927	17668
826.067	17471
826.206	17455
826.346	17577
826.485	17596
826.625	17463
826.765	17604
826.904	17596
827.044	17322
827.183	17345
827.323	17261
827.462	17288
827.601	17147
827.741	17227
827.88	17261
828.02	17159
828.159	17322
828.298	17178
828.437	17273
828.577	17117
828.716	17387
828.855	17223
828.994	17018
829.134	17045
829.273	17086
829.412	16911
829.551	17003
829.69	16900
829.829	17075
829.968	17162
830.107	17075
830.246	16976
830.385	17018
830.524	16968
830.663	16828
830.802	16710
830.941	16561
831.08	16611
831.219	16649
831.357	16649
831.496	16923
831.635	16637
831.774	16645
831.913	16470
832.051	16409
832.19	16386
832.329	16428
832.467	16413
832.606	16409
832.744	16375
832.883	16306
833.022	16295
833.16	16329
833.299	16356
833.437	16314
833.576	16348
833.714	16375
833.852	16421
833.991	16432
834.129	16333
834.267	16390
834.406	16291
834.544	16375
834.682	16523
834.821	16428
834.959	16626
835.097	16310
835.235	16485
835.373	16405
835.511	16405
835.65	16188
835.788	16295
835.926	16253
836.064	16067
836.202	16074
836.34	16268
836.478	16337
836.615	16352
836.753	16234
836.891	16344
837.029	16325
837.167	16287
837.305	16173
837.443	16135
837.58	16242
837.718	16120
837.856	16120
837.993	16128
838.131	16128
838.269	16090
838.406	16219
838.544	16017
838.681	15880
838.819	15880
838.956	15770
839.094	15690
839.231	15724
839.369	15819
839.506	16067
839.643	15960
839.781	15781
839.918	15671
840.055	15812
840.193	15770
840.33	15652
840.467	15682
840.604	15759
840.742	15911
840.879	15625
841.016	15637
841.153	15591
841.29	15838
841.427	15682
841.564	15861
841.701	15713
841.838	15778
841.975	15652
842.112	15633
842.249	15622
842.385	15511
842.522	15747
842.659	15564
842.796	15443
842.933	15637
843.069	15526
843.206	15492
843.343	15576
843.479	15519
843.616	15477
843.752	15298
843.889	15241
844.025	15363
844.162	15256
844.298	15306
844.435	15382
844.571	15176
844.708	15367
844.844	15431
844.98	15435
845.117	15397
845.253	15192
845.389	15173
845.525	15230
845.661	15218
845.798	15058
845.934	15108
846.07	15116
846.206	15154
846.342	15249
846.478	15039
846.614	14952
846.75	14853
846.886	14914
847.022	15001
847.158	14872
847.294	14864
847.429	14921
847.565	14857
847.701	15127
847.837	14651
847.972	14507
848.108	14712
848.244	14602
848.379	14442
848.515	14427
848.65	14450
848.786	14377
848.921	14484
849.057	14556
849.192	14689
849.328	14514
849.463	14431
849.598	14412
849.734	14351
849.869	14362
850.004	14282
850.14	14309
850.275	14210
850.41	14168
850.545	14206
850.68	14214
850.815	14237
850.95	14237
851.085	14434
851.22	14317
851.355	14282
851.49	14298
851.625	14278
851.76	14138
851.895	14138
852.03	14119
852.165	14176
852.299	14278
852.434	14324
852.569	14263
852.703	14267
852.838	14385
852.973	14446
853.107	14518
853.242	14214
853.376	14130
853.511	14138
853.645	14065
853.78	14248
853.914	14176
854.048	14077
854.183	14130
854.317	14073
854.451	14347
854.585	14126
854.72	14164
854.854	14229
854.988	14039
855.122	14187
855.256	14084
855.39	14157
855.524	14206
855.658	14263
855.792	14218
855.926	14187
856.06	14164
856.194	14263
856.327	14164
856.461	14084
856.595	14096
856.729	14088
856.862	14324
856.996	14126
857.13	14275
857.263	14370
857.397	14286
857.53	14199
857.664	14221
857.797	14267
857.931	14278
858.064	14240
858.197	14263
858.331	14134
858.464	14073
858.597	14077
858.731	14195
858.864	14123
858.997	14126
859.13	14130
859.263	14176
859.396	14259
859.529	14206
859.662	14126
859.795	14168
859.928	14259
860.061	14370
860.194	14301
860.327	14233
860.46	14145
860.592	14210
860.725	14351
860.858	14195
860.99	14221
861.123	14168
861.256	14065
861.388	14138
861.521	14819
861.653	14043
861.786	13894
861.918	13913
862.05	14069
862.183	14024
862.315	14221
862.447	14180
862.58	14096
862.712	13894
862.844	13906
862.976	14111
863.108	13970
863.24	14446
863.372	13791
863.504	14065
863.636	13978
863.768	13890
863.9	13879
864.032	13826
864.164	13849
864.296	13936
864.428	14016
864.559	14100
864.691	13997
864.823	14065
864.954	14027
865.086	14001
865.217	13894
865.349	13852
865.48	13986
865.612	13864
865.743	14035
865.875	13902
866.006	13849
866.137	13909
866.269	13947
866.4	13913
866.531	13818
866.662	13906
866.793	13814
866.924	13879
867.055	13917
867.186	13932
867.317	13841
867.448	13852
867.579	13925
867.71	13811
867.841	13864
867.972	13879
868.103	13993
868.233	13932
868.364	13936
868.495	14050
868.625	14180
868.756	14278
868.886	14107
869.017	14100
869.147	14282
869.278	14309
869.408	14263
869.539	14126
869.669	14199
869.799	14218
869.929	14290
870.06	14282
870.19	14495
870.32	14431
870.45	14602
870.58	14571
870.71	14674
870.84	14743
870.97	14499
871.1	14503
871.23	14765
871.36	14845
871.489	14663
871.619	14769
871.749	14785
871.879	14807
872.008	14880
872.138	14800
872.267	14788
872.397	14632
872.526	14640
872.656	14625
872.785	14610
872.915	14777
873.044	14952
873.173	14705
873.303	14914
873.432	14830
873.561	14979
873.69	14899
873.819	14765
873.948	14838
874.077	14918
874.206	14735
874.335	14842
874.464	14956
874.593	15150
874.722	15036
874.851	15241
874.979	15176
875.108	15150
875.237	15093
875.365	15017
875.494	15180
875.623	15203
875.751	15074
875.88	15195
876.008	15291
876.136	15408
876.265	15530
876.393	15835
876.521	15641
876.65	15629
876.778	15663
876.906	15576
877.034	15492
877.162	15526
877.29	15603
877.418	15591
877.546	15538
877.674	15553
877.802	15523
877.93	15507
878.058	15511
878.185	15469
878.313	15629
878.441	15534
878.568	15466
878.696	15504
878.824	15549
878.951	15557
879.079	15724
879.206	15846
879.333	15720
879.461	15629
879.588	15656
879.715	15778
879.842	15770
879.97	15564
880.097	15458
880.224	15367
880.351	15310
880.478	15477
880.605	15340
880.732	15306
880.859	15663
880.986	15401
881.112	15424
881.239	15291
881.366	15222
881.493	15051
881.619	15039
881.746	15070
881.872	15146
881.999	15043
882.125	15135
882.252	15119
882.378	15100
882.505	15207
882.631	15043
882.757	14872
882.883	14921
883.01	14963
883.136	14838
883.262	14788
883.388	14777
883.514	14933
883.64	14914
883.766	14883
883.892	14697
884.018	14594
884.143	14906
884.269	15077
884.395	14610
884.52	14610
884.646	14598
884.772	14503
884.897	14511
885.023	14571
885.148	14804
885.274	14811
885.399	14769
885.524	14537
885.65	14556
885.775	14648
885.9	14560
886.025	14689
886.15	14644
886.275	14575
886.4	14476
886.525	14552
886.65	14526
886.775	14541
886.9	14743
887.025	14849
887.149	14678
887.274	14442
887.399	14431
887.523	14339
887.648	14393
887.773	14328
887.897	14434
888.021	14457
888.146	14309
888.27	14530
888.395	14617
888.519	14423
888.643	14438
888.767	14343
888.891	14389
889.015	14298
889.139	14313
889.263	14263
889.387	14336
889.511	14484
889.635	14370
889.759	14248
889.883	14202
890.006	14286
890.13	14396
890.254	14305
890.377	14195
890.501	14153
890.624	14084
890.748	14164
890.871	14054
890.995	13940
891.118	13864
891.241	13993
891.364	13982
891.488	14073
891.611	13917
891.734	13955
891.857	14142
891.98	14031
892.103	14077
892.226	14107
892.349	13906
892.471	13856
892.594	13974
892.717	14054
892.839	13982
892.962	14008
893.085	14008
893.207	14058
893.33	13963
893.452	13864
893.575	13970
893.697	13989
893.819	14111
893.941	14092
894.064	14180
894.186	13986
894.308	13921
894.43	14229
894.552	14126
894.674	14145
894.796	13940
894.918	14001
895.04	14100
895.161	14142
895.283	14153
895.405	14058
895.526	14084
895.648	14111
895.769	14088
895.891	14134
896.012	14267
896.134	14229
896.255	14161
896.376	14096
896.498	14103
896.619	14183
896.74	14191
896.861	14252
896.982	14450
897.103	14629
897.224	14457
897.345	14389
897.466	14240
897.587	14457
897.708	14533
897.828	14488
897.949	14366
898.07	14370
898.19	14446
898.311	14689
898.431	14488
898.552	14522
898.672	14571
898.792	14594
898.913	14431
899.033	14511
899.153	14343
899.273	14229
899.393	14339
899.513	14362
899.633	14305
899.753	14339
899.873	14313
899.993	14465
900.113	14396
900.232	14412
900.352	14263
900.472	14294
900.591	14161
900.711	14366
900.83	14202
900.95	14339
901.069	14374
901.189	14115
901.308	13932
901.427	13986
901.546	13909
901.665	13928
901.784	14001
901.904	13746
902.023	13738
902.141	13643
902.26	13514
902.379	13586
902.498	13472
902.617	13373
902.735	13514
902.854	13483
902.973	13460
903.091	13247
903.21	13160
903.328	13179
903.446	13149
903.565	13069
903.683	13027
903.801	12981
903.919	12985
904.038	13023
904.156	12939
904.274	12905
904.392	12810
904.51	12890
904.627	12757
904.745	12863
904.863	12943
904.981	12662
905.098	12604
905.216	12570
905.334	12559
905.451	12540
905.569	12445
905.686	12464
905.803	12559
905.921	12448
906.038	12490
906.155	12422
906.272	12254
906.389	12342
906.506	12220
906.623	12163
906.74	12057
906.857	12053
906.974	12034
907.091	12251
907.208	12251
907.324	12281
907.441	12087
907.557	11965
907.674	11874
907.79	11916
907.907	11874
908.023	11996
908.139	11920
908.256	11893
908.372	11832
908.488	11813
908.604	11718
908.72	11665
908.836	11642
908.952	11657
909.068	11676
909.184	11756
909.3	11646
909.415	11684
909.531	11707
909.647	11448
909.762	11410
909.878	11436
909.993	11395
910.108	11440
910.224	11345
910.339	11471
910.454	11345
910.57	11277
910.685	11216
910.8	11474
910.915	11528
911.03	11364
911.145	11086
911.259	11083
911.374	11136
911.489	11033
911.604	11029
911.718	10919
911.833	10873
911.947	10824
912.062	10679
912.176	10824
912.291	10919
912.405	10873
912.519	11105
912.633	11041
912.748	10949
912.862	10873
912.976	10748
913.09	10683
913.204	10721
913.318	10850
913.431	10873
913.545	10843
913.659	10889
913.772	10755
913.886	10714
914	10710
914.113	10755
914.226	10748
914.34	10820
914.453	10558
914.566	10694
914.68	10611
914.793	10554
914.906	10428
915.019	10421
915.132	10348
915.245	10500
915.358	10417
915.47	10531
915.583	10504
915.696	10451
915.809	10459
915.921	10561
916.034	10417
916.146	10436
916.259	10341
916.371	10478
916.483	10386
916.595	10318
916.708	10398
916.82	10352
916.932	10322
917.044	10329
917.156	10322
917.268	10268
917.38	10249
917.491	10249
917.603	10219
917.715	10382
917.826	10322
917.938	10246
918.049	10139
918.161	10322
918.272	10367
918.384	10379
918.495	10272
918.606	10166
918.717	10082
918.828	10211
918.939	10135
919.05	10112
919.161	10116
919.272	9949
919.383	9956
919.494	10154
919.604	10371
919.715	10162
919.826	10139
919.936	10131
920.047	10337
920.157	10196
920.267	10344
920.378	10207
920.488	10204
920.598	10371
920.708	10451
920.818	10333
920.928	10325
921.038	10497
921.148	10462
921.258	10234
921.368	10071
921.477	10051
921.587	10040
921.697	9926
921.806	10063
921.916	9926
922.025	9755
922.134	9743
922.244	9622
922.353	9808
922.462	9663
922.571	9534
922.68	9401
922.789	9443
922.898	9401
923.007	9321
923.116	9485
923.224	9401
923.333	9477
923.442	9317
923.55	9310
923.659	9355
923.767	9264
923.876	9233
923.984	9317
924.092	9325
924.201	9393
924.309	9355
924.417	9256
924.525	9230
924.633	9313
924.741	10093
924.849	9089
924.956	9241
925.064	9081
925.172	9001
925.279	9032
925.387	9127
925.494	9074
925.602	9256
925.709	9230
925.816	9024
925.924	9024
926.031	9192
926.138	9058
926.245	9195
926.352	9001
926.459	9119
926.566	9214
926.673	9077
926.779	8906
926.886	8910
926.993	8895
927.099	8788
927.206	8762
927.312	8766
927.419	8838
927.525	8769
927.631	8864
927.737	8701
927.843	8746
927.95	8590
928.056	8640
928.162	8697
928.267	8746
928.373	9329
928.479	8819
928.585	8579
928.69	8762
928.796	8746
928.901	8621
929.007	8438
929.112	8587
929.218	8636
929.323	8617
929.428	8507
929.533	8678
929.638	8469
929.743	8530
929.848	8503
929.953	8495
930.058	8415
930.163	8248
930.267	8282
930.372	8442
930.477	8267
930.581	8533
930.685	8381
930.79	8256
930.894	8286
930.998	8225
931.103	8408
931.207	8001
931.311	7928
931.415	7944
931.519	7761
931.623	7750
