Data from test_V78500241_3655.txt Node
Date: Fri Mar 25 14:59:10 CST 2022
User: usil
Spectrometer: V785-0024
Trigger mode: 0
Integration Time (sec): 4.000000E-1
Scans to average: 1
Nonlinearity correction enabled: false
Boxcar width: 0
Storing dark spectrum: false
XAxis mode: Wavelengths
Number of Pixels in Spectrum: 1024
>>>>>Begin Spectral Data<<<<<
801.071	21907
801.214	21663
801.356	21572
801.499	21515
801.641	21279
801.783	21218
801.926	21268
802.068	21222
802.211	21173
802.353	20986
802.496	20868
802.638	20807
802.78	20811
802.923	20629
803.065	20617
803.208	20621
803.35	20609
803.492	20712
803.635	20731
803.777	20590
803.919	20590
804.061	20944
804.204	20670
804.346	20446
804.488	20556
804.63	20533
804.773	20427
804.915	20431
805.057	20579
805.199	20446
805.341	20663
805.483	20518
805.626	20556
805.768	20438
805.91	20503
806.052	20454
806.194	20438
806.336	20587
806.478	20442
806.62	20476
806.762	20450
806.904	20651
807.046	20861
807.188	20823
807.33	20861
807.472	20937
807.614	20674
807.756	20636
807.898	20564
808.04	20598
808.182	20678
808.324	20754
808.465	20609
808.607	20830
808.749	20857
808.891	20960
809.033	21043
809.174	21047
809.316	20834
809.458	20788
809.6	20834
809.741	20876
809.883	20975
810.025	21024
810.166	21070
810.308	20902
810.45	21013
810.591	20857
810.733	20781
810.875	20621
811.016	20537
811.158	20419
811.299	20636
811.441	20693
811.582	20724
811.724	20590
811.865	20579
812.007	20556
812.148	20537
812.29	20632
812.431	20864
812.573	20826
812.714	21013
812.855	21116
812.997	21127
813.138	21306
813.279	21169
813.421	21070
813.562	21024
813.703	20834
813.845	20834
813.986	20450
814.127	20282
814.268	20240
814.41	20210
814.551	20134
814.692	20263
814.833	20065
814.974	20065
815.115	20138
815.256	20084
815.397	20020
815.539	19974
815.68	19906
815.821	19845
815.962	19871
816.103	19753
816.244	19750
816.385	19666
816.526	19628
816.666	19460
816.807	19270
816.948	19251
817.089	19422
817.23	19354
817.371	19270
817.512	19274
817.653	19240
817.793	19282
817.934	19202
818.075	19343
818.216	19339
818.356	19217
818.497	19069
818.638	18932
818.778	18958
818.919	18977
819.06	18951
819.2	19152
819.341	19148
819.481	19148
819.622	19400
819.762	19567
819.903	19445
820.043	19362
820.184	19274
820.324	19324
820.465	19369
820.605	19232
820.746	19270
820.886	19065
821.026	19179
821.167	19247
821.307	19365
821.447	19198
821.588	19095
821.728	18897
821.868	18825
822.008	18757
822.149	18734
822.289	18604
822.429	18475
822.569	18300
822.709	18441
822.849	18121
822.99	18152
823.13	18178
823.27	18068
823.41	18007
823.55	17973
823.69	17961
823.83	18053
823.97	17863
824.11	17699
824.25	17741
824.389	17699
824.529	17863
824.669	17760
824.809	17783
824.949	17828
825.089	17935
825.228	17718
825.368	17570
825.508	17627
825.648	17512
825.787	17554
825.927	17623
826.067	17459
826.206	17581
826.346	17558
826.485	17512
826.625	17417
826.765	17589
826.904	17497
827.044	17337
827.183	17220
827.323	17155
827.462	17322
827.601	17261
827.741	17277
827.88	17254
828.02	17045
828.159	17254
828.298	17227
828.437	17261
828.577	17227
828.716	17231
828.855	17223
828.994	17067
829.134	17025
829.273	16991
829.412	17037
829.551	16908
829.69	16934
829.829	16980
829.968	17079
830.107	17086
830.246	17075
830.385	16904
830.524	16881
830.663	16896
830.802	16767
830.941	16588
831.08	16637
831.219	16710
831.357	16611
831.496	16824
831.635	16603
831.774	16580
831.913	16481
832.051	16371
832.19	16341
832.329	16436
832.467	16310
832.606	16249
832.744	16166
832.883	16196
833.022	16265
833.16	16295
833.299	16322
833.437	16310
833.576	16287
833.714	16375
833.852	16276
833.991	16310
834.129	16485
834.267	16432
834.406	16451
834.544	16375
834.682	16367
834.821	16367
834.959	16493
835.097	16246
835.235	16341
835.373	16455
835.511	16344
835.65	16386
835.788	16249
835.926	16158
836.064	16074
836.202	16105
836.34	16314
836.478	16306
836.615	16246
836.753	16310
836.891	16310
837.029	16329
837.167	16200
837.305	16230
837.443	16177
837.58	16169
837.718	16135
837.856	16029
837.993	16109
838.131	16158
838.269	16154
838.406	16109
838.544	15975
838.681	15941
838.819	15835
838.956	15717
839.094	15785
839.231	15816
839.369	15884
839.506	16150
839.643	16044
839.781	15778
839.918	15625
840.055	15739
840.193	15789
840.33	15747
840.467	15652
840.604	15808
840.742	15941
840.879	15595
841.016	15641
841.153	15591
841.29	15747
841.427	15667
841.564	15774
841.701	15797
841.838	15698
841.975	15641
842.112	15595
842.249	15424
842.385	15504
842.522	15698
842.659	15564
842.796	15405
842.933	15538
843.069	15447
843.206	15648
843.343	15561
843.479	15507
843.616	15507
843.752	15287
843.889	15237
844.025	15420
844.162	15287
844.298	15412
844.435	15401
844.571	15294
844.708	15294
844.844	15405
844.98	15405
845.117	15298
845.253	15150
845.389	15138
845.525	15252
845.661	15180
845.798	15058
845.934	15157
846.07	15005
846.206	15165
846.342	15203
846.478	15199
846.614	14861
846.75	14773
846.886	14769
847.022	14921
847.158	14963
847.294	14902
847.429	14891
847.565	14853
847.701	15081
847.837	14530
847.972	14514
848.108	14739
848.244	14636
848.379	14556
848.515	14484
848.65	14473
848.786	14415
848.921	14465
849.057	14522
849.192	14579
849.328	14461
849.463	14366
849.598	14317
849.734	14370
849.869	14305
850.004	14275
850.14	14244
850.275	14263
850.41	14172
850.545	14256
850.68	14180
850.815	14286
850.95	14202
851.085	14301
851.22	14358
851.355	14256
851.49	14278
851.625	14187
851.76	14111
851.895	14081
852.03	14096
852.165	14180
852.299	14084
852.434	14320
852.569	14195
852.703	14218
852.838	14393
852.973	14377
853.107	14320
853.242	14225
853.376	14172
853.511	13940
853.645	14005
853.78	14229
853.914	14027
854.048	13940
854.183	14084
854.317	14134
854.451	14282
854.585	14069
854.72	14187
854.854	14088
854.988	14062
855.122	14035
855.256	14035
855.39	14073
855.524	14183
855.658	14199
855.792	14233
855.926	14107
856.06	14145
856.194	14225
856.327	14142
856.461	14035
856.595	14027
856.729	14115
856.862	14176
856.996	14119
857.13	14145
857.263	14149
857.397	14225
857.53	14103
857.664	14191
857.797	14218
857.931	14180
858.064	14073
858.197	14237
858.331	14145
858.464	13978
858.597	13982
858.731	14069
858.864	14145
858.997	14046
859.13	14077
859.263	14176
859.396	14240
859.529	14088
859.662	14024
859.795	14005
859.928	14229
860.061	14214
860.194	14282
860.327	14123
860.46	14062
860.592	14183
860.725	14202
860.858	14214
860.99	14145
861.123	13974
861.256	13947
861.388	14202
861.521	14876
861.653	13970
861.786	13978
861.918	14050
862.05	14008
862.183	14027
862.315	14157
862.447	14134
862.58	14065
862.712	13959
862.844	13856
862.976	13947
863.108	13921
863.24	14271
863.372	13868
863.504	13883
863.636	13746
863.768	13826
863.9	13890
864.032	13814
864.164	13761
864.296	13887
864.428	14001
864.559	14005
864.691	13944
864.823	13894
864.954	13913
865.086	13940
865.217	13913
865.349	13837
865.48	13807
865.612	13997
865.743	13982
865.875	13879
866.006	13879
866.137	13845
866.269	13860
866.4	13917
866.531	13807
866.662	13784
866.793	13799
866.924	13852
867.055	13845
867.186	13860
867.317	13963
867.448	13738
867.579	13902
867.71	13772
867.841	13811
867.972	13940
868.103	13807
868.233	13940
868.364	13883
868.495	13947
868.625	14123
868.756	14153
868.886	13955
869.017	14176
869.147	14267
869.278	14267
869.408	14100
869.539	14084
869.669	14123
869.799	14157
869.929	14195
870.06	14305
870.19	14446
870.32	14476
870.45	14484
870.58	14560
870.71	14598
870.84	14655
870.97	14495
871.1	14530
871.23	14689
871.36	14697
871.489	14617
871.619	14682
871.749	14754
871.879	14777
872.008	14830
872.138	14727
872.267	14686
872.397	14594
872.526	14659
872.656	14522
872.785	14598
872.915	14754
873.044	14819
873.173	14727
873.303	14804
873.432	14735
873.561	14902
873.69	14762
873.819	14735
873.948	14891
874.077	14868
874.206	14754
874.335	14781
874.464	14933
874.593	15077
874.722	14906
874.851	15081
874.979	15062
875.108	15222
875.237	15070
875.365	14994
875.494	15066
875.623	15142
875.751	15138
875.88	15138
876.008	15291
876.136	15359
876.265	15488
876.393	15694
876.521	15728
876.65	15652
876.778	15507
876.906	15469
877.034	15488
877.162	15481
877.29	15466
877.418	15572
877.546	15473
877.674	15614
877.802	15568
877.93	15530
878.058	15469
878.185	15439
878.313	15424
878.441	15504
878.568	15355
878.696	15386
878.824	15485
878.951	15534
879.079	15713
879.206	15762
879.333	15686
879.461	15504
879.588	15576
879.715	15747
879.842	15793
879.97	15728
880.097	15431
880.224	15340
880.351	15462
880.478	15370
880.605	15359
880.732	15397
880.859	15576
880.986	15370
881.112	15321
881.239	15279
881.366	15070
881.493	15089
881.619	14994
881.746	15005
881.872	14960
881.999	14994
882.125	14918
882.252	14975
882.378	15039
882.505	15085
882.631	14914
882.757	14842
882.883	14906
883.01	14891
883.136	14727
883.262	14697
883.388	14587
883.514	14826
883.64	14948
883.766	14849
883.892	14693
884.018	14701
884.143	14754
884.269	14849
884.395	14617
884.52	14629
884.646	14476
884.772	14434
884.897	14484
885.023	14648
885.148	14674
885.274	14739
885.399	14663
885.524	14549
885.65	14552
885.775	14541
885.9	14629
886.025	14651
886.15	14632
886.275	14560
886.4	14492
886.525	14454
886.65	14511
886.775	14419
886.9	14811
887.025	14705
887.149	14503
887.274	14347
887.399	14343
887.523	14233
887.648	14298
887.773	14252
887.897	14473
888.021	14427
888.146	14377
888.27	14507
888.395	14461
888.519	14389
888.643	14476
888.767	14450
888.891	14415
889.015	14218
889.139	14259
889.263	14240
889.387	14343
889.511	14431
889.635	14351
889.759	14259
889.883	14187
890.006	14282
890.13	14252
890.254	14229
890.377	14218
890.501	13993
890.624	13936
890.748	14119
890.871	14050
890.995	13925
891.118	13932
891.241	13913
891.364	14020
891.488	14077
891.611	13947
891.734	13974
891.857	14027
891.98	13986
892.103	14020
892.226	13967
892.349	13928
892.471	13738
892.594	13936
892.717	13967
892.839	13879
892.962	14020
893.085	14046
893.207	13807
893.33	13761
893.452	13795
893.575	13951
893.697	13841
893.819	14183
893.941	14225
894.064	14058
894.186	13913
894.308	13974
894.43	14103
894.552	14145
894.674	14142
894.796	13898
894.918	14073
895.04	14012
895.161	14005
895.283	14103
895.405	14012
895.526	14077
895.648	14069
895.769	14043
895.891	14119
896.012	14119
896.134	14138
896.255	14130
896.376	14096
896.498	14043
896.619	14210
896.74	14157
896.861	14225
896.982	14442
897.103	14602
897.224	14332
897.345	14465
897.466	14290
897.587	14309
897.708	14488
897.828	14412
897.949	14320
898.07	14271
898.19	14385
898.311	14507
898.431	14423
898.552	14362
898.672	14549
898.792	14579
898.913	14454
899.033	14465
899.153	14271
899.273	14259
899.393	14225
899.513	14492
899.633	14256
899.753	14332
899.873	14381
899.993	14362
900.113	14298
900.232	14457
900.352	14294
900.472	14256
900.591	14115
900.711	14191
900.83	14126
900.95	14301
901.069	14339
901.189	14107
901.308	13871
901.427	13868
901.546	13887
901.665	13811
901.784	13883
901.904	13780
902.023	13597
902.141	13552
902.26	13396
902.379	13525
902.498	13369
902.617	13373
902.735	13495
902.854	13487
902.973	13369
903.091	13171
903.21	13171
903.328	13183
903.446	13110
903.565	13065
903.683	13084
903.801	12958
903.919	13023
904.038	12966
904.156	12795
904.274	12852
904.392	12886
904.51	12810
904.627	12798
904.745	12798
904.863	12802
904.981	12642
905.098	12525
905.216	12517
905.334	12532
905.451	12532
905.569	12490
905.686	12620
905.803	12631
905.921	12224
906.038	12407
906.155	12437
906.272	12289
906.389	12289
906.506	12167
906.623	12057
906.74	12163
906.857	12049
906.974	11992
907.091	12190
907.208	12285
907.324	12125
907.441	12015
907.557	11798
907.674	11824
907.79	11786
907.907	11832
908.023	11863
908.139	11870
908.256	11775
908.372	11805
908.488	11767
908.604	11676
908.72	11646
908.836	11657
908.952	11592
909.068	11630
909.184	11775
909.3	11676
909.415	11638
909.531	11634
909.647	11387
909.762	11467
909.878	11372
909.993	11406
910.108	11341
910.224	11330
910.339	11330
910.454	11322
910.57	11292
910.685	11170
910.8	11490
910.915	11505
911.03	11326
911.145	11170
911.259	11105
911.374	11083
911.489	11090
911.604	10995
911.718	10831
911.833	10953
911.947	10771
912.062	10721
912.176	10816
912.291	10782
912.405	10873
912.519	11071
912.633	11090
912.748	10949
912.862	10869
912.976	10801
913.09	10645
913.204	10714
913.318	10740
913.431	10858
913.545	10809
913.659	10904
913.772	10816
913.886	10611
914	10637
914.113	10668
914.226	10694
914.34	10687
914.453	10599
914.566	10687
914.68	10603
914.793	10634
914.906	10455
915.019	10363
915.132	10306
915.245	10375
915.358	10375
915.47	10398
915.583	10428
915.696	10428
915.809	10512
915.921	10630
916.034	10402
916.146	10409
916.259	10272
916.371	10440
916.483	10390
916.595	10356
916.708	10394
916.82	10363
916.932	10284
917.044	10303
917.156	10310
917.268	10253
917.38	10249
917.491	10238
917.603	10181
917.715	10348
917.826	10314
917.938	10227
918.049	10169
918.161	10242
918.272	10344
918.384	10436
918.495	10287
918.606	10101
918.717	9994
918.828	10120
918.939	10124
919.05	10067
919.161	10082
919.272	9880
919.383	9953
919.494	10131
919.604	10398
919.715	10169
919.826	10078
919.936	10105
920.047	10185
920.157	10173
920.267	10417
920.378	10223
920.488	10059
920.598	10363
920.708	10531
920.818	10390
920.928	10371
921.038	10580
921.148	10421
921.258	10196
921.368	10166
921.477	10025
921.587	10082
921.697	9899
921.806	10021
921.916	9907
922.025	9827
922.134	9732
922.244	9686
922.353	9770
922.462	9614
922.571	9580
922.68	9393
922.789	9412
922.898	9370
923.007	9351
923.116	9431
923.224	9492
923.333	9405
923.442	9313
923.55	9291
923.659	9359
923.767	9386
923.876	9203
923.984	9344
924.092	9226
924.201	9264
924.309	9192
924.417	9275
924.525	9249
924.633	9192
924.741	10048
924.849	9020
924.956	9192
925.064	9085
925.172	8967
925.279	8963
925.387	9058
925.494	9058
925.602	9199
925.709	9154
925.816	9020
925.924	8998
926.031	9157
926.138	9062
926.245	9123
926.352	9047
926.459	9161
926.566	9245
926.673	9039
926.779	8948
926.886	8887
926.993	8819
927.099	8766
927.206	8697
927.312	8788
927.419	8880
927.525	8777
927.631	8819
927.737	8712
927.843	8678
927.95	8625
928.056	8602
928.162	8701
928.267	8731
928.373	9214
928.479	8838
928.585	8571
928.69	8655
928.796	8659
928.901	8644
929.007	8454
929.112	8583
929.218	8556
929.323	8549
929.428	8511
929.533	8674
929.638	8457
929.743	8442
929.848	8480
929.953	8514
930.058	8408
930.163	8248
930.267	8298
930.372	8400
930.477	8244
930.581	8526
930.685	8347
930.79	8199
930.894	8267
930.998	8256
931.103	8385
931.207	8035
931.311	7986
931.415	7902
931.519	7753
931.623	7742
