Data from test_V78500241_491.txt Node
Date: Fri Mar 25 14:37:08 CST 2022
User: usil
Spectrometer: V785-0024
Trigger mode: 0
Integration Time (sec): 4.000000E-1
Scans to average: 1
Nonlinearity correction enabled: false
Boxcar width: 0
Storing dark spectrum: false
XAxis mode: Wavelengths
Number of Pixels in Spectrum: 1024
>>>>>Begin Spectral Data<<<<<
801.071	26568
801.214	26518
801.356	26301
801.499	26275
801.641	26016
801.783	26206
801.926	26153
802.068	25986
802.211	25837
802.353	25624
802.496	25609
802.638	25643
802.78	25510
802.923	25445
803.065	25441
803.208	25464
803.35	25487
803.492	25590
803.635	25772
803.777	25472
803.919	25613
804.061	25875
804.204	25567
804.346	25460
804.488	25445
804.63	25464
804.773	25426
804.915	25571
805.057	25689
805.199	25396
805.341	25426
805.483	25556
805.626	25639
805.768	25415
805.91	25571
806.052	25479
806.194	25537
806.336	25651
806.478	25628
806.62	25582
806.762	25624
806.904	25826
807.046	26130
807.188	25830
807.33	25951
807.472	26126
807.614	25860
807.756	25966
807.898	25708
808.04	25837
808.182	25849
808.324	25966
808.465	26172
808.607	26248
808.749	26366
808.891	26575
809.033	26564
809.174	26609
809.316	26427
809.458	26286
809.6	26214
809.741	26229
809.883	26237
810.025	26347
810.166	26161
810.308	26275
810.45	26195
810.591	26225
810.733	25978
810.875	25963
811.016	25868
811.158	25765
811.299	25993
811.441	26069
811.582	26012
811.724	25887
811.865	25791
812.007	25811
812.148	25852
812.29	25986
812.431	25879
812.573	26305
812.714	26100
812.855	26305
812.997	26427
813.138	26670
813.279	26339
813.421	26400
813.562	26271
813.703	26024
813.845	26031
813.986	25674
814.127	25483
814.268	25445
814.41	25403
814.551	25278
814.692	25605
814.833	25293
814.974	25346
815.115	25350
815.256	25164
815.397	25209
815.539	25202
815.68	25061
815.821	25118
815.962	25114
816.103	25133
816.244	24977
816.385	24890
816.526	24783
816.666	24681
816.807	24536
816.948	24566
817.089	24582
817.23	24532
817.371	24532
817.512	24353
817.653	24525
817.793	24334
817.934	24464
818.075	24384
818.216	24528
818.356	24418
818.497	24372
818.638	24178
818.778	24258
818.919	24251
819.06	24140
819.2	24403
819.341	24376
819.481	24391
819.622	24433
819.762	24642
819.903	24661
820.043	24426
820.184	24574
820.324	24536
820.465	24555
820.605	24578
820.746	24471
820.886	24350
821.026	24525
821.167	24330
821.307	24483
821.447	24395
821.588	24277
821.728	24053
821.868	23851
822.008	23855
822.149	23767
822.289	23836
822.429	23623
822.569	23383
822.709	23509
822.849	23376
822.99	23372
823.13	23277
823.27	23269
823.41	22984
823.55	23044
823.69	23124
823.83	23098
823.97	23060
824.11	22896
824.25	22812
824.389	22858
824.529	22873
824.669	22919
824.809	22915
824.949	22930
825.089	22915
825.228	22908
825.368	22748
825.508	22729
825.648	22615
825.787	22634
825.927	22668
826.067	22660
826.206	22615
826.346	22596
826.485	22660
826.625	22687
826.765	22858
826.904	22599
827.044	22280
827.183	22360
827.323	22272
827.462	22287
827.601	22299
827.741	22371
827.88	22299
828.02	22181
828.159	22181
828.298	22246
828.437	22318
828.577	22177
828.716	22432
828.855	22162
828.994	21983
829.134	21968
829.273	22048
829.412	21876
829.551	21945
829.69	21892
829.829	21861
829.968	21953
830.107	21994
830.246	21934
830.385	21949
830.524	21884
830.663	21854
830.802	21739
830.941	21523
831.08	21633
831.219	21743
831.357	21591
831.496	21701
831.635	21454
831.774	21545
831.913	21473
832.051	21355
832.19	21367
832.329	21389
832.467	21245
832.606	21302
832.744	21237
832.883	21123
833.022	21211
833.16	21173
833.299	21192
833.437	21230
833.576	21157
833.714	21222
833.852	21382
833.991	21370
834.129	21359
834.267	21268
834.406	21291
834.544	21230
834.682	21123
834.821	21161
834.959	21272
835.097	21081
835.235	21275
835.373	21233
835.511	21268
835.65	21070
835.788	20956
835.926	20933
836.064	20906
836.202	20891
836.34	21116
836.478	21203
836.615	21051
836.753	20990
836.891	21150
837.029	21127
837.167	20971
837.305	20956
837.443	20876
837.58	20902
837.718	20948
837.856	20990
837.993	20880
838.131	20899
838.269	20887
838.406	20826
838.544	20758
838.681	20613
838.819	20590
838.956	20442
839.094	20389
839.231	20492
839.369	20530
839.506	20697
839.643	20617
839.781	20347
839.918	20286
840.055	20320
840.193	20256
840.33	20282
840.467	20244
840.604	20275
840.742	20461
840.879	20096
841.016	20172
841.153	20081
841.29	20446
841.427	20431
841.564	20294
841.701	20263
841.838	20191
841.975	20164
842.112	20214
842.249	19936
842.385	20096
842.522	20164
842.659	19993
842.796	20035
842.933	19982
843.069	19963
843.206	19894
843.343	19940
843.479	20073
843.616	19947
843.752	19795
843.889	19864
844.025	19849
844.162	19788
844.298	19814
844.435	19700
844.571	19750
844.708	19852
844.844	19936
844.98	19902
845.117	19947
845.253	19693
845.389	19723
845.525	19864
845.661	19887
845.798	19871
845.934	20046
846.07	20100
846.206	20134
846.342	20096
846.478	19727
846.614	19540
846.75	19278
846.886	19282
847.022	19350
847.158	19236
847.294	19194
847.429	19297
847.565	19206
847.701	19457
847.837	18954
847.972	18932
848.108	18954
848.244	18954
848.379	18894
848.515	18692
848.65	18814
848.786	18802
848.921	18814
849.057	18894
849.192	18810
849.328	18833
849.463	18897
849.598	18776
849.734	18810
849.869	18684
850.004	18551
850.14	18707
850.275	18540
850.41	18429
850.545	18460
850.68	18445
850.815	18559
850.95	18460
851.085	18654
851.22	18612
851.355	18498
851.49	18483
851.625	18407
851.76	18502
851.895	18388
852.03	18350
852.165	18422
852.299	18479
852.434	18513
852.569	18566
852.703	18403
852.838	18540
852.973	18536
853.107	18521
853.242	18460
853.376	18384
853.511	18247
853.645	18201
853.78	18483
853.914	18391
854.048	18323
854.183	18418
854.317	18330
854.451	18483
854.585	18296
854.72	18376
854.854	18369
854.988	18315
855.122	18346
855.256	18232
855.39	18262
855.524	18384
855.658	18418
855.792	18376
855.926	18399
856.06	18319
856.194	18304
856.327	18357
856.461	18334
856.595	18277
856.729	18327
856.862	18357
856.996	18292
857.13	18384
857.263	18418
857.397	18384
857.53	18235
857.664	18266
857.797	18338
857.931	18391
858.064	18357
858.197	18376
858.331	18296
858.464	18209
858.597	18140
858.731	18228
858.864	18178
858.997	18114
859.13	18296
859.263	18300
859.396	18304
859.529	18266
859.662	18144
859.795	18213
859.928	18338
860.061	18353
860.194	18391
860.327	18273
860.46	18148
860.592	18296
860.725	18365
860.858	18365
860.99	18270
861.123	18163
861.256	18148
861.388	18201
861.521	18947
861.653	18068
861.786	18136
861.918	18167
862.05	18159
862.183	18311
862.315	18338
862.447	18479
862.58	18243
862.712	18072
862.844	18045
862.976	18049
863.108	18068
863.24	18502
863.372	17916
863.504	17916
863.636	18015
863.768	17988
863.9	17946
864.032	17942
864.164	17965
864.296	17965
864.428	18095
864.559	17954
864.691	18235
864.823	18019
864.954	17996
865.086	18003
865.217	17889
865.349	17878
865.48	17916
865.612	17916
865.743	17904
865.875	17923
866.006	17920
866.137	17984
866.269	17969
866.4	17840
866.531	17946
866.662	17836
866.793	17821
866.924	17874
867.055	17893
867.186	17863
867.317	17824
867.448	17786
867.579	17813
867.71	17714
867.841	17779
867.972	17863
868.103	17836
868.233	17885
868.364	17813
868.495	18030
868.625	18045
868.756	18277
868.886	18064
869.017	18068
869.147	18216
869.278	18285
869.408	18125
869.539	17980
869.669	18144
869.799	18053
869.929	18247
870.06	18281
870.19	18384
870.32	18433
870.45	18372
870.58	18486
870.71	18639
870.84	18544
870.97	18494
871.1	18467
871.23	18646
871.36	18707
871.489	18555
871.619	18620
871.749	18741
871.879	18642
872.008	18669
872.138	18707
872.267	18673
872.397	18563
872.526	18597
872.656	18471
872.785	18460
872.915	18696
873.044	18749
873.173	18745
873.303	18783
873.432	18757
873.561	18730
873.69	18726
873.819	18627
873.948	18806
874.077	18745
874.206	18719
874.335	18703
874.464	18814
874.593	18913
874.722	18970
874.851	19034
874.979	19042
875.108	19042
875.237	18878
875.365	18897
875.494	18947
875.623	19015
875.751	18962
875.88	19103
876.008	19110
876.136	19198
876.265	19426
876.393	19567
876.521	19529
876.65	19449
876.778	19525
876.906	19331
877.034	19324
877.162	19472
877.29	19365
877.418	19396
877.546	19430
877.674	19365
877.802	19373
877.93	19438
878.058	19263
878.185	19396
878.313	19403
878.441	19415
878.568	19266
878.696	19388
878.824	19308
878.951	19658
879.079	19643
879.206	19868
879.333	19746
879.461	19658
879.588	19811
879.715	19887
879.842	19913
879.97	19563
880.097	19407
880.224	19331
880.351	19362
880.478	19331
880.605	19259
880.732	19381
880.859	19521
880.986	19320
881.112	19244
881.239	19152
881.366	19080
881.493	18947
881.619	18848
881.746	18909
881.872	19038
881.999	18943
882.125	18817
882.252	18989
882.378	18932
882.505	19069
882.631	18878
882.757	18646
882.883	18958
883.01	18711
883.136	18650
883.262	18715
883.388	18498
883.514	18703
883.64	18795
883.766	18563
883.892	18407
884.018	18509
884.143	18620
884.269	18700
884.395	18490
884.52	18452
884.646	18357
884.772	18372
884.897	18292
885.023	18361
885.148	18509
885.274	18483
885.399	18418
885.524	18350
885.65	18376
885.775	18342
885.9	18186
886.025	18448
886.15	18361
886.275	18338
886.4	18174
886.525	18300
886.65	18224
886.775	18178
886.9	18410
887.025	18494
887.149	18296
887.274	18171
887.399	18015
887.523	18106
887.648	18019
887.773	18049
887.897	18224
888.021	18266
888.146	18019
888.27	18129
888.395	18300
888.519	18049
888.643	18049
888.767	18117
888.891	18049
889.015	17798
889.139	17935
889.263	17851
889.387	18026
889.511	18045
889.635	17977
889.759	17878
889.883	17851
890.006	17828
890.13	17988
890.254	17821
890.377	17870
890.501	17642
890.624	17558
890.748	17805
890.871	17680
890.995	17493
891.118	17463
891.241	17505
891.364	17455
891.488	17657
891.611	17532
891.734	17501
891.857	17524
891.98	17516
892.103	17490
892.226	17573
892.349	17440
892.471	17269
892.594	17436
892.717	17376
892.839	17387
892.962	17478
893.085	17615
893.207	17398
893.33	17261
893.452	17349
893.575	17452
893.697	17425
893.819	17547
893.941	17611
894.064	17436
894.186	17433
894.308	17421
894.43	17535
894.552	17684
894.674	17573
894.796	17387
894.918	17406
895.04	17455
895.161	17554
895.283	17539
895.405	17376
895.526	17539
895.648	17486
895.769	17474
895.891	17505
896.012	17532
896.134	17558
896.255	17619
896.376	17482
896.498	17512
896.619	17699
896.74	17478
896.861	17592
896.982	17904
897.103	17988
897.224	17836
897.345	17741
897.466	17790
897.587	17779
897.708	17802
897.828	17824
897.949	17680
898.07	17615
898.19	17611
898.311	17882
898.431	17783
898.552	17904
898.672	17885
898.792	17798
898.913	17775
899.033	17619
899.153	17509
899.273	17516
899.393	17570
899.513	17505
899.633	17547
899.753	17600
899.873	17543
899.993	17608
900.113	17520
900.232	17532
900.352	17535
900.472	17448
900.591	17391
900.711	17429
900.83	17318
900.95	17493
901.069	17482
901.189	17353
901.308	17102
901.427	17052
901.546	17022
901.665	17109
901.784	17048
901.904	16885
902.023	16873
902.141	16752
902.26	16531
902.379	16569
902.498	16558
902.617	16382
902.735	16542
902.854	16592
902.973	16504
903.091	16226
903.21	16204
903.328	16192
903.446	16223
903.565	15972
903.683	16078
903.801	15937
903.919	15991
904.038	15922
904.156	15819
904.274	15797
904.392	15861
904.51	15819
904.627	15751
904.745	15797
904.863	15857
904.981	15663
905.098	15416
905.216	15439
905.334	15511
905.451	15530
905.569	15485
905.686	15488
905.803	15507
905.921	15287
906.038	15412
906.155	15355
906.272	15245
906.389	15207
906.506	15039
906.623	15051
906.74	14971
906.857	14952
906.974	14857
907.091	15150
907.208	15150
907.324	15127
907.441	14910
907.557	14826
907.674	14735
907.79	14678
907.907	14811
908.023	14712
908.139	14686
908.256	14602
908.372	14625
908.488	14613
908.604	14457
908.72	14381
908.836	14571
908.952	14328
909.068	14434
909.184	14541
909.3	14465
909.415	14484
909.531	14473
909.647	14214
909.762	14180
909.878	14145
909.993	14176
910.108	14195
910.224	14069
910.339	14225
910.454	14016
910.57	13959
910.685	13917
910.8	14298
910.915	14119
911.03	13913
911.145	13830
911.259	13757
911.374	13708
911.489	13670
911.604	13704
911.718	13464
911.833	13544
911.947	13548
912.062	13358
912.176	13495
912.291	13552
912.405	13605
912.519	13624
912.633	13674
912.748	13616
912.862	13468
912.976	13403
913.09	13198
913.204	13354
913.318	13396
913.431	13533
913.545	13407
913.659	13578
913.772	13266
913.886	13278
914	13156
914.113	13327
914.226	13373
914.34	13304
914.453	13103
914.566	13255
914.68	13103
914.793	13114
914.906	13000
915.019	12848
915.132	12840
915.245	12886
915.358	12977
915.47	12817
915.583	12920
915.696	12875
915.809	13019
915.921	13038
916.034	12867
916.146	12882
916.259	12757
916.371	12886
916.483	12821
916.595	12757
916.708	12734
916.82	12810
916.932	12722
917.044	12779
917.156	12734
917.268	12623
917.38	12639
917.491	12665
917.603	12521
917.715	12604
917.826	12700
917.938	12658
918.049	12517
918.161	12631
918.272	12684
918.384	12753
918.495	12684
918.606	12445
918.717	12388
918.828	12433
918.939	12456
919.05	12285
919.161	12330
919.272	12254
919.383	12277
919.494	12441
919.604	12722
919.715	12464
919.826	12315
919.936	12479
920.047	12433
920.157	12437
920.267	12635
920.378	12467
920.488	12490
920.598	12646
920.708	12669
920.818	12585
920.928	12642
921.038	12768
921.148	12646
921.258	12395
921.368	12342
921.477	12281
921.587	12178
921.697	12114
921.806	12091
921.916	12136
922.025	11817
922.134	11904
922.244	11783
922.353	11859
922.462	11748
922.571	11676
922.68	11619
922.789	11509
922.898	11668
923.007	11539
923.116	11691
923.224	11501
923.333	11509
923.442	11436
923.55	11410
923.659	11410
923.767	11512
923.876	11345
923.984	11436
924.092	11341
924.201	11318
924.309	11288
924.417	11299
924.525	11303
924.633	11296
924.741	12220
924.849	11071
924.956	11299
925.064	11022
925.172	11029
925.279	11109
925.387	11140
925.494	11075
925.602	11235
925.709	11151
925.816	10957
925.924	11033
926.031	11265
926.138	11079
926.245	11189
926.352	10980
926.459	11143
926.566	11159
926.673	11037
926.779	10896
926.886	10900
926.993	10767
927.099	10725
927.206	10592
927.312	10702
927.419	10790
927.525	10786
927.631	10755
927.737	10664
927.843	10645
927.95	10508
928.056	10653
928.162	10599
928.267	10634
928.373	11128
928.479	10710
928.585	10421
928.69	10596
928.796	10645
928.901	10466
929.007	10333
929.112	10428
929.218	10371
929.323	10394
929.428	10352
929.533	10497
929.638	10230
929.743	10398
929.848	10333
929.953	10265
930.058	10196
930.163	10059
930.267	10150
930.372	10242
930.477	9949
930.581	10223
930.685	10135
930.79	9937
930.894	9964
930.998	9968
931.103	10101
931.207	9709
931.311	9625
931.415	9507
931.519	9447
931.623	9416
