Data from test_V78500241_3678.txt Node
Date: Fri Mar 25 14:59:19 CST 2022
User: usil
Spectrometer: V785-0024
Trigger mode: 0
Integration Time (sec): 4.000000E-1
Scans to average: 1
Nonlinearity correction enabled: false
Boxcar width: 0
Storing dark spectrum: false
XAxis mode: Wavelengths
Number of Pixels in Spectrum: 1024
>>>>>Begin Spectral Data<<<<<
801.071	21888
801.214	21831
801.356	21648
801.499	21542
801.641	21481
801.783	21226
801.926	21287
802.068	21180
802.211	21085
802.353	21028
802.496	20944
802.638	20708
802.78	20762
802.923	20701
803.065	20431
803.208	20511
803.35	20674
803.492	20735
803.635	20762
803.777	20594
803.919	20705
804.061	20960
804.204	20560
804.346	20530
804.488	20583
804.63	20526
804.773	20549
804.915	20560
805.057	20621
805.199	20514
805.341	20465
805.483	20701
805.626	20659
805.768	20495
805.91	20594
806.052	20564
806.194	20415
806.336	20609
806.478	20609
806.62	20259
806.762	20442
806.904	20667
807.046	20902
807.188	20918
807.33	20750
807.472	20842
807.614	20743
807.756	20697
807.898	20693
808.04	20632
808.182	20571
808.324	20583
808.465	20670
808.607	20895
808.749	20883
808.891	20937
809.033	21077
809.174	20967
809.316	20815
809.458	20834
809.6	20857
809.741	20918
809.883	20986
810.025	21165
810.166	21036
810.308	21100
810.45	20990
810.591	20861
810.733	20606
810.875	20670
811.016	20579
811.158	20514
811.299	20689
811.441	20629
811.582	20735
811.724	20606
811.865	20587
812.007	20495
812.148	20689
812.29	20663
812.431	20773
812.573	20933
812.714	21104
812.855	21104
812.997	21214
813.138	21313
813.279	21245
813.421	21077
813.562	21195
813.703	20975
813.845	20811
813.986	20518
814.127	20438
814.268	20240
814.41	20225
814.551	20153
814.692	20168
814.833	20107
814.974	20145
815.115	20187
815.256	20100
815.397	19944
815.539	20001
815.68	19906
815.821	19849
815.962	19811
816.103	19864
816.244	19875
816.385	19559
816.526	19674
816.666	19540
816.807	19339
816.948	19430
817.089	19415
817.23	19407
817.371	19312
817.512	19289
817.653	19259
817.793	19312
817.934	19259
818.075	19362
818.216	19225
818.356	19285
818.497	19080
818.638	18996
818.778	18924
818.919	19084
819.06	19069
819.2	19095
819.341	19114
819.481	19126
819.622	19358
819.762	19491
819.903	19434
820.043	19304
820.184	19297
820.324	19240
820.465	19304
820.605	19346
820.746	19274
820.886	19183
821.026	19270
821.167	19171
821.307	19324
821.447	19206
821.588	19126
821.728	19008
821.868	18901
822.008	18745
822.149	18741
822.289	18650
822.429	18479
822.569	18365
822.709	18441
822.849	18228
822.99	18182
823.13	18220
823.27	18178
823.41	18064
823.55	17992
823.69	17954
823.83	17961
823.97	17996
824.11	17726
824.25	17729
824.389	17798
824.529	17748
824.669	17756
824.809	17741
824.949	17836
825.089	17684
825.228	17733
825.368	17566
825.508	17532
825.648	17505
825.787	17630
825.927	17684
826.067	17478
826.206	17448
826.346	17600
826.485	17570
826.625	17558
826.765	17668
826.904	17547
827.044	17292
827.183	17322
827.323	17235
827.462	17254
827.601	17318
827.741	17231
827.88	17292
828.02	17136
828.159	17170
828.298	17311
828.437	17334
828.577	17250
828.716	17402
828.855	17181
828.994	16987
829.134	17041
829.273	17060
829.412	16957
829.551	16892
829.69	17071
829.829	17113
829.968	17048
830.107	16957
830.246	17105
830.385	16991
830.524	16949
830.663	16733
830.802	16740
830.941	16630
831.08	16615
831.219	16660
831.357	16660
831.496	16908
831.635	16691
831.774	16512
831.913	16455
832.051	16451
832.19	16405
832.329	16466
832.467	16428
832.606	16242
832.744	16299
832.883	16280
833.022	16325
833.16	16276
833.299	16382
833.437	16303
833.576	16344
833.714	16375
833.852	16451
833.991	16455
834.129	16367
834.267	16443
834.406	16367
834.544	16481
834.682	16417
834.821	16466
834.959	16531
835.097	16299
835.235	16436
835.373	16405
835.511	16470
835.65	16318
835.788	16265
835.926	16234
836.064	16112
836.202	16139
836.34	16318
836.478	16421
836.615	16215
836.753	16379
836.891	16352
837.029	16284
837.167	16185
837.305	16154
837.443	16223
837.58	16207
837.718	16299
837.856	16325
837.993	16177
838.131	16200
838.269	16131
838.406	16139
838.544	16067
838.681	15911
838.819	15804
838.956	15751
839.094	15739
839.231	15648
839.369	15774
839.506	16078
839.643	15975
839.781	15663
839.918	15652
840.055	15819
840.193	15778
840.33	15709
840.467	15838
840.604	15774
840.742	15994
840.879	15523
841.016	15629
841.153	15644
841.29	15770
841.427	15785
841.564	15762
841.701	15762
841.838	15682
841.975	15686
842.112	15660
842.249	15530
842.385	15526
842.522	15724
842.659	15618
842.796	15435
842.933	15561
843.069	15481
843.206	15412
843.343	15500
843.479	15580
843.616	15644
843.752	15283
843.889	15310
844.025	15549
844.162	15252
844.298	15428
844.435	15321
844.571	15283
844.708	15382
844.844	15473
844.98	15355
845.117	15367
845.253	15291
845.389	15146
845.525	15268
845.661	15214
845.798	15104
845.934	15169
846.07	14925
846.206	15207
846.342	15154
846.478	15070
846.614	14823
846.75	14872
846.886	14937
847.022	14929
847.158	14956
847.294	14864
847.429	14979
847.565	14800
847.701	15123
847.837	14625
847.972	14590
848.108	14712
848.244	14655
848.379	14495
848.515	14507
848.65	14480
848.786	14514
848.921	14484
849.057	14549
849.192	14537
849.328	14457
849.463	14511
849.598	14389
849.734	14423
849.869	14282
850.004	14351
850.14	14332
850.275	14328
850.41	14195
850.545	14233
850.68	14199
850.815	14381
850.95	14199
851.085	14389
851.22	14374
851.355	14343
851.49	14267
851.625	14191
851.76	14271
851.895	14069
852.03	14229
852.165	14180
852.299	14229
852.434	14434
852.569	14286
852.703	14191
852.838	14381
852.973	14431
853.107	14381
853.242	14107
853.376	14065
853.511	14058
853.645	13993
853.78	14240
853.914	14142
854.048	14142
854.183	14027
854.317	14107
854.451	14267
854.585	14062
854.72	13993
854.854	14183
854.988	14073
855.122	14077
855.256	13951
855.39	14138
855.524	14191
855.658	14180
855.792	14153
855.926	14161
856.06	14084
856.194	14199
856.327	14062
856.461	14088
856.595	14088
856.729	14001
856.862	14199
856.996	14214
857.13	14229
857.263	14328
857.397	14218
857.53	14138
857.664	14149
857.797	14183
857.931	14267
858.064	14142
858.197	14225
858.331	14103
858.464	14096
858.597	13974
858.731	14062
858.864	14039
858.997	14092
859.13	14176
859.263	14187
859.396	14278
859.529	14107
859.662	14149
859.795	14001
859.928	14195
860.061	14305
860.194	14381
860.327	14145
860.46	14107
860.592	14183
860.725	14267
860.858	14271
860.99	14107
861.123	13974
861.256	14050
861.388	14164
861.521	14750
861.653	14008
861.786	13951
861.918	13993
862.05	14027
862.183	14050
862.315	14142
862.447	14157
862.58	14058
862.712	13883
862.844	13772
862.976	13986
863.108	13871
863.24	14290
863.372	13807
863.504	13936
863.636	13936
863.768	13898
863.9	13925
864.032	13928
864.164	13803
864.296	14050
864.428	13951
864.559	14020
864.691	13967
864.823	14031
864.954	13997
865.086	13951
865.217	13917
865.349	13776
865.48	13856
865.612	13784
865.743	13993
865.875	13944
866.006	13890
866.137	13940
866.269	13917
866.4	13913
866.531	13845
866.662	13750
866.793	13890
866.924	13875
867.055	13890
867.186	13989
867.317	13807
867.448	13811
867.579	13719
867.71	13818
867.841	13940
867.972	13841
868.103	13917
868.233	13887
868.364	13780
868.495	14031
868.625	14142
868.756	14218
868.886	14077
869.017	14081
869.147	14275
869.278	14210
869.408	14149
869.539	14084
869.669	14187
869.799	14301
869.929	14244
870.06	14252
870.19	14431
870.32	14408
870.45	14461
870.58	14552
870.71	14579
870.84	14530
870.97	14541
871.1	14480
871.23	14636
871.36	14701
871.489	14648
871.619	14667
871.749	14743
871.879	14815
872.008	14902
872.138	14727
872.267	14701
872.397	14575
872.526	14632
872.656	14564
872.785	14568
872.915	14739
873.044	14864
873.173	14788
873.303	14830
873.432	14815
873.561	14853
873.69	14769
873.819	14724
873.948	14864
874.077	14807
874.206	14792
874.335	14819
874.464	14979
874.593	15070
874.722	14967
874.851	15100
874.979	15055
875.108	15203
875.237	15043
875.365	14971
875.494	15108
875.623	15203
875.751	15108
875.88	15180
876.008	15268
876.136	15272
876.265	15492
876.393	15614
876.521	15629
876.65	15709
876.778	15519
876.906	15538
877.034	15534
877.162	15351
877.29	15477
877.418	15549
877.546	15515
877.674	15572
877.802	15492
877.93	15477
878.058	15561
878.185	15321
878.313	15580
878.441	15443
878.568	15313
878.696	15515
878.824	15504
878.951	15584
879.079	15774
879.206	15835
879.333	15690
879.461	15553
879.588	15576
879.715	15762
879.842	15709
879.97	15603
880.097	15336
880.224	15416
880.351	15428
880.478	15367
880.605	15424
880.732	15389
880.859	15595
880.986	15420
881.112	15317
881.239	15264
881.366	15173
881.493	15055
881.619	14998
881.746	15058
881.872	15055
881.999	15074
882.125	14944
882.252	15169
882.378	15192
882.505	15237
882.631	14975
882.757	14811
882.883	14956
883.01	14914
883.136	14880
883.262	14750
883.388	14781
883.514	14876
883.64	14815
883.766	14811
883.892	14678
884.018	14693
884.143	14834
884.269	14975
884.395	14674
884.52	14632
884.646	14507
884.772	14541
884.897	14431
885.023	14552
885.148	14636
885.274	14724
885.399	14712
885.524	14530
885.65	14655
885.775	14686
885.9	14598
886.025	14678
886.15	14549
886.275	14423
886.4	14492
886.525	14590
886.65	14480
886.775	14461
886.9	14697
887.025	14849
887.149	14610
887.274	14370
887.399	14332
887.523	14301
887.648	14282
887.773	14301
887.897	14530
888.021	14381
888.146	14366
888.27	14488
888.395	14522
888.519	14434
888.643	14427
888.767	14423
888.891	14358
889.015	14240
889.139	14351
889.263	14252
889.387	14366
889.511	14423
889.635	14400
889.759	14263
889.883	14313
890.006	14237
890.13	14370
890.254	14183
890.377	14259
890.501	14161
890.624	14092
890.748	14138
890.871	14008
890.995	13940
891.118	13860
891.241	13982
891.364	14024
891.488	14084
891.611	13997
891.734	14020
891.857	14058
891.98	13940
892.103	14084
892.226	13940
892.349	13944
892.471	13890
892.594	13849
892.717	14065
892.839	13989
892.962	13970
893.085	14039
893.207	13925
893.33	13833
893.452	13849
893.575	14027
893.697	14016
893.819	14103
893.941	14161
894.064	14172
894.186	13989
894.308	13928
894.43	14069
894.552	14077
894.674	14062
894.796	14035
894.918	13951
895.04	14001
895.161	14183
895.283	14073
895.405	14092
895.526	14100
895.648	14100
895.769	14069
895.891	14183
896.012	14206
896.134	14138
896.255	14153
896.376	14134
896.498	14039
896.619	14271
896.74	14126
896.861	14218
896.982	14434
897.103	14606
897.224	14484
897.345	14385
897.466	14301
897.587	14412
897.708	14533
897.828	14431
897.949	14275
898.07	14358
898.19	14355
898.311	14473
898.431	14450
898.552	14457
898.672	14602
898.792	14610
898.913	14568
899.033	14488
899.153	14282
899.273	14347
899.393	14267
899.513	14339
899.633	14400
899.753	14324
899.873	14324
899.993	14355
900.113	14309
900.232	14412
900.352	14256
900.472	14267
900.591	14111
900.711	14317
900.83	14115
900.95	14366
901.069	14301
901.189	14180
901.308	13894
901.427	13890
901.546	13898
901.665	13868
901.784	13951
901.904	13776
902.023	13704
902.141	13502
902.26	13483
902.379	13586
902.498	13491
902.617	13430
902.735	13464
902.854	13422
902.973	13369
903.091	13133
903.21	13160
903.328	13202
903.446	13133
903.565	13000
903.683	13012
903.801	12996
903.919	12951
904.038	13004
904.156	12817
904.274	12890
904.392	12817
904.51	12787
904.627	12821
904.745	12844
904.863	12840
904.981	12631
905.098	12601
905.216	12506
905.334	12570
905.451	12631
905.569	12582
905.686	12669
905.803	12563
905.921	12346
906.038	12445
906.155	12452
906.272	12247
906.389	12243
906.506	12144
906.623	12197
906.74	12125
906.857	11992
906.974	12049
907.091	12262
907.208	12277
907.324	12167
907.441	12102
907.557	11946
907.674	11863
907.79	11798
907.907	11912
908.023	11908
908.139	11973
908.256	11805
908.372	11767
908.488	11794
908.604	11627
908.72	11619
908.836	11676
908.952	11611
909.068	11589
909.184	11775
909.3	11611
909.415	11771
909.531	11668
909.647	11455
909.762	11436
909.878	11410
909.993	11364
910.108	11383
910.224	11345
910.339	11429
910.454	11273
910.57	11277
910.685	11178
910.8	11547
910.915	11459
911.03	11296
911.145	11109
911.259	11132
911.374	11132
911.489	10999
911.604	11045
911.718	10786
911.833	10930
911.947	10706
912.062	10729
912.176	10824
912.291	10835
912.405	10892
912.519	11094
912.633	11105
912.748	10923
912.862	10862
912.976	10710
913.09	10645
913.204	10717
913.318	10809
913.431	10881
913.545	10866
913.659	10797
913.772	10721
913.886	10645
914	10603
914.113	10801
914.226	10759
914.34	10653
914.453	10554
914.566	10824
914.68	10607
914.793	10588
914.906	10379
915.019	10394
915.132	10291
915.245	10356
915.358	10402
915.47	10459
915.583	10398
915.696	10466
915.809	10558
915.921	10474
916.034	10363
916.146	10390
916.259	10344
916.371	10455
916.483	10360
916.595	10261
916.708	10382
916.82	10329
916.932	10341
917.044	10318
917.156	10299
917.268	10128
917.38	10261
917.491	10246
917.603	10246
917.715	10333
917.826	10348
917.938	10238
918.049	10166
918.161	10192
918.272	10447
918.384	10394
918.495	10284
918.606	10090
918.717	10048
918.828	10105
918.939	10162
919.05	10055
919.161	10086
919.272	9949
919.383	10002
919.494	10147
919.604	10322
919.715	10090
919.826	9983
919.936	10044
920.047	10200
920.157	10097
920.267	10337
920.378	10093
920.488	10124
920.598	10276
920.708	10436
920.818	10314
920.928	10371
921.038	10443
921.148	10390
921.258	10185
921.368	10055
921.477	9998
921.587	9915
921.697	9873
921.806	10013
921.916	9854
922.025	9671
922.134	9629
922.244	9694
922.353	9705
922.462	9587
922.571	9549
922.68	9367
922.789	9363
922.898	9424
923.007	9306
923.116	9408
923.224	9378
923.333	9359
923.442	9264
923.55	9279
923.659	9298
923.767	9351
923.876	9203
923.984	9283
924.092	9184
924.201	9199
924.309	9237
924.417	9207
924.525	9222
924.633	9230
924.741	9953
924.849	9005
924.956	9245
925.064	9047
925.172	8975
925.279	8872
925.387	9077
925.494	9104
925.602	9150
925.709	9081
925.816	8990
925.924	8998
926.031	9150
926.138	9077
926.245	9119
926.352	8967
926.459	9066
926.566	9169
926.673	8967
926.779	8941
926.886	8914
926.993	8811
927.099	8766
927.206	8750
927.312	8712
927.419	8804
927.525	8735
927.631	8842
927.737	8667
927.843	8735
927.95	8503
928.056	8602
928.162	8655
928.267	8701
928.373	9218
928.479	8667
928.585	8606
928.69	8701
928.796	8705
928.901	8560
929.007	8408
929.112	8644
929.218	8590
929.323	8480
929.428	8442
929.533	8526
929.638	8385
929.743	8385
929.848	8488
929.953	8518
930.058	8309
930.163	8259
930.267	8286
930.372	8393
930.477	8077
930.581	8446
930.685	8286
930.79	8062
930.894	8244
930.998	8176
931.103	8355
931.207	8043
931.311	7913
931.415	7917
931.519	7689
931.623	7719
