Data from test_V78500241_174.txt Node
Date: Fri Mar 25 14:34:56 CST 2022
User: usil
Spectrometer: V785-0024
Trigger mode: 0
Integration Time (sec): 4.000000E-1
Scans to average: 1
Nonlinearity correction enabled: false
Boxcar width: 0
Storing dark spectrum: false
XAxis mode: Wavelengths
Number of Pixels in Spectrum: 1024
>>>>>Begin Spectral Data<<<<<
801.071	28729
801.214	28641
801.356	28287
801.499	28325
801.641	28093
801.783	28048
801.926	28059
802.068	28063
802.211	27937
802.353	27869
802.496	27816
802.638	27644
802.78	27656
802.923	27427
803.065	27755
803.208	27568
803.35	27599
803.492	27675
803.635	27713
803.777	27644
803.919	27717
804.061	28112
804.204	27774
804.346	27633
804.488	27469
804.63	27599
804.773	27557
804.915	27705
805.057	27804
805.199	27648
805.341	27644
805.483	27865
805.626	27778
805.768	27720
805.91	27743
806.052	27800
806.194	27625
806.336	28006
806.478	27831
806.62	27816
806.762	28044
806.904	28032
807.046	28325
807.188	28344
807.33	28401
807.472	28386
807.614	28557
807.756	28683
807.898	28481
808.04	28710
808.182	29037
808.324	29235
808.465	29535
808.607	30030
808.749	30460
808.891	30646
809.033	30779
809.174	30525
809.316	30174
809.458	29752
809.6	29375
809.741	29189
809.883	28980
810.025	28927
810.166	28888
810.308	28965
810.45	28626
810.591	28554
810.733	28440
810.875	28291
811.016	28207
811.158	28131
811.299	28310
811.441	28375
811.582	28272
811.724	28063
811.865	28029
812.007	28242
812.148	28166
812.29	28063
812.431	28333
812.573	28455
812.714	28424
812.855	28653
812.997	28603
813.138	28835
813.279	28824
813.421	28725
813.562	28493
813.703	28352
813.845	28261
813.986	27945
814.127	27762
814.268	27770
814.41	27701
814.551	27671
814.692	27766
814.833	27450
814.974	27587
815.115	27572
815.256	27405
815.397	27397
815.539	27458
815.68	27317
815.821	27321
815.962	27504
816.103	27306
816.244	27165
816.385	27009
816.526	27043
816.666	26830
816.807	26765
816.948	26651
817.089	26876
817.23	26853
817.371	26693
817.512	26750
817.653	26693
817.793	26701
817.934	26670
818.075	26617
818.216	26560
818.356	26651
818.497	26648
818.638	26370
818.778	26362
818.919	26427
819.06	26393
819.2	26575
819.341	26670
819.481	26815
819.622	26785
819.762	26857
819.903	26800
820.043	26872
820.184	26579
820.324	26632
820.465	26606
820.605	26720
820.746	26606
820.886	26453
821.026	26575
821.167	26629
821.307	26632
821.447	26457
821.588	26370
821.728	26199
821.868	26164
822.008	25993
822.149	25951
822.289	25993
822.429	25765
822.569	25609
822.709	25620
822.849	25415
822.99	25407
823.13	25381
823.27	25354
823.41	25213
823.55	25050
823.69	25331
823.83	25183
823.97	25152
824.11	25065
824.25	24901
824.389	24867
824.529	25129
824.669	24966
824.809	25019
824.949	25076
825.089	24989
825.228	25000
825.368	24886
825.508	24875
825.648	24909
825.787	24821
825.927	24817
826.067	24787
826.206	24825
826.346	24905
826.485	24848
826.625	24764
826.765	24871
826.904	24783
827.044	24521
827.183	24555
827.323	24479
827.462	24483
827.601	24467
827.741	24361
827.88	24532
828.02	24414
828.159	24433
828.298	24452
828.437	24475
828.577	24323
828.716	24502
828.855	24357
828.994	24102
829.134	24117
829.273	24338
829.412	24091
829.551	24144
829.69	24114
829.829	24121
829.968	24205
830.107	24106
830.246	24125
830.385	24060
830.524	24091
830.663	23923
830.802	23790
830.941	23680
831.08	23665
831.219	23733
831.357	23703
831.496	24060
831.635	23695
831.774	23554
831.913	23547
832.051	23406
832.19	23372
832.329	23516
832.467	23417
832.606	23307
832.744	23311
832.883	23166
833.022	23356
833.16	23353
833.299	23505
833.437	23296
833.576	23497
833.714	23459
833.852	23520
833.991	23505
834.129	23486
834.267	23539
834.406	23379
834.544	23429
834.682	23535
834.821	23364
834.959	23596
835.097	23379
835.235	23349
835.373	23364
835.511	23269
835.65	23162
835.788	23265
835.926	23136
836.064	22949
836.202	23166
836.34	23071
836.478	23223
836.615	23269
836.753	23075
836.891	23162
837.029	23261
837.167	23060
837.305	23029
837.443	22866
837.58	22965
837.718	22995
837.856	22968
837.993	22900
838.131	22927
838.269	22976
838.406	22801
838.544	22843
838.681	22527
838.819	22599
838.956	22409
839.094	22382
839.231	22440
839.369	22516
839.506	22698
839.643	22603
839.781	22257
839.918	22306
840.055	22322
840.193	22238
840.33	22181
840.467	22265
840.604	22360
840.742	22550
840.879	22120
841.016	22287
841.153	22120
841.29	22413
841.427	22322
841.564	22284
841.701	22162
841.838	22226
841.975	22063
842.112	22150
842.249	21994
842.385	21884
842.522	22204
842.659	22051
842.796	21972
842.933	22006
843.069	21926
843.206	21926
843.343	22002
843.479	22025
843.616	21975
843.752	21797
843.889	21667
844.025	21979
844.162	21698
844.298	21869
844.435	21781
844.571	21743
844.708	21827
844.844	21949
844.98	21972
845.117	22086
845.253	22147
845.389	22177
845.525	22493
845.661	23041
845.798	23642
845.934	24224
846.07	24410
846.206	24296
846.342	24022
846.478	23246
846.614	22466
846.75	21827
846.886	21705
847.022	21496
847.158	21447
847.294	21405
847.429	21367
847.565	21211
847.701	21507
847.837	21032
847.972	20845
848.108	21028
848.244	21005
848.379	20876
848.515	20769
848.65	20716
848.786	20788
848.921	20720
849.057	20815
849.192	20792
849.328	20743
849.463	20708
849.598	20697
849.734	20594
849.869	20560
850.004	20511
850.14	20450
850.275	20450
850.41	20412
850.545	20237
850.68	20381
850.815	20377
850.95	20381
851.085	20617
851.22	20499
851.355	20404
851.49	20305
851.625	20355
851.76	20313
851.895	20313
852.03	20343
852.165	20374
852.299	20507
852.434	20351
852.569	20461
852.703	20393
852.838	20408
852.973	20484
853.107	20495
853.242	20404
853.376	20214
853.511	20180
853.645	20214
853.78	20423
853.914	20332
854.048	20195
854.183	20191
854.317	20244
854.451	20377
854.585	20290
854.72	20347
854.854	20282
854.988	20149
855.122	20187
855.256	20119
855.39	20275
855.524	20374
855.658	20153
855.792	20195
855.926	20199
856.06	20309
856.194	20267
856.327	20259
856.461	20168
856.595	20210
856.729	20134
856.862	20343
856.996	20145
857.13	20259
857.263	20218
857.397	20267
857.53	20149
857.664	20210
857.797	20221
857.931	20237
858.064	20176
858.197	20343
858.331	20180
858.464	20130
858.597	20138
858.731	20161
858.864	20161
858.997	20195
859.13	20142
859.263	20180
859.396	20191
859.529	20134
859.662	20111
859.795	20107
859.928	20065
860.061	20244
860.194	20336
860.327	20172
860.46	20084
860.592	20218
860.725	20202
860.858	20130
860.99	20122
861.123	20035
861.256	19993
861.388	20092
861.521	20720
861.653	20077
861.786	19963
861.918	19989
862.05	20176
862.183	20126
862.315	20210
862.447	20138
862.58	20088
862.712	19879
862.844	19818
862.976	19799
863.108	20012
863.24	20168
863.372	19890
863.504	19658
863.636	19753
863.768	19879
863.9	19917
864.032	19833
864.164	19868
864.296	19986
864.428	19814
864.559	19944
864.691	19898
864.823	19776
864.954	19746
865.086	19757
865.217	19708
865.349	19655
865.48	19742
865.612	19704
865.743	19917
865.875	19674
866.006	19708
866.137	19738
866.269	19765
866.4	19814
866.531	19674
866.662	19624
866.793	19632
866.924	19674
867.055	19670
867.186	19666
867.317	19578
867.448	19518
867.579	19582
867.71	19441
867.841	19575
867.972	19647
868.103	19616
868.233	19769
868.364	19704
868.495	19738
868.625	19784
868.756	19932
868.886	19830
869.017	19830
869.147	20115
869.278	20016
869.408	19940
869.539	19860
869.669	19845
869.799	19875
869.929	20054
870.06	19959
870.19	20183
870.32	20145
870.45	20294
870.58	20313
870.71	20473
870.84	20263
870.97	20210
871.1	20221
871.23	20434
871.36	20423
871.489	20320
871.619	20396
871.749	20457
871.879	20518
872.008	20625
872.138	20537
872.267	20434
872.397	20480
872.526	20317
872.656	20358
872.785	20244
872.915	20476
873.044	20537
873.173	20393
873.303	20579
873.432	20667
873.561	20648
873.69	20488
873.819	20457
873.948	20606
874.077	20522
874.206	20476
874.335	20587
874.464	20712
874.593	20754
874.722	20541
874.851	20868
874.979	20811
875.108	20971
875.237	20667
875.365	20659
875.494	20735
875.623	21005
875.751	20872
875.88	20864
876.008	20948
876.136	21108
876.265	21237
876.393	21526
876.521	21340
876.65	21332
876.778	21230
876.906	21332
877.034	21146
877.162	21222
877.29	21116
877.418	21306
877.546	21332
877.674	21298
877.802	21325
877.93	21405
878.058	21306
878.185	21272
878.313	21393
878.441	21431
878.568	21397
878.696	21553
878.824	21686
878.951	21838
879.079	22010
879.206	22402
879.333	22451
879.461	22618
879.588	22782
879.715	22786
879.842	22839
879.97	22341
880.097	22013
880.224	21717
880.351	21797
880.478	21557
880.605	21405
880.732	21580
880.859	21732
880.986	21477
881.112	21485
881.239	21275
881.366	21249
881.493	21180
881.619	21116
881.746	21051
881.872	21093
881.999	21055
882.125	21039
882.252	21077
882.378	20967
882.505	21081
882.631	20933
882.757	20853
882.883	20899
883.01	20811
883.136	20689
883.262	20712
883.388	20617
883.514	20758
883.64	20743
883.766	20773
883.892	20526
884.018	20533
884.143	20765
884.269	20804
884.395	20480
884.52	20412
884.646	20355
884.772	20423
884.897	20275
885.023	20484
885.148	20583
885.274	20564
885.399	20480
885.524	20377
885.65	20256
885.775	20298
885.9	20301
886.025	20446
886.15	20412
886.275	20271
886.4	20202
886.525	20240
886.65	20259
886.775	20008
886.9	20351
887.025	20431
887.149	20214
887.274	20050
887.399	20103
887.523	19890
887.648	19925
887.773	19894
887.897	20096
888.021	20001
888.146	19887
888.27	20050
888.395	19944
888.519	19898
888.643	19906
888.767	19970
888.891	19875
889.015	19731
889.139	19788
889.263	19715
889.387	19757
889.511	19955
889.635	19833
889.759	19696
889.883	19742
890.006	19624
890.13	19723
890.254	19616
890.377	19613
890.501	19392
890.624	19422
890.748	19411
890.871	19320
890.995	19198
891.118	19209
891.241	19209
891.364	19274
891.488	19346
891.611	19304
891.734	19209
891.857	19217
891.98	19194
892.103	19270
892.226	19129
892.349	19129
892.471	19000
892.594	19053
892.717	19122
892.839	19114
892.962	19114
893.085	19312
893.207	19141
893.33	19050
893.452	19084
893.575	19133
893.697	18985
893.819	19217
893.941	19194
894.064	19289
894.186	19072
894.308	18985
894.43	19122
894.552	19190
894.674	19190
894.796	18981
894.918	19015
895.04	19080
895.161	19103
895.283	19114
895.405	18924
895.526	19034
895.648	19057
895.769	19000
895.891	19194
896.012	19175
896.134	19198
896.255	19008
896.376	19110
896.498	18985
896.619	19137
896.74	19137
896.861	19160
896.982	19476
897.103	19605
897.224	19445
897.345	19240
897.466	19350
897.587	19320
897.708	19407
897.828	19358
897.949	19354
898.07	19209
898.19	19232
898.311	19430
898.431	19240
898.552	19202
898.672	19419
898.792	19312
898.913	19217
899.033	19198
899.153	19107
899.273	18913
899.393	19129
899.513	19129
899.633	19027
899.753	19023
899.873	19057
899.993	19164
900.113	19000
900.232	19114
900.352	18954
900.472	18829
900.591	18894
900.711	18890
900.83	18810
900.95	18951
901.069	18989
901.189	18745
901.308	18498
901.427	18441
901.546	18517
901.665	18570
901.784	18506
901.904	18262
902.023	18220
902.141	18076
902.26	17988
902.379	18068
902.498	17973
902.617	17878
902.735	18011
902.854	17874
902.973	17824
903.091	17646
903.21	17570
903.328	17707
903.446	17448
903.565	17493
903.683	17482
903.801	17356
903.919	17471
904.038	17474
904.156	17258
904.274	17284
904.392	17086
904.51	17200
904.627	17216
904.745	17254
904.863	17223
904.981	17003
905.098	16801
905.216	16771
905.334	16930
905.451	16839
905.569	16744
905.686	16873
905.803	16763
905.921	16592
906.038	16698
906.155	16580
906.272	16542
906.389	16519
906.506	16318
906.623	16314
906.74	16386
906.857	16276
906.974	16303
907.091	16386
907.208	16489
907.324	16405
907.441	16173
907.557	16112
907.674	16181
907.79	15994
907.907	16010
908.023	16135
908.139	15994
908.256	15953
908.372	15983
908.488	15937
908.604	15770
908.72	15656
908.836	15720
908.952	15766
909.068	15759
909.184	15743
909.3	15667
909.415	15774
909.531	15732
909.647	15397
909.762	15511
909.878	15431
909.993	15526
910.108	15389
910.224	15393
910.339	15416
910.454	15310
910.57	15268
910.685	15214
910.8	15405
910.915	15370
911.03	15226
911.145	15036
911.259	15135
911.374	15043
911.489	14933
911.604	14982
911.718	14800
911.833	14754
911.947	14765
912.062	14670
912.176	14773
912.291	14701
912.405	14762
912.519	14914
912.633	14906
912.748	14807
912.862	14659
912.976	14629
913.09	14495
913.204	14617
913.318	14511
913.431	14712
913.545	14655
913.659	14735
913.772	14541
913.886	14404
914	14488
914.113	14415
914.226	14575
914.34	14473
914.453	14313
914.566	14469
914.68	14339
914.793	14317
914.906	14119
915.019	14058
915.132	14062
915.245	13997
915.358	14100
915.47	14084
915.583	14088
915.696	14092
915.809	14142
915.921	14229
916.034	14008
916.146	13913
916.259	13913
916.371	14024
916.483	14024
916.595	13928
916.708	13978
916.82	13974
916.932	13830
917.044	13803
917.156	13921
917.268	13738
917.38	13712
917.491	13765
917.603	13746
917.715	13833
917.826	13837
917.938	13662
918.049	13620
918.161	13616
918.272	13811
918.384	13769
918.495	13662
918.606	13556
918.717	13506
918.828	13559
918.939	13597
919.05	13422
919.161	13529
919.272	13293
919.383	13362
919.494	13487
919.604	13655
919.715	13544
919.826	13514
919.936	13430
920.047	13552
920.157	13430
920.267	13643
920.378	13396
920.488	13369
920.598	13601
920.708	13723
920.818	13590
920.928	13674
921.038	13727
921.148	13681
921.258	13346
921.368	13266
921.477	13149
921.587	13171
921.697	13042
921.806	13206
921.916	12996
922.025	12905
922.134	12871
922.244	12859
922.353	12966
922.462	12787
922.571	12677
922.68	12536
922.789	12498
922.898	12414
923.007	12407
923.116	12509
923.224	12471
923.333	12422
923.442	12422
923.55	12403
923.659	12372
923.767	12414
923.876	12270
923.984	12445
924.092	12308
924.201	12308
924.309	12289
924.417	12273
924.525	12178
924.633	12163
924.741	13198
924.849	12072
924.956	12136
925.064	12041
925.172	11866
925.279	11939
925.387	11992
925.494	12015
925.602	12091
925.709	12072
925.816	11813
925.924	11920
926.031	12068
926.138	11992
926.245	11980
926.352	11851
926.459	11920
926.566	12045
926.673	11897
926.779	11764
926.886	11668
926.993	11623
927.099	11661
927.206	11421
927.312	11535
927.419	11646
927.525	11604
927.631	11623
927.737	11482
927.843	11383
927.95	11341
928.056	11360
928.162	11345
928.267	11379
928.373	12053
928.479	11509
928.585	11269
928.69	11330
928.796	11436
928.901	11258
929.007	11140
929.112	11231
929.218	11261
929.323	11113
929.428	11178
929.533	11292
929.638	11064
929.743	11140
929.848	11143
929.953	11102
930.058	11037
930.163	10877
930.267	10831
930.372	10949
930.477	10816
930.581	11060
930.685	10866
930.79	10710
930.894	10744
930.998	10710
931.103	10812
931.207	10440
931.311	10432
931.415	10375
931.519	10120
931.623	10158
