Data from test_V78500241_1653.txt Node
Date: Fri Mar 25 14:45:13 CST 2022
User: usil
Spectrometer: V785-0024
Trigger mode: 0
Integration Time (sec): 4.000000E-1
Scans to average: 1
Nonlinearity correction enabled: false
Boxcar width: 0
Storing dark spectrum: false
XAxis mode: Wavelengths
Number of Pixels in Spectrum: 1024
>>>>>Begin Spectral Data<<<<<
801.071	22295
801.214	22116
801.356	21880
801.499	21895
801.641	21785
801.783	21732
801.926	21606
802.068	21553
802.211	21637
802.353	21473
802.496	21313
802.638	21218
802.78	21131
802.923	21039
803.065	20948
803.208	20948
803.35	20921
803.492	21104
803.635	21108
803.777	20986
803.919	20986
804.061	21447
804.204	21157
804.346	20929
804.488	20857
804.63	20979
804.773	20899
804.915	20948
805.057	21077
805.199	20960
805.341	20975
805.483	21058
805.626	21001
805.768	20899
805.91	20895
806.052	21043
806.194	20842
806.336	21062
806.478	20838
806.62	20819
806.762	20944
806.904	21123
807.046	21397
807.188	21272
807.33	21241
807.472	21329
807.614	21245
807.756	21161
807.898	21066
808.04	21062
808.182	21039
808.324	21074
808.465	21039
808.607	21249
808.749	21355
808.891	21557
809.033	21530
809.174	21412
809.316	21416
809.458	21447
809.6	21279
809.741	21374
809.883	21405
810.025	21488
810.166	21591
810.308	21507
810.45	21443
810.591	21412
810.733	21230
810.875	21180
811.016	21055
811.158	21085
811.299	21165
811.441	21192
811.582	21264
811.724	20986
811.865	20963
812.007	21096
812.148	21058
812.29	21165
812.431	21180
812.573	21408
812.714	21557
812.855	21583
812.997	21717
813.138	21751
813.279	21698
813.421	21557
813.562	21397
813.703	21397
813.845	21291
813.986	20937
814.127	20853
814.268	20613
814.41	20716
814.551	20686
814.692	20625
814.833	20632
814.974	20590
815.115	20629
815.256	20393
815.397	20503
815.539	20476
815.68	20313
815.821	20237
815.962	20252
816.103	20396
816.244	20187
816.385	20142
816.526	20039
816.666	19879
816.807	19841
816.948	19902
817.089	19963
817.23	19852
817.371	19799
817.512	19818
817.653	19811
817.793	19712
817.934	19750
818.075	19890
818.216	19715
818.356	19670
818.497	19567
818.638	19457
818.778	19483
818.919	19430
819.06	19415
819.2	19548
819.341	19582
819.481	19620
819.622	19712
819.762	19959
819.903	19894
820.043	19856
820.184	19814
820.324	19780
820.465	19837
820.605	19788
820.746	19776
820.886	19670
821.026	19780
821.167	19738
821.307	19719
821.447	19635
821.588	19632
821.728	19487
821.868	19335
822.008	19187
822.149	19126
822.289	19091
822.429	18913
822.569	18875
822.709	18760
822.849	18669
822.99	18589
823.13	18669
823.27	18639
823.41	18422
823.55	18384
823.69	18475
823.83	18418
823.97	18506
824.11	18266
824.25	18174
824.389	18319
824.529	18369
824.669	18201
824.809	18403
824.949	18300
825.089	18232
825.228	18258
825.368	18030
825.508	18072
825.648	18022
825.787	18057
825.927	18121
826.067	17843
826.206	17977
826.346	18068
826.485	17992
826.625	17942
826.765	18083
826.904	18072
827.044	17840
827.183	17813
827.323	17680
827.462	17821
827.601	17752
827.741	17554
827.88	17684
828.02	17474
828.159	17596
828.298	17733
828.437	17726
828.577	17684
828.716	17752
828.855	17554
828.994	17471
829.134	17425
829.273	17410
829.412	17372
829.551	17356
829.69	17353
829.829	17360
829.968	17570
830.107	17524
830.246	17421
830.385	17364
830.524	17326
830.663	17326
830.802	17147
830.941	17090
831.08	17060
831.219	17136
831.357	16995
831.496	17349
831.635	17052
831.774	16972
831.913	16968
832.051	16889
832.19	16881
832.329	16908
832.467	16843
832.606	16698
832.744	16626
832.883	16748
833.022	16786
833.16	16721
833.299	16618
833.437	16713
833.576	16748
833.714	16847
833.852	16729
833.991	16820
834.129	16854
834.267	16869
834.406	16782
834.544	16850
834.682	16820
834.821	16771
834.959	16889
835.097	16736
835.235	16866
835.373	16786
835.511	16850
835.65	16679
835.788	16660
835.926	16634
836.064	16538
836.202	16565
836.34	16774
836.478	16740
836.615	16611
836.753	16752
836.891	16687
837.029	16733
837.167	16710
837.305	16569
837.443	16565
837.58	16561
837.718	16687
837.856	16752
837.993	16577
838.131	16580
838.269	16417
838.406	16485
838.544	16481
838.681	16367
838.819	16299
838.956	16135
839.094	16082
839.231	16097
839.369	16196
839.506	16561
839.643	16325
839.781	16097
839.918	15926
840.055	16097
840.193	16093
840.33	15994
840.467	16120
840.604	16143
840.742	16333
840.879	15915
841.016	16013
841.153	16013
841.29	16238
841.427	16116
841.564	16097
841.701	16169
841.838	16025
841.975	15987
842.112	15994
842.249	15960
842.385	15937
842.522	16071
842.659	15945
842.796	15903
842.933	15869
843.069	15755
843.206	15739
843.343	15991
843.479	15846
843.616	15850
843.752	15682
843.889	15698
844.025	15774
844.162	15675
844.298	15789
844.435	15648
844.571	15656
844.708	15671
844.844	15838
844.98	15880
845.117	15736
845.253	15637
845.389	15564
845.525	15606
845.661	15553
845.798	15523
845.934	15557
846.07	15511
846.206	15549
846.342	15599
846.478	15530
846.614	15291
846.75	15157
846.886	15233
847.022	15359
847.158	15192
847.294	15211
847.429	15222
847.565	15135
847.701	15321
847.837	14883
847.972	15020
848.108	14990
848.244	15058
848.379	14902
848.515	14743
848.65	14876
848.786	14838
848.921	14838
849.057	15013
849.192	14921
849.328	14815
849.463	14861
849.598	14739
849.734	14765
849.869	14663
850.004	14511
850.14	14606
850.275	14587
850.41	14499
850.545	14549
850.68	14594
850.815	14587
850.95	14514
851.085	14834
851.22	14659
851.355	14632
851.49	14606
851.625	14545
851.76	14461
851.895	14488
852.03	14423
852.165	14503
852.299	14518
852.434	14610
852.569	14579
852.703	14583
852.838	14644
852.973	14712
853.107	14697
853.242	14522
853.376	14415
853.511	14366
853.645	14400
853.78	14587
853.914	14389
854.048	14434
854.183	14438
854.317	14499
854.451	14579
854.585	14415
854.72	14427
854.854	14545
854.988	14256
855.122	14381
855.256	14332
855.39	14423
855.524	14511
855.658	14560
855.792	14549
855.926	14556
856.06	14499
856.194	14564
856.327	14431
856.461	14275
856.595	14362
856.729	14488
856.862	14621
856.996	14434
857.13	14465
857.263	14511
857.397	14556
857.53	14495
857.664	14602
857.797	14549
857.931	14629
858.064	14560
858.197	14514
858.331	14431
858.464	14366
858.597	14404
858.731	14514
858.864	14431
858.997	14488
859.13	14503
859.263	14469
859.396	14617
859.529	14366
859.662	14541
859.795	14370
859.928	14560
860.061	14587
860.194	14655
860.327	14484
860.46	14514
860.592	14598
860.725	14530
860.858	14575
860.99	14492
861.123	14313
861.256	14419
861.388	14415
861.521	15081
861.653	14385
861.786	14252
861.918	14347
862.05	14438
862.183	14370
862.315	14495
862.447	14469
862.58	14317
862.712	14252
862.844	14126
862.976	14298
863.108	14210
863.24	14678
863.372	14161
863.504	14282
863.636	14218
863.768	14305
863.9	14176
864.032	14126
864.164	14218
864.296	14301
864.428	14423
864.559	14298
864.691	14267
864.823	14332
864.954	14252
865.086	14214
865.217	14210
865.349	14069
865.48	14240
865.612	14252
865.743	14339
865.875	14347
866.006	14176
866.137	14286
866.269	14233
866.4	14164
866.531	14138
866.662	14103
866.793	14119
866.924	14183
867.055	14225
867.186	14176
867.317	14157
867.448	14123
867.579	14107
867.71	14115
867.841	14176
867.972	14214
868.103	14187
868.233	14142
868.364	14267
868.495	14298
868.625	14419
868.756	14568
868.886	14423
869.017	14450
869.147	14568
869.278	14541
869.408	14446
869.539	14560
869.669	14537
869.799	14431
869.929	14533
870.06	14583
870.19	14815
870.32	14758
870.45	14815
870.58	14842
870.71	14929
870.84	14929
870.97	14796
871.1	14819
871.23	15051
871.36	14967
871.489	14960
871.619	15009
871.749	15077
871.879	15100
872.008	15184
872.138	15066
872.267	15036
872.397	14872
872.526	14891
872.656	14861
872.785	14910
872.915	15043
873.044	15119
873.173	15097
873.303	15123
873.432	15108
873.561	15146
873.69	15058
873.819	15043
873.948	15108
874.077	15119
874.206	15051
874.335	15089
874.464	15214
874.593	15485
874.722	15351
874.851	15469
874.979	15469
875.108	15523
875.237	15367
875.365	15275
875.494	15260
875.623	15553
875.751	15428
875.88	15462
876.008	15587
876.136	15610
876.265	15797
876.393	15975
876.521	15846
876.65	15827
876.778	15850
876.906	15720
877.034	15781
877.162	15835
877.29	15804
877.418	15876
877.546	15812
877.674	15732
877.802	15778
877.93	15842
878.058	15808
878.185	15641
878.313	15774
878.441	15911
878.568	15720
878.696	15717
878.824	15804
878.951	15907
879.079	15991
879.206	16082
879.333	15960
879.461	15903
879.588	15930
879.715	16025
879.842	16109
879.97	15918
880.097	15743
880.224	15652
880.351	15774
880.478	15584
880.605	15690
880.732	15751
880.859	15941
880.986	15728
881.112	15679
881.239	15580
881.366	15389
881.493	15447
881.619	15420
881.746	15351
881.872	15393
881.999	15264
882.125	15306
882.252	15450
882.378	15374
882.505	15355
882.631	15287
882.757	15192
882.883	15207
883.01	15093
883.136	15131
883.262	15089
883.388	14971
883.514	15127
883.64	15165
883.766	15116
883.892	14941
884.018	14971
884.143	15119
884.269	15237
884.395	14998
884.52	14804
884.646	14849
884.772	14754
884.897	14731
885.023	14910
885.148	14998
885.274	15005
885.399	14918
885.524	14880
885.65	14826
885.775	14864
885.9	14857
886.025	14979
886.15	14963
886.275	14800
886.4	14746
886.525	14644
886.65	14716
886.775	14876
886.9	14948
887.025	15093
887.149	14880
887.274	14739
887.399	14640
887.523	14617
887.648	14636
887.773	14705
887.897	14659
888.021	14678
888.146	14678
888.27	14777
888.395	14830
888.519	14762
888.643	14670
888.767	14686
888.891	14636
889.015	14575
889.139	14549
889.263	14537
889.387	14613
889.511	14750
889.635	14579
889.759	14621
889.883	14526
890.006	14621
890.13	14632
890.254	14396
890.377	14480
890.501	14324
890.624	14244
890.748	14469
890.871	14336
890.995	14168
891.118	14183
891.241	14259
891.364	14195
891.488	14309
891.611	14370
891.734	14282
891.857	14328
891.98	14206
892.103	14328
892.226	14290
892.349	14145
892.471	14088
892.594	14256
892.717	14309
892.839	14301
892.962	14172
893.085	14259
893.207	14240
893.33	14058
893.452	14134
893.575	14278
893.697	14138
893.819	14343
893.941	14404
894.064	14374
894.186	14214
894.308	14282
894.43	14385
894.552	14469
894.674	14419
894.796	14229
894.918	14180
895.04	14278
895.161	14278
895.283	14339
895.405	14259
895.526	14381
895.648	14423
895.769	14423
895.891	14469
896.012	14484
896.134	14404
896.255	14446
896.376	14309
896.498	14381
896.619	14438
896.74	14324
896.861	14518
896.982	14746
897.103	14941
897.224	14659
897.345	14674
897.466	14518
897.587	14632
897.708	14861
897.828	14689
897.949	14689
898.07	14457
898.19	14693
898.311	14842
898.431	14792
898.552	14724
898.672	14792
898.792	14906
898.913	14686
899.033	14693
899.153	14583
899.273	14545
899.393	14503
899.513	14708
899.633	14693
899.753	14625
899.873	14636
899.993	14659
900.113	14571
900.232	14621
900.352	14598
900.472	14549
900.591	14393
900.711	14583
900.83	14454
900.95	14629
901.069	14602
901.189	14446
901.308	14317
901.427	14210
901.546	14161
901.665	14142
901.784	14145
901.904	13955
902.023	13947
902.141	13826
902.26	13689
902.379	13780
902.498	13723
902.617	13677
902.735	13769
902.854	13658
902.973	13575
903.091	13506
903.21	13476
903.328	13400
903.446	13407
903.565	13343
903.683	13221
903.801	13164
903.919	13270
904.038	13213
904.156	13015
904.274	13156
904.392	13095
904.51	13076
904.627	13042
904.745	13141
904.863	13194
904.981	12981
905.098	12848
905.216	12688
905.334	12852
905.451	12783
905.569	12711
905.686	12749
905.803	12684
905.921	12578
906.038	12696
906.155	12631
906.272	12509
906.389	12517
906.506	12346
906.623	12414
906.74	12433
906.857	12266
906.974	12376
907.091	12479
907.208	12460
907.324	12441
907.441	12388
907.557	12163
907.674	12125
907.79	11988
907.907	12079
908.023	12072
908.139	12213
908.256	12159
908.372	12007
908.488	11954
908.604	11904
908.72	11771
908.836	11885
908.952	11756
909.068	11889
909.184	11916
909.3	11783
909.415	11855
909.531	11874
909.647	11680
909.762	11585
909.878	11589
909.993	11630
910.108	11592
910.224	11604
910.339	11756
910.454	11562
910.57	11566
910.685	11372
910.8	11726
910.915	11729
911.03	11604
911.145	11429
911.259	11398
911.374	11326
911.489	11299
911.604	11280
911.718	11151
911.833	11143
911.947	11071
912.062	10934
912.176	11045
912.291	11132
912.405	11083
912.519	11372
912.633	11273
912.748	11155
912.862	11178
912.976	10984
913.09	10793
913.204	10938
913.318	10946
913.431	11079
913.545	11037
913.659	11071
913.772	10965
913.886	10820
914	10881
914.113	10999
914.226	11067
914.34	10896
914.453	10740
914.566	10911
914.68	10828
914.793	10729
914.906	10679
915.019	10542
915.132	10459
915.245	10550
915.358	10558
915.47	10618
915.583	10660
915.696	10656
915.809	10771
915.921	10653
916.034	10569
916.146	10512
916.259	10527
916.371	10542
916.483	10519
916.595	10504
916.708	10554
916.82	10516
916.932	10497
917.044	10546
917.156	10428
917.268	10363
917.38	10409
917.491	10398
917.603	10390
917.715	10390
917.826	10516
917.938	10489
918.049	10215
918.161	10462
918.272	10561
918.384	10596
918.495	10462
918.606	10344
918.717	10268
918.828	10287
918.939	10344
919.05	10169
919.161	10398
919.272	10143
919.383	10234
919.494	10371
919.604	10580
919.715	10352
919.826	10192
919.936	10295
920.047	10386
920.157	10344
920.267	10550
920.378	10344
920.488	10337
920.598	10451
920.708	10717
920.818	10489
920.928	10409
921.038	10702
921.148	10592
921.258	10314
921.368	10314
921.477	10169
921.587	10173
921.697	10105
921.806	10230
921.916	10071
922.025	9922
922.134	9827
922.244	9819
922.353	9903
922.462	9804
922.571	9705
922.68	9580
922.789	9557
922.898	9572
923.007	9561
923.116	9587
923.224	9519
923.333	9663
923.442	9439
923.55	9408
923.659	9481
923.767	9443
923.876	9382
923.984	9511
924.092	9306
924.201	9424
924.309	9469
924.417	9439
924.525	9340
924.633	9382
924.741	10105
924.849	9173
924.956	9382
925.064	9226
925.172	9146
925.279	9119
925.387	9256
925.494	9180
925.602	9313
925.709	9306
925.816	9135
925.924	9203
926.031	9329
926.138	9211
926.245	9199
926.352	9123
926.459	9294
926.566	9245
926.673	9157
926.779	9001
926.886	9085
926.993	8956
927.099	8914
927.206	8861
927.312	8895
927.419	9077
927.525	8982
927.631	8975
927.737	8849
927.843	8758
927.95	8777
928.056	8845
928.162	8845
928.267	8845
928.373	9382
928.479	8864
928.585	8697
928.69	8861
928.796	8876
928.901	8712
929.007	8594
929.112	8708
929.218	8686
929.323	8686
929.428	8602
929.533	8838
929.638	8598
929.743	8651
929.848	8670
929.953	8602
930.058	8549
930.163	8408
930.267	8412
930.372	8511
930.477	8358
930.581	8590
930.685	8374
930.79	8358
930.894	8396
930.998	8385
931.103	8476
931.207	8191
931.311	8073
931.415	7989
931.519	7841
931.623	7807
