Data from test_V78500241_1014.txt Node
Date: Fri Mar 25 14:40:46 CST 2022
User: usil
Spectrometer: V785-0024
Trigger mode: 0
Integration Time (sec): 4.000000E-1
Scans to average: 1
Nonlinearity correction enabled: false
Boxcar width: 0
Storing dark spectrum: false
XAxis mode: Wavelengths
Number of Pixels in Spectrum: 1024
>>>>>Begin Spectral Data<<<<<
801.071	23018
801.214	22946
801.356	22683
801.499	22580
801.641	22344
801.783	22455
801.926	22398
802.068	22234
802.211	22185
802.353	22135
802.496	21934
802.638	21994
802.78	21793
802.923	21835
803.065	21747
803.208	21637
803.35	21793
803.492	21766
803.635	21876
803.777	21652
803.919	21762
804.061	22059
804.204	21743
804.346	21701
804.488	21610
804.63	21660
804.773	21526
804.915	21656
805.057	21835
805.199	21705
805.341	21686
805.483	21827
805.626	21690
805.768	21595
805.91	21671
806.052	21648
806.194	21656
806.336	21812
806.478	21690
806.62	21641
806.762	21850
806.904	21994
807.046	22105
807.188	22029
807.33	22013
807.472	22166
807.614	22150
807.756	22253
807.898	22124
808.04	22070
808.182	22215
808.324	22341
808.465	22485
808.607	22889
808.749	23102
808.891	23200
809.033	23330
809.174	22995
809.316	22881
809.458	22717
809.6	22535
809.741	22489
809.883	22489
810.025	22519
810.166	22428
810.308	22451
810.45	22234
810.591	22280
810.733	22086
810.875	21956
811.016	21979
811.158	21816
811.299	22048
811.441	22029
811.582	21907
811.724	21823
811.865	21797
812.007	21827
812.148	21903
812.29	22040
812.431	21960
812.573	22246
812.714	22265
812.855	22424
812.997	22379
813.138	22577
813.279	22489
813.421	22261
813.562	22268
813.703	22158
813.845	22032
813.986	21819
814.127	21504
814.268	21545
814.41	21454
814.551	21363
814.692	21523
814.833	21393
814.974	21382
815.115	21416
815.256	21298
815.397	21249
815.539	21340
815.68	21150
815.821	21146
815.962	21180
816.103	21222
816.244	21066
816.385	20986
816.526	20819
816.666	20727
816.807	20564
816.948	20556
817.089	20663
817.23	20602
817.371	20625
817.512	20663
817.653	20537
817.793	20552
817.934	20701
818.075	20667
818.216	20556
818.356	20514
818.497	20233
818.638	20328
818.778	20332
818.919	20275
819.06	20301
819.2	20366
819.341	20499
819.481	20427
819.622	20568
819.762	20785
819.903	20705
820.043	20571
820.184	20507
820.324	20518
820.465	20636
820.605	20541
820.746	20499
820.886	20282
821.026	20571
821.167	20514
821.307	20560
821.447	20526
821.588	20240
821.728	20244
821.868	20035
822.008	20069
822.149	19944
822.289	19860
822.429	19715
822.569	19662
822.709	19613
822.849	19369
822.99	19449
823.13	19373
823.27	19339
823.41	19255
823.55	19274
823.69	19240
823.83	19221
823.97	19175
824.11	18962
824.25	18993
824.389	18943
824.529	18962
824.669	19012
824.809	19141
824.949	19114
825.089	19129
825.228	19000
825.368	18715
825.508	18833
825.648	18772
825.787	18928
825.927	18840
826.067	18715
826.206	18665
826.346	18772
826.485	18738
826.625	18719
826.765	18833
826.904	18875
827.044	18536
827.183	18623
827.323	18422
827.462	18486
827.601	18456
827.741	18384
827.88	18528
828.02	18239
828.159	18471
828.298	18460
828.437	18544
828.577	18479
828.716	18547
828.855	18410
828.994	18262
829.134	18174
829.273	18270
829.412	18125
829.551	18235
829.69	18152
829.829	18155
829.968	18178
830.107	18281
830.246	18152
830.385	18186
830.524	18072
830.663	18045
830.802	17916
830.941	17821
831.08	17771
831.219	17901
831.357	17984
831.496	17988
831.635	17870
831.774	17672
831.913	17680
832.051	17653
832.19	17596
832.329	17665
832.467	17562
832.606	17433
832.744	17360
832.883	17566
833.022	17547
833.16	17528
833.299	17649
833.437	17520
833.576	17554
833.714	17718
833.852	17630
833.991	17668
834.129	17642
834.267	17687
834.406	17646
834.544	17615
834.682	17573
834.821	17512
834.959	17767
835.097	17524
835.235	17608
835.373	17577
835.511	17596
835.65	17448
835.788	17429
835.926	17376
836.064	17151
836.202	17307
836.34	17474
836.478	17611
836.615	17463
836.753	17539
836.891	17444
837.029	17512
837.167	17478
837.305	17395
837.443	17360
837.58	17360
837.718	17425
837.856	17288
837.993	17280
838.131	17379
838.269	17242
838.406	17178
838.544	17220
838.681	16980
838.819	17083
838.956	16961
839.094	16843
839.231	17014
839.369	17003
839.506	17242
839.643	17094
839.781	16873
839.918	16866
840.055	16862
840.193	16793
840.33	16790
840.467	16729
840.604	16885
840.742	17083
840.879	16782
841.016	16672
841.153	16778
841.29	17041
841.427	16755
841.564	16873
841.701	16812
841.838	16820
841.975	16733
842.112	16835
842.249	16656
842.385	16649
842.522	16809
842.659	16599
842.796	16538
842.933	16672
843.069	16618
843.206	16599
843.343	16645
843.479	16641
843.616	16573
843.752	16409
843.889	16455
844.025	16516
844.162	16333
844.298	16641
844.435	16337
844.571	16337
844.708	16508
844.844	16577
844.98	16672
845.117	16622
845.253	16455
845.389	16527
845.525	16733
845.661	16854
845.798	17079
845.934	17490
846.07	17448
846.206	17364
846.342	17307
846.478	16927
846.614	16466
846.75	16314
846.886	16097
847.022	16143
847.158	16010
847.294	16044
847.429	16090
847.565	15953
847.701	16150
847.837	15717
847.972	15625
848.108	15804
848.244	15751
848.379	15572
848.515	15595
848.65	15485
848.786	15507
848.921	15450
849.057	15766
849.192	15606
849.328	15587
849.463	15648
849.598	15561
849.734	15447
849.869	15351
850.004	15363
850.14	15321
850.275	15348
850.41	15188
850.545	15272
850.68	15378
850.815	15226
850.95	15310
851.085	15424
851.22	15466
851.355	15351
851.49	15226
851.625	15135
851.76	15313
851.895	15230
852.03	15245
852.165	15310
852.299	15401
852.434	15443
852.569	15332
852.703	15325
852.838	15431
852.973	15424
853.107	15435
853.242	15294
853.376	15237
853.511	15047
853.645	15180
853.78	15313
853.914	15165
854.048	15157
854.183	15157
854.317	15260
854.451	15298
854.585	15199
854.72	15211
854.854	15199
854.988	15089
855.122	15199
855.256	15051
855.39	15123
855.524	15283
855.658	15249
855.792	15249
855.926	15230
856.06	15195
856.194	15272
856.327	15138
856.461	15127
856.595	15093
856.729	15203
856.862	15294
856.996	15176
857.13	15218
857.263	15291
857.397	15268
857.53	15252
857.664	15233
857.797	15233
857.931	15306
858.064	15211
858.197	15272
858.331	15176
858.464	15051
858.597	15013
858.731	15192
858.864	15077
858.997	15135
859.13	15169
859.263	15275
859.396	15287
859.529	15112
859.662	15036
859.795	15154
859.928	15211
860.061	15211
860.194	15321
860.327	15146
860.46	15173
860.592	15260
860.725	15294
860.858	15287
860.99	15157
861.123	15176
861.256	15146
861.388	15131
861.521	15724
861.653	15020
861.786	14956
861.918	15005
862.05	15055
862.183	15195
862.315	15214
862.447	15138
862.58	15081
862.712	14864
862.844	14967
862.976	15024
863.108	14990
863.24	15268
863.372	14830
863.504	14914
863.636	14864
863.768	14910
863.9	14956
864.032	14876
864.164	14925
864.296	14933
864.428	15017
864.559	15047
864.691	14963
864.823	14975
864.954	15070
865.086	14906
865.217	14937
865.349	14868
865.48	14921
865.612	14956
865.743	15062
865.875	14914
866.006	14804
866.137	14830
866.269	15024
866.4	15013
866.531	14883
866.662	14838
866.793	14910
866.924	14819
867.055	14891
867.186	14883
867.317	14914
867.448	14731
867.579	14902
867.71	14807
867.841	14739
867.972	15009
868.103	14868
868.233	14929
868.364	14918
868.495	14979
868.625	15081
868.756	15218
868.886	15142
869.017	15043
869.147	15249
869.278	15142
869.408	15112
869.539	15165
869.669	15173
869.799	15199
869.929	15169
870.06	15241
870.19	15374
870.32	15367
870.45	15553
870.58	15458
870.71	15561
870.84	15679
870.97	15500
871.1	15511
871.23	15663
871.36	15679
871.489	15538
871.619	15622
871.749	15736
871.879	15778
872.008	15770
872.138	15743
872.267	15816
872.397	15625
872.526	15538
872.656	15530
872.785	15606
872.915	15793
873.044	15759
873.173	15743
873.303	15819
873.432	15827
873.561	15934
873.69	15854
873.819	15770
873.948	15937
874.077	15739
874.206	15766
874.335	15827
874.464	15911
874.593	16101
874.722	15949
874.851	16147
874.979	16173
875.108	16188
875.237	16147
875.365	16124
875.494	16147
875.623	16192
875.751	16025
875.88	16211
876.008	16215
876.136	16287
876.265	16550
876.393	16683
876.521	16569
876.65	16577
876.778	16580
876.906	16554
877.034	16538
877.162	16497
877.29	16455
877.418	16660
877.546	16599
877.674	16558
877.802	16558
877.93	16451
878.058	16531
878.185	16432
878.313	16546
878.441	16516
878.568	16523
878.696	16565
878.824	16694
878.951	16771
879.079	16972
879.206	17258
879.333	17178
879.461	17102
879.588	17147
879.715	17254
879.842	17239
879.97	17033
880.097	16812
880.224	16622
880.351	16615
880.478	16630
880.605	16470
880.732	16535
880.859	16713
880.986	16577
881.112	16626
881.239	16325
881.366	16219
881.493	16177
881.619	16196
881.746	16074
881.872	16078
881.999	16135
882.125	16135
882.252	16280
882.378	16097
882.505	16272
882.631	16090
882.757	16093
882.883	15953
883.01	16010
883.136	15907
883.262	15873
883.388	15781
883.514	16078
883.64	16032
883.766	15903
883.892	15747
884.018	15941
884.143	15956
884.269	16071
884.395	15781
884.52	15606
884.646	15660
884.772	15545
884.897	15587
885.023	15694
885.148	15774
885.274	15850
885.399	15793
885.524	15774
885.65	15861
885.775	15656
885.9	15637
886.025	15720
886.15	15671
886.275	15606
886.4	15492
886.525	15606
886.65	15534
886.775	15450
886.9	15667
887.025	15838
887.149	15606
887.274	15367
887.399	15332
887.523	15378
887.648	15241
887.773	15408
887.897	15408
888.021	15386
888.146	15420
888.27	15515
888.395	15572
888.519	15447
888.643	15412
888.767	15405
888.891	15245
889.015	15157
889.139	15317
889.263	15245
889.387	15272
889.511	15469
889.635	15310
889.759	15207
889.883	15218
890.006	15226
890.13	15325
890.254	15108
890.377	15207
890.501	15047
890.624	14998
890.748	15138
890.871	14998
890.995	14815
891.118	14861
891.241	14880
891.364	15005
891.488	14982
891.611	14864
891.734	15024
891.857	14956
891.98	14853
892.103	15009
892.226	14975
892.349	14918
892.471	14830
892.594	14823
892.717	14902
892.839	14906
892.962	14914
893.085	14906
893.207	14880
893.33	14746
893.452	14769
893.575	14910
893.697	14910
893.819	15123
893.941	15089
894.064	15020
894.186	14861
894.308	14785
894.43	14994
894.552	15077
894.674	14918
894.796	14906
894.918	14914
895.04	14845
895.161	15100
895.283	14948
895.405	14842
895.526	14830
895.648	14925
895.769	14956
895.891	14990
896.012	14986
896.134	15135
896.255	15009
896.376	15001
896.498	14925
896.619	15020
896.74	15070
896.861	14971
896.982	15313
897.103	15584
897.224	15260
897.345	15294
897.466	15275
897.587	15294
897.708	15397
897.828	15264
897.949	15279
898.07	15154
898.19	15275
898.311	15313
898.431	15348
898.552	15332
898.672	15397
898.792	15428
898.913	15389
899.033	15302
899.153	15192
899.273	15146
899.393	15131
899.513	15195
899.633	15188
899.753	15104
899.873	15176
899.993	15245
900.113	15222
900.232	15207
900.352	15039
900.472	15138
900.591	15013
900.711	15142
900.83	14967
900.95	15169
901.069	15127
901.189	15081
901.308	14724
901.427	14708
901.546	14602
901.665	14697
901.784	14811
901.904	14575
902.023	14499
902.141	14282
902.26	14199
902.379	14298
902.498	14343
902.617	14225
902.735	14237
902.854	14187
902.973	14221
903.091	14027
903.21	14031
903.328	13997
903.446	13871
903.565	13780
903.683	13830
903.801	13731
903.919	13788
904.038	13757
904.156	13670
904.274	13696
904.392	13601
904.51	13643
904.627	13605
904.745	13647
904.863	13712
904.981	13392
905.098	13297
905.216	13308
905.334	13259
905.451	13365
905.569	13289
905.686	13297
905.803	13388
905.921	13168
906.038	13274
906.155	13171
906.272	12962
906.389	13069
906.506	12905
906.623	12863
906.74	12730
906.857	12817
906.974	12795
907.091	12966
907.208	13031
907.324	12924
907.441	12848
907.557	12612
907.674	12528
907.79	12532
907.907	12582
908.023	12669
908.139	12589
908.256	12559
908.372	12601
908.488	12494
908.604	12445
908.72	12369
908.836	12441
908.952	12395
909.068	12357
909.184	12494
909.3	12403
909.415	12464
909.531	12304
909.647	12159
909.762	12102
909.878	12140
909.993	12228
910.108	12007
910.224	12110
910.339	12197
910.454	12091
910.57	11958
910.685	11954
910.8	12239
910.915	12121
911.03	11939
911.145	11840
911.259	11794
911.374	11794
911.489	11707
911.604	11786
911.718	11611
911.833	11630
911.947	11478
912.062	11387
912.176	11577
912.291	11566
912.405	11592
912.519	11798
912.633	11779
912.748	11619
912.862	11608
912.976	11406
913.09	11337
913.204	11376
913.318	11444
913.431	11516
913.545	11467
913.659	11482
913.772	11478
913.886	11345
914	11277
914.113	11379
914.226	11383
914.34	11410
914.453	11201
914.566	11387
914.68	11258
914.793	11242
914.906	11162
915.019	11006
915.132	11010
915.245	11033
915.358	11083
915.47	11060
915.583	11071
915.696	11083
915.809	11166
915.921	11201
916.034	11067
916.146	10999
916.259	11052
916.371	11086
916.483	11060
916.595	10938
916.708	11003
916.82	10961
916.932	10927
917.044	10900
917.156	10965
917.268	10835
917.38	10862
917.491	10797
917.603	10889
917.715	10919
917.826	10919
917.938	10866
918.049	10752
918.161	10843
918.272	10896
918.384	10972
918.495	10831
918.606	10664
918.717	10637
918.828	10672
918.939	10668
919.05	10622
919.161	10687
919.272	10470
919.383	10683
919.494	10816
919.604	10919
919.715	10717
919.826	10664
919.936	10694
920.047	10748
920.157	10767
920.267	10968
920.378	10694
920.488	10736
920.598	10957
920.708	11056
920.818	10911
920.928	10866
921.038	11094
921.148	10991
921.258	10790
921.368	10698
921.477	10626
921.587	10558
921.697	10451
921.806	10573
921.916	10451
922.025	10314
922.134	10295
922.244	10207
922.353	10223
922.462	10135
922.571	10090
922.68	9899
922.789	10021
922.898	9903
923.007	9907
923.116	10013
923.224	9949
923.333	9941
923.442	9819
923.55	9819
923.659	9838
923.767	9827
923.876	9804
923.984	9876
924.092	9766
924.201	9827
924.309	9781
924.417	9793
924.525	9709
924.633	9797
924.741	10668
924.849	9568
924.956	9732
925.064	9561
925.172	9393
925.279	9629
925.387	9519
925.494	9515
925.602	9686
925.709	9625
925.816	9504
925.924	9553
926.031	9618
926.138	9572
926.245	9606
926.352	9568
926.459	9637
926.566	9595
926.673	9599
926.779	9393
926.886	9420
926.993	9256
927.099	9298
927.206	9195
927.312	9264
927.419	9329
927.525	9306
927.631	9291
927.737	9173
927.843	9112
927.95	9032
928.056	9138
928.162	9184
928.267	9199
928.373	9743
928.479	9203
928.585	9005
928.69	9207
928.796	9180
928.901	9047
929.007	8979
929.112	9093
929.218	9039
929.323	8967
929.428	8963
929.533	9043
929.638	8921
929.743	9005
929.848	8990
929.953	8941
930.058	8891
930.163	8632
930.267	8750
930.372	8853
930.477	8758
930.581	8948
930.685	8758
930.79	8682
930.894	8781
930.998	8716
931.103	8815
931.207	8438
931.311	8419
931.415	8279
931.519	8187
931.623	8119
