Data from test_V78500241_971.txt Node
Date: Fri Mar 25 14:40:28 CST 2022
User: usil
Spectrometer: V785-0024
Trigger mode: 0
Integration Time (sec): 4.000000E-1
Scans to average: 1
Nonlinearity correction enabled: false
Boxcar width: 0
Storing dark spectrum: false
XAxis mode: Wavelengths
Number of Pixels in Spectrum: 1024
>>>>>Begin Spectral Data<<<<<
801.071	23337
801.214	23204
801.356	22995
801.499	22972
801.641	22698
801.783	22755
801.926	22752
802.068	22824
802.211	22569
802.353	22508
802.496	22375
802.638	22196
802.78	22154
802.923	22109
803.065	22055
803.208	22059
803.35	22131
803.492	22207
803.635	22287
803.777	22070
803.919	22238
804.061	22402
804.204	22246
804.346	22070
804.488	21994
804.63	22032
804.773	21949
804.915	22070
805.057	22173
805.199	22013
805.341	22044
805.483	22299
805.626	22204
805.768	21930
805.91	21998
806.052	22124
806.194	22017
806.336	22295
806.478	22177
806.62	22215
806.762	22306
806.904	22352
807.046	22569
807.188	22641
807.33	22577
807.472	22790
807.614	22672
807.756	22831
807.898	22767
808.04	22858
808.182	22949
808.324	23124
808.465	23280
808.607	23821
808.749	24285
808.891	24437
809.033	24365
809.174	24136
809.316	23794
809.458	23726
809.6	23356
809.741	23265
809.883	22957
810.025	23098
810.166	22980
810.308	22869
810.45	22820
810.591	22805
810.733	22565
810.875	22466
811.016	22322
811.158	22421
811.299	22569
811.441	22462
811.582	22554
811.724	22371
811.865	22344
812.007	22238
812.148	22177
812.29	22424
812.431	22474
812.573	22580
812.714	22809
812.855	22889
812.997	22923
813.138	22934
813.279	22949
813.421	22759
813.562	22778
813.703	22603
813.845	22421
813.986	22226
814.127	22036
814.268	21835
814.41	22010
814.551	21930
814.692	21869
814.833	21679
814.974	21800
815.115	21770
815.256	21644
815.397	21614
815.539	21629
815.68	21542
815.821	21549
815.962	21542
816.103	21473
816.244	21370
816.385	21310
816.526	21237
816.666	20952
816.807	20933
816.948	21127
817.089	21085
817.23	20982
817.371	20979
817.512	20925
817.653	20956
817.793	20792
817.934	20948
818.075	20880
818.216	21112
818.356	20963
818.497	20880
818.638	20644
818.778	20617
818.919	20568
819.06	20651
819.2	20758
819.341	20826
819.481	20667
819.622	20906
819.762	21165
819.903	21036
820.043	21028
820.184	20925
820.324	20937
820.465	20918
820.605	21009
820.746	20788
820.886	20811
821.026	20895
821.167	20902
821.307	20921
821.447	20758
821.588	20724
821.728	20511
821.868	20450
822.008	20278
822.149	20229
822.289	20313
822.429	19997
822.569	19913
822.709	20016
822.849	19822
822.99	19734
823.13	19708
823.27	19704
823.41	19590
823.55	19411
823.69	19616
823.83	19647
823.97	19476
824.11	19270
824.25	19259
824.389	19282
824.529	19521
824.669	19320
824.809	19472
824.949	19464
825.089	19388
825.228	19411
825.368	19152
825.508	19057
825.648	19206
825.787	19213
825.927	19190
826.067	19126
826.206	19031
826.346	19103
826.485	19175
826.625	19160
826.765	19209
826.904	19076
827.044	18875
827.183	18859
827.323	18768
827.462	18806
827.601	18848
827.741	18875
827.88	18806
828.02	18681
828.159	18764
828.298	18890
828.437	18863
828.577	18749
828.716	18875
828.855	18734
828.994	18547
829.134	18509
829.273	18650
829.412	18479
829.551	18429
829.69	18555
829.829	18627
829.968	18635
830.107	18620
830.246	18521
830.385	18391
830.524	18308
830.663	18334
830.802	18136
830.941	18159
831.08	18262
831.219	18205
831.357	18224
831.496	18338
831.635	18110
831.774	18114
831.913	18003
832.051	17973
832.19	17958
832.329	17980
832.467	17897
832.606	17802
832.744	17889
832.883	17821
833.022	17813
833.16	17855
833.299	17988
833.437	17908
833.576	17885
833.714	17897
833.852	17946
833.991	18034
834.129	18068
834.267	18060
834.406	17840
834.544	18079
834.682	17859
834.821	17908
834.959	17973
835.097	17817
835.235	17958
835.373	17965
835.511	17859
835.65	17745
835.788	17695
835.926	17642
836.064	17562
836.202	17497
836.34	17695
836.478	17684
836.615	17707
836.753	17729
836.891	17775
837.029	17779
837.167	17714
837.305	17775
837.443	17733
837.58	17558
837.718	17687
837.856	17665
837.993	17687
838.131	17539
838.269	17577
838.406	17547
838.544	17444
838.681	17356
838.819	17280
838.956	17185
839.094	17189
839.231	17273
839.369	17223
839.506	17406
839.643	17265
839.781	17162
839.918	17109
840.055	17022
840.193	17162
840.33	17033
840.467	17136
840.604	17151
840.742	17273
840.879	17052
841.016	16915
841.153	17041
841.29	17064
841.427	17140
841.564	17136
841.701	17170
841.838	16976
841.975	17056
842.112	17022
842.249	16828
842.385	16896
842.522	17071
842.659	16889
842.796	16869
842.933	16904
843.069	16881
843.206	16687
843.343	16987
843.479	16828
843.616	16919
843.752	16763
843.889	16694
844.025	16847
844.162	16622
844.298	16790
844.435	16687
844.571	16664
844.708	16702
844.844	16801
844.98	16911
845.117	16942
845.253	16782
845.389	16965
845.525	17193
845.661	17570
845.798	17942
845.934	18521
846.07	18635
846.206	18604
846.342	18399
846.478	17756
846.614	17151
846.75	16683
846.886	16504
847.022	16459
847.158	16356
847.294	16322
847.429	16329
847.565	16196
847.701	16561
847.837	15991
847.972	15960
848.108	16120
848.244	16071
848.379	15842
848.515	15808
848.65	15804
848.786	15724
848.921	15808
849.057	15922
849.192	15888
849.328	15808
849.463	15800
849.598	15686
849.734	15705
849.869	15671
850.004	15603
850.14	15576
850.275	15523
850.41	15610
850.545	15648
850.68	15584
850.815	15606
850.95	15507
851.085	15766
851.22	15606
851.355	15530
851.49	15584
851.625	15504
851.76	15507
851.895	15431
852.03	15515
852.165	15454
852.299	15553
852.434	15641
852.569	15675
852.703	15603
852.838	15690
852.973	15781
853.107	15622
853.242	15534
853.376	15504
853.511	15329
853.645	15351
853.78	15534
853.914	15526
854.048	15416
854.183	15367
854.317	15511
854.451	15667
854.585	15500
854.72	15412
854.854	15447
854.988	15374
855.122	15370
855.256	15203
855.39	15462
855.524	15477
855.658	15511
855.792	15504
855.926	15386
856.06	15500
856.194	15507
856.327	15450
856.461	15340
856.595	15378
856.729	15420
856.862	15523
856.996	15412
857.13	15424
857.263	15542
857.397	15519
857.53	15412
857.664	15488
857.797	15504
857.931	15496
858.064	15431
858.197	15420
858.331	15439
858.464	15447
858.597	15245
858.731	15378
858.864	15306
858.997	15283
859.13	15397
859.263	15431
859.396	15450
859.529	15420
859.662	15420
859.795	15272
859.928	15435
860.061	15485
860.194	15561
860.327	15439
860.46	15424
860.592	15618
860.725	15458
860.858	15553
860.99	15325
861.123	15245
861.256	15359
861.388	15481
861.521	15968
861.653	15260
861.786	15336
861.918	15233
862.05	15298
862.183	15359
862.315	15412
862.447	15386
862.58	15260
862.712	15222
862.844	15058
862.976	15165
863.108	15116
863.24	15511
863.372	15047
863.504	15127
863.636	15192
863.768	15176
863.9	15169
864.032	14990
864.164	15123
864.296	15329
864.428	15340
864.559	15161
864.691	15272
864.823	15142
864.954	15192
865.086	15150
865.217	15199
865.349	15081
865.48	15218
865.612	15055
865.743	15298
865.875	15230
866.006	15161
866.137	15097
866.269	15207
866.4	15127
866.531	15077
866.662	15081
866.793	15055
866.924	15123
867.055	15066
867.186	15047
867.317	15097
867.448	14963
867.579	15089
867.71	15039
867.841	14929
867.972	15062
868.103	15036
868.233	15100
868.364	15074
868.495	15245
868.625	15264
868.756	15416
868.886	15249
869.017	15408
869.147	15462
869.278	15443
869.408	15378
869.539	15367
869.669	15401
869.799	15389
869.929	15405
870.06	15428
870.19	15545
870.32	15629
870.45	15785
870.58	15789
870.71	15865
870.84	15857
870.97	15713
871.1	15781
871.23	15960
871.36	15926
871.489	15812
871.619	15949
871.749	15968
871.879	16048
872.008	16101
872.138	15953
872.267	15911
872.397	15759
872.526	15895
872.656	15835
872.785	15804
872.915	16101
873.044	16101
873.173	15983
873.303	16059
873.432	16044
873.561	16200
873.69	16006
873.819	15987
873.948	16185
874.077	16002
874.206	15994
874.335	16196
874.464	16291
874.593	16261
874.722	16230
874.851	16398
874.979	16314
875.108	16436
875.237	16322
875.365	16265
875.494	16325
875.623	16432
875.751	16306
875.88	16428
876.008	16451
876.136	16634
876.265	16672
876.393	16995
876.521	16911
876.65	16927
876.778	16828
876.906	16763
877.034	16660
877.162	16752
877.29	16683
877.418	16866
877.546	16866
877.674	16755
877.802	16752
877.93	16889
878.058	16752
878.185	16847
878.313	16953
878.441	16896
878.568	16786
878.696	16946
878.824	17117
878.951	17246
879.079	17459
879.206	17676
879.333	17649
879.461	17710
879.588	17859
879.715	18064
879.842	18053
879.97	17687
880.097	17284
880.224	17208
880.351	17006
880.478	17075
880.605	16942
880.732	16999
880.859	17010
880.986	16900
881.112	16942
881.239	16816
881.366	16588
881.493	16500
881.619	16493
881.746	16481
881.872	16519
881.999	16489
882.125	16394
882.252	16538
882.378	16504
882.505	16569
882.631	16402
882.757	16344
882.883	16379
883.01	16246
883.136	16341
883.262	16234
883.388	16143
883.514	16303
883.64	16371
883.766	16360
883.892	16173
884.018	16280
884.143	16356
884.269	16447
884.395	16124
884.52	15991
884.646	16032
884.772	15945
884.897	15850
885.023	15987
885.148	16306
885.274	16166
885.399	16143
885.524	16017
885.65	16032
885.775	16112
885.9	15953
886.025	16002
886.15	16010
886.275	15876
886.4	15804
886.525	15949
886.65	15907
886.775	15804
886.9	15987
887.025	16230
887.149	15880
887.274	15789
887.399	15633
887.523	15690
887.648	15770
887.773	15652
887.897	15797
888.021	15827
888.146	15644
888.27	15739
888.395	15850
888.519	15694
888.643	15827
888.767	15759
888.891	15641
889.015	15504
889.139	15591
889.263	15431
889.387	15690
889.511	15812
889.635	15713
889.759	15450
889.883	15519
890.006	15458
890.13	15713
890.254	15424
890.377	15401
890.501	15272
890.624	15264
890.748	15321
890.871	15199
890.995	15161
891.118	15108
891.241	15195
891.364	15161
891.488	15260
891.611	15207
891.734	15173
891.857	15180
891.98	15176
892.103	15321
892.226	15214
892.349	15116
892.471	14941
892.594	15070
892.717	15169
892.839	15165
892.962	15154
893.085	15165
893.207	15173
893.33	15138
893.452	15081
893.575	15112
893.697	15089
893.819	15313
893.941	15294
894.064	15283
894.186	15055
894.308	15066
894.43	15165
894.552	15245
894.674	15142
894.796	15062
894.918	15142
895.04	15074
895.161	15294
895.283	15241
895.405	15138
895.526	15241
895.648	15192
895.769	15173
895.891	15275
896.012	15298
896.134	15260
896.255	15264
896.376	15226
896.498	15180
896.619	15188
896.74	15340
896.861	15370
896.982	15671
897.103	15701
897.224	15576
897.345	15538
897.466	15500
897.587	15549
897.708	15530
897.828	15557
897.949	15496
898.07	15454
898.19	15439
898.311	15728
898.431	15488
898.552	15530
898.672	15675
898.792	15652
898.913	15656
899.033	15606
899.153	15408
899.273	15351
899.393	15431
899.513	15477
899.633	15458
899.753	15530
899.873	15488
899.993	15538
900.113	15424
900.232	15507
900.352	15485
900.472	15473
900.591	15256
900.711	15332
900.83	15272
900.95	15431
901.069	15359
901.189	15294
901.308	14998
901.427	14925
901.546	15020
901.665	14880
901.784	15062
901.904	14826
902.023	14727
902.141	14526
902.26	14473
902.379	14606
902.498	14499
902.617	14503
902.735	14503
902.854	14541
902.973	14522
903.091	14172
903.21	14210
903.328	14233
903.446	14142
903.565	14035
903.683	14119
903.801	13940
903.919	14035
904.038	14092
904.156	13822
904.274	13970
904.392	13860
904.51	13833
904.627	13868
904.745	13807
904.863	13944
904.981	13689
905.098	13540
905.216	13483
905.334	13597
905.451	13480
905.569	13533
905.686	13514
905.803	13453
905.921	13381
906.038	13480
906.155	13293
906.272	13293
906.389	13240
906.506	13114
906.623	13080
906.74	13133
906.857	12970
906.974	13008
907.091	13110
907.208	13244
907.324	13103
907.441	12962
907.557	12711
907.674	12806
907.79	12696
907.907	12787
908.023	12795
908.139	12817
908.256	12791
908.372	12749
908.488	12719
908.604	12559
908.72	12555
908.836	12604
908.952	12620
909.068	12547
909.184	12574
909.3	12608
909.415	12620
909.531	12563
909.647	12342
909.762	12277
909.878	12270
909.993	12422
910.108	12251
910.224	12273
910.339	12311
910.454	12213
910.57	12148
910.685	12091
910.8	12357
910.915	12254
911.03	12224
911.145	12038
911.259	12026
911.374	11969
911.489	11927
911.604	11969
911.718	11714
911.833	11771
911.947	11634
912.062	11589
912.176	11775
912.291	11703
912.405	11767
912.519	12003
912.633	11889
912.748	11893
912.862	11722
912.976	11676
913.09	11524
913.204	11566
913.318	11642
913.431	11672
913.545	11699
913.659	11748
913.772	11630
913.886	11421
914	11425
914.113	11600
914.226	11691
914.34	11649
914.453	11334
914.566	11554
914.68	11436
914.793	11433
914.906	11242
915.019	11227
915.132	11151
915.245	11212
915.358	11223
915.47	11258
915.583	11246
915.696	11155
915.809	11326
915.921	11395
916.034	11178
916.146	11159
916.259	11086
916.371	11353
916.483	11284
916.595	11098
916.708	11128
916.82	11113
916.932	11014
917.044	11136
917.156	11094
917.268	11003
917.38	11109
917.491	11018
917.603	11033
917.715	11109
917.826	11166
917.938	11025
918.049	10908
918.161	11128
918.272	11124
918.384	11136
918.495	10987
918.606	10835
918.717	10850
918.828	10881
918.939	10919
919.05	10786
919.161	10908
919.272	10668
919.383	10763
919.494	10934
919.604	11128
919.715	10904
919.826	10820
919.936	10854
920.047	10957
920.157	10862
920.267	11102
920.378	10946
920.488	10801
920.598	11094
920.708	11197
920.818	11064
920.928	11022
921.038	11227
921.148	11269
921.258	10896
921.368	10847
921.477	10702
921.587	10607
921.697	10584
921.806	10755
921.916	10584
922.025	10413
922.134	10417
922.244	10329
922.353	10459
922.462	10363
922.571	10181
922.68	10059
922.789	10067
922.898	10120
923.007	10032
923.116	10131
923.224	10071
923.333	10036
923.442	10010
923.55	10017
923.659	9979
923.767	10021
923.876	9899
923.984	10036
924.092	9930
924.201	9960
924.309	9983
924.417	9922
924.525	9857
924.633	9892
924.741	10653
924.849	9728
924.956	9884
925.064	9713
925.172	9690
925.279	9679
925.387	9652
925.494	9747
925.602	9842
925.709	9835
925.816	9686
925.924	9698
926.031	9770
926.138	9694
926.245	9743
926.352	9610
926.459	9743
926.566	9835
926.673	9679
926.779	9625
926.886	9610
926.993	9370
927.099	9416
927.206	9317
927.312	9355
927.419	9443
927.525	9439
927.631	9477
927.737	9382
927.843	9329
927.95	9222
928.056	9256
928.162	9351
928.267	9374
928.373	9838
928.479	9462
928.585	9146
928.69	9302
928.796	9329
928.901	9291
929.007	9028
929.112	9176
929.218	9142
929.323	9135
929.428	9142
929.533	9310
929.638	9066
929.743	9058
929.848	9195
929.953	9180
930.058	8956
930.163	8800
930.267	8826
930.372	9005
930.477	8819
930.581	9039
930.685	8925
930.79	8785
930.894	8876
930.998	8807
931.103	8925
931.207	8590
931.311	8545
931.415	8492
931.519	8275
931.623	8320
