Data from test_V78500241_2525.txt Node
Date: Fri Mar 25 14:51:17 CST 2022
User: usil
Spectrometer: V785-0024
Trigger mode: 0
Integration Time (sec): 4.000000E-1
Scans to average: 1
Nonlinearity correction enabled: false
Boxcar width: 0
Storing dark spectrum: false
XAxis mode: Wavelengths
Number of Pixels in Spectrum: 1024
>>>>>Begin Spectral Data<<<<<
801.071	22063
801.214	21915
801.356	21720
801.499	21614
801.641	21454
801.783	21359
801.926	21458
802.068	21252
802.211	21203
802.353	21180
802.496	21051
802.638	20838
802.78	20758
802.923	20632
803.065	20762
803.208	20648
803.35	20670
803.492	20838
803.635	20899
803.777	20781
803.919	20804
804.061	21036
804.204	20811
804.346	20606
804.488	20522
804.63	20705
804.773	20522
804.915	20705
805.057	20670
805.199	20564
805.341	20777
805.483	20758
805.626	20648
805.768	20625
805.91	20663
806.052	20575
806.194	20533
806.336	20716
806.478	20712
806.62	20495
806.762	20769
806.904	20906
807.046	20986
807.188	20899
807.33	20914
807.472	21085
807.614	20811
807.756	20971
807.898	20777
808.04	20758
808.182	20682
808.324	20845
808.465	20754
808.607	20944
808.749	21043
808.891	21081
809.033	21279
809.174	21032
809.316	20929
809.458	20982
809.6	20960
809.741	21081
809.883	21108
810.025	21108
810.166	21157
810.308	21176
810.45	21146
810.591	21058
810.733	20918
810.875	20777
811.016	20663
811.158	20697
811.299	20815
811.441	20845
811.582	20880
811.724	20826
811.865	20804
812.007	20602
812.148	20746
812.29	20731
812.431	20868
812.573	21032
812.714	21150
812.855	21268
812.997	21477
813.138	21553
813.279	21378
813.421	21199
813.562	21275
813.703	20982
813.845	21032
813.986	20579
814.127	20473
814.268	20320
814.41	20412
814.551	20271
814.692	20324
814.833	20278
814.974	20195
815.115	20343
815.256	20221
815.397	20183
815.539	20202
815.68	19986
815.821	20012
815.962	19947
816.103	20062
816.244	19967
816.385	19776
816.526	19696
816.666	19567
816.807	19540
816.948	19613
817.089	19609
817.23	19472
817.371	19415
817.512	19445
817.653	19419
817.793	19430
817.934	19339
818.075	19525
818.216	19529
818.356	19483
818.497	19343
818.638	19099
818.778	19065
818.919	19232
819.06	19293
819.2	19206
819.341	19483
819.481	19449
819.622	19468
819.762	19639
819.903	19487
820.043	19571
820.184	19415
820.324	19377
820.465	19419
820.605	19396
820.746	19327
820.886	19285
821.026	19327
821.167	19251
821.307	19449
821.447	19335
821.588	19251
821.728	19129
821.868	19008
822.008	18897
822.149	18875
822.289	18810
822.429	18654
822.569	18559
822.709	18467
822.849	18369
822.99	18327
823.13	18346
823.27	18361
823.41	18038
823.55	18011
823.69	18216
823.83	18201
823.97	18068
824.11	17984
824.25	17874
824.389	17836
824.529	17893
824.669	17870
824.809	18121
824.949	18121
825.089	17912
825.228	17935
825.368	17737
825.508	17756
825.648	17767
825.787	17756
825.927	17745
826.067	17634
826.206	17653
826.346	17672
826.485	17630
826.625	17573
826.765	17847
826.904	17729
827.044	17433
827.183	17493
827.323	17337
827.462	17463
827.601	17436
827.741	17497
827.88	17360
828.02	17265
828.159	17353
828.298	17410
828.437	17349
828.577	17311
828.716	17623
828.855	17337
828.994	17166
829.134	17159
829.273	17170
829.412	17185
829.551	17098
829.69	17109
829.829	17155
829.968	17311
830.107	17151
830.246	17208
830.385	17098
830.524	17018
830.663	17033
830.802	16858
830.941	16843
831.08	16675
831.219	16759
831.357	16778
831.496	17018
831.635	16607
831.774	16626
831.913	16683
832.051	16497
832.19	16561
832.329	16611
832.467	16447
832.606	16402
832.744	16500
832.883	16512
833.022	16379
833.16	16519
833.299	16466
833.437	16516
833.576	16615
833.714	16405
833.852	16512
833.991	16588
834.129	16523
834.267	16573
834.406	16417
834.544	16440
834.682	16577
834.821	16481
834.959	16691
835.097	16455
835.235	16523
835.373	16508
835.511	16542
835.65	16451
835.788	16455
835.926	16295
836.064	16181
836.202	16246
836.34	16405
836.478	16531
836.615	16440
836.753	16367
836.891	16485
837.029	16443
837.167	16360
837.305	16344
837.443	16375
837.58	16337
837.718	16306
837.856	16299
837.993	16204
838.131	16348
838.269	16124
838.406	16177
838.544	16265
838.681	16006
838.819	15945
838.956	15861
839.094	15816
839.231	15838
839.369	15895
839.506	16360
839.643	16120
839.781	15869
839.918	15747
840.055	15907
840.193	15854
840.33	15907
840.467	15755
840.604	15827
840.742	16093
840.879	15724
841.016	15641
841.153	15759
841.29	15953
841.427	15941
841.564	15953
841.701	15831
841.838	15759
841.975	15785
842.112	15720
842.249	15736
842.385	15584
842.522	15804
842.659	15698
842.796	15580
842.933	15671
843.069	15595
843.206	15591
843.343	15610
843.479	15614
843.616	15584
843.752	15378
843.889	15462
844.025	15538
844.162	15515
844.298	15591
844.435	15454
844.571	15298
844.708	15469
844.844	15606
844.98	15473
845.117	15492
845.253	15313
845.389	15355
845.525	15279
845.661	15188
845.798	15203
845.934	15245
846.07	15218
846.206	15256
846.342	15317
846.478	15192
846.614	15005
846.75	15024
846.886	14971
847.022	15066
847.158	14933
847.294	15001
847.429	14937
847.565	14982
847.701	15252
847.837	14720
847.972	14682
848.108	14785
848.244	14819
848.379	14629
848.515	14625
848.65	14663
848.786	14590
848.921	14613
849.057	14765
849.192	14632
849.328	14682
849.463	14613
849.598	14465
849.734	14476
849.869	14427
850.004	14339
850.14	14434
850.275	14393
850.41	14320
850.545	14355
850.68	14351
850.815	14313
850.95	14317
851.085	14583
851.22	14415
851.355	14404
851.49	14244
851.625	14332
851.76	14271
851.895	14214
852.03	14282
852.165	14290
852.299	14313
852.434	14412
852.569	14434
852.703	14305
852.838	14457
852.973	14549
853.107	14537
853.242	14339
853.376	14256
853.511	14161
853.645	14168
853.78	14362
853.914	14294
854.048	14202
854.183	14240
854.317	14244
854.451	14381
854.585	14278
854.72	14195
854.854	14313
854.988	14092
855.122	14168
855.256	14115
855.39	14290
855.524	14267
855.658	14214
855.792	14275
855.926	14374
856.06	14309
856.194	14362
856.327	14256
856.461	14130
856.595	14107
856.729	14206
856.862	14301
856.996	14240
857.13	14328
857.263	14237
857.397	14336
857.53	14218
857.664	14278
857.797	14301
857.931	14309
858.064	14267
858.197	14339
858.331	14218
858.464	14172
858.597	14187
858.731	14233
858.864	14183
858.997	14290
859.13	14298
859.263	14221
859.396	14362
859.529	14157
859.662	14142
859.795	14218
859.928	14233
860.061	14427
860.194	14389
860.327	14275
860.46	14233
860.592	14427
860.725	14278
860.858	14393
860.99	14164
861.123	14130
861.256	14309
861.388	14305
861.521	14823
861.653	14062
861.786	13944
861.918	14046
862.05	14123
862.183	14134
862.315	14172
862.447	14161
862.58	14103
862.712	14054
862.844	13860
862.976	14100
863.108	14012
863.24	14351
863.372	13928
863.504	14016
863.636	13921
863.768	14069
863.9	14016
864.032	14024
864.164	13947
864.296	13982
864.428	14142
864.559	14092
864.691	14134
864.823	14050
864.954	14153
865.086	14107
865.217	13997
865.349	13871
865.48	14024
865.612	13967
865.743	14119
865.875	14035
866.006	13894
866.137	14069
866.269	13917
866.4	13970
866.531	13879
866.662	13742
866.793	13871
866.924	13928
867.055	13925
867.186	13955
867.317	13970
867.448	13928
867.579	13940
867.71	13875
867.841	13909
867.972	14054
868.103	13959
868.233	14039
868.364	14008
868.495	14046
868.625	14214
868.756	14263
868.886	14157
869.017	14271
869.147	14332
869.278	14393
869.408	14210
869.539	14218
869.669	14305
869.799	14355
869.929	14351
870.06	14278
870.19	14571
870.32	14476
870.45	14549
870.58	14716
870.71	14826
870.84	14746
870.97	14712
871.1	14613
871.23	14785
871.36	14815
871.489	14777
871.619	14861
871.749	14868
871.879	14849
872.008	14971
872.138	14838
872.267	14796
872.397	14830
872.526	14750
872.656	14773
872.785	14712
872.915	14826
873.044	14883
873.173	14842
873.303	15043
873.432	14910
873.561	15001
873.69	14918
873.819	14918
873.948	14998
874.077	14963
874.206	14864
874.335	14887
874.464	14967
874.593	15203
874.722	15119
874.851	15306
874.979	15218
875.108	15291
875.237	15237
875.365	15085
875.494	15135
875.623	15294
875.751	15218
875.88	15241
876.008	15386
876.136	15393
876.265	15648
876.393	15816
876.521	15667
876.65	15759
876.778	15580
876.906	15523
877.034	15523
877.162	15534
877.29	15591
877.418	15622
877.546	15724
877.674	15709
877.802	15663
877.93	15572
878.058	15545
878.185	15538
878.313	15644
878.441	15610
878.568	15435
878.696	15568
878.824	15698
878.951	15701
879.079	15789
879.206	15949
879.333	15793
879.461	15751
879.588	15610
879.715	15774
879.842	15873
879.97	15625
880.097	15359
880.224	15454
880.351	15549
880.478	15454
880.605	15439
880.732	15511
880.859	15671
880.986	15515
881.112	15526
881.239	15363
881.366	15294
881.493	15245
881.619	15108
881.746	15104
881.872	15138
881.999	15184
882.125	15062
882.252	15203
882.378	15161
882.505	15321
882.631	15100
882.757	14956
882.883	14982
883.01	14918
883.136	14868
883.262	14834
883.388	14769
883.514	14998
883.64	15017
883.766	14944
883.892	14701
884.018	14769
884.143	14804
884.269	14986
884.395	14750
884.52	14727
884.646	14701
884.772	14769
884.897	14541
885.023	14560
885.148	14758
885.274	14773
885.399	14724
885.524	14651
885.65	14743
885.775	14663
885.9	14602
886.025	14754
886.15	14777
886.275	14606
886.4	14533
886.525	14583
886.65	14541
886.775	14533
886.9	14735
887.025	14895
887.149	14678
887.274	14507
887.399	14400
887.523	14438
887.648	14412
887.773	14461
887.897	14450
888.021	14571
888.146	14461
888.27	14522
888.395	14545
888.519	14530
888.643	14602
888.767	14552
888.891	14355
889.015	14412
889.139	14419
889.263	14347
889.387	14480
889.511	14568
889.635	14480
889.759	14347
889.883	14320
890.006	14347
890.13	14594
890.254	14240
890.377	14301
890.501	14229
890.624	14176
890.748	14229
890.871	14069
890.995	14035
891.118	13974
891.241	14020
891.364	14046
891.488	14134
891.611	14119
891.734	13978
891.857	14046
891.98	14062
892.103	14191
892.226	14092
892.349	13917
892.471	13963
892.594	14130
892.717	14046
892.839	14054
892.962	14119
893.085	14126
893.207	14092
893.33	14008
893.452	14008
893.575	14046
893.697	14039
893.819	14248
893.941	14271
894.064	14191
894.186	14100
894.308	13967
894.43	14145
894.552	14199
894.674	14119
894.796	14027
894.918	14073
895.04	14126
895.161	14180
895.283	14119
895.405	14164
895.526	14153
895.648	14191
895.769	14142
895.891	14187
896.012	14267
896.134	14233
896.255	14221
896.376	14202
896.498	14164
896.619	14347
896.74	14278
896.861	14271
896.982	14575
897.103	14731
897.224	14564
897.345	14461
897.466	14393
897.587	14404
897.708	14678
897.828	14533
897.949	14473
898.07	14389
898.19	14465
898.311	14541
898.431	14530
898.552	14552
898.672	14632
898.792	14583
898.913	14606
899.033	14598
899.153	14537
899.273	14336
899.393	14446
899.513	14564
899.633	14450
899.753	14469
899.873	14415
899.993	14404
900.113	14347
900.232	14351
900.352	14438
900.472	14336
900.591	14259
900.711	14248
900.83	14286
900.95	14339
901.069	14400
901.189	14237
901.308	13997
901.427	13955
901.546	13944
901.665	13955
901.784	13997
901.904	13928
902.023	13788
902.141	13559
902.26	13582
902.379	13605
902.498	13582
902.617	13483
902.735	13460
902.854	13510
902.973	13457
903.091	13293
903.21	13358
903.328	13247
903.446	13251
903.565	13141
903.683	13076
903.801	13004
903.919	13091
904.038	13084
904.156	12951
904.274	13000
904.392	12897
904.51	12878
904.627	12886
904.745	12996
904.863	13050
904.981	12783
905.098	12608
905.216	12589
905.334	12722
905.451	12654
905.569	12665
905.686	12604
905.803	12597
905.921	12475
906.038	12589
906.155	12528
906.272	12361
906.389	12403
906.506	12190
906.623	12235
906.74	12186
906.857	12079
906.974	12133
907.091	12224
907.208	12384
907.324	12216
907.441	12129
907.557	11965
907.674	12015
907.79	11840
907.907	11946
908.023	11980
908.139	11965
908.256	11965
908.372	11927
908.488	11912
908.604	11703
908.72	11665
908.836	11710
908.952	11703
909.068	11676
909.184	11821
909.3	11718
909.415	11805
909.531	11756
909.647	11516
909.762	11486
909.878	11417
909.993	11505
910.108	11463
910.224	11509
910.339	11471
910.454	11383
910.57	11356
910.685	11299
910.8	11535
910.915	11436
911.03	11387
911.145	11178
911.259	11216
911.374	11162
911.489	11033
911.604	11105
911.718	10942
911.833	10946
911.947	10850
912.062	10831
912.176	10934
912.291	11056
912.405	10968
912.519	11102
912.633	11136
912.748	11098
912.862	10972
912.976	10824
913.09	10736
913.204	10774
913.318	10831
913.431	10896
913.545	10942
913.659	10961
913.772	10850
913.886	10706
914	10645
914.113	10801
914.226	10812
914.34	10790
914.453	10596
914.566	10797
914.68	10683
914.793	10656
914.906	10481
915.019	10390
915.132	10382
915.245	10443
915.358	10481
915.47	10470
915.583	10459
915.696	10466
915.809	10634
915.921	10618
916.034	10409
916.146	10390
916.259	10440
916.371	10497
916.483	10516
916.595	10341
916.708	10390
916.82	10379
916.932	10371
917.044	10379
917.156	10314
917.268	10325
917.38	10272
917.491	10306
917.603	10272
917.715	10352
917.826	10398
917.938	10325
918.049	10253
918.161	10306
918.272	10421
918.384	10462
918.495	10367
918.606	10124
918.717	10055
918.828	10181
918.939	10211
919.05	10086
919.161	10090
919.272	9934
919.383	10006
919.494	10249
919.604	10390
919.715	10234
919.826	10082
919.936	10162
920.047	10303
920.157	10253
920.267	10436
920.378	10284
920.488	10238
920.598	10421
920.708	10554
920.818	10371
920.928	10367
921.038	10538
921.148	10550
921.258	10318
921.368	10120
921.477	10086
921.587	10021
921.697	9926
921.806	10055
921.916	9915
922.025	9679
922.134	9713
922.244	9686
922.353	9785
922.462	9587
922.571	9652
922.68	9447
922.789	9481
922.898	9424
923.007	9386
923.116	9412
923.224	9405
923.333	9462
923.442	9325
923.55	9340
923.659	9340
923.767	9450
923.876	9302
923.984	9401
924.092	9283
924.201	9256
924.309	9325
924.417	9397
924.525	9237
924.633	9279
924.741	10169
924.849	9112
924.956	9249
925.064	9142
925.172	9017
925.279	9047
925.387	9097
925.494	9135
925.602	9222
925.709	9222
925.816	9005
925.924	9127
926.031	9184
926.138	9150
926.245	9154
926.352	9013
926.459	9222
926.566	9256
926.673	9047
926.779	8994
926.886	8982
926.993	8754
927.099	8834
927.206	8807
927.312	8834
927.419	8834
927.525	8868
927.631	8838
927.737	8739
927.843	8697
927.95	8594
928.056	8659
928.162	8720
928.267	8746
928.373	9336
928.479	8849
928.585	8549
928.69	8697
928.796	8644
928.901	8533
929.007	8522
929.112	8651
929.218	8651
929.323	8549
929.428	8541
929.533	8689
929.638	8488
929.743	8457
929.848	8579
929.953	8503
930.058	8438
930.163	8237
930.267	8324
930.372	8499
930.477	8229
930.581	8526
930.685	8271
930.79	8218
930.894	8233
930.998	8282
931.103	8419
931.207	7997
931.311	7970
931.415	7940
931.519	7719
931.623	7799
