Data from test_V78500241_1838.txt Node
Date: Fri Mar 25 14:46:30 CST 2022
User: usil
Spectrometer: V785-0024
Trigger mode: 0
Integration Time (sec): 4.000000E-1
Scans to average: 1
Nonlinearity correction enabled: false
Boxcar width: 0
Storing dark spectrum: false
XAxis mode: Wavelengths
Number of Pixels in Spectrum: 1024
>>>>>Begin Spectral Data<<<<<
801.071	22143
801.214	22006
801.356	21641
801.499	21652
801.641	21511
801.783	21367
801.926	21542
802.068	21488
802.211	21439
802.353	21336
802.496	21104
802.638	21074
802.78	20998
802.923	20868
803.065	20952
803.208	20796
803.35	20861
803.492	20781
803.635	20990
803.777	20762
803.919	20876
804.061	21169
804.204	20864
804.346	20765
804.488	20796
804.63	20758
804.773	20629
804.915	20773
805.057	20781
805.199	20708
805.341	20872
805.483	20952
805.626	20834
805.768	20739
805.91	20739
806.052	20773
806.194	20689
806.336	20925
806.478	20788
806.62	20629
806.762	20781
806.904	20933
807.046	21108
807.188	21169
807.33	21116
807.472	21154
807.614	20880
807.756	20994
807.898	20868
808.04	20773
808.182	20781
808.324	20731
808.465	20887
808.607	20971
808.749	21070
808.891	21116
809.033	21237
809.174	21199
809.316	21047
809.458	21104
809.6	21237
809.741	21249
809.883	21260
810.025	21214
810.166	21192
810.308	21135
810.45	21287
810.591	21131
810.733	21017
810.875	20967
811.016	20914
811.158	20750
811.299	20941
811.441	20998
811.582	20986
811.724	20910
811.865	20872
812.007	20845
812.148	20754
812.29	21043
812.431	21066
812.573	21154
812.714	21226
812.855	21397
812.997	21576
813.138	21603
813.279	21511
813.421	21378
813.562	21340
813.703	21104
813.845	21138
813.986	20762
814.127	20606
814.268	20438
814.41	20374
814.551	20393
814.692	20507
814.833	20465
814.974	20454
815.115	20499
815.256	20244
815.397	20336
815.539	20191
815.68	20218
815.821	20161
815.962	20225
816.103	20122
816.244	20031
816.385	20008
816.526	19928
816.666	19845
816.807	19670
816.948	19628
817.089	19704
817.23	19662
817.371	19594
817.512	19578
817.653	19643
817.793	19544
817.934	19624
818.075	19544
818.216	19460
818.356	19502
818.497	19324
818.638	19244
818.778	19179
818.919	19339
819.06	19308
819.2	19354
819.341	19335
819.481	19514
819.622	19556
819.762	19822
819.903	19578
820.043	19563
820.184	19544
820.324	19597
820.465	19658
820.605	19506
820.746	19590
820.886	19438
821.026	19483
821.167	19529
821.307	19559
821.447	19377
821.588	19502
821.728	19289
821.868	19137
822.008	19008
822.149	19008
822.289	18905
822.429	18806
822.569	18631
822.709	18711
822.849	18528
822.99	18445
823.13	18540
823.27	18361
823.41	18296
823.55	18292
823.69	18273
823.83	18239
823.97	18228
824.11	18045
824.25	18087
824.389	18087
824.529	18110
824.669	18038
824.809	18110
824.949	18102
825.089	17999
825.228	18049
825.368	17912
825.508	17961
825.648	17756
825.787	17885
825.927	17923
826.067	17859
826.206	17863
826.346	17870
826.485	17946
826.625	17824
826.765	17901
826.904	17748
827.044	17638
827.183	17589
827.323	17539
827.462	17528
827.601	17520
827.741	17444
827.88	17455
828.02	17497
828.159	17444
828.298	17566
828.437	17608
828.577	17372
828.716	17653
828.855	17444
828.994	17227
829.134	17341
829.273	17273
829.412	17269
829.551	17189
829.69	17200
829.829	17337
829.968	17421
830.107	17296
830.246	17303
830.385	17079
830.524	17124
830.663	17113
830.802	16972
830.941	16881
831.08	16923
831.219	17025
831.357	16889
831.496	17056
831.635	16805
831.774	16687
831.913	16713
832.051	16656
832.19	16691
832.329	16656
832.467	16573
832.606	16584
832.744	16626
832.883	16649
833.022	16500
833.16	16504
833.299	16584
833.437	16596
833.576	16668
833.714	16550
833.852	16675
833.991	16573
834.129	16733
834.267	16698
834.406	16603
834.544	16603
834.682	16694
834.821	16580
834.959	16812
835.097	16641
835.235	16683
835.373	16603
835.511	16687
835.65	16565
835.788	16561
835.926	16379
836.064	16356
836.202	16466
836.34	16630
836.478	16626
836.615	16550
836.753	16649
836.891	16603
837.029	16649
837.167	16440
837.305	16447
837.443	16417
837.58	16459
837.718	16421
837.856	16386
837.993	16390
838.131	16379
838.269	16382
838.406	16352
838.544	16169
838.681	16086
838.819	16169
838.956	16040
839.094	15949
839.231	16029
839.369	16082
839.506	16402
839.643	16223
839.781	16044
839.918	15979
840.055	15972
840.193	16006
840.33	15857
840.467	15911
840.604	16010
840.742	16223
840.879	15953
841.016	15835
841.153	15781
841.29	16025
841.427	15922
841.564	16025
841.701	15865
841.838	15812
841.975	15842
842.112	15865
842.249	15857
842.385	15797
842.522	15861
842.659	15739
842.796	15778
842.933	15644
843.069	15778
843.206	15701
843.343	15705
843.479	15690
843.616	15781
843.752	15572
843.889	15572
844.025	15622
844.162	15568
844.298	15648
844.435	15564
844.571	15469
844.708	15488
844.844	15690
844.98	15724
845.117	15648
845.253	15450
845.389	15408
845.525	15504
845.661	15412
845.798	15340
845.934	15450
846.07	15439
846.206	15306
846.342	15519
846.478	15325
846.614	15169
846.75	15127
846.886	15184
847.022	15260
847.158	15112
847.294	15146
847.429	15161
847.565	15116
847.701	15397
847.837	14952
847.972	14826
848.108	15017
848.244	15001
848.379	14788
848.515	14743
848.65	14686
848.786	14705
848.921	14750
849.057	14842
849.192	14880
849.328	14697
849.463	14739
849.598	14613
849.734	14754
849.869	14575
850.004	14552
850.14	14613
850.275	14533
850.41	14469
850.545	14488
850.68	14431
850.815	14492
850.95	14552
851.085	14640
851.22	14705
851.355	14598
851.49	14610
851.625	14560
851.76	14522
851.895	14377
852.03	14374
852.165	14492
852.299	14446
852.434	14590
852.569	14674
852.703	14602
852.838	14621
852.973	14651
853.107	14750
853.242	14537
853.376	14404
853.511	14309
853.645	14358
853.78	14598
853.914	14347
854.048	14393
854.183	14347
854.317	14389
854.451	14648
854.585	14282
854.72	14301
854.854	14492
854.988	14332
855.122	14320
855.256	14271
855.39	14393
855.524	14450
855.658	14442
855.792	14423
855.926	14415
856.06	14533
856.194	14381
856.327	14404
856.461	14362
856.595	14305
856.729	14339
856.862	14450
856.996	14431
857.13	14499
857.263	14434
857.397	14587
857.53	14328
857.664	14393
857.797	14575
857.931	14457
858.064	14408
858.197	14552
858.331	14370
858.464	14450
858.597	14221
858.731	14328
858.864	14385
858.997	14393
859.13	14408
859.263	14450
859.396	14541
859.529	14355
859.662	14400
859.795	14381
859.928	14301
860.061	14598
860.194	14564
860.327	14385
860.46	14419
860.592	14522
860.725	14450
860.858	14484
860.99	14434
861.123	14324
861.256	14332
861.388	14324
861.521	15051
861.653	14309
861.786	14172
861.918	14187
862.05	14244
862.183	14324
862.315	14355
862.447	14495
862.58	14271
862.712	14130
862.844	14191
862.976	14176
863.108	14210
863.24	14560
863.372	14123
863.504	14100
863.636	14123
863.768	14180
863.9	14202
864.032	13982
864.164	14103
864.296	14153
864.428	14351
864.559	14263
864.691	14324
864.823	14221
864.954	14107
865.086	14271
865.217	14043
865.349	14100
865.48	14100
865.612	14168
865.743	14294
865.875	14176
866.006	14134
866.137	14115
866.269	14126
866.4	14050
866.531	14088
866.662	14062
866.793	14088
866.924	13970
867.055	14103
867.186	14119
867.317	14157
867.448	14092
867.579	14050
867.71	14092
867.841	14024
867.972	14145
868.103	14084
868.233	14240
868.364	14164
868.495	14252
868.625	14343
868.756	14545
868.886	14385
869.017	14400
869.147	14495
869.278	14522
869.408	14389
869.539	14404
869.669	14442
869.799	14434
869.929	14564
870.06	14476
870.19	14743
870.32	14735
870.45	14712
870.58	14872
870.71	14899
870.84	14899
870.97	14891
871.1	14857
871.23	15017
871.36	14982
871.489	14952
871.619	14933
871.749	15001
871.879	14986
872.008	15070
872.138	14986
872.267	14921
872.397	14819
872.526	14838
872.656	14864
872.785	14902
872.915	14960
873.044	15085
873.173	14960
873.303	15066
873.432	15108
873.561	15123
873.69	15043
873.819	15058
873.948	15146
874.077	15074
874.206	15070
874.335	15039
874.464	15116
874.593	15332
874.722	15180
874.851	15348
874.979	15424
875.108	15348
875.237	15230
875.365	15256
875.494	15355
875.623	15420
875.751	15329
875.88	15428
876.008	15557
876.136	15564
876.265	15739
876.393	15941
876.521	15838
876.65	15804
876.778	15797
876.906	15679
877.034	15675
877.162	15675
877.29	15774
877.418	15778
877.546	15808
877.674	15804
877.802	15766
877.93	15861
878.058	15698
878.185	15720
878.313	15755
878.441	15739
878.568	15629
878.696	15713
878.824	15747
878.951	15861
879.079	15953
879.206	16071
879.333	15991
879.461	15831
879.588	15831
879.715	15945
879.842	15956
879.97	15808
880.097	15572
880.224	15549
880.351	15629
880.478	15610
880.605	15523
880.732	15587
880.859	15842
880.986	15759
881.112	15694
881.239	15515
881.366	15443
881.493	15287
881.619	15272
881.746	15275
881.872	15207
881.999	15241
882.125	15317
882.252	15363
882.378	15275
882.505	15367
882.631	15203
882.757	15051
882.883	15176
883.01	15214
883.136	14979
883.262	14963
883.388	14861
883.514	15165
883.64	15074
883.766	15032
883.892	14811
884.018	14971
884.143	15036
884.269	15226
884.395	14804
884.52	14804
884.646	14796
884.772	14773
884.897	14686
885.023	14834
885.148	14864
885.274	14982
885.399	14883
885.524	14815
885.65	14720
885.775	14785
885.9	14788
886.025	14861
886.15	14830
886.275	14724
886.4	14556
886.525	14716
886.65	14750
886.775	14731
886.9	14895
887.025	14967
887.149	14716
887.274	14621
887.399	14590
887.523	14651
887.648	14568
887.773	14492
887.897	14735
888.021	14613
888.146	14511
888.27	14807
888.395	14720
888.519	14571
888.643	14735
888.767	14617
888.891	14507
889.015	14427
889.139	14533
889.263	14492
889.387	14511
889.511	14644
889.635	14632
889.759	14511
889.883	14457
890.006	14415
890.13	14621
890.254	14358
890.377	14419
890.501	14301
890.624	14370
890.748	14400
890.871	14259
890.995	14130
891.118	14092
891.241	14180
891.364	14164
891.488	14214
891.611	14183
891.734	14199
891.857	14210
891.98	14153
892.103	14305
892.226	14206
892.349	14202
892.471	14073
892.594	14294
892.717	14172
892.839	14157
892.962	14164
893.085	14271
893.207	14199
893.33	14077
893.452	14138
893.575	14294
893.697	14096
893.819	14294
893.941	14389
894.064	14328
894.186	14225
894.308	14073
894.43	14256
894.552	14385
894.674	14347
894.796	14123
894.918	14218
895.04	14115
895.161	14324
895.283	14301
895.405	14263
895.526	14263
895.648	14248
895.769	14370
895.891	14374
896.012	14415
896.134	14362
896.255	14248
896.376	14339
896.498	14370
896.619	14286
896.74	14282
896.861	14442
896.982	14636
897.103	14792
897.224	14587
897.345	14579
897.466	14549
897.587	14632
897.708	14819
897.828	14571
897.949	14598
898.07	14480
898.19	14568
898.311	14762
898.431	14617
898.552	14651
898.672	14727
898.792	14849
898.913	14819
899.033	14541
899.153	14549
899.273	14530
899.393	14552
899.513	14575
899.633	14457
899.753	14602
899.873	14480
899.993	14617
900.113	14393
900.232	14514
900.352	14571
900.472	14446
900.591	14412
900.711	14511
900.83	14343
900.95	14488
901.069	14473
901.189	14328
901.308	14027
901.427	14005
901.546	14130
901.665	14111
901.784	14115
901.904	13925
902.023	13799
902.141	13826
902.26	13658
902.379	13685
902.498	13715
902.617	13575
902.735	13586
902.854	13578
902.973	13548
903.091	13320
903.21	13289
903.328	13445
903.446	13308
903.565	13198
903.683	13247
903.801	13164
903.919	13255
904.038	13187
904.156	13046
904.274	13114
904.392	13034
904.51	13046
904.627	13023
904.745	13027
904.863	13031
904.981	12856
905.098	12700
905.216	12795
905.334	12650
905.451	12711
905.569	12730
905.686	12692
905.803	12692
905.921	12566
906.038	12604
906.155	12612
906.272	12502
906.389	12464
906.506	12308
906.623	12281
906.74	12270
906.857	12224
906.974	12296
907.091	12399
907.208	12445
907.324	12353
907.441	12289
907.557	12076
907.674	11965
907.79	11904
907.907	12117
908.023	12091
908.139	12159
908.256	12022
908.372	11916
908.488	11980
908.604	11817
908.72	11775
908.836	11798
908.952	11767
909.068	11813
909.184	11859
909.3	11855
909.415	11942
909.531	11832
909.647	11653
909.762	11623
909.878	11524
909.993	11528
910.108	11661
910.224	11512
910.339	11680
910.454	11471
910.57	11398
910.685	11398
910.8	11657
910.915	11596
911.03	11452
911.145	11322
911.259	11246
911.374	11254
911.489	11212
911.604	11212
911.718	11102
911.833	11083
911.947	10915
912.062	10946
912.176	10934
912.291	10999
912.405	11033
912.519	11246
912.633	11197
912.748	11140
912.862	11018
912.976	10942
913.09	10809
913.204	10930
913.318	10889
913.431	10972
913.545	11010
913.659	11052
913.772	10816
913.886	10854
914	10729
914.113	10824
914.226	10930
914.34	10957
914.453	10752
914.566	10828
914.68	10797
914.793	10767
914.906	10573
915.019	10569
915.132	10516
915.245	10599
915.358	10668
915.47	10592
915.583	10466
915.696	10569
915.809	10664
915.921	10683
916.034	10550
916.146	10504
916.259	10455
916.371	10542
916.483	10577
916.595	10516
916.708	10538
916.82	10531
916.932	10504
917.044	10459
917.156	10455
917.268	10390
917.38	10390
917.491	10402
917.603	10421
917.715	10489
917.826	10459
917.938	10382
918.049	10291
918.161	10382
918.272	10538
918.384	10516
918.495	10428
918.606	10261
918.717	10257
918.828	10291
918.939	10295
919.05	10207
919.161	10337
919.272	10051
919.383	10188
919.494	10402
919.604	10527
919.715	10230
919.826	10272
919.936	10341
920.047	10402
920.157	10284
920.267	10440
920.378	10318
920.488	10310
920.598	10489
920.708	10580
920.818	10474
920.928	10535
921.038	10672
921.148	10660
921.258	10341
921.368	10314
921.477	10192
921.587	10173
921.697	10067
921.806	10230
921.916	10002
922.025	9873
922.134	9873
922.244	9816
922.353	10002
922.462	9789
922.571	9671
922.68	9485
922.789	9523
922.898	9561
923.007	9504
923.116	9591
923.224	9526
923.333	9523
923.442	9473
923.55	9412
923.659	9447
923.767	9458
923.876	9336
923.984	9492
924.092	9367
924.201	9348
924.309	9359
924.417	9439
924.525	9389
924.633	9355
924.741	10257
924.849	9123
924.956	9405
925.064	9157
925.172	9218
925.279	9184
925.387	9245
925.494	9192
925.602	9291
925.709	9249
925.816	9142
925.924	9199
926.031	9275
926.138	9188
926.245	9218
926.352	9176
926.459	9268
926.566	9283
926.673	9116
926.779	9047
926.886	9017
926.993	8975
927.099	8887
927.206	8876
927.312	8826
927.419	8971
927.525	8975
927.631	9013
927.737	8849
927.843	8777
927.95	8708
928.056	8773
928.162	8762
928.267	8906
928.373	9401
928.479	8937
928.585	8640
928.69	8724
928.796	8838
928.901	8746
929.007	8545
929.112	8659
929.218	8708
929.323	8682
929.428	8678
929.533	8750
929.638	8564
929.743	8560
929.848	8651
929.953	8663
930.058	8492
930.163	8438
930.267	8389
930.372	8514
930.477	8419
930.581	8518
930.685	8473
930.79	8324
930.894	8446
930.998	8275
931.103	8438
931.207	8084
931.311	8046
931.415	7951
931.519	7803
931.623	7811
