Data from test_V78500241_1191.txt Node
Date: Fri Mar 25 14:42:00 CST 2022
User: usil
Spectrometer: V785-0024
Trigger mode: 0
Integration Time (sec): 4.000000E-1
Scans to average: 1
Nonlinearity correction enabled: false
Boxcar width: 0
Storing dark spectrum: false
XAxis mode: Wavelengths
Number of Pixels in Spectrum: 1024
>>>>>Begin Spectral Data<<<<<
801.071	22466
801.214	22329
801.356	22116
801.499	22067
801.641	21709
801.783	21884
801.926	21861
802.068	21793
802.211	21747
802.353	21682
802.496	21363
802.638	21245
802.78	21283
802.923	21359
803.065	21138
803.208	21173
803.35	21138
803.492	21188
803.635	21142
803.777	21055
803.919	21188
804.061	21534
804.204	21214
804.346	21070
804.488	20990
804.63	21142
804.773	20967
804.915	21066
805.057	21279
805.199	20967
805.341	21127
805.483	21222
805.626	21100
805.768	21085
805.91	21074
806.052	20975
806.194	20982
806.336	21272
806.478	21093
806.62	21100
806.762	21089
806.904	21256
807.046	21477
807.188	21310
807.33	21374
807.472	21447
807.614	21291
807.756	21443
807.898	21275
808.04	21211
808.182	21036
808.324	21203
808.465	21203
808.607	21359
808.749	21591
808.891	21523
809.033	21808
809.174	21595
809.316	21469
809.458	21610
809.6	21412
809.741	21496
809.883	21568
810.025	21717
810.166	21603
810.308	21625
810.45	21568
810.591	21572
810.733	21485
810.875	21329
811.016	21184
811.158	21142
811.299	21393
811.441	21412
811.582	21401
811.724	21252
811.865	21203
812.007	21214
812.148	21150
812.29	21279
812.431	21431
812.573	21587
812.714	21629
812.855	21736
812.997	21915
813.138	22070
813.279	21778
813.421	21667
813.562	21717
813.703	21481
813.845	21389
813.986	21142
814.127	20956
814.268	20872
814.41	20830
814.551	20659
814.692	20872
814.833	20708
814.974	20769
815.115	20724
815.256	20648
815.397	20606
815.539	20625
815.68	20621
815.821	20492
815.962	20389
816.103	20587
816.244	20237
816.385	20278
816.526	20339
816.666	20065
816.807	19940
816.948	20126
817.089	19993
817.23	19993
817.371	19887
817.512	19928
817.653	19936
817.793	19940
817.934	20005
818.075	19864
818.216	19868
818.356	19978
818.497	19753
818.638	19693
818.778	19662
818.919	19704
819.06	19670
819.2	19696
819.341	19734
819.481	19765
819.622	19883
819.762	20199
819.903	20001
820.043	20031
820.184	19932
820.324	19902
820.465	19936
820.605	19841
820.746	19917
820.886	19791
821.026	19864
821.167	19913
821.307	19993
821.447	19841
821.588	19708
821.728	19601
821.868	19449
822.008	19369
822.149	19343
822.289	19308
822.429	19080
822.569	18996
822.709	18970
822.849	18863
822.99	18791
823.13	18730
823.27	18791
823.41	18677
823.55	18604
823.69	18688
823.83	18582
823.97	18555
824.11	18414
824.25	18346
824.389	18334
824.529	18452
824.669	18445
824.809	18429
824.949	18475
825.089	18506
825.228	18441
825.368	18266
825.508	18243
825.648	18251
825.787	18251
825.927	18270
826.067	18239
826.206	18167
826.346	18125
826.485	18205
826.625	18186
826.765	18262
826.904	18201
827.044	18003
827.183	17980
827.323	17946
827.462	17965
827.601	17802
827.741	17790
827.88	17828
828.02	17764
828.159	17843
828.298	17885
828.437	17935
828.577	17813
828.716	17988
828.855	17840
828.994	17668
829.134	17619
829.273	17627
829.412	17657
829.551	17589
829.69	17596
829.829	17726
829.968	17748
830.107	17764
830.246	17748
830.385	17509
830.524	17501
830.663	17490
830.802	17318
830.941	17284
831.08	17223
831.219	17360
831.357	17406
831.496	17509
831.635	17227
831.774	17208
831.913	17105
832.051	17128
832.19	17117
832.329	17056
832.467	17033
832.606	16934
832.744	16957
832.883	17006
833.022	17064
833.16	16984
833.299	17025
833.437	17010
833.576	17132
833.714	16995
833.852	17090
833.991	17132
834.129	17098
834.267	17136
834.406	16953
834.544	17037
834.682	17045
834.821	16889
834.959	17151
835.097	16965
835.235	17174
835.373	17060
835.511	17113
835.65	16991
835.788	16900
835.926	16774
836.064	16767
836.202	16782
836.34	16904
836.478	17071
836.615	16953
836.753	17056
836.891	17006
837.029	16995
837.167	16923
837.305	16839
837.443	16767
837.58	16710
837.718	16873
837.856	16774
837.993	16660
838.131	16911
838.269	16611
838.406	16790
838.544	16702
838.681	16489
838.819	16538
838.956	16337
839.094	16329
839.231	16466
839.369	16500
839.506	16698
839.643	16622
839.781	16382
839.918	16417
840.055	16306
840.193	16421
840.33	16318
840.467	16303
840.604	16451
840.742	16596
840.879	16204
841.016	16363
841.153	16185
841.29	16421
841.427	16325
841.564	16466
841.701	16303
841.838	16413
841.975	16253
842.112	16253
842.249	16154
842.385	16120
842.522	16356
842.659	16147
842.796	16048
842.933	16097
843.069	16036
843.206	16101
843.343	16154
843.479	16181
843.616	16234
843.752	15899
843.889	15945
844.025	15998
844.162	15823
844.298	16002
844.435	15956
844.571	15911
844.708	15930
844.844	16139
844.98	16040
845.117	16025
845.253	15903
845.389	15819
845.525	15903
845.661	15827
845.798	15838
845.934	15880
846.07	15846
846.206	15854
846.342	15934
846.478	15766
846.614	15603
846.75	15424
846.886	15545
847.022	15584
847.158	15557
847.294	15458
847.429	15557
847.565	15454
847.701	15717
847.837	15192
847.972	15180
848.108	15287
848.244	15230
848.379	15077
848.515	15112
848.65	15127
848.786	15051
848.921	15154
849.057	15138
849.192	15264
849.328	15100
849.463	15024
849.598	15028
849.734	15005
849.869	14960
850.004	14826
850.14	14845
850.275	14902
850.41	14735
850.545	14781
850.68	14785
850.815	14811
850.95	14811
851.085	15024
851.22	14982
851.355	14823
851.49	14800
851.625	14750
851.76	14811
851.895	14686
852.03	14777
852.165	14773
852.299	14834
852.434	14952
852.569	14876
852.703	14982
852.838	14944
852.973	15058
853.107	14872
853.242	14906
853.376	14785
853.511	14598
853.645	14655
853.78	14826
853.914	14697
854.048	14686
854.183	14788
854.317	14682
854.451	14819
854.585	14659
854.72	14621
854.854	14826
854.988	14667
855.122	14705
855.256	14507
855.39	14727
855.524	14811
855.658	14750
855.792	14716
855.926	14769
856.06	14785
856.194	14887
856.327	14667
856.461	14644
856.595	14655
856.729	14617
856.862	14807
856.996	14644
857.13	14777
857.263	14826
857.397	14788
857.53	14746
857.664	14857
857.797	14834
857.931	14883
858.064	14785
858.197	14842
858.331	14727
858.464	14670
858.597	14541
858.731	14705
858.864	14758
858.997	14682
859.13	14716
859.263	14754
859.396	14792
859.529	14705
859.662	14663
859.795	14724
859.928	14834
860.061	14800
860.194	14906
860.327	14769
860.46	14659
860.592	14876
860.725	14765
860.858	14838
860.99	14701
861.123	14708
861.256	14552
861.388	14739
861.521	15473
861.653	14552
861.786	14473
861.918	14629
862.05	14716
862.183	14708
862.315	14762
862.447	14693
862.58	14594
862.712	14374
862.844	14454
862.976	14575
863.108	14602
863.24	14895
863.372	14442
863.504	14495
863.636	14358
863.768	14450
863.9	14533
864.032	14404
864.164	14469
864.296	14492
864.428	14571
864.559	14632
864.691	14552
864.823	14583
864.954	14454
865.086	14507
865.217	14313
865.349	14419
865.48	14480
865.612	14408
865.743	14613
865.875	14473
866.006	14317
866.137	14530
866.269	14431
866.4	14408
866.531	14492
866.662	14358
866.793	14492
866.924	14404
867.055	14446
867.186	14511
867.317	14469
867.448	14343
867.579	14484
867.71	14423
867.841	14328
867.972	14533
868.103	14408
868.233	14488
868.364	14568
868.495	14507
868.625	14750
868.756	14826
868.886	14606
869.017	14872
869.147	14743
869.278	14815
869.408	14693
869.539	14708
869.669	14773
869.799	14834
869.929	14883
870.06	14815
870.19	15009
870.32	15070
870.45	15047
870.58	15097
870.71	15313
870.84	15256
870.97	15062
871.1	15154
871.23	15294
871.36	15291
871.489	15165
871.619	15207
871.749	15332
871.879	15348
872.008	15378
872.138	15370
872.267	15294
872.397	15161
872.526	15116
872.656	15093
872.785	15154
872.915	15302
873.044	15454
873.173	15359
873.303	15332
873.432	15443
873.561	15363
873.69	15306
873.819	15348
873.948	15424
874.077	15435
874.206	15291
874.335	15348
874.464	15466
874.593	15644
874.722	15587
874.851	15747
874.979	15785
875.108	15774
875.237	15705
875.365	15572
875.494	15663
875.623	15625
875.751	15606
875.88	15728
876.008	15823
876.136	15842
876.265	16120
876.393	16177
876.521	16120
876.65	16097
876.778	16215
876.906	15998
877.034	16006
877.162	16105
877.29	16074
877.418	16025
877.546	16143
877.674	16109
877.802	16112
877.93	16086
878.058	16055
878.185	15994
878.313	16074
878.441	16082
878.568	15953
878.696	16093
878.824	16032
878.951	16147
879.079	16295
879.206	16363
879.333	16344
879.461	16207
879.588	16158
879.715	16348
879.842	16405
879.97	16158
880.097	16036
880.224	15911
880.351	16059
880.478	15937
880.605	15903
880.732	15956
880.859	16093
880.986	15983
881.112	16029
881.239	15865
881.366	15701
881.493	15682
881.619	15599
881.746	15614
881.872	15599
881.999	15576
882.125	15564
882.252	15682
882.378	15637
882.505	15774
882.631	15420
882.757	15416
882.883	15397
883.01	15473
883.136	15382
883.262	15233
883.388	15272
883.514	15462
883.64	15439
883.766	15351
883.892	15230
884.018	15313
884.143	15336
884.269	15485
884.395	15287
884.52	14925
884.646	15127
884.772	15055
884.897	15043
885.023	15104
885.148	15199
885.274	15241
885.399	15165
885.524	15112
885.65	15150
885.775	15161
885.9	15043
886.025	15298
886.15	15142
886.275	14986
886.4	15047
886.525	15123
886.65	15036
886.775	14960
886.9	15161
887.025	15264
887.149	15112
887.274	14929
887.399	14902
887.523	14815
887.648	14895
887.773	14883
887.897	14925
888.021	14899
888.146	14921
888.27	14956
888.395	15100
888.519	14990
888.643	14986
888.767	14960
888.891	14918
889.015	14796
889.139	14883
889.263	14727
889.387	14899
889.511	14960
889.635	14895
889.759	14765
889.883	14819
890.006	14800
890.13	14792
890.254	14724
890.377	14689
890.501	14602
890.624	14560
890.748	14674
890.871	14545
890.995	14454
891.118	14438
891.241	14454
891.364	14511
891.488	14533
891.611	14507
891.734	14431
891.857	14549
891.98	14499
892.103	14446
892.226	14579
892.349	14522
892.471	14286
892.594	14457
892.717	14476
892.839	14499
892.962	14511
893.085	14587
893.207	14442
893.33	14396
893.452	14358
893.575	14511
893.697	14503
893.819	14788
893.941	14659
894.064	14560
894.186	14374
894.308	14450
894.43	14602
894.552	14621
894.674	14537
894.796	14450
894.918	14514
895.04	14434
895.161	14556
895.283	14583
895.405	14556
895.526	14511
895.648	14625
895.769	14495
895.891	14632
896.012	14610
896.134	14644
896.255	14655
896.376	14545
896.498	14667
896.619	14727
896.74	14625
896.861	14693
896.982	14857
897.103	15142
897.224	14979
897.345	14887
897.466	14765
897.587	14849
897.708	15009
897.828	14845
897.949	14883
898.07	14746
898.19	14785
898.311	15005
898.431	14925
898.552	14986
898.672	15077
898.792	15043
898.913	14948
899.033	14941
899.153	14792
899.273	14712
899.393	14796
899.513	14842
899.633	14765
899.753	14887
899.873	14845
899.993	14861
900.113	14891
900.232	14819
900.352	14735
900.472	14727
900.591	14545
900.711	14693
900.83	14610
900.95	14781
901.069	14811
901.189	14568
901.308	14381
901.427	14218
901.546	14202
901.665	14271
901.784	14320
901.904	14180
902.023	14187
902.141	14039
902.26	13940
902.379	13970
902.498	13925
902.617	13906
902.735	13856
902.854	13887
902.973	13913
903.091	13693
903.21	13594
903.328	13556
903.446	13571
903.565	13502
903.683	13491
903.801	13381
903.919	13453
904.038	13430
904.156	13331
904.274	13362
904.392	13259
904.51	13198
904.627	13247
904.745	13266
904.863	13346
904.981	13061
905.098	12871
905.216	12951
905.334	13012
905.451	12996
905.569	12943
905.686	13004
905.803	12943
905.921	12875
906.038	12939
906.155	12776
906.272	12700
906.389	12749
906.506	12471
906.623	12563
906.74	12479
906.857	12429
906.974	12506
907.091	12635
907.208	12688
907.324	12528
907.441	12483
907.557	12330
907.674	12338
907.79	12163
907.907	12243
908.023	12289
908.139	12232
908.256	12235
908.372	12224
908.488	12235
908.604	12163
908.72	11942
908.836	12038
908.952	12030
909.068	12026
909.184	12114
909.3	12083
909.415	12064
909.531	11999
909.647	11912
909.762	11840
909.878	11813
909.993	11893
910.108	11832
910.224	11760
910.339	11767
910.454	11718
910.57	11733
910.685	11680
910.8	11794
910.915	11916
911.03	11722
911.145	11490
911.259	11512
911.374	11493
911.489	11471
911.604	11436
911.718	11261
911.833	11315
911.947	11185
912.062	11166
912.176	11265
912.291	11231
912.405	11299
912.519	11486
912.633	11528
912.748	11273
912.862	11212
912.976	11147
913.09	11025
913.204	11037
913.318	11147
913.431	11273
913.545	11242
913.659	11326
913.772	11143
913.886	11029
914	10972
914.113	11185
914.226	11086
914.34	11052
914.453	11014
914.566	11056
914.68	10968
914.793	11010
914.906	10752
915.019	10771
915.132	10634
915.245	10725
915.358	10694
915.47	10797
915.583	10809
915.696	10778
915.809	10873
915.921	10923
916.034	10698
916.146	10691
916.259	10668
916.371	10881
916.483	10767
916.595	10702
916.708	10725
916.82	10645
916.932	10714
917.044	10702
917.156	10645
917.268	10493
917.38	10599
917.491	10527
917.603	10599
917.715	10706
917.826	10611
917.938	10569
918.049	10455
918.161	10535
918.272	10755
918.384	10755
918.495	10565
918.606	10470
918.717	10367
918.828	10474
918.939	10481
919.05	10386
919.161	10455
919.272	10318
919.383	10379
919.494	10516
919.604	10683
919.715	10443
919.826	10356
919.936	10379
920.047	10542
920.157	10436
920.267	10698
920.378	10561
920.488	10447
920.598	10702
920.708	10877
920.818	10634
920.928	10634
921.038	10828
921.148	10797
921.258	10489
921.368	10455
921.477	10344
921.587	10333
921.697	10230
921.806	10337
921.916	10196
922.025	10063
922.134	10025
922.244	9960
922.353	10067
922.462	9899
922.571	9827
922.68	9728
922.789	9671
922.898	9842
923.007	9629
923.116	9804
923.224	9774
923.333	9732
923.442	9618
923.55	9519
923.659	9595
923.767	9667
923.876	9542
923.984	9656
924.092	9534
924.201	9568
924.309	9587
924.417	9614
924.525	9443
924.633	9519
924.741	10333
924.849	9378
924.956	9557
925.064	9310
925.172	9256
925.279	9367
925.387	9416
925.494	9469
925.602	9420
925.709	9462
925.816	9291
925.924	9275
926.031	9496
926.138	9374
926.245	9382
926.352	9317
926.459	9458
926.566	9420
926.673	9336
926.779	9256
926.886	9157
926.993	9081
927.099	9032
927.206	9043
927.312	9013
927.419	9081
927.525	9062
927.631	9108
927.737	9009
927.843	8952
927.95	8830
928.056	8864
928.162	8979
928.267	9055
928.373	9538
928.479	9074
928.585	8838
928.69	8914
928.796	8994
928.901	8815
929.007	8731
929.112	8849
929.218	8807
929.323	8804
929.428	8735
929.533	8861
929.638	8716
929.743	8769
929.848	8838
929.953	8804
930.058	8648
930.163	8499
930.267	8560
930.372	8648
930.477	8503
930.581	8785
930.685	8632
930.79	8514
930.894	8492
930.998	8423
931.103	8606
931.207	8263
931.311	8210
931.415	8248
931.519	8001
931.623	7940
