Data from test_V78500241_164.txt Node
Date: Fri Mar 25 14:34:51 CST 2022
User: usil
Spectrometer: V785-0024
Trigger mode: 0
Integration Time (sec): 4.000000E-1
Scans to average: 1
Nonlinearity correction enabled: false
Boxcar width: 0
Storing dark spectrum: false
XAxis mode: Wavelengths
Number of Pixels in Spectrum: 1024
>>>>>Begin Spectral Data<<<<<
801.071	29083
801.214	28877
801.356	28649
801.499	28546
801.641	28519
801.783	28542
801.926	28557
802.068	28409
802.211	28451
802.353	28348
802.496	28154
802.638	28128
802.78	28242
802.923	28074
803.065	27964
803.208	27922
803.35	28135
803.492	28166
803.635	28276
803.777	28078
803.919	28249
804.061	28459
804.204	28333
804.346	28086
804.488	28109
804.63	28093
804.773	27914
804.915	28188
805.057	28337
805.199	28158
805.341	28211
805.483	28485
805.626	28219
805.768	28124
805.91	28390
806.052	28299
806.194	28242
806.336	28489
806.478	28379
806.62	28352
806.762	28637
806.904	28759
807.046	29029
807.188	29102
807.33	29109
807.472	29307
807.614	29284
807.756	29425
807.898	29459
808.04	29726
808.182	30144
808.324	30627
808.465	31228
808.607	31913
808.749	32465
808.891	32682
809.033	32739
809.174	32332
809.316	31791
809.458	31187
809.6	30593
809.741	30342
809.883	29874
810.025	29874
810.166	29695
810.308	29482
810.45	29436
810.591	29113
810.733	28927
810.875	28862
811.016	28691
811.158	28698
811.299	28904
811.441	28733
811.582	28927
811.724	28592
811.865	28653
812.007	28512
812.148	28611
812.29	28771
812.431	28717
812.573	28854
812.714	28995
812.855	29132
812.997	29212
813.138	29315
813.279	29147
813.421	29189
813.562	29014
813.703	28987
813.845	28736
813.986	28573
814.127	28291
814.268	28029
814.41	28261
814.551	28032
814.692	28211
814.833	28124
814.974	28128
815.115	28067
815.256	27835
815.397	27888
815.539	27888
815.68	27770
815.821	27766
815.962	27789
816.103	27797
816.244	27663
816.385	27667
816.526	27572
816.666	27317
816.807	27184
816.948	27294
817.089	27302
817.23	27351
817.371	27237
817.512	27180
817.653	27116
817.793	27020
817.934	27176
818.075	27157
818.216	27131
818.356	27161
818.497	27066
818.638	26971
818.778	26876
818.919	26937
819.06	26902
819.2	27085
819.341	27135
819.481	27119
819.622	27256
819.762	27363
819.903	27416
820.043	27241
820.184	27176
820.324	26986
820.465	27176
820.605	27089
820.746	27036
820.886	26906
821.026	27013
821.167	27096
821.307	27096
821.447	27020
821.588	26823
821.728	26735
821.868	26514
822.008	26393
822.149	26571
822.289	26503
822.429	26130
822.569	26225
822.709	26024
822.849	25799
822.99	25860
823.13	25845
823.27	25727
823.41	25624
823.55	25609
823.69	25772
823.83	25712
823.97	25628
824.11	25499
824.25	25434
824.389	25578
824.529	25506
824.669	25552
824.809	25434
824.949	25594
825.089	25693
825.228	25537
825.368	25327
825.508	25308
825.648	25266
825.787	25236
825.927	25354
826.067	25274
826.206	25225
826.346	25312
826.485	25232
826.625	25240
826.765	25301
826.904	25251
827.044	24985
827.183	24924
827.323	24806
827.462	24977
827.601	24890
827.741	24920
827.88	25008
828.02	24741
828.159	24878
828.298	24924
828.437	24935
828.577	24738
828.716	24989
828.855	24863
828.994	24684
829.134	24551
829.273	24707
829.412	24544
829.551	24585
829.69	24498
829.829	24627
829.968	24719
830.107	24620
830.246	24559
830.385	24418
830.524	24517
830.663	24327
830.802	24311
830.941	24213
831.08	24129
831.219	24350
831.357	24216
831.496	24330
831.635	24155
831.774	23999
831.913	24068
832.051	24053
832.19	23866
832.329	23946
832.467	23832
832.606	23779
832.744	23790
832.883	23893
833.022	23783
833.16	23859
833.299	23893
833.437	23783
833.576	24057
833.714	23977
833.852	23912
833.991	24011
834.129	24152
834.267	24083
834.406	23946
834.544	23999
834.682	23992
834.821	23722
834.959	24076
835.097	23821
835.235	23927
835.373	23904
835.511	23863
835.65	23642
835.788	23649
835.926	23471
836.064	23463
836.202	23440
836.34	23627
836.478	23684
836.615	23543
836.753	23634
836.891	23608
837.029	23566
837.167	23566
837.305	23463
837.443	23402
837.58	23417
837.718	23543
837.856	23429
837.993	23455
838.131	23493
838.269	23216
838.406	23337
838.544	23132
838.681	23022
838.819	23018
838.956	22839
839.094	22744
839.231	22847
839.369	23079
839.506	23242
839.643	23014
839.781	22862
839.918	22736
840.055	22854
840.193	22702
840.33	22660
840.467	22713
840.604	22729
840.742	22930
840.879	22573
841.016	22615
841.153	22561
841.29	22721
841.427	22721
841.564	22736
841.701	22774
841.838	22580
841.975	22512
842.112	22584
842.249	22493
842.385	22493
842.522	22569
842.659	22478
842.796	22382
842.933	22481
843.069	22287
843.206	22287
843.343	22481
843.479	22405
843.616	22451
843.752	22135
843.889	22185
844.025	22265
844.162	22192
844.298	22394
844.435	22268
844.571	22257
844.708	22386
844.844	22656
844.98	22607
845.117	22710
845.253	22634
845.389	22877
845.525	23611
845.661	24258
845.798	25449
845.934	26495
846.07	26792
846.206	26629
846.342	26039
846.478	24814
846.614	23482
846.75	22862
846.886	22405
847.022	22207
847.158	21994
847.294	21873
847.429	21739
847.565	21694
847.701	21865
847.837	21454
847.972	21367
848.108	21523
848.244	21397
848.379	21203
848.515	21222
848.65	21199
848.786	21233
848.921	21214
849.057	21302
849.192	21173
849.328	21112
849.463	21173
849.598	21070
849.734	21070
849.869	21043
850.004	21001
850.14	20899
850.275	20861
850.41	20876
850.545	20834
850.68	20941
850.815	20921
850.95	20899
851.085	21093
851.22	20948
851.355	20990
851.49	20849
851.625	20788
851.76	20777
851.895	20785
852.03	20765
852.165	20743
852.299	20777
852.434	20929
852.569	20887
852.703	20788
852.838	20948
852.973	20861
853.107	21066
853.242	20762
853.376	20720
853.511	20590
853.645	20750
853.78	20796
853.914	20621
854.048	20686
854.183	20754
854.317	20811
854.451	20967
854.585	20727
854.72	20670
854.854	20743
854.988	20594
855.122	20708
855.256	20609
855.39	20758
855.524	20800
855.658	20785
855.792	20629
855.926	20686
856.06	20769
856.194	20750
856.327	20693
856.461	20617
856.595	20598
856.729	20663
856.862	20689
856.996	20629
857.13	20640
857.263	20632
857.397	20651
857.53	20594
857.664	20644
857.797	20670
857.931	20640
858.064	20625
858.197	20754
858.331	20644
858.464	20476
858.597	20590
858.731	20587
858.864	20549
858.997	20564
859.13	20606
859.263	20629
859.396	20670
859.529	20530
859.662	20583
859.795	20469
859.928	20590
860.061	20636
860.194	20754
860.327	20655
860.46	20579
860.592	20533
860.725	20720
860.858	20678
860.99	20541
861.123	20427
861.256	20499
861.388	20571
861.521	21135
861.653	20484
861.786	20438
861.918	20476
862.05	20442
862.183	20484
862.315	20609
862.447	20648
862.58	20655
862.712	20431
862.844	20252
862.976	20328
863.108	20355
863.24	20579
863.372	20153
863.504	20256
863.636	20214
863.768	20343
863.9	20332
864.032	20328
864.164	20214
864.296	20221
864.428	20347
864.559	20294
864.691	20301
864.823	20286
864.954	20187
865.086	20187
865.217	20225
865.349	20161
865.48	20199
865.612	20084
865.743	20332
865.875	20225
866.006	20107
866.137	20130
866.269	20157
866.4	20103
866.531	20096
866.662	20058
866.793	20081
866.924	20031
867.055	20130
867.186	20084
867.317	20073
867.448	19993
867.579	19993
867.71	20084
867.841	19925
867.972	20062
868.103	20130
868.233	20092
868.364	20069
868.495	20115
868.625	20332
868.756	20404
868.886	20145
869.017	20393
869.147	20358
869.278	20396
869.408	20366
869.539	20305
869.669	20358
869.799	20332
869.929	20347
870.06	20412
870.19	20689
870.32	20606
870.45	20583
870.58	20720
870.71	20880
870.84	20834
870.97	20727
871.1	20750
871.23	20864
871.36	20967
871.489	20826
871.619	20777
871.749	20872
871.879	20982
872.008	21104
872.138	20895
872.267	20906
872.397	20842
872.526	20708
872.656	20674
872.785	20686
872.915	20956
873.044	21047
873.173	20925
873.303	20952
873.432	21024
873.561	21081
873.69	21013
873.819	20994
873.948	21024
874.077	20986
874.206	20952
874.335	21036
874.464	21070
874.593	21222
874.722	21226
874.851	21287
874.979	21241
875.108	21344
875.237	21252
875.365	21226
875.494	21169
875.623	21272
875.751	21283
875.88	21382
876.008	21416
876.136	21534
876.265	21694
876.393	21808
876.521	21838
876.65	21854
876.778	21838
876.906	21633
877.034	21656
877.162	21652
877.29	21724
877.418	21717
877.546	21785
877.674	21880
877.802	21823
877.93	21816
878.058	21789
878.185	21838
878.313	21831
878.441	21941
878.568	21899
878.696	22105
878.824	22310
878.951	22675
879.079	22923
879.206	23376
879.333	23611
879.461	23760
879.588	24087
879.715	24311
879.842	24015
879.97	23573
880.097	22965
880.224	22634
880.351	22398
880.478	22291
880.605	22226
880.732	22124
880.859	22318
880.986	22006
881.112	22116
881.239	22059
881.366	21895
881.493	21705
881.619	21644
881.746	21648
881.872	21728
881.999	21793
882.125	21618
882.252	21800
882.378	21701
882.505	21861
882.631	21671
882.757	21454
882.883	21507
883.01	21519
883.136	21450
883.262	21298
883.388	21310
883.514	21545
883.64	21389
883.766	21336
883.892	21230
884.018	21203
884.143	21382
884.269	21370
884.395	21173
884.52	21154
884.646	21112
884.772	21180
884.897	20963
885.023	21138
885.148	21264
885.274	21264
885.399	21104
885.524	21047
885.65	21093
885.775	21127
885.9	21039
886.025	21017
886.15	21112
886.275	20914
886.4	20735
886.525	20796
886.65	20594
886.775	20834
886.9	20925
887.025	21123
887.149	20750
887.274	20651
887.399	20590
887.523	20533
887.648	20396
887.773	20343
887.897	20473
888.021	20469
888.146	20423
888.27	20545
888.395	20537
888.519	20480
888.643	20469
888.767	20328
888.891	20275
889.015	20305
889.139	20267
889.263	20145
889.387	20206
889.511	20362
889.635	20199
889.759	20096
889.883	20077
890.006	20103
890.13	20229
890.254	20138
890.377	20077
890.501	19856
890.624	19898
890.748	19871
890.871	19803
890.995	19639
891.118	19666
891.241	19540
891.364	19761
891.488	19753
891.611	19624
891.734	19696
891.857	19719
891.98	19601
892.103	19772
892.226	19544
892.349	19586
892.471	19369
892.594	19559
892.717	19540
892.839	19597
892.962	19605
893.085	19727
893.207	19468
893.33	19464
893.452	19449
893.575	19472
893.697	19426
893.819	19605
893.941	19628
894.064	19582
894.186	19426
894.308	19400
894.43	19552
894.552	19723
894.674	19556
894.796	19468
894.918	19457
895.04	19434
895.161	19567
895.283	19506
895.405	19403
895.526	19483
895.648	19422
895.769	19472
895.891	19499
896.012	19613
896.134	19521
896.255	19601
896.376	19438
896.498	19464
896.619	19438
896.74	19487
896.861	19662
896.982	19879
897.103	20046
897.224	19708
897.345	19563
897.466	19632
897.587	19639
897.708	19830
897.828	19601
897.949	19597
898.07	19491
898.19	19613
898.311	19731
898.431	19632
898.552	19544
898.672	19693
898.792	19635
898.913	19647
899.033	19499
899.153	19407
899.273	19415
899.393	19438
899.513	19415
899.633	19521
899.753	19480
899.873	19407
899.993	19544
900.113	19388
900.232	19472
900.352	19407
900.472	19148
900.591	19228
900.711	19202
900.83	19274
900.95	19354
901.069	19354
901.189	19027
901.308	18951
901.427	18817
901.546	18753
901.665	18764
901.784	18798
901.904	18711
902.023	18593
902.141	18319
902.26	18289
902.379	18395
902.498	18327
902.617	18296
902.735	18395
902.854	18243
902.973	18232
903.091	17965
903.21	17923
903.328	17942
903.446	17874
903.565	17722
903.683	17779
903.801	17611
903.919	17687
904.038	17665
904.156	17509
904.274	17729
904.392	17505
904.51	17501
904.627	17436
904.745	17532
904.863	17554
904.981	17330
905.098	17140
905.216	17159
905.334	17140
905.451	17212
905.569	17159
905.686	17200
905.803	17086
905.921	16984
906.038	16938
906.155	16999
906.272	16774
906.389	16771
906.506	16755
906.623	16599
906.74	16577
906.857	16603
906.974	16485
907.091	16733
907.208	16752
907.324	16611
907.441	16504
907.557	16348
907.674	16333
907.79	16230
907.907	16329
908.023	16352
908.139	16329
908.256	16280
908.372	16295
908.488	16124
908.604	16086
908.72	15975
908.836	15968
908.952	16071
909.068	16093
909.184	16067
909.3	15994
909.415	15861
909.531	16017
909.647	15762
909.762	15728
909.878	15694
909.993	15705
910.108	15641
910.224	15606
910.339	15644
910.454	15660
910.57	15599
910.685	15382
910.8	15660
910.915	15690
911.03	15542
911.145	15428
911.259	15389
911.374	15249
911.489	15256
911.604	15070
911.718	15119
911.833	15077
911.947	15005
912.062	14883
912.176	15001
912.291	14982
912.405	15009
912.519	15211
912.633	15161
912.748	15081
912.862	14975
912.976	14853
913.09	14811
913.204	14765
913.318	14868
913.431	15009
913.545	14933
913.659	14956
913.772	14811
913.886	14651
914	14610
914.113	14838
914.226	14868
914.34	14746
914.453	14587
914.566	14697
914.68	14686
914.793	14552
914.906	14313
915.019	14339
915.132	14278
915.245	14324
915.358	14381
915.47	14298
915.583	14301
915.696	14305
915.809	14499
915.921	14446
916.034	14290
916.146	14233
916.259	14259
916.371	14362
916.483	14298
916.595	14229
916.708	14218
916.82	14199
916.932	14149
917.044	14225
917.156	14172
917.268	14027
917.38	14077
917.491	14016
917.603	13993
917.715	14058
917.826	14142
917.938	13970
918.049	13860
918.161	13936
918.272	14050
918.384	14039
918.495	13898
918.606	13845
918.717	13708
918.828	13738
918.939	13845
919.05	13738
919.161	13719
919.272	13628
919.383	13559
919.494	13753
919.604	13822
919.715	13731
919.826	13677
919.936	13632
920.047	13879
920.157	13700
920.267	13830
920.378	13651
920.488	13708
920.598	13860
920.708	14069
920.818	13868
920.928	13845
921.038	14005
921.148	13894
921.258	13575
921.368	13582
921.477	13491
921.587	13491
921.697	13297
921.806	13476
921.916	13320
922.025	13221
922.134	13046
922.244	13038
922.353	13126
922.462	13034
922.571	12852
922.68	12745
922.789	12631
922.898	12646
923.007	12688
923.116	12741
923.224	12738
923.333	12681
923.442	12620
923.55	12582
923.659	12608
923.767	12627
923.876	12544
923.984	12574
924.092	12486
924.201	12536
924.309	12528
924.417	12502
924.525	12361
924.633	12391
924.741	13327
924.849	12205
924.956	12407
925.064	12262
925.172	12182
925.279	12262
925.387	12266
925.494	12155
925.602	12304
925.709	12285
925.816	12133
925.924	12201
926.031	12190
926.138	12076
926.245	12239
926.352	12064
926.459	12167
926.566	12239
926.673	12045
926.779	11897
926.886	11927
926.993	11874
927.099	11847
927.206	11775
927.312	11767
927.419	11859
927.525	11745
927.631	11821
927.737	11684
927.843	11630
927.95	11558
928.056	11634
928.162	11600
928.267	11638
928.373	12266
928.479	11714
928.585	11452
928.69	11627
928.796	11657
928.901	11505
929.007	11349
929.112	11509
929.218	11372
929.323	11345
929.428	11318
929.533	11566
929.638	11353
929.743	11273
929.848	11288
929.953	11258
930.058	11140
930.163	11037
930.267	11064
930.372	11197
930.477	11079
930.581	11269
930.685	11056
930.79	10927
930.894	10965
930.998	10873
931.103	11014
931.207	10584
931.311	10592
931.415	10485
931.519	10280
931.623	10261
