Data from test_V78500241_346.txt Node
Date: Fri Mar 25 14:36:07 CST 2022
User: usil
Spectrometer: V785-0024
Trigger mode: 0
Integration Time (sec): 4.000000E-1
Scans to average: 1
Nonlinearity correction enabled: false
Boxcar width: 0
Storing dark spectrum: false
XAxis mode: Wavelengths
Number of Pixels in Spectrum: 1024
>>>>>Begin Spectral Data<<<<<
801.071	26990
801.214	26735
801.356	26568
801.499	26450
801.641	26305
801.783	26309
801.926	26347
802.068	26218
802.211	26221
802.353	26157
802.496	26050
802.638	25890
802.78	25921
802.923	25780
803.065	25830
803.208	25719
803.35	25761
803.492	25947
803.635	25909
803.777	25947
803.919	26008
804.061	26202
804.204	26012
804.346	25784
804.488	25715
804.63	25841
804.773	25635
804.915	25788
805.057	25913
805.199	25784
805.341	25906
805.483	25894
805.626	25826
805.768	25769
805.91	25856
806.052	26065
806.194	25734
806.336	25966
806.478	25887
806.62	25833
806.762	25966
806.904	26035
807.046	26324
807.188	26225
807.33	26111
807.472	26263
807.614	26240
807.756	26298
807.898	26096
808.04	25986
808.182	25986
808.324	26126
808.465	26069
808.607	26271
808.749	26381
808.891	26522
809.033	26492
809.174	26484
809.316	26381
809.458	26412
809.6	26431
809.741	26423
809.883	26389
810.025	26545
810.166	26598
810.308	26503
810.45	26530
810.591	26495
810.733	26278
810.875	26366
811.016	26084
811.158	26077
811.299	26225
811.441	26275
811.582	26370
811.724	26248
811.865	26256
812.007	26252
812.148	26305
812.29	26332
812.431	26400
812.573	26480
812.714	26473
812.855	26720
812.997	26792
813.138	26940
813.279	26887
813.421	26689
813.562	26613
813.703	26644
813.845	26526
813.986	26050
814.127	25925
814.268	25887
814.41	25803
814.551	25772
814.692	25833
814.833	25700
814.974	25731
815.115	25685
815.256	25670
815.397	25624
815.539	25597
815.68	25495
815.821	25453
815.962	25628
816.103	25495
816.244	25381
816.385	25217
816.526	25304
816.666	24981
816.807	25015
816.948	24894
817.089	25057
817.23	24859
817.371	24992
817.512	24871
817.653	24966
817.793	24833
817.934	24928
818.075	24905
818.216	24852
818.356	24760
818.497	24886
818.638	24551
818.778	24528
818.919	24661
819.06	24642
819.2	24692
819.341	24768
819.481	24745
819.622	25000
819.762	25148
819.903	25050
820.043	24837
820.184	24970
820.324	24924
820.465	25023
820.605	24833
820.746	24935
820.886	24719
821.026	24829
821.167	24749
821.307	24856
821.447	24730
821.588	24707
821.728	24513
821.868	24277
822.008	24144
822.149	24114
822.289	24308
822.429	24034
822.569	23874
822.709	23904
822.849	23638
822.99	23775
823.13	23649
823.27	23657
823.41	23493
823.55	23455
823.69	23478
823.83	23520
823.97	23402
824.11	23315
824.25	23204
824.389	23246
824.529	23223
824.669	23170
824.809	23486
824.949	23288
825.089	23242
825.228	23277
825.368	23102
825.508	23113
825.648	23014
825.787	23075
825.927	23033
826.067	23075
826.206	23086
826.346	23060
826.485	22995
826.625	23109
826.765	23159
826.904	23151
827.044	22839
827.183	22706
827.323	22664
827.462	22824
827.601	22774
827.741	22649
827.88	22755
828.02	22592
828.159	22710
828.298	22869
828.437	22668
828.577	22626
828.716	22713
828.855	22577
828.994	22390
829.134	22394
829.273	22451
829.412	22550
829.551	22299
829.69	22276
829.829	22382
829.968	22470
830.107	22402
830.246	22333
830.385	22356
830.524	22223
830.663	22109
830.802	22044
830.941	21994
831.08	22017
831.219	22093
831.357	22055
831.496	22261
831.635	22002
831.774	21736
831.913	21823
832.051	21720
832.19	21705
832.329	21804
832.467	21717
832.606	21515
832.744	21614
832.883	21622
833.022	21663
833.16	21587
833.299	21660
833.437	21644
833.576	21656
833.714	21576
833.852	21698
833.991	21713
834.129	21713
834.267	21610
834.406	21576
834.544	21564
834.682	21610
834.821	21610
834.959	21781
835.097	21542
835.235	21690
835.373	21660
835.511	21477
835.65	21397
835.788	21473
835.926	21336
836.064	21317
836.202	21313
836.34	21412
836.478	21538
836.615	21416
836.753	21496
836.891	21515
837.029	21466
837.167	21367
837.305	21313
837.443	21336
837.58	21348
837.718	21405
837.856	21310
837.993	21211
838.131	21359
838.269	21252
838.406	21127
838.544	21127
838.681	20967
838.819	20880
838.956	20811
839.094	20708
839.231	20785
839.369	20948
839.506	21176
839.643	20941
839.781	20739
839.918	20560
840.055	20754
840.193	20701
840.33	20682
840.467	20617
840.604	20655
840.742	21039
840.879	20503
841.016	20674
841.153	20629
841.29	20834
841.427	20625
841.564	20735
841.701	20594
841.838	20541
841.975	20537
842.112	20587
842.249	20431
842.385	20339
842.522	20473
842.659	20358
842.796	20393
842.933	20438
843.069	20278
843.206	20362
843.343	20484
843.479	20419
843.616	20457
843.752	20134
843.889	20191
844.025	20153
844.162	20096
844.298	20172
844.435	20122
844.571	20005
844.708	20142
844.844	20271
844.98	20214
845.117	20199
845.253	20183
845.389	19803
845.525	19993
845.661	20039
845.798	19936
845.934	20001
846.07	19947
846.206	20069
846.342	20088
846.478	20043
846.614	19727
846.75	19662
846.886	19571
847.022	19795
847.158	19708
847.294	19548
847.429	19635
847.565	19643
847.701	19898
847.837	19331
847.972	19312
848.108	19381
848.244	19377
848.379	19202
848.515	19206
848.65	19137
848.786	19126
848.921	19122
849.057	19282
849.192	19343
849.328	19263
849.463	19122
849.598	19015
849.734	19019
849.869	19099
850.004	18947
850.14	18886
850.275	18875
850.41	18837
850.545	18886
850.68	18875
850.815	18913
850.95	18916
851.085	19148
851.22	18977
851.355	18772
851.49	18848
851.625	18852
851.76	18897
851.895	18825
852.03	18669
852.165	18840
852.299	19000
852.434	18939
852.569	18878
852.703	18859
852.838	18935
852.973	19027
853.107	18924
853.242	18833
853.376	18833
853.511	18585
853.645	18772
853.78	18738
853.914	18738
854.048	18681
854.183	18661
854.317	18616
854.451	18878
854.585	18604
854.72	18703
854.854	18825
854.988	18597
855.122	18646
855.256	18684
855.39	18673
855.524	18829
855.658	18711
855.792	18665
855.926	18688
856.06	18673
856.194	18787
856.327	18726
856.461	18616
856.595	18608
856.729	18776
856.862	18798
856.996	18650
857.13	18783
857.263	18783
857.397	18829
857.53	18665
857.664	18730
857.797	18745
857.931	18700
858.064	18734
858.197	18795
858.331	18677
858.464	18585
858.597	18551
858.731	18650
858.864	18578
858.997	18646
859.13	18722
859.263	18692
859.396	18665
859.529	18711
859.662	18536
859.795	18593
859.928	18665
860.061	18753
860.194	18863
860.327	18760
860.46	18642
860.592	18677
860.725	18772
860.858	18669
860.99	18620
861.123	18509
861.256	18673
861.388	18593
861.521	19457
861.653	18566
861.786	18490
861.918	18540
862.05	18555
862.183	18681
862.315	18741
862.447	18772
862.58	18677
862.712	18418
862.844	18346
862.976	18547
863.108	18517
863.24	18703
863.372	18292
863.504	18365
863.636	18350
863.768	18372
863.9	18357
864.032	18194
864.164	18388
864.296	18334
864.428	18422
864.559	18494
864.691	18361
864.823	18380
864.954	18342
865.086	18350
865.217	18285
865.349	18167
865.48	18429
865.612	18330
865.743	18403
865.875	18319
866.006	18182
866.137	18201
866.269	18174
866.4	18308
866.531	18270
866.662	18129
866.793	18136
866.924	18243
867.055	18247
867.186	18258
867.317	18171
867.448	18102
867.579	18270
867.71	18171
867.841	18159
867.972	18239
868.103	18243
868.233	18247
868.364	18304
868.495	18353
868.625	18422
868.756	18498
868.886	18369
869.017	18547
869.147	18464
869.278	18574
869.408	18513
869.539	18437
869.669	18570
869.799	18551
869.929	18521
870.06	18612
870.19	18901
870.32	18696
870.45	18707
870.58	18779
870.71	18989
870.84	18852
870.97	18916
871.1	18875
871.23	19027
871.36	18966
871.489	19015
871.619	19038
871.749	18947
871.879	19008
872.008	19107
872.138	19061
872.267	19046
872.397	18905
872.526	18871
872.656	18973
872.785	18863
872.915	19038
873.044	19076
873.173	19072
873.303	19069
873.432	19171
873.561	19057
873.69	19072
873.819	19072
873.948	19168
874.077	19198
874.206	19027
874.335	19072
874.464	19308
874.593	19278
874.722	19381
874.851	19419
874.979	19354
875.108	19377
875.237	19331
875.365	19225
875.494	19403
875.623	19453
875.751	19301
875.88	19392
876.008	19487
876.136	19624
876.265	19632
876.393	19936
876.521	19830
876.65	19841
876.778	19666
876.906	19662
877.034	19647
877.162	19696
877.29	19635
877.418	19746
877.546	19674
877.674	19750
877.802	19685
877.93	19723
878.058	19662
878.185	19605
878.313	19723
878.441	19639
878.568	19499
878.696	19742
878.824	19738
878.951	19875
879.079	19890
879.206	19974
879.333	20005
879.461	19909
879.588	19913
879.715	20027
879.842	20100
879.97	19837
880.097	19670
880.224	19655
880.351	19689
880.478	19647
880.605	19510
880.732	19662
880.859	19822
880.986	19582
881.112	19708
881.239	19567
881.366	19411
881.493	19289
881.619	19278
881.746	19335
881.872	19202
881.999	19183
882.125	19129
882.252	19228
882.378	19126
882.505	19293
882.631	19164
882.757	18958
882.883	19110
883.01	18928
883.136	19008
883.262	18833
883.388	18798
883.514	19042
883.64	18958
883.766	18962
883.892	18814
884.018	18886
884.143	18859
884.269	19118
884.395	18764
884.52	18551
884.646	18608
884.772	18604
884.897	18623
885.023	18745
885.148	18719
885.274	18741
885.399	18604
885.524	18741
885.65	18703
885.775	18711
885.9	18658
886.025	18753
886.15	18703
886.275	18437
886.4	18574
886.525	18589
886.65	18502
886.775	18559
886.9	18673
887.025	18814
887.149	18536
887.274	18361
887.399	18475
887.523	18506
887.648	18365
887.773	18315
887.897	18426
888.021	18445
888.146	18369
888.27	18536
888.395	18479
888.519	18483
888.643	18361
888.767	18357
888.891	18346
889.015	18258
889.139	18224
889.263	18102
889.387	18311
889.511	18289
889.635	18350
889.759	18140
889.883	18148
890.006	18129
890.13	18243
890.254	18091
890.377	18011
890.501	17908
890.624	17912
890.748	18003
890.871	17863
890.995	17707
891.118	17726
891.241	17828
891.364	17843
891.488	17920
891.611	17840
891.734	17748
891.857	17874
891.98	17745
892.103	17923
892.226	17790
892.349	17794
892.471	17642
892.594	17710
892.717	17771
892.839	17722
892.962	17729
893.085	17813
893.207	17733
893.33	17680
893.452	17767
893.575	17805
893.697	17775
893.819	17817
893.941	17950
894.064	17897
894.186	17691
894.308	17695
894.43	17824
894.552	17824
894.674	17821
894.796	17707
894.918	17703
895.04	17687
895.161	17798
895.283	17752
895.405	17737
895.526	17775
895.648	17741
895.769	17828
895.891	17851
896.012	17851
896.134	17977
896.255	17821
896.376	17817
896.498	17931
896.619	17889
896.74	17798
896.861	17904
896.982	18091
897.103	18292
897.224	18110
897.345	18110
897.466	18068
897.587	18057
897.708	18209
897.828	18106
897.949	17866
898.07	17840
898.19	18026
898.311	18102
898.431	17927
898.552	18068
898.672	18159
898.792	18106
898.913	18007
899.033	17885
899.153	17798
899.273	17836
899.393	17836
899.513	17824
899.633	17817
899.753	17885
899.873	17695
899.993	17840
900.113	17786
900.232	17824
900.352	17817
900.472	17710
900.591	17676
900.711	17592
900.83	17623
900.95	17737
901.069	17741
901.189	17551
901.308	17284
901.427	17220
901.546	17345
901.665	17341
901.784	17288
901.904	17220
902.023	17109
902.141	16915
902.26	16881
902.379	16793
902.498	16733
902.617	16797
902.735	16828
902.854	16706
902.973	16736
903.091	16497
903.21	16424
903.328	16500
903.446	16382
903.565	16360
903.683	16363
903.801	16200
903.919	16306
904.038	16196
904.156	16192
904.274	16253
904.392	16010
904.51	16162
904.627	16154
904.745	16128
904.863	16105
904.981	15983
905.098	15675
905.216	15751
905.334	15778
905.451	15850
905.569	15831
905.686	15838
905.803	15694
905.921	15595
906.038	15625
906.155	15519
906.272	15496
906.389	15450
906.506	15283
906.623	15264
906.74	15260
906.857	15176
906.974	15264
907.091	15321
907.208	15405
907.324	15378
907.441	15260
907.557	15001
907.674	14994
907.79	14883
907.907	14918
908.023	15028
908.139	15013
908.256	14982
908.372	14906
908.488	14891
908.604	14769
908.72	14610
908.836	14731
908.952	14735
909.068	14807
909.184	14754
909.3	14712
909.415	14678
909.531	14689
909.647	14438
909.762	14461
909.878	14332
909.993	14454
910.108	14385
910.224	14366
910.339	14404
910.454	14183
910.57	14240
910.685	14134
910.8	14423
910.915	14389
911.03	14210
911.145	14103
911.259	14054
911.374	14126
911.489	13944
911.604	13887
911.718	13780
911.833	13830
911.947	13696
912.062	13578
912.176	13750
912.291	13803
912.405	13746
912.519	13890
912.633	13963
912.748	13852
912.862	13696
912.976	13689
913.09	13594
913.204	13540
913.318	13662
913.431	13704
913.545	13685
913.659	13708
913.772	13605
913.886	13514
914	13434
914.113	13613
914.226	13445
914.34	13521
914.453	13365
914.566	13544
914.68	13460
914.793	13381
914.906	13198
915.019	13209
915.132	13057
915.245	13129
915.358	13126
915.47	13164
915.583	13206
915.696	13187
915.809	13213
915.921	13190
916.034	13076
916.146	13088
916.259	12985
916.371	13110
916.483	13042
916.595	13122
916.708	13019
916.82	13012
916.932	12932
917.044	12973
917.156	12894
917.268	12760
917.38	12848
917.491	12814
917.603	12821
917.715	12993
917.826	12916
917.938	12814
918.049	12711
918.161	12935
918.272	12985
918.384	12867
918.495	12859
918.606	12791
918.717	12540
918.828	12658
918.939	12658
919.05	12574
919.161	12677
919.272	12384
919.383	12536
919.494	12650
919.604	12821
919.715	12719
919.826	12498
919.936	12616
920.047	12703
920.157	12703
920.267	12825
920.378	12650
920.488	12631
920.598	12738
920.708	12878
920.818	12821
920.928	12692
921.038	12924
921.148	12943
921.258	12547
921.368	12456
921.477	12403
921.587	12346
921.697	12228
921.806	12422
921.916	12273
922.025	12175
922.134	12072
922.244	12060
922.353	12076
922.462	11999
922.571	11882
922.68	11805
922.789	11653
922.898	11707
923.007	11680
923.116	11752
923.224	11737
923.333	11760
923.442	11535
923.55	11532
923.659	11608
923.767	11600
923.876	11516
923.984	11608
924.092	11505
924.201	11463
924.309	11467
924.417	11524
924.525	11360
924.633	11406
924.741	12254
924.849	11216
924.956	11414
925.064	11269
925.172	11181
925.279	11193
925.387	11269
925.494	11322
925.602	11311
925.709	11299
925.816	11147
925.924	11181
926.031	11254
926.138	11216
926.245	11170
926.352	11143
926.459	11284
926.566	11303
926.673	11170
926.779	11045
926.886	11113
926.993	10915
927.099	10831
927.206	10843
927.312	10847
927.419	10923
927.525	10782
927.631	10816
927.737	10824
927.843	10714
927.95	10596
928.056	10740
928.162	10698
928.267	10740
928.373	11372
928.479	10812
928.585	10531
928.69	10717
928.796	10691
928.901	10478
929.007	10436
929.112	10565
929.218	10550
929.323	10550
929.428	10432
929.533	10577
929.638	10409
929.743	10443
929.848	10474
929.953	10428
930.058	10394
930.163	10230
930.267	10196
930.372	10367
930.477	10128
930.581	10390
930.685	10211
930.79	10120
930.894	10116
930.998	10010
931.103	10173
931.207	9789
931.311	9751
931.415	9713
931.519	9549
931.623	9435
