Data from test_V78500241_2242.txt Node
Date: Fri Mar 25 14:49:19 CST 2022
User: usil
Spectrometer: V785-0024
Trigger mode: 0
Integration Time (sec): 4.000000E-1
Scans to average: 1
Nonlinearity correction enabled: false
Boxcar width: 0
Storing dark spectrum: false
XAxis mode: Wavelengths
Number of Pixels in Spectrum: 1024
>>>>>Begin Spectral Data<<<<<
801.071	22097
801.214	22112
801.356	21831
801.499	21808
801.641	21511
801.783	21477
801.926	21530
802.068	21580
802.211	21348
802.353	21306
802.496	21005
802.638	21138
802.78	20986
802.923	20872
803.065	20838
803.208	20963
803.35	20918
803.492	20899
803.635	20937
803.777	20880
803.919	20986
804.061	21237
804.204	20929
804.346	20807
804.488	20819
804.63	20716
804.773	20762
804.915	20746
805.057	20952
805.199	20727
805.341	20876
805.483	21005
805.626	20842
805.768	20849
805.91	20769
806.052	20804
806.194	20857
806.336	20804
806.478	20819
806.62	20727
806.762	20823
806.904	20990
807.046	21211
807.188	21184
807.33	21169
807.472	21135
807.614	20937
807.756	21051
807.898	20868
808.04	20914
808.182	20891
808.324	20910
808.465	21047
808.607	21104
808.749	21176
808.891	21359
809.033	21378
809.174	21218
809.316	21131
809.458	21230
809.6	21176
809.741	21207
809.883	21226
810.025	21424
810.166	21332
810.308	21336
810.45	21382
810.591	21252
810.733	21047
810.875	20933
811.016	20804
811.158	20861
811.299	21013
811.441	21081
811.582	21207
811.724	21058
811.865	21017
812.007	20883
812.148	20986
812.29	20944
812.431	21066
812.573	21241
812.714	21389
812.855	21420
812.997	21515
813.138	21603
813.279	21557
813.421	21500
813.562	21363
813.703	21203
813.845	21032
813.986	20845
814.127	20686
814.268	20598
814.41	20655
814.551	20434
814.692	20678
814.833	20511
814.974	20473
815.115	20442
815.256	20400
815.397	20309
815.539	20366
815.68	20240
815.821	20286
815.962	20305
816.103	20180
816.244	20107
816.385	19837
816.526	20031
816.666	19765
816.807	19647
816.948	19788
817.089	19837
817.23	19693
817.371	19639
817.512	19715
817.653	19712
817.793	19658
817.934	19632
818.075	19677
818.216	19609
818.356	19491
818.497	19388
818.638	19141
818.778	19369
818.919	19346
819.06	19118
819.2	19403
819.341	19525
819.481	19613
819.622	19552
819.762	19906
819.903	19856
820.043	19696
820.184	19655
820.324	19548
820.465	19734
820.605	19666
820.746	19708
820.886	19468
821.026	19510
821.167	19571
821.307	19594
821.447	19590
821.588	19487
821.728	19304
821.868	19175
822.008	18951
822.149	18924
822.289	19042
822.429	18700
822.569	18696
822.709	18585
822.849	18578
822.99	18635
823.13	18410
823.27	18464
823.41	18323
823.55	18216
823.69	18285
823.83	18308
823.97	18205
824.11	18038
824.25	18022
824.389	18064
824.529	18098
824.669	18026
824.809	18186
824.949	18254
825.089	18186
825.228	18114
825.368	17821
825.508	17912
825.648	17863
825.787	17908
825.927	17904
826.067	17874
826.206	17828
826.346	17874
826.485	17904
826.625	17802
826.765	17950
826.904	17866
827.044	17615
827.183	17668
827.323	17592
827.462	17589
827.601	17558
827.741	17520
827.88	17615
828.02	17532
828.159	17528
828.298	17554
828.437	17600
828.577	17501
828.716	17649
828.855	17554
828.994	17356
829.134	17280
829.273	17284
829.412	17315
829.551	17174
829.69	17356
829.829	17337
829.968	17376
830.107	17326
830.246	17299
830.385	17235
830.524	17155
830.663	17102
830.802	16995
830.941	16820
831.08	16881
831.219	16919
831.357	16976
831.496	17083
831.635	16885
831.774	16797
831.913	16850
832.051	16656
832.19	16706
832.329	16740
832.467	16569
832.606	16432
832.744	16702
832.883	16630
833.022	16565
833.16	16523
833.299	16653
833.437	16546
833.576	16683
833.714	16607
833.852	16603
833.991	16599
834.129	16668
834.267	16626
834.406	16596
834.544	16622
834.682	16672
834.821	16672
834.959	16793
835.097	16573
835.235	16618
835.373	16599
835.511	16706
835.65	16584
835.788	16531
835.926	16379
836.064	16344
836.202	16413
836.34	16512
836.478	16641
836.615	16531
836.753	16580
836.891	16607
837.029	16584
837.167	16470
837.305	16417
837.443	16451
837.58	16386
837.718	16489
837.856	16459
837.993	16287
838.131	16363
838.269	16322
838.406	16360
838.544	16276
838.681	16074
838.819	16021
838.956	15842
839.094	15922
839.231	15960
839.369	16036
839.506	16360
839.643	16143
839.781	15949
839.918	15842
840.055	15892
840.193	15930
840.33	15964
840.467	15861
840.604	15926
840.742	16135
840.879	15755
841.016	15755
841.153	15823
841.29	16082
841.427	16002
841.564	15960
841.701	15918
841.838	15930
841.975	15717
842.112	15850
842.249	15717
842.385	15648
842.522	15854
842.659	15766
842.796	15781
842.933	15667
843.069	15652
843.206	15584
843.343	15759
843.479	15701
843.616	15652
843.752	15412
843.889	15523
844.025	15595
844.162	15450
844.298	15595
844.435	15542
844.571	15515
844.708	15599
844.844	15488
844.98	15648
845.117	15629
845.253	15466
845.389	15443
845.525	15416
845.661	15363
845.798	15329
845.934	15321
846.07	15264
846.206	15184
846.342	15534
846.478	15264
846.614	15081
846.75	14975
846.886	14986
847.022	15157
847.158	15085
847.294	15085
847.429	15192
847.565	15005
847.701	15321
847.837	14750
847.972	14815
848.108	14891
848.244	14807
848.379	14758
848.515	14644
848.65	14655
848.786	14667
848.921	14686
849.057	14807
849.192	14746
849.328	14674
849.463	14648
849.598	14590
849.734	14537
849.869	14545
850.004	14454
850.14	14438
850.275	14408
850.41	14431
850.545	14488
850.68	14427
850.815	14461
850.95	14495
851.085	14583
851.22	14568
851.355	14438
851.49	14332
851.625	14278
851.76	14400
851.895	14237
852.03	14336
852.165	14336
852.299	14393
852.434	14476
852.569	14499
852.703	14511
852.838	14537
852.973	14590
853.107	14587
853.242	14480
853.376	14385
853.511	14195
853.645	14259
853.78	14423
853.914	14313
854.048	14252
854.183	14210
854.317	14389
854.451	14503
854.585	14278
854.72	14339
854.854	14313
854.988	14225
855.122	14221
855.256	14126
855.39	14271
855.524	14431
855.658	14377
855.792	14271
855.926	14298
856.06	14377
856.194	14400
856.327	14248
856.461	14267
856.595	14259
856.729	14214
856.862	14393
856.996	14336
857.13	14332
857.263	14370
857.397	14438
857.53	14240
857.664	14374
857.797	14343
857.931	14404
858.064	14355
858.197	14355
858.331	14298
858.464	14202
858.597	14271
858.731	14286
858.864	14282
858.997	14351
859.13	14294
859.263	14343
859.396	14377
859.529	14332
859.662	14355
859.795	14229
859.928	14328
860.061	14396
860.194	14488
860.327	14221
860.46	14248
860.592	14377
860.725	14381
860.858	14408
860.99	14336
861.123	14187
861.256	14275
861.388	14286
861.521	15009
861.653	14282
861.786	14142
861.918	14187
862.05	14210
862.183	14214
862.315	14324
862.447	14309
862.58	14214
862.712	14100
862.844	13951
862.976	14084
863.108	14065
863.24	14454
863.372	13967
863.504	14119
863.636	14012
863.768	14183
863.9	14092
864.032	14031
864.164	14016
864.296	14088
864.428	14153
864.559	14176
864.691	14126
864.823	14035
864.954	14191
865.086	14157
865.217	14005
865.349	14077
865.48	14111
865.612	13982
865.743	14195
865.875	14069
866.006	14126
866.137	14138
866.269	14031
866.4	13967
866.531	13993
866.662	14012
866.793	14008
866.924	14012
867.055	14050
867.186	14016
867.317	14012
867.448	13936
867.579	13879
867.71	13974
867.841	13963
867.972	14001
868.103	14103
868.233	14088
868.364	14100
868.495	14077
868.625	14301
868.756	14381
868.886	14233
869.017	14221
869.147	14374
869.278	14461
869.408	14332
869.539	14298
869.669	14442
869.799	14351
869.929	14370
870.06	14434
870.19	14648
870.32	14610
870.45	14587
870.58	14682
870.71	14815
870.84	14788
870.97	14674
871.1	14659
871.23	14944
871.36	14838
871.489	14830
871.619	14861
871.749	14929
871.879	14872
872.008	15036
872.138	14948
872.267	14876
872.397	14746
872.526	14701
872.656	14648
872.785	14769
872.915	15032
873.044	14975
873.173	14933
873.303	14929
873.432	15093
873.561	15024
873.69	14868
873.819	14937
873.948	14906
874.077	14921
874.206	14842
874.335	14937
874.464	15203
874.593	15211
874.722	15131
874.851	15218
874.979	15298
875.108	15393
875.237	15211
875.365	15279
875.494	15184
875.623	15382
875.751	15245
875.88	15340
876.008	15511
876.136	15439
876.265	15587
876.393	15724
876.521	15705
876.65	15747
876.778	15705
876.906	15599
877.034	15641
877.162	15644
877.29	15614
877.418	15667
877.546	15595
877.674	15709
877.802	15663
877.93	15614
878.058	15656
878.185	15606
878.313	15629
878.441	15690
878.568	15523
878.696	15545
878.824	15629
878.951	15686
879.079	15838
879.206	15975
879.333	15739
879.461	15800
879.588	15759
879.715	15831
879.842	15979
879.97	15728
880.097	15408
880.224	15523
880.351	15595
880.478	15416
880.605	15428
880.732	15519
880.859	15770
880.986	15656
881.112	15625
881.239	15359
881.366	15336
881.493	15310
881.619	15146
881.746	15256
881.872	15123
881.999	15180
882.125	15123
882.252	15268
882.378	15211
882.505	15313
882.631	15043
882.757	14918
882.883	15104
883.01	15077
883.136	14864
883.262	14823
883.388	14872
883.514	15032
883.64	15017
883.766	14902
883.892	14838
884.018	14785
884.143	15055
884.269	15070
884.395	14777
884.52	14670
884.646	14674
884.772	14651
884.897	14689
885.023	14735
885.148	14754
885.274	14956
885.399	14849
885.524	14750
885.65	14625
885.775	14720
885.9	14670
886.025	14880
886.15	14777
886.275	14651
886.4	14564
886.525	14693
886.65	14610
886.775	14564
886.9	14765
887.025	14925
887.149	14655
887.274	14587
887.399	14533
887.523	14526
887.648	14438
887.773	14415
887.897	14564
888.021	14530
888.146	14461
888.27	14617
888.395	14644
888.519	14583
888.643	14579
888.767	14590
888.891	14564
889.015	14362
889.139	14423
889.263	14396
889.387	14442
889.511	14594
889.635	14480
889.759	14309
889.883	14396
890.006	14404
890.13	14469
890.254	14355
890.377	14419
890.501	14149
890.624	14267
890.748	14336
890.871	14119
890.995	14153
891.118	14031
891.241	14073
891.364	14077
891.488	14259
891.611	14043
891.734	14081
891.857	14153
891.98	14115
892.103	14195
892.226	14065
892.349	14077
892.471	13955
892.594	14130
892.717	14153
892.839	14084
892.962	14115
893.085	14176
893.207	14187
893.33	13932
893.452	14024
893.575	14119
893.697	14054
893.819	14309
893.941	14206
894.064	14176
894.186	14084
894.308	14069
894.43	14313
894.552	14298
894.674	14233
894.796	14012
894.918	14153
895.04	14138
895.161	14309
895.283	14218
895.405	14069
895.526	14157
895.648	14286
895.769	14301
895.891	14259
896.012	14339
896.134	14294
896.255	14290
896.376	14263
896.498	14252
896.619	14336
896.74	14248
896.861	14290
896.982	14720
897.103	14842
897.224	14606
897.345	14533
897.466	14438
897.587	14526
897.708	14590
897.828	14598
897.949	14511
898.07	14332
898.19	14503
898.311	14648
898.431	14594
898.552	14682
898.672	14765
898.792	14743
898.913	14743
899.033	14530
899.153	14514
899.273	14461
899.393	14495
899.513	14450
899.633	14476
899.753	14522
899.873	14533
899.993	14594
900.113	14484
900.232	14556
900.352	14423
900.472	14408
900.591	14275
900.711	14309
900.83	14248
900.95	14492
901.069	14434
901.189	14275
901.308	14103
901.427	13997
901.546	14020
901.665	14062
901.784	13959
901.904	13818
902.023	13833
902.141	13632
902.26	13571
902.379	13655
902.498	13632
902.617	13567
902.735	13666
902.854	13662
902.973	13578
903.091	13282
903.21	13278
903.328	13324
903.446	13346
903.565	13110
903.683	13175
903.801	13061
903.919	13187
904.038	13099
904.156	12901
904.274	12989
904.392	13053
904.51	12935
904.627	12958
904.745	13038
904.863	12996
904.981	12776
905.098	12726
905.216	12646
905.334	12715
905.451	12738
905.569	12635
905.686	12726
905.803	12639
905.921	12467
906.038	12574
906.155	12475
906.272	12403
906.389	12460
906.506	12281
906.623	12216
906.74	12289
906.857	12117
906.974	12247
907.091	12315
907.208	12433
907.324	12327
907.441	12178
907.557	12114
907.674	11942
907.79	11863
907.907	12022
908.023	12041
908.139	12041
908.256	11984
908.372	11821
908.488	11885
908.604	11821
908.72	11729
908.836	11718
908.952	11794
909.068	11729
909.184	11912
909.3	11745
909.415	11805
909.531	11794
909.647	11581
909.762	11627
909.878	11520
909.993	11554
910.108	11516
910.224	11482
910.339	11482
910.454	11425
910.57	11341
910.685	11341
910.8	11672
910.915	11520
911.03	11444
911.145	11162
911.259	11223
911.374	11280
911.489	11166
911.604	11143
911.718	11003
911.833	10991
911.947	10869
912.062	10915
912.176	10896
912.291	11022
912.405	10976
912.519	11151
912.633	11178
912.748	11041
912.862	10908
912.976	10900
913.09	10824
913.204	10774
913.318	10904
913.431	10976
913.545	10949
913.659	10976
913.772	10797
913.886	10759
914	10736
914.113	10869
914.226	10862
914.34	10786
914.453	10702
914.566	10858
914.68	10729
914.793	10641
914.906	10546
915.019	10478
915.132	10405
915.245	10436
915.358	10523
915.47	10554
915.583	10470
915.696	10558
915.809	10675
915.921	10694
916.034	10390
916.146	10394
916.259	10367
916.371	10603
916.483	10386
916.595	10382
916.708	10451
916.82	10398
916.932	10363
917.044	10443
917.156	10344
917.268	10299
917.38	10344
917.491	10356
917.603	10337
917.715	10405
917.826	10360
917.938	10310
918.049	10185
918.161	10211
918.272	10379
918.384	10455
918.495	10386
918.606	10177
918.717	10169
918.828	10158
918.939	10227
919.05	10173
919.161	10131
919.272	9983
919.383	9983
919.494	10249
919.604	10428
919.715	10162
919.826	10147
919.936	10200
920.047	10341
920.157	10188
920.267	10390
920.378	10207
920.488	10287
920.598	10459
920.708	10599
920.818	10424
920.928	10440
921.038	10561
921.148	10554
921.258	10261
921.368	10166
921.477	10078
921.587	10036
921.697	9972
921.806	10090
921.916	9979
922.025	9774
922.134	9713
922.244	9762
922.353	9827
922.462	9648
922.571	9618
922.68	9473
922.789	9443
922.898	9507
923.007	9447
923.116	9523
923.224	9420
923.333	9485
923.442	9348
923.55	9416
923.659	9294
923.767	9435
923.876	9336
923.984	9443
924.092	9268
924.201	9329
924.309	9294
924.417	9332
924.525	9264
924.633	9325
924.741	10223
924.849	9074
924.956	9332
925.064	9123
925.172	9043
925.279	9051
925.387	9100
925.494	9093
925.602	9325
925.709	9256
925.816	9077
925.924	9108
926.031	9230
926.138	9100
926.245	9203
926.352	9127
926.459	9131
926.566	9199
926.673	9066
926.779	8952
926.886	8986
926.993	8887
927.099	8910
927.206	8861
927.312	8815
927.419	8941
927.525	8785
927.631	8902
927.737	8777
927.843	8777
927.95	8651
928.056	8674
928.162	8739
928.267	8880
928.373	9378
928.479	8807
928.585	8613
928.69	8712
928.796	8777
928.901	8655
929.007	8507
929.112	8663
929.218	8606
929.323	8579
929.428	8526
929.533	8701
929.638	8533
929.743	8564
929.848	8606
929.953	8526
930.058	8450
930.163	8339
930.267	8267
930.372	8465
930.477	8328
930.581	8571
930.685	8328
930.79	8252
930.894	8328
930.998	8271
931.103	8412
931.207	8100
931.311	7955
931.415	7936
931.519	7803
931.623	7761
