Data from test_V78500241_3603.txt Node
Date: Fri Mar 25 14:58:48 CST 2022
User: usil
Spectrometer: V785-0024
Trigger mode: 0
Integration Time (sec): 4.000000E-1
Scans to average: 1
Nonlinearity correction enabled: false
Boxcar width: 0
Storing dark spectrum: false
XAxis mode: Wavelengths
Number of Pixels in Spectrum: 1024
>>>>>Begin Spectral Data<<<<<
801.071	21922
801.214	21892
801.356	21428
801.499	21473
801.641	21481
801.783	21317
801.926	21218
802.068	21138
802.211	21138
802.353	21135
802.496	20838
802.638	20883
802.78	20636
802.923	20705
803.065	20636
803.208	20537
803.35	20636
803.492	20819
803.635	20648
803.777	20492
803.919	20670
804.061	20937
804.204	20708
804.346	20598
804.488	20492
804.63	20602
804.773	20461
804.915	20484
805.057	20579
805.199	20427
805.341	20651
805.483	20651
805.626	20587
805.768	20450
805.91	20484
806.052	20526
806.194	20415
806.336	20606
806.478	20419
806.62	20454
806.762	20488
806.904	20659
807.046	20921
807.188	20762
807.33	20853
807.472	20899
807.614	20788
807.756	20682
807.898	20552
808.04	20575
808.182	20503
808.324	20568
808.465	20682
808.607	20724
808.749	20910
808.891	20998
809.033	20990
809.174	20925
809.316	20804
809.458	20838
809.6	20788
809.741	20891
809.883	20864
810.025	21058
810.166	20952
810.308	20929
810.45	20830
810.591	20842
810.733	20689
810.875	20613
811.016	20537
811.158	20454
811.299	20697
811.441	20663
811.582	20716
811.724	20583
811.865	20541
812.007	20621
812.148	20617
812.29	20621
812.431	20823
812.573	21036
812.714	20963
812.855	21055
812.997	21264
813.138	21348
813.279	21184
813.421	21135
813.562	21032
813.703	20944
813.845	20781
813.986	20465
814.127	20332
814.268	20176
814.41	20278
814.551	20221
814.692	20180
814.833	20149
814.974	20088
815.115	20237
815.256	19974
815.397	20069
815.539	19883
815.68	19852
815.821	19864
815.962	19890
816.103	19959
816.244	19841
816.385	19647
816.526	19506
816.666	19491
816.807	19365
816.948	19365
817.089	19419
817.23	19350
817.371	19278
817.512	19289
817.653	19240
817.793	19331
817.934	19236
818.075	19301
818.216	19202
818.356	19168
818.497	19038
818.638	18867
818.778	18916
818.919	19061
819.06	19046
819.2	18981
819.341	19209
819.481	19148
819.622	19251
819.762	19438
819.903	19343
820.043	19270
820.184	19179
820.324	19308
820.465	19244
820.605	19190
820.746	19240
820.886	19141
821.026	19198
821.167	19213
821.307	19304
821.447	19129
821.588	19110
821.728	18977
821.868	18810
822.008	18745
822.149	18551
822.289	18639
822.429	18544
822.569	18311
822.709	18338
822.849	18155
822.99	18232
823.13	18205
823.27	18064
823.41	17980
823.55	17942
823.69	17969
823.83	17901
823.97	17927
824.11	17828
824.25	17726
824.389	17779
824.529	17729
824.669	17680
824.809	17920
824.949	17859
825.089	17851
825.228	17680
825.368	17570
825.508	17558
825.648	17512
825.787	17672
825.927	17722
826.067	17566
826.206	17585
826.346	17604
826.485	17551
826.625	17433
826.765	17665
826.904	17661
827.044	17337
827.183	17273
827.323	17242
827.462	17364
827.601	17265
827.741	17239
827.88	17242
828.02	17147
828.159	17231
828.298	17326
828.437	17235
828.577	17269
828.716	17326
828.855	17239
828.994	16999
829.134	17037
829.273	17064
829.412	17010
829.551	16843
829.69	16946
829.829	16972
829.968	17041
830.107	17045
830.246	17060
830.385	16938
830.524	16881
830.663	16843
830.802	16828
830.941	16691
831.08	16611
831.219	16713
831.357	16569
831.496	16835
831.635	16645
831.774	16542
831.913	16512
832.051	16394
832.19	16363
832.329	16443
832.467	16322
832.606	16348
832.744	16386
832.883	16291
833.022	16291
833.16	16287
833.299	16474
833.437	16272
833.576	16325
833.714	16352
833.852	16493
833.991	16451
834.129	16447
834.267	16424
834.406	16417
834.544	16489
834.682	16478
834.821	16428
834.959	16538
835.097	16386
835.235	16588
835.373	16470
835.511	16436
835.65	16360
835.788	16325
835.926	16215
836.064	16181
836.202	16166
836.34	16249
836.478	16325
836.615	16284
836.753	16344
836.891	16352
837.029	16363
837.167	16291
837.305	16238
837.443	16181
837.58	16204
837.718	16253
837.856	16329
837.993	16154
838.131	16177
838.269	16124
838.406	16139
838.544	16002
838.681	15846
838.819	15865
838.956	15629
839.094	15698
839.231	15789
839.369	15800
839.506	16128
839.643	16021
839.781	15812
839.918	15717
840.055	15873
840.193	15705
840.33	15804
840.467	15739
840.604	15770
840.742	15880
840.879	15660
841.016	15690
841.153	15633
841.29	15899
841.427	15743
841.564	15797
841.701	15732
841.838	15686
841.975	15549
842.112	15739
842.249	15534
842.385	15405
842.522	15618
842.659	15580
842.796	15504
842.933	15675
843.069	15542
843.206	15496
843.343	15606
843.479	15545
843.616	15557
843.752	15279
843.889	15389
844.025	15526
844.162	15310
844.298	15382
844.435	15279
844.571	15252
844.708	15313
844.844	15408
844.98	15561
845.117	15420
845.253	15256
845.389	15199
845.525	15230
845.661	15214
845.798	15138
845.934	15123
846.07	15138
846.206	15089
846.342	15245
846.478	15039
846.614	14925
846.75	14933
846.886	14895
847.022	14914
847.158	14914
847.294	14830
847.429	14864
847.565	14849
847.701	15138
847.837	14659
847.972	14541
848.108	14807
848.244	14663
848.379	14568
848.515	14484
848.65	14545
848.786	14431
848.921	14503
849.057	14613
849.192	14537
849.328	14545
849.463	14507
849.598	14438
849.734	14400
849.869	14237
850.004	14309
850.14	14362
850.275	14305
850.41	14309
850.545	14237
850.68	14214
850.815	14244
850.95	14187
851.085	14454
851.22	14396
851.355	14294
851.49	14244
851.625	14180
851.76	14267
851.895	14100
852.03	14164
852.165	14252
852.299	14320
852.434	14286
852.569	14298
852.703	14358
852.838	14358
852.973	14427
853.107	14488
853.242	14214
853.376	14142
853.511	14062
853.645	14100
853.78	14240
853.914	14065
854.048	14084
854.183	14103
854.317	14145
854.451	14256
854.585	14092
854.72	14092
854.854	14126
854.988	14065
855.122	14157
855.256	13959
855.39	14012
855.524	14229
855.658	14119
855.792	14100
855.926	14195
856.06	14119
856.194	14225
856.327	14119
856.461	14039
856.595	14008
856.729	14161
856.862	14161
856.996	14202
857.13	14172
857.263	14206
857.397	14358
857.53	14149
857.664	14229
857.797	14267
857.931	14187
858.064	14134
858.197	14240
858.331	14123
858.464	14088
858.597	14012
858.731	14062
858.864	14149
858.997	14077
859.13	14161
859.263	14145
859.396	14164
859.529	14031
859.662	14145
859.795	14142
859.928	14206
860.061	14309
860.194	14286
860.327	14176
860.46	14123
860.592	14267
860.725	14256
860.858	14301
860.99	14172
861.123	14088
861.256	14100
861.388	14096
861.521	14906
861.653	14100
861.786	13997
861.918	13993
862.05	13967
862.183	14161
862.315	14073
862.447	14168
862.58	14020
862.712	13890
862.844	13833
862.976	13932
863.108	13989
863.24	14275
863.372	13879
863.504	13871
863.636	13871
863.768	13963
863.9	13944
864.032	13917
864.164	13906
864.296	13932
864.428	13959
864.559	14092
864.691	14054
864.823	13974
864.954	14035
865.086	13852
865.217	13902
865.349	13906
865.48	13864
865.612	13955
865.743	14069
865.875	13906
866.006	13921
866.137	13974
866.269	13928
866.4	13871
866.531	13769
866.662	13849
866.793	13841
866.924	13807
867.055	13932
867.186	13947
867.317	13940
867.448	13830
867.579	13803
867.71	13753
867.841	13807
867.972	13928
868.103	13894
868.233	13940
868.364	14001
868.495	13928
868.625	14130
868.756	14199
868.886	14084
869.017	14096
869.147	14305
869.278	14240
869.408	14130
869.539	14081
869.669	14084
869.799	14157
869.929	14309
870.06	14202
870.19	14431
870.32	14469
870.45	14446
870.58	14575
870.71	14560
870.84	14663
870.97	14541
871.1	14617
871.23	14689
871.36	14705
871.489	14587
871.619	14663
871.749	14686
871.879	14823
872.008	14773
872.138	14823
872.267	14807
872.397	14556
872.526	14533
872.656	14518
872.785	14678
872.915	14765
873.044	14891
873.173	14807
873.303	14811
873.432	14819
873.561	14895
873.69	14716
873.819	14739
873.948	14857
874.077	14811
874.206	14735
874.335	14925
874.464	14960
874.593	15085
874.722	15089
874.851	15157
874.979	15074
875.108	15165
875.237	14975
875.365	15039
875.494	15051
875.623	15188
875.751	15070
875.88	15127
876.008	15218
876.136	15321
876.265	15534
876.393	15720
876.521	15644
876.65	15580
876.778	15439
876.906	15519
877.034	15443
877.162	15443
877.29	15469
877.418	15492
877.546	15534
877.674	15576
877.802	15450
877.93	15519
878.058	15447
878.185	15374
878.313	15477
878.441	15576
878.568	15454
878.696	15420
878.824	15614
878.951	15477
879.079	15774
879.206	15846
879.333	15652
879.461	15580
879.588	15561
879.715	15686
879.842	15732
879.97	15622
880.097	15370
880.224	15313
880.351	15408
880.478	15416
880.605	15340
880.732	15431
880.859	15572
880.986	15450
881.112	15386
881.239	15275
881.366	15169
881.493	15093
881.619	15024
881.746	14971
881.872	15051
881.999	14994
882.125	15020
882.252	15066
882.378	15108
882.505	15192
882.631	14937
882.757	14864
882.883	14861
883.01	14910
883.136	14754
883.262	14796
883.388	14712
883.514	14948
883.64	14880
883.766	14845
883.892	14682
884.018	14648
884.143	14750
884.269	14929
884.395	14720
884.52	14511
884.646	14533
884.772	14484
884.897	14431
885.023	14632
885.148	14686
885.274	14769
885.399	14568
885.524	14602
885.65	14610
885.775	14575
885.9	14541
886.025	14731
886.15	14621
886.275	14629
886.4	14522
886.525	14442
886.65	14423
886.775	14541
886.9	14762
887.025	14788
887.149	14598
887.274	14419
887.399	14343
887.523	14343
887.648	14328
887.773	14320
887.897	14465
888.021	14461
888.146	14343
888.27	14488
888.395	14537
888.519	14583
888.643	14488
888.767	14358
888.891	14252
889.015	14214
889.139	14256
889.263	14244
889.387	14438
889.511	14480
889.635	14347
889.759	14233
889.883	14229
890.006	14343
890.13	14419
890.254	14180
890.377	14183
890.501	14062
890.624	13997
890.748	14145
890.871	14046
890.995	13871
891.118	13826
891.241	13959
891.364	13871
891.488	14073
891.611	13940
891.734	13898
891.857	14005
891.98	14008
892.103	14100
892.226	14069
892.349	13928
892.471	13868
892.594	13849
892.717	13970
892.839	13894
892.962	13974
893.085	14020
893.207	13974
893.33	13860
893.452	13879
893.575	13906
893.697	13898
893.819	14164
893.941	14259
894.064	14058
894.186	13947
894.308	13887
894.43	14172
894.552	14214
894.674	14103
894.796	13967
894.918	13951
895.04	14027
895.161	14058
895.283	14096
895.405	14062
895.526	14081
895.648	14119
895.769	14092
895.891	14183
896.012	14176
896.134	14180
896.255	14225
896.376	14092
896.498	14218
896.619	14107
896.74	14195
896.861	14202
896.982	14503
897.103	14606
897.224	14507
897.345	14301
897.466	14309
897.587	14389
897.708	14552
897.828	14480
897.949	14396
898.07	14263
898.19	14465
898.311	14575
898.431	14377
898.552	14465
898.672	14629
898.792	14693
898.913	14568
899.033	14393
899.153	14355
899.273	14229
899.393	14343
899.513	14286
899.633	14385
899.753	14358
899.873	14324
899.993	14301
900.113	14259
900.232	14343
900.352	14278
900.472	14256
900.591	14214
900.711	14336
900.83	14115
900.95	14351
901.069	14290
901.189	14172
901.308	13871
901.427	13913
901.546	13841
901.665	13845
901.784	13868
901.904	13761
902.023	13715
902.141	13468
902.26	13426
902.379	13563
902.498	13453
902.617	13369
902.735	13422
902.854	13559
902.973	13350
903.091	13145
903.21	13091
903.328	13217
903.446	13038
903.565	13019
903.683	13107
903.801	12966
903.919	13012
904.038	12882
904.156	12821
904.274	12993
904.392	12783
904.51	12798
904.627	12833
904.745	12848
904.863	12886
904.981	12677
905.098	12597
905.216	12528
905.334	12475
905.451	12525
905.569	12498
905.686	12582
905.803	12483
905.921	12365
906.038	12486
906.155	12422
906.272	12281
906.389	12270
906.506	12152
906.623	12136
906.74	12121
906.857	11999
906.974	11996
907.091	12114
907.208	12224
907.324	12133
907.441	12060
907.557	11988
907.674	11863
907.79	11836
907.907	11851
908.023	11889
908.139	11961
908.256	11767
908.372	11923
908.488	11783
908.604	11748
908.72	11577
908.836	11627
908.952	11554
909.068	11615
909.184	11764
909.3	11710
909.415	11672
909.531	11619
909.647	11474
909.762	11376
909.878	11421
909.993	11501
910.108	11337
910.224	11406
910.339	11436
910.454	11318
910.57	11227
910.685	11140
910.8	11414
910.915	11444
911.03	11299
911.145	11086
911.259	11083
911.374	11242
911.489	11052
911.604	10972
911.718	10904
911.833	10968
911.947	10759
912.062	10725
912.176	10835
912.291	10805
912.405	10820
912.519	11124
912.633	11090
912.748	10961
912.862	10885
912.976	10809
913.09	10698
913.204	10744
913.318	10736
913.431	10824
913.545	10889
913.659	10873
913.772	10706
913.886	10717
914	10660
914.113	10725
914.226	10744
914.34	10706
914.453	10599
914.566	10763
914.68	10645
914.793	10542
914.906	10363
915.019	10379
915.132	10268
915.245	10329
915.358	10382
915.47	10413
915.583	10432
915.696	10443
915.809	10531
915.921	10550
916.034	10379
916.146	10344
916.259	10314
916.371	10424
916.483	10352
916.595	10322
916.708	10261
916.82	10295
916.932	10341
917.044	10295
917.156	10318
917.268	10238
917.38	10196
917.491	10196
917.603	10219
917.715	10265
917.826	10325
917.938	10234
918.049	10093
918.161	10200
918.272	10394
918.384	10379
918.495	10352
918.606	10128
918.717	10063
918.828	10120
918.939	10067
919.05	10135
919.161	10048
919.272	9941
919.383	9945
919.494	10097
919.604	10284
919.715	10086
919.826	9994
919.936	10090
920.047	10177
920.157	10154
920.267	10379
920.378	10257
920.488	10032
920.598	10348
920.708	10493
920.818	10207
920.928	10417
921.038	10478
921.148	10451
921.258	10154
921.368	10128
921.477	10017
921.587	9857
921.697	9838
921.806	10010
921.916	9827
922.025	9675
922.134	9709
922.244	9504
922.353	9736
922.462	9595
922.571	9534
922.68	9408
922.789	9291
922.898	9393
923.007	9329
923.116	9359
923.224	9382
923.333	9382
923.442	9230
923.55	9165
923.659	9287
923.767	9249
923.876	9138
923.984	9340
924.092	9180
924.201	9237
924.309	9241
924.417	9222
924.525	9157
924.633	9226
924.741	10074
924.849	8967
924.956	9142
925.064	8998
925.172	8941
925.279	9005
925.387	8994
925.494	9024
925.602	9169
925.709	9089
925.816	8914
925.924	9024
926.031	9097
926.138	9028
926.245	9051
926.352	8933
926.459	9097
926.566	9127
926.673	9032
926.779	8872
926.886	8868
926.993	8739
927.099	8727
927.206	8769
927.312	8610
927.419	8857
927.525	8792
927.631	8781
927.737	8689
927.843	8716
927.95	8503
928.056	8579
928.162	8625
928.267	8701
928.373	9131
928.479	8746
928.585	8575
928.69	8632
928.796	8727
928.901	8629
929.007	8442
929.112	8518
929.218	8537
929.323	8484
929.428	8526
929.533	8556
929.638	8400
929.743	8465
929.848	8503
929.953	8431
930.058	8381
930.163	8233
930.267	8191
930.372	8423
930.477	8221
930.581	8495
930.685	8263
930.79	8161
930.894	8206
930.998	8195
931.103	8320
931.207	8005
931.311	7978
931.415	7852
931.519	7693
931.623	7719
