Data from test_V78500241_201.txt Node
Date: Fri Mar 25 14:35:07 CST 2022
User: usil
Spectrometer: V785-0024
Trigger mode: 0
Integration Time (sec): 4.000000E-1
Scans to average: 1
Nonlinearity correction enabled: false
Boxcar width: 0
Storing dark spectrum: false
XAxis mode: Wavelengths
Number of Pixels in Spectrum: 1024
>>>>>Begin Spectral Data<<<<<
801.071	28116
801.214	28051
801.356	27846
801.499	27762
801.641	27534
801.783	27580
801.926	27359
802.068	27427
802.211	27268
802.353	27367
802.496	27207
802.638	27096
802.78	27112
802.923	26929
803.065	26979
803.208	27001
803.35	27176
803.492	27001
803.635	27112
803.777	27203
803.919	27138
804.061	27412
804.204	27112
804.346	27157
804.488	26979
804.63	27062
804.773	26887
804.915	27017
805.057	27093
805.199	27005
805.341	27146
805.483	27230
805.626	27165
805.768	27051
805.91	27100
806.052	27123
806.194	27096
806.336	27272
806.478	27108
806.62	27108
806.762	27317
806.904	27283
807.046	27606
807.188	27545
807.33	27488
807.472	27629
807.614	27545
807.756	27515
807.898	27603
808.04	27557
808.182	27507
808.324	27789
808.465	27736
808.607	28074
808.749	28314
808.891	28443
809.033	28535
809.174	28394
809.316	28295
809.458	28215
809.6	27968
809.741	27911
809.883	28169
810.025	27876
810.166	27907
810.308	27827
810.45	27899
810.591	27865
810.733	27633
810.875	27496
811.016	27469
811.158	27348
811.299	27534
811.441	27530
811.582	27526
811.724	27553
811.865	27313
812.007	27553
812.148	27496
812.29	27568
812.431	27530
812.573	27880
812.714	27850
812.855	27994
812.997	27975
813.138	28204
813.279	28162
813.421	27968
813.562	27914
813.703	27816
813.845	27557
813.986	27275
814.127	27226
814.268	27123
814.41	27024
814.551	26982
814.692	26994
814.833	26982
814.974	26731
815.115	27077
815.256	26754
815.397	26849
815.539	26876
815.68	26686
815.821	26724
815.962	26594
816.103	26686
816.244	26682
816.385	26492
816.526	26446
816.666	26233
816.807	26103
816.948	26233
817.089	26183
817.23	26126
817.371	26130
817.512	26069
817.653	26084
817.793	26233
817.934	26043
818.075	26149
818.216	26077
818.356	26145
818.497	25936
818.638	25826
818.778	25894
818.919	25830
819.06	25879
819.2	25898
819.341	25883
819.481	25944
819.622	26218
819.762	26332
819.903	26180
820.043	26062
820.184	26157
820.324	26058
820.465	25974
820.605	26088
820.746	25906
820.886	25864
821.026	25970
821.167	26008
821.307	26240
821.447	25913
821.588	25925
821.728	25666
821.868	25601
822.008	25472
822.149	25438
822.289	25377
822.429	25187
822.569	25027
822.709	25072
822.849	24829
822.99	24844
823.13	24810
823.27	24798
823.41	24631
823.55	24661
823.69	24741
823.83	24677
823.97	24582
824.11	24384
824.25	24608
824.389	24437
824.529	24448
824.669	24369
824.809	24452
824.949	24441
825.089	24505
825.228	24467
825.368	24281
825.508	24273
825.648	24220
825.787	24262
825.927	24334
826.067	24201
826.206	24266
826.346	24327
826.485	24281
826.625	24273
826.765	24311
826.904	24361
827.044	24064
827.183	24079
827.323	23863
827.462	24079
827.601	23946
827.741	23908
827.88	23969
828.02	23726
828.159	23870
828.298	23870
828.437	23882
828.577	23745
828.716	23927
828.855	23798
828.994	23623
829.134	23634
829.273	23493
829.412	23455
829.551	23478
829.69	23531
829.829	23528
829.968	23554
830.107	23661
830.246	23497
830.385	23433
830.524	23467
830.663	23334
830.802	23208
830.941	23124
831.08	23128
831.219	23143
831.357	23151
831.496	23349
831.635	23086
831.774	23090
831.913	22896
832.051	22953
832.19	22908
832.329	22843
832.467	22862
832.606	22797
832.744	22763
832.883	22725
833.022	22725
833.16	22820
833.299	22862
833.437	22736
833.576	22748
833.714	22854
833.852	22854
833.991	22873
834.129	22748
834.267	22957
834.406	22820
834.544	22835
834.682	22820
834.821	22759
834.959	23018
835.097	22721
835.235	22710
835.373	22641
835.511	22698
835.65	22649
835.788	22710
835.926	22409
836.064	22360
836.202	22489
836.34	22634
836.478	22752
836.615	22500
836.753	22466
836.891	22584
837.029	22584
837.167	22459
837.305	22611
837.443	22390
837.58	22371
837.718	22462
837.856	22367
837.993	22268
838.131	22485
838.269	22238
838.406	22246
838.544	22318
838.681	22044
838.819	22013
838.956	21774
839.094	21861
839.231	21812
839.369	21865
839.506	22295
839.643	22120
839.781	21778
839.918	21739
840.055	21732
840.193	21854
840.33	21785
840.467	21800
840.604	21770
840.742	21934
840.879	21660
841.016	21720
841.153	21694
841.29	21705
841.427	21656
841.564	21728
841.701	21732
841.838	21576
841.975	21610
842.112	21557
842.249	21447
842.385	21477
842.522	21557
842.659	21526
842.796	21435
842.933	21496
843.069	21389
843.206	21435
843.343	21393
843.479	21469
843.616	21428
843.752	21211
843.889	21165
844.025	21344
844.162	21252
844.298	21218
844.435	21207
844.571	21150
844.708	21119
844.844	21325
844.98	21325
845.117	21351
845.253	21214
845.389	21260
845.525	21344
845.661	21534
845.798	21823
845.934	21903
846.07	21922
846.206	21930
846.342	21899
846.478	21431
846.614	21169
846.75	20830
846.886	20735
847.022	20823
847.158	20800
847.294	20682
847.429	20602
847.565	20575
847.701	20826
847.837	20347
847.972	20286
848.108	20454
848.244	20446
848.379	20183
848.515	20229
848.65	20180
848.786	20153
848.921	20210
849.057	20244
849.192	20305
849.328	20229
849.463	20119
849.598	20191
849.734	20001
849.869	19963
850.004	20005
850.14	19845
850.275	19868
850.41	19826
850.545	19898
850.68	19951
850.815	19883
850.95	19955
851.085	19963
851.22	19902
851.355	19940
851.49	19738
851.625	19795
851.76	19868
851.895	19731
852.03	19750
852.165	19772
852.299	19955
852.434	20020
852.569	19841
852.703	19879
852.838	19826
852.973	20062
853.107	20043
853.242	19894
853.376	19727
853.511	19620
853.645	19666
853.78	19860
853.914	19715
854.048	19658
854.183	19556
854.317	19689
854.451	19845
854.585	19731
854.72	19655
854.854	19719
854.988	19521
855.122	19670
855.256	19559
855.39	19849
855.524	19715
855.658	19776
855.792	19658
855.926	19757
856.06	19681
856.194	19811
856.327	19780
856.461	19643
856.595	19647
856.729	19738
856.862	19868
856.996	19689
857.13	19693
857.263	19681
857.397	19822
857.53	19689
857.664	19685
857.797	19685
857.931	19719
858.064	19681
858.197	19712
858.331	19556
858.464	19594
858.597	19392
858.731	19613
858.864	19514
858.997	19628
859.13	19666
859.263	19594
859.396	19742
859.529	19540
859.662	19624
859.795	19647
859.928	19525
860.061	19750
860.194	19750
860.327	19639
860.46	19597
860.592	19795
860.725	19769
860.858	19791
860.99	19613
861.123	19575
861.256	19514
861.388	19537
861.521	20145
861.653	19449
861.786	19396
861.918	19552
862.05	19537
862.183	19658
862.315	19552
862.447	19708
862.58	19605
862.712	19472
862.844	19365
862.976	19426
863.108	19384
863.24	19776
863.372	19251
863.504	19221
863.636	19358
863.768	19259
863.9	19308
864.032	19213
864.164	19327
864.296	19278
864.428	19346
864.559	19373
864.691	19392
864.823	19320
864.954	19377
865.086	19354
865.217	19202
865.349	19141
865.48	19129
865.612	19270
865.743	19346
865.875	19228
866.006	19335
866.137	19278
866.269	19202
866.4	19251
866.531	19255
866.662	19133
866.793	19247
866.924	19099
867.055	19202
867.186	19160
867.317	19065
867.448	19088
867.579	19061
867.71	19194
867.841	19046
867.972	19137
868.103	19107
868.233	19141
868.364	19240
868.495	19190
868.625	19400
868.756	19499
868.886	19236
869.017	19362
869.147	19419
869.278	19651
869.408	19453
869.539	19422
869.669	19616
869.799	19430
869.929	19559
870.06	19590
870.19	19723
870.32	19544
870.45	19662
870.58	19750
870.71	19921
870.84	19887
870.97	19818
871.1	19921
871.23	19906
871.36	19993
871.489	19879
871.619	19913
871.749	19875
871.879	19902
872.008	20240
872.138	19887
872.267	20020
872.397	19860
872.526	19814
872.656	19727
872.785	19788
872.915	20001
873.044	20039
873.173	19993
873.303	20039
873.432	20157
873.561	20161
873.69	20153
873.819	19978
873.948	20031
874.077	19993
874.206	20161
874.335	20008
874.464	20195
874.593	20339
874.722	20206
874.851	20313
874.979	20271
875.108	20370
875.237	20259
875.365	20282
875.494	20290
875.623	20221
875.751	20240
875.88	20278
876.008	20374
876.136	20514
876.265	20689
876.393	20731
876.521	20777
876.65	20739
876.778	20708
876.906	20522
877.034	20743
877.162	20648
877.29	20682
877.418	20727
877.546	20712
877.674	20731
877.802	20609
877.93	20731
878.058	20579
878.185	20594
878.313	20762
878.441	20796
878.568	20629
878.696	20651
878.824	20720
878.951	20933
879.079	21009
879.206	21188
879.333	21195
879.461	21176
879.588	21332
879.715	21374
879.842	21435
879.97	21207
880.097	20796
880.224	20830
880.351	20830
880.478	20621
880.605	20530
880.732	20667
880.859	20906
880.986	20644
881.112	20842
881.239	20507
881.366	20317
881.493	20393
881.619	20195
881.746	20339
881.872	20252
881.999	20145
882.125	20142
882.252	20183
882.378	20214
882.505	20370
882.631	20195
882.757	19970
882.883	20149
883.01	19970
883.136	19967
883.262	19833
883.388	19887
883.514	19894
883.64	20149
883.766	19955
883.892	19734
884.018	19837
884.143	20027
884.269	19997
884.395	19681
884.52	19590
884.646	19731
884.772	19662
884.897	19582
885.023	19753
885.148	19655
885.274	19715
885.399	19746
885.524	19635
885.65	19556
885.775	19643
885.9	19548
886.025	19696
886.15	19620
886.275	19567
886.4	19502
886.525	19468
886.65	19403
886.775	19487
886.9	19605
887.025	19662
887.149	19438
887.274	19396
887.399	19308
887.523	19266
887.648	19350
887.773	19282
887.897	19415
888.021	19346
888.146	19263
888.27	19278
888.395	19411
888.519	19415
888.643	19377
888.767	19312
888.891	19183
889.015	19084
889.139	19137
889.263	19114
889.387	19187
889.511	19247
889.635	19198
889.759	19046
889.883	19023
890.006	19133
890.13	19065
890.254	19057
890.377	19053
890.501	18719
890.624	18833
890.748	18913
890.871	18722
890.995	18700
891.118	18677
891.241	18745
891.364	18608
891.488	18829
891.611	18578
891.734	18749
891.857	18650
891.98	18681
892.103	18734
892.226	18795
892.349	18757
892.471	18388
892.594	18635
892.717	18719
892.839	18551
892.962	18578
893.085	18772
893.207	18593
893.33	18517
893.452	18601
893.575	18608
893.697	18612
893.819	18741
893.941	18810
894.064	18779
894.186	18578
894.308	18570
894.43	18722
894.552	18688
894.674	18582
894.796	18566
894.918	18639
895.04	18566
895.161	18703
895.283	18711
895.405	18540
895.526	18593
895.648	18650
895.769	18661
895.891	18601
896.012	18684
896.134	18692
896.255	18677
896.376	18601
896.498	18665
896.619	18730
896.74	18661
896.861	18787
896.982	18989
897.103	19156
897.224	18966
897.345	18791
897.466	18905
897.587	18844
897.708	18981
897.828	18932
897.949	18814
898.07	18715
898.19	18745
898.311	19019
898.431	18833
898.552	18951
898.672	18897
898.792	19015
898.913	18932
899.033	18791
899.153	18719
899.273	18570
899.393	18578
899.513	18631
899.633	18673
899.753	18681
899.873	18570
899.993	18738
900.113	18544
900.232	18612
900.352	18673
900.472	18483
900.591	18445
900.711	18585
900.83	18509
900.95	18623
901.069	18582
901.189	18361
901.308	18114
901.427	18171
901.546	18133
901.665	18155
901.784	18087
901.904	17878
902.023	17939
902.141	17733
902.26	17646
902.379	17657
902.498	17615
902.617	17524
902.735	17573
902.854	17585
902.973	17581
903.091	17227
903.21	17143
903.328	17212
903.446	17140
903.565	17109
903.683	17117
903.801	16984
903.919	17052
904.038	16999
904.156	16896
904.274	17037
904.392	16801
904.51	16831
904.627	16729
904.745	16911
904.863	16885
904.981	16736
905.098	16493
905.216	16413
905.334	16436
905.451	16538
905.569	16390
905.686	16421
905.803	16417
905.921	16284
906.038	16276
906.155	16325
906.272	16124
906.389	16139
906.506	16032
906.623	15941
906.74	16006
906.857	15907
906.974	15861
907.091	16048
907.208	16143
907.324	16105
907.441	15945
907.557	15690
907.674	15694
907.79	15686
907.907	15694
908.023	15778
908.139	15698
908.256	15610
908.372	15625
908.488	15488
908.604	15439
908.72	15298
908.836	15340
908.952	15389
909.068	15363
909.184	15458
909.3	15401
909.415	15355
909.531	15283
909.647	15150
909.762	15058
909.878	15043
909.993	15077
910.108	15085
910.224	15032
910.339	14994
910.454	14849
910.57	14982
910.685	14857
910.8	15104
910.915	15055
911.03	14910
911.145	14731
911.259	14674
911.374	14758
911.489	14613
911.604	14640
911.718	14415
911.833	14408
911.947	14240
912.062	14240
912.176	14427
912.291	14415
912.405	14328
912.519	14495
912.633	14560
912.748	14488
912.862	14347
912.976	14180
913.09	14263
913.204	14191
913.318	14240
913.431	14320
913.545	14313
913.659	14374
913.772	14229
913.886	14107
914	14035
914.113	14206
914.226	14298
914.34	14195
914.453	13963
914.566	14054
914.68	13989
914.793	13936
914.906	13757
915.019	13647
915.132	13712
915.245	13791
915.358	13746
915.47	13700
915.583	13780
915.696	13788
915.809	13791
915.921	13913
916.034	13666
916.146	13601
916.259	13628
916.371	13769
916.483	13624
916.595	13556
916.708	13552
916.82	13609
916.932	13571
917.044	13594
917.156	13483
917.268	13514
917.38	13495
917.491	13434
917.603	13438
917.715	13529
917.826	13476
917.938	13278
918.049	13308
918.161	13403
918.272	13487
918.384	13487
918.495	13365
918.606	13293
918.717	13137
918.828	13217
918.939	13285
919.05	13213
919.161	13183
919.272	12935
919.383	12981
919.494	13213
919.604	13434
919.715	13171
919.826	13076
919.936	13171
920.047	13297
920.157	13145
920.267	13396
920.378	13118
920.488	13152
920.598	13365
920.708	13438
920.818	13324
920.928	13282
921.038	13468
921.148	13453
921.258	13179
921.368	12916
921.477	12989
921.587	12905
921.697	12772
921.806	12886
921.916	12738
922.025	12597
922.134	12601
922.244	12479
922.353	12601
922.462	12342
922.571	12467
922.68	12277
922.789	12266
922.898	12254
923.007	12201
923.116	12220
923.224	12292
923.333	12209
923.442	12095
923.55	12011
923.659	12034
923.767	12136
923.876	12060
923.984	12098
924.092	11931
924.201	11973
924.309	12019
924.417	12022
924.525	11988
924.633	11878
924.741	12837
924.849	11775
924.956	11851
925.064	11794
925.172	11688
925.279	11775
925.387	11741
925.494	11737
925.602	11840
925.709	11764
925.816	11615
925.924	11627
926.031	11764
926.138	11775
926.245	11707
926.352	11497
926.459	11722
926.566	11786
926.673	11627
926.779	11585
926.886	11414
926.993	11368
927.099	11277
927.206	11292
927.312	11197
927.419	11311
927.525	11273
927.631	11337
927.737	11201
927.843	11231
927.95	11018
928.056	11201
928.162	11178
928.267	11227
928.373	11722
928.479	11223
928.585	11086
928.69	11124
928.796	11227
928.901	10976
929.007	10896
929.112	11041
929.218	11014
929.323	10923
929.428	10946
929.533	11041
929.638	10873
929.743	10824
929.848	10885
929.953	10881
930.058	10790
930.163	10558
930.267	10660
930.372	10706
930.477	10565
930.581	10839
930.685	10580
930.79	10481
930.894	10565
930.998	10584
931.103	10554
931.207	10249
931.311	10238
931.415	10093
931.519	9953
931.623	9945
