Data from test_V78500241_634.txt Node
Date: Fri Mar 25 14:38:07 CST 2022
User: usil
Spectrometer: V785-0024
Trigger mode: 0
Integration Time (sec): 4.000000E-1
Scans to average: 1
Nonlinearity correction enabled: false
Boxcar width: 0
Storing dark spectrum: false
XAxis mode: Wavelengths
Number of Pixels in Spectrum: 1024
>>>>>Begin Spectral Data<<<<<
801.071	27922
801.214	27732
801.356	27500
801.499	27488
801.641	27367
801.783	27317
801.926	27302
802.068	27218
802.211	27009
802.353	26967
802.496	26716
802.638	26830
802.78	26750
802.923	26720
803.065	26735
803.208	26689
803.35	26731
803.492	26849
803.635	26940
803.777	26735
803.919	27028
804.061	27241
804.204	26952
804.346	26906
804.488	26819
804.63	27028
804.773	26853
804.915	27077
805.057	27116
805.199	27176
805.341	27272
805.483	27439
805.626	27500
805.768	27450
805.91	27416
806.052	27500
806.194	27572
806.336	27907
806.478	27884
806.62	27987
806.762	28413
806.904	28634
807.046	29269
807.188	29455
807.33	29760
807.472	30209
807.614	30764
807.756	31343
807.898	32259
808.04	33610
808.182	35235
808.324	37297
808.465	39462
808.607	42159
808.749	44674
808.891	46051
809.033	46257
809.174	44838
809.316	42456
809.458	39766
809.6	37034
809.741	34698
809.883	33100
810.025	31989
810.166	31187
810.308	30483
810.45	29904
810.591	29372
810.733	29067
810.875	28744
811.016	28451
811.158	28090
811.299	28150
811.441	28143
811.582	28143
811.724	27846
811.865	27747
812.007	27534
812.148	27618
812.29	27580
812.431	27743
812.573	27759
812.714	27736
812.855	27857
812.997	27987
813.138	27892
813.279	27838
813.421	27713
813.562	27667
813.703	27526
813.845	27313
813.986	26899
814.127	26826
814.268	26617
814.41	26636
814.551	26682
814.692	26651
814.833	26530
814.974	26484
815.115	26457
815.256	26324
815.397	26278
815.539	26271
815.68	26225
815.821	26103
815.962	26199
816.103	26058
816.244	25921
816.385	25674
816.526	25913
816.666	25571
816.807	25434
816.948	25449
817.089	25643
817.23	25365
817.371	25339
817.512	25514
817.653	25282
817.793	25285
817.934	25274
818.075	25449
818.216	25384
818.356	25236
818.497	25297
818.638	25057
818.778	25034
818.919	25114
819.06	25141
819.2	25110
819.341	25308
819.481	25244
819.622	25289
819.762	25605
819.903	25381
820.043	25236
820.184	25308
820.324	25225
820.465	25282
820.605	25236
820.746	25152
820.886	25103
821.026	25126
821.167	25145
821.307	25251
821.447	25164
821.588	24932
821.728	24757
821.868	24688
822.008	24551
822.149	24502
822.289	24460
822.429	24228
822.569	24155
822.709	24186
822.849	23882
822.99	24026
823.13	23920
823.27	23809
823.41	23824
823.55	23680
823.69	23691
823.83	23767
823.97	23630
824.11	23539
824.25	23444
824.389	23444
824.529	23627
824.669	23433
824.809	23703
824.949	23558
825.089	23611
825.228	23429
825.368	23307
825.508	23292
825.648	23360
825.787	23356
825.927	23284
826.067	23193
826.206	23200
826.346	23345
826.485	23288
826.625	23326
826.765	23414
826.904	23265
827.044	22995
827.183	22919
827.323	23018
827.462	22919
827.601	22942
827.741	22923
827.88	22927
828.02	22740
828.159	22847
828.298	22957
828.437	22900
828.577	22831
828.716	22968
828.855	22869
828.994	22569
829.134	22535
829.273	22550
829.412	22561
829.551	22356
829.69	22459
829.829	22538
829.968	22626
830.107	22615
830.246	22519
830.385	22466
830.524	22440
830.663	22409
830.802	22242
830.941	22109
831.08	22040
831.219	22204
831.357	22219
831.496	22371
831.635	22219
831.774	22166
831.913	22109
832.051	21994
832.19	21998
832.329	22074
832.467	21854
832.606	21892
832.744	21998
832.883	22013
833.022	22139
833.16	22192
833.299	22268
833.437	22352
833.576	22546
833.714	22660
833.852	22740
833.991	22938
834.129	22915
834.267	22934
834.406	22900
834.544	22767
834.682	22767
834.821	22550
834.959	22710
835.097	22402
835.235	22303
835.373	22166
835.511	22219
835.65	22032
835.788	21941
835.926	21637
836.064	21576
836.202	21686
836.34	21690
836.478	21739
836.615	21759
836.753	21675
836.891	21770
837.029	21770
837.167	21690
837.305	21599
837.443	21557
837.58	21450
837.718	21629
837.856	21492
837.993	21519
838.131	21435
838.269	21462
838.406	21348
838.544	21302
838.681	21100
838.819	21062
838.956	20960
839.094	20994
839.231	21062
839.369	20979
839.506	21245
839.643	21226
839.781	20842
839.918	20826
840.055	20982
840.193	20864
840.33	20807
840.467	20933
840.604	20998
840.742	21184
840.879	20720
841.016	20613
841.153	20697
841.29	20933
841.427	20785
841.564	20838
841.701	20883
841.838	20853
841.975	20674
842.112	20746
842.249	20667
842.385	20655
842.522	20853
842.659	20705
842.796	20594
842.933	20674
843.069	20625
843.206	20632
843.343	20929
843.479	20739
843.616	20754
843.752	20651
843.889	20731
844.025	20834
844.162	20697
844.298	20914
844.435	20883
844.571	21081
844.708	21142
844.844	21599
844.98	22048
845.117	22500
845.253	23292
845.389	24665
845.525	27511
845.661	31951
845.798	37415
845.934	41840
846.07	43400
846.206	42311
846.342	38663
846.478	33093
846.614	28371
846.75	25183
846.886	23242
847.022	22306
847.158	21572
847.294	21226
847.429	20982
847.565	20587
847.701	20765
847.837	20191
847.972	20008
848.108	19947
848.244	19974
848.379	19681
848.515	19666
848.65	19677
848.786	19563
848.921	19506
849.057	19620
849.192	19518
849.328	19597
849.463	19483
849.598	19502
849.734	19407
849.869	19468
850.004	19266
850.14	19301
850.275	19320
850.41	19236
850.545	19225
850.68	19236
850.815	19278
850.95	19221
851.085	19343
851.22	19278
851.355	19240
851.49	19133
851.625	19206
851.76	19141
851.895	19114
852.03	19107
852.165	19301
852.299	19225
852.434	19384
852.569	19339
852.703	19228
852.838	19354
852.973	19445
853.107	19449
853.242	19304
853.376	19225
853.511	19152
853.645	19171
853.78	19411
853.914	19358
854.048	19343
854.183	19415
854.317	19495
854.451	19624
854.585	19350
854.72	19278
854.854	19358
854.988	19278
855.122	19217
855.256	19179
855.39	19236
855.524	19396
855.658	19240
855.792	19107
855.926	19152
856.06	19156
856.194	19122
856.327	19000
856.461	19019
856.595	19095
856.729	19095
856.862	19122
856.996	19046
857.13	19008
857.263	19156
857.397	19084
857.53	19133
857.664	19122
857.797	18958
857.931	19152
858.064	19027
858.197	19061
858.331	19118
858.464	18882
858.597	18802
858.731	18932
858.864	18905
858.997	18913
859.13	18970
859.263	18928
859.396	19023
859.529	18913
859.662	18833
859.795	18787
859.928	18905
860.061	19069
860.194	19069
860.327	18829
860.46	18913
860.592	18966
860.725	19053
860.858	18951
860.99	18894
861.123	18802
861.256	18776
861.388	18856
861.521	19495
861.653	18806
861.786	18776
861.918	18707
862.05	18772
862.183	18798
862.315	18996
862.447	19015
862.58	18863
862.712	18650
862.844	18536
862.976	18681
863.108	18604
863.24	18928
863.372	18502
863.504	18566
863.636	18551
863.768	18673
863.9	18513
864.032	18566
864.164	18525
864.296	18692
864.428	18684
864.559	18692
864.691	18711
864.823	18517
864.954	18551
865.086	18445
865.217	18513
865.349	18414
865.48	18467
865.612	18559
865.743	18521
865.875	18566
866.006	18532
866.137	18471
866.269	18448
866.4	18460
866.531	18506
866.662	18464
866.793	18490
866.924	18536
867.055	18388
867.186	18403
867.317	18350
867.448	18399
867.579	18285
867.71	18395
867.841	18399
867.972	18357
868.103	18506
868.233	18437
868.364	18361
868.495	18521
868.625	18669
868.756	18783
868.886	18677
869.017	18681
869.147	18890
869.278	18829
869.408	18833
869.539	18700
869.669	18878
869.799	18597
869.929	18844
870.06	18890
870.19	19080
870.32	18981
870.45	19027
870.58	19065
870.71	19327
870.84	19255
870.97	19110
871.1	19107
871.23	19343
871.36	19327
871.489	19331
871.619	19285
871.749	19491
871.879	19460
872.008	19575
872.138	19422
872.267	19502
872.397	19240
872.526	19274
872.656	19331
872.785	19244
872.915	19578
873.044	19639
873.173	19559
873.303	19533
873.432	19605
873.561	19658
873.69	19681
873.819	19658
873.948	19803
874.077	19776
874.206	19658
874.335	19719
874.464	19875
874.593	19982
874.722	20043
874.851	20107
874.979	20012
875.108	20221
875.237	20168
875.365	20202
875.494	20225
875.623	20248
875.751	20202
875.88	20362
876.008	20370
876.136	20492
876.265	20887
876.393	20880
876.521	20933
876.65	21005
876.778	20998
876.906	20914
877.034	20891
877.162	20998
877.29	21123
877.418	21211
877.546	21344
877.674	21275
877.802	21534
877.93	21496
878.058	21724
878.185	21816
878.313	22040
878.441	22280
878.568	22584
878.696	23102
878.824	23805
878.951	24692
879.079	26054
879.206	27838
879.333	29254
879.461	30692
879.588	31449
879.715	31689
879.842	30867
879.97	29261
880.097	27549
880.224	26138
880.351	25335
880.478	24544
880.605	24053
880.732	23695
880.859	23775
880.986	23452
881.112	23417
881.239	23200
881.366	23181
881.493	22923
881.619	22896
881.746	22984
881.872	22957
881.999	22866
882.125	22976
882.252	23109
882.378	23037
882.505	23197
882.631	22961
882.757	22961
882.883	23048
883.01	23094
883.136	22850
883.262	22767
883.388	22687
883.514	22793
883.64	22835
883.766	22759
883.892	22710
884.018	22626
884.143	22850
884.269	22889
884.395	22656
884.52	22466
884.646	22622
884.772	22554
884.897	22516
885.023	22580
885.148	22611
885.274	22550
885.399	22592
885.524	22344
885.65	22246
885.775	22177
885.9	21949
886.025	22086
886.15	21926
886.275	21679
886.4	21466
886.525	21435
886.65	21351
886.775	21256
886.9	21450
887.025	21332
887.149	20960
887.274	20830
887.399	20735
887.523	20720
887.648	20556
887.773	20362
887.897	20514
888.021	20457
888.146	20343
888.27	20377
888.395	20370
888.519	20278
888.643	20145
888.767	20199
888.891	20050
889.015	19967
889.139	19940
889.263	19902
889.387	19955
889.511	19970
889.635	19837
889.759	19666
889.883	19761
890.006	19685
890.13	19791
890.254	19529
890.377	19506
890.501	19525
890.624	19384
890.748	19419
890.871	19327
890.995	19091
891.118	19000
891.241	19103
891.364	19019
891.488	19053
891.611	19038
891.734	19000
891.857	19042
891.98	19065
892.103	19000
892.226	18932
892.349	18825
892.471	18703
892.594	18768
892.717	18760
892.839	18585
892.962	18677
893.085	18802
893.207	18665
893.33	18589
893.452	18601
893.575	18700
893.697	18616
893.819	18681
893.941	18726
894.064	18490
894.186	18464
894.308	18319
894.43	18486
894.552	18700
894.674	18661
894.796	18471
894.918	18395
895.04	18323
895.161	18414
895.283	18273
895.405	18323
895.526	18357
895.648	18395
895.769	18372
895.891	18353
896.012	18498
896.134	18369
896.255	18304
896.376	18342
896.498	18289
896.619	18350
896.74	18281
896.861	18490
896.982	18559
897.103	18734
897.224	18578
897.345	18601
897.466	18517
897.587	18585
897.708	18566
897.828	18494
897.949	18528
898.07	18334
898.19	18502
898.311	18486
898.431	18376
898.552	18566
898.672	18601
898.792	18597
898.913	18559
899.033	18350
899.153	18327
899.273	18239
899.393	18319
899.513	18361
899.633	18270
899.753	18296
899.873	18235
899.993	18308
900.113	18270
900.232	18254
900.352	18209
900.472	18068
900.591	18117
900.711	18167
900.83	17992
900.95	18152
901.069	18190
901.189	18019
901.308	17775
901.427	17646
901.546	17767
901.665	17726
901.784	17649
901.904	17516
902.023	17528
902.141	17254
902.26	17204
902.379	17166
902.498	17220
902.617	17052
902.735	17220
902.854	17067
902.973	17048
903.091	16786
903.21	16820
903.328	16771
903.446	16744
903.565	16599
903.683	16478
903.801	16535
903.919	16596
904.038	16516
904.156	16325
904.274	16485
904.392	16303
904.51	16280
904.627	16265
904.745	16386
904.863	16379
904.981	16173
905.098	15991
905.216	16048
905.334	15987
905.451	15968
905.569	15998
905.686	16097
905.803	15892
905.921	15835
906.038	15895
906.155	15686
906.272	15690
906.389	15686
906.506	15534
906.623	15534
906.74	15431
906.857	15374
906.974	15348
907.091	15633
907.208	15679
907.324	15507
907.441	15473
907.557	15222
907.674	15184
907.79	15135
907.907	15256
908.023	15214
908.139	15272
908.256	15180
908.372	15058
908.488	15070
908.604	14891
908.72	14853
908.836	14853
908.952	14830
909.068	14887
909.184	14975
909.3	14921
909.415	15005
909.531	14872
909.647	14697
909.762	14541
909.878	14670
909.993	14674
910.108	14587
910.224	14488
910.339	14636
910.454	14438
910.57	14385
910.685	14381
910.8	14670
910.915	14568
911.03	14476
911.145	14248
911.259	14206
911.374	14233
911.489	14164
911.604	14046
911.718	14084
911.833	14073
911.947	13906
912.062	13841
912.176	13955
912.291	14062
912.405	13894
912.519	14153
912.633	14187
912.748	14142
912.862	14054
912.976	13814
913.09	13803
913.204	13750
913.318	13841
913.431	13883
913.545	13898
913.659	13932
913.772	13734
913.886	13734
914	13628
914.113	13689
914.226	13799
914.34	13708
914.453	13597
914.566	13715
914.68	13556
914.793	13670
914.906	13415
915.019	13369
915.132	13312
915.245	13422
915.358	13476
915.47	13301
915.583	13449
915.696	13441
915.809	13514
915.921	13525
916.034	13339
916.146	13278
916.259	13251
916.371	13339
916.483	13392
916.595	13247
916.708	13312
916.82	13358
916.932	13152
917.044	13259
917.156	13183
917.268	13091
917.38	13175
917.491	13072
917.603	13164
917.715	13133
917.826	13091
917.938	13000
918.049	12932
918.161	13019
918.272	13114
918.384	13164
918.495	13110
918.606	13000
918.717	12768
918.828	12878
918.939	12844
919.05	12726
919.161	12821
919.272	12662
919.383	12730
919.494	12871
919.604	13046
919.715	12806
919.826	12642
919.936	12802
920.047	12867
920.157	12772
920.267	13012
920.378	12901
920.488	12852
920.598	13000
920.708	13069
920.818	12943
920.928	12947
921.038	13103
921.148	13065
921.258	12772
921.368	12646
921.477	12623
921.587	12509
921.697	12403
921.806	12627
921.916	12486
922.025	12304
922.134	12258
922.244	12178
922.353	12201
922.462	12076
922.571	12022
922.68	11980
922.789	11805
922.898	11866
923.007	11851
923.116	11859
923.224	11832
923.333	11893
923.442	11809
923.55	11707
923.659	11733
923.767	11802
923.876	11722
923.984	11783
924.092	11600
924.201	11767
924.309	11680
924.417	11680
924.525	11608
924.633	11604
924.741	12380
924.849	11440
924.956	11714
925.064	11356
925.172	11376
925.279	11353
925.387	11364
925.494	11398
925.602	11592
925.709	11364
925.816	11368
925.924	11288
926.031	11459
926.138	11383
926.245	11356
926.352	11216
926.459	11448
926.566	11478
926.673	11273
926.779	11231
926.886	11155
926.993	11086
927.099	10987
927.206	10991
927.312	10869
927.419	11124
927.525	11037
927.631	11105
927.737	10866
927.843	10923
927.95	10820
928.056	10911
928.162	10816
928.267	10900
928.373	11402
928.479	10942
928.585	10721
928.69	10797
928.796	10896
928.901	10790
929.007	10599
929.112	10790
929.218	10683
929.323	10694
929.428	10615
929.533	10721
929.638	10618
929.743	10607
929.848	10618
929.953	10641
930.058	10478
930.163	10337
930.267	10348
930.372	10428
930.477	10352
930.581	10603
930.685	10474
930.79	10337
930.894	10238
930.998	10147
931.103	10424
931.207	10063
931.311	9937
931.415	9888
931.519	9713
931.623	9675
