Data from test_V78500241_1564.txt Node
Date: Fri Mar 25 14:44:36 CST 2022
User: usil
Spectrometer: V785-0024
Trigger mode: 0
Integration Time (sec): 4.000000E-1
Scans to average: 1
Nonlinearity correction enabled: false
Boxcar width: 0
Storing dark spectrum: false
XAxis mode: Wavelengths
Number of Pixels in Spectrum: 1024
>>>>>Begin Spectral Data<<<<<
801.071	22367
801.214	22280
801.356	21983
801.499	21854
801.641	21827
801.783	21808
801.926	21857
802.068	21728
802.211	21633
802.353	21519
802.496	21397
802.638	21317
802.78	21374
802.923	21249
803.065	21051
803.208	21081
803.35	21005
803.492	21294
803.635	21180
803.777	21104
803.919	21378
804.061	21580
804.204	21100
804.346	21036
804.488	20952
804.63	21131
804.773	20986
804.915	21051
805.057	21192
805.199	21009
805.341	21135
805.483	21192
805.626	21157
805.768	21020
805.91	20952
806.052	21062
806.194	21024
806.336	21302
806.478	20872
806.62	21009
806.762	21074
806.904	21279
807.046	21405
807.188	21287
807.33	21329
807.472	21447
807.614	21332
807.756	21416
807.898	21249
808.04	21199
808.182	21306
808.324	21199
808.465	21420
808.607	21473
808.749	21583
808.891	21759
809.033	21766
809.174	21732
809.316	21580
809.458	21545
809.6	21450
809.741	21526
809.883	21534
810.025	21717
810.166	21504
810.308	21591
810.45	21545
810.591	21424
810.733	21355
810.875	21317
811.016	21165
811.158	21176
811.299	21279
811.441	21374
811.582	21416
811.724	21355
811.865	21260
812.007	21313
812.148	21203
812.29	21211
812.431	21469
812.573	21526
812.714	21595
812.855	21781
812.997	21778
813.138	21937
813.279	21808
813.421	21770
813.562	21580
813.703	21458
813.845	21287
813.986	21036
814.127	20933
814.268	20899
814.41	20842
814.551	20739
814.692	20804
814.833	20682
814.974	20644
815.115	20735
815.256	20583
815.397	20564
815.539	20613
815.68	20442
815.821	20590
815.962	20552
816.103	20522
816.244	20381
816.385	20252
816.526	20221
816.666	20111
816.807	19986
816.948	19993
817.089	20035
817.23	20035
817.371	19921
817.512	19856
817.653	19807
817.793	19864
817.934	19772
818.075	19955
818.216	19852
818.356	19795
818.497	19715
818.638	19567
818.778	19681
818.919	19559
819.06	19670
819.2	19757
819.341	19826
819.481	19750
819.622	19925
819.762	20088
819.903	20005
820.043	19913
820.184	19963
820.324	19898
820.465	19898
820.605	19875
820.746	19879
820.886	19772
821.026	19753
821.167	19693
821.307	19921
821.447	19928
821.588	19620
821.728	19582
821.868	19419
822.008	19301
822.149	19251
822.289	19255
822.429	19008
822.569	18844
822.709	19053
822.849	18859
822.99	18875
823.13	18833
823.27	18715
823.41	18513
823.55	18532
823.69	18589
823.83	18612
823.97	18555
824.11	18311
824.25	18357
824.389	18323
824.529	18490
824.669	18285
824.809	18464
824.949	18456
825.089	18441
825.228	18399
825.368	18228
825.508	18155
825.648	18106
825.787	18213
825.927	18167
826.067	18064
826.206	18197
826.346	18144
826.485	18167
826.625	18140
826.765	18182
826.904	18083
827.044	17946
827.183	17878
827.323	17824
827.462	17840
827.601	17866
827.741	17760
827.88	17843
828.02	17634
828.159	17779
828.298	17931
828.437	18003
828.577	17832
828.716	17992
828.855	17726
828.994	17600
829.134	17501
829.273	17642
829.412	17547
829.551	17528
829.69	17474
829.829	17573
829.968	17581
830.107	17619
830.246	17608
830.385	17551
830.524	17490
830.663	17395
830.802	17398
830.941	17117
831.08	17109
831.219	17250
831.357	17223
831.496	17440
831.635	17189
831.774	17029
831.913	17067
832.051	16877
832.19	16984
832.329	16957
832.467	16862
832.606	16782
832.744	16786
832.883	16904
833.022	16782
833.16	16850
833.299	16854
833.437	16877
833.576	16919
833.714	16923
833.852	16892
833.991	16923
834.129	16949
834.267	16957
834.406	16892
834.544	16915
834.682	16976
834.821	16835
834.959	17197
835.097	16869
835.235	16976
835.373	16835
835.511	16869
835.65	16805
835.788	16759
835.926	16599
836.064	16561
836.202	16698
836.34	16828
836.478	16771
836.615	16771
836.753	16885
836.891	16774
837.029	16862
837.167	16873
837.305	16729
837.443	16725
837.58	16668
837.718	16607
837.856	16713
837.993	16580
838.131	16588
838.269	16569
838.406	16596
838.544	16421
838.681	16299
838.819	16440
838.956	16204
839.094	16101
839.231	16242
839.369	16386
839.506	16561
839.643	16417
839.781	16295
839.918	16093
840.055	16268
840.193	16101
840.33	16280
840.467	16173
840.604	16257
840.742	16428
840.879	16059
841.016	16128
841.153	16048
841.29	16268
841.427	16181
841.564	16177
841.701	16242
841.838	16166
841.975	16044
842.112	16074
842.249	15945
842.385	15899
842.522	16082
842.659	15960
842.796	16017
842.933	16040
843.069	15892
843.206	15857
843.343	16067
843.479	15960
843.616	16013
843.752	15739
843.889	15747
844.025	15998
844.162	15618
844.298	15819
844.435	15835
844.571	15755
844.708	15846
844.844	15926
844.98	15865
845.117	15869
845.253	15701
845.389	15682
845.525	15675
845.661	15679
845.798	15743
845.934	15838
846.07	15587
846.206	15781
846.342	15762
846.478	15652
846.614	15485
846.75	15214
846.886	15382
847.022	15332
847.158	15275
847.294	15344
847.429	15355
847.565	15348
847.701	15603
847.837	15135
847.972	15051
848.108	15214
848.244	15119
848.379	14933
848.515	14937
848.65	14788
848.786	14826
848.921	14830
849.057	15005
849.192	15005
849.328	14902
849.463	14819
849.598	14914
849.734	14845
849.869	14750
850.004	14689
850.14	14617
850.275	14754
850.41	14640
850.545	14602
850.68	14743
850.815	14689
850.95	14644
851.085	14872
851.22	14739
851.355	14670
851.49	14674
851.625	14659
851.76	14659
851.895	14590
852.03	14499
852.165	14636
852.299	14708
852.434	14758
852.569	14811
852.703	14731
852.838	14731
852.973	14864
853.107	14834
853.242	14674
853.376	14537
853.511	14442
853.645	14651
853.78	14678
853.914	14632
854.048	14590
854.183	14606
854.317	14488
854.451	14727
854.585	14621
854.72	14598
854.854	14598
854.988	14503
855.122	14621
855.256	14404
855.39	14549
855.524	14651
855.658	14613
855.792	14659
855.926	14670
856.06	14556
856.194	14651
856.327	14537
856.461	14488
856.595	14438
856.729	14518
856.862	14651
856.996	14640
857.13	14648
857.263	14769
857.397	14743
857.53	14568
857.664	14667
857.797	14621
857.931	14640
858.064	14587
858.197	14686
858.331	14583
858.464	14549
858.597	14396
858.731	14636
858.864	14598
858.997	14549
859.13	14629
859.263	14625
859.396	14648
859.529	14480
859.662	14545
859.795	14503
859.928	14644
860.061	14754
860.194	14807
860.327	14560
860.46	14560
860.592	14701
860.725	14716
860.858	14712
860.99	14594
861.123	14465
861.256	14499
861.388	14492
861.521	15104
861.653	14495
861.786	14385
861.918	14438
862.05	14552
862.183	14549
862.315	14575
862.447	14518
862.58	14461
862.712	14298
862.844	14229
862.976	14427
863.108	14389
863.24	14804
863.372	14256
863.504	14393
863.636	14324
863.768	14450
863.9	14343
864.032	14195
864.164	14294
864.296	14351
864.428	14560
864.559	14423
864.691	14419
864.823	14286
864.954	14370
865.086	14427
865.217	14294
865.349	14305
865.48	14389
865.612	14332
865.743	14480
865.875	14393
866.006	14313
866.137	14347
866.269	14355
866.4	14377
866.531	14339
866.662	14256
866.793	14168
866.924	14229
867.055	14244
867.186	14286
867.317	14286
867.448	14225
867.579	14271
867.71	14191
867.841	14248
867.972	14347
868.103	14263
868.233	14355
868.364	14294
868.495	14450
868.625	14587
868.756	14678
868.886	14438
869.017	14556
869.147	14659
869.278	14667
869.408	14598
869.539	14560
869.669	14800
869.799	14613
869.929	14697
870.06	14651
870.19	14861
870.32	14910
870.45	14895
870.58	14971
870.71	14948
870.84	15157
870.97	14902
871.1	14868
871.23	15066
871.36	15131
871.489	15108
871.619	15161
871.749	15116
871.879	15245
872.008	15211
872.138	15089
872.267	15165
872.397	14986
872.526	14918
872.656	15036
872.785	15043
872.915	15070
873.044	15279
873.173	15138
873.303	15249
873.432	15203
873.561	15310
873.69	15222
873.819	15226
873.948	15260
874.077	15161
874.206	15268
874.335	15176
874.464	15359
874.593	15454
874.722	15359
874.851	15526
874.979	15538
875.108	15545
875.237	15507
875.365	15549
875.494	15580
875.623	15610
875.751	15519
875.88	15629
876.008	15717
876.136	15816
876.265	15888
876.393	16055
876.521	15953
876.65	16078
876.778	15968
876.906	15899
877.034	15838
877.162	15934
877.29	15850
877.418	15888
877.546	15934
877.674	15884
877.802	15953
877.93	15987
878.058	15915
878.185	15831
878.313	15922
878.441	15930
878.568	15808
878.696	15865
878.824	15979
878.951	16051
879.079	16223
879.206	16310
879.333	16268
879.461	16036
879.588	16082
879.715	16253
879.842	16257
879.97	16097
880.097	15793
880.224	15816
880.351	15835
880.478	15705
880.605	15701
880.732	15781
880.859	16071
880.986	15835
881.112	15865
881.239	15781
881.366	15576
881.493	15397
881.619	15374
881.746	15519
881.872	15393
881.999	15359
882.125	15416
882.252	15488
882.378	15496
882.505	15671
882.631	15374
882.757	15310
882.883	15272
883.01	15256
883.136	15218
883.262	15112
883.388	15100
883.514	15214
883.64	15374
883.766	15218
883.892	15119
884.018	15207
884.143	15180
884.269	15374
884.395	15157
884.52	14944
884.646	15020
884.772	14849
884.897	14842
885.023	14952
885.148	15123
885.274	15074
885.399	15108
885.524	15070
885.65	14941
885.775	14975
885.9	14975
886.025	15013
886.15	15081
886.275	14914
886.4	14815
886.525	14979
886.65	14807
886.775	14883
886.9	15104
887.025	15211
887.149	14975
887.274	14788
887.399	14678
887.523	14746
887.648	14746
887.773	14682
887.897	14845
888.021	14746
888.146	14701
888.27	14925
888.395	14918
888.519	14902
888.643	14830
888.767	14895
888.891	14765
889.015	14621
889.139	14659
889.263	14636
889.387	14739
889.511	14830
889.635	14815
889.759	14655
889.883	14670
890.006	14674
890.13	14762
890.254	14530
890.377	14526
890.501	14431
890.624	14404
890.748	14476
890.871	14377
890.995	14267
891.118	14183
891.241	14370
891.364	14381
891.488	14492
891.611	14347
891.734	14256
891.857	14328
891.98	14309
892.103	14431
892.226	14412
892.349	14347
892.471	14046
892.594	14278
892.717	14290
892.839	14248
892.962	14301
893.085	14393
893.207	14237
893.33	14225
893.452	14267
893.575	14537
893.697	14336
893.819	14469
893.941	14670
894.064	14533
894.186	14263
894.308	14298
894.43	14412
894.552	14575
894.674	14419
894.796	14267
894.918	14332
895.04	14355
895.161	14427
895.283	14385
895.405	14415
895.526	14454
895.648	14450
895.769	14476
895.891	14560
896.012	14511
896.134	14518
896.255	14503
896.376	14473
896.498	14514
896.619	14484
896.74	14621
896.861	14575
896.982	14765
897.103	14944
897.224	14739
897.345	14663
897.466	14644
897.587	14773
897.708	14811
897.828	14777
897.949	14773
898.07	14697
898.19	14712
898.311	14842
898.431	14781
898.552	14826
898.672	14990
898.792	14895
898.913	14758
899.033	14834
899.153	14678
899.273	14651
899.393	14648
899.513	14648
899.633	14739
899.753	14735
899.873	14606
899.993	14701
900.113	14739
900.232	14857
900.352	14720
900.472	14606
900.591	14476
900.711	14575
900.83	14450
900.95	14663
901.069	14693
901.189	14495
901.308	14278
901.427	14062
901.546	14202
901.665	14358
901.784	14191
901.904	14119
902.023	14069
902.141	13833
902.26	13841
902.379	13909
902.498	13830
902.617	13689
902.735	13875
902.854	13757
902.973	13776
903.091	13464
903.21	13434
903.328	13502
903.446	13377
903.565	13400
903.683	13327
903.801	13232
903.919	13335
904.038	13346
904.156	13198
904.274	13206
904.392	13179
904.51	13244
904.627	13122
904.745	13247
904.863	13187
904.981	13084
905.098	12722
905.216	13008
905.334	12951
905.451	12833
905.569	12848
905.686	12897
905.803	12806
905.921	12639
906.038	12779
906.155	12662
906.272	12604
906.389	12635
906.506	12422
906.623	12395
906.74	12426
906.857	12273
906.974	12414
907.091	12528
907.208	12623
907.324	12445
907.441	12380
907.557	12148
907.674	12136
907.79	12152
907.907	12083
908.023	12224
908.139	12197
908.256	12213
908.372	12083
908.488	12072
908.604	11821
908.72	11893
908.836	11920
908.952	11958
909.068	12011
909.184	12053
909.3	11946
909.415	11893
909.531	12034
909.647	11710
909.762	11729
909.878	11615
909.993	11676
910.108	11657
910.224	11630
910.339	11726
910.454	11630
910.57	11520
910.685	11379
910.8	11824
910.915	11710
911.03	11562
911.145	11467
911.259	11421
911.374	11368
911.489	11356
911.604	11395
911.718	11155
911.833	11204
911.947	11098
912.062	10987
912.176	11143
912.291	11140
912.405	11185
912.519	11337
912.633	11318
912.748	11178
912.862	11216
912.976	11052
913.09	10949
913.204	11003
913.318	11025
913.431	11143
913.545	11128
913.659	11147
913.772	11014
913.886	10930
914	10892
914.113	11025
914.226	11067
914.34	11018
914.453	10763
914.566	10987
914.68	10889
914.793	10858
914.906	10679
915.019	10580
915.132	10599
915.245	10706
915.358	10649
915.47	10664
915.583	10698
915.696	10714
915.809	10778
915.921	10755
916.034	10660
916.146	10649
916.259	10611
916.371	10744
916.483	10691
916.595	10531
916.708	10626
916.82	10641
916.932	10607
917.044	10599
917.156	10504
917.268	10402
917.38	10478
917.491	10470
917.603	10508
917.715	10546
917.826	10516
917.938	10424
918.049	10306
918.161	10508
918.272	10611
918.384	10603
918.495	10443
918.606	10390
918.717	10276
918.828	10329
918.939	10379
919.05	10246
919.161	10325
919.272	10246
919.383	10230
919.494	10466
919.604	10538
919.715	10295
919.826	10314
919.936	10257
920.047	10481
920.157	10295
920.267	10653
920.378	10409
920.488	10440
920.598	10523
920.708	10672
920.818	10535
920.928	10527
921.038	10736
921.148	10694
921.258	10417
921.368	10344
921.477	10204
921.587	10147
921.697	10135
921.806	10230
921.916	10074
922.025	9934
922.134	9960
922.244	9865
922.353	9991
922.462	9823
922.571	9740
922.68	9698
922.789	9568
922.898	9736
923.007	9572
923.116	9694
923.224	9641
923.333	9671
923.442	9515
923.55	9477
923.659	9507
923.767	9584
923.876	9473
923.984	9587
924.092	9397
924.201	9443
924.309	9549
924.417	9439
924.525	9424
924.633	9447
924.741	10348
924.849	9226
924.956	9431
925.064	9226
925.172	9237
925.279	9241
925.387	9298
925.494	9294
925.602	9431
925.709	9275
925.816	9233
925.924	9283
926.031	9367
926.138	9233
926.245	9294
926.352	9161
926.459	9359
926.566	9378
926.673	9230
926.779	9123
926.886	9150
926.993	8971
927.099	8967
927.206	8998
927.312	8906
927.419	9055
927.525	9013
927.631	9005
927.737	8967
927.843	8842
927.95	8796
928.056	8864
928.162	8906
928.267	8967
928.373	9538
928.479	8975
928.585	8708
928.69	8796
928.796	8918
928.901	8800
929.007	8663
929.112	8781
929.218	8758
929.323	8781
929.428	8632
929.533	8861
929.638	8610
929.743	8659
929.848	8712
929.953	8693
930.058	8568
930.163	8427
930.267	8408
930.372	8613
930.477	8404
930.581	8629
930.685	8469
930.79	8404
930.894	8450
930.998	8362
931.103	8594
931.207	8161
931.311	8161
931.415	8134
931.519	7917
931.623	7902
