Data from test_V78500241_1340.txt Node
Date: Fri Mar 25 14:43:02 CST 2022
User: usil
Spectrometer: V785-0024
Trigger mode: 0
Integration Time (sec): 4.000000E-1
Scans to average: 1
Nonlinearity correction enabled: false
Boxcar width: 0
Storing dark spectrum: false
XAxis mode: Wavelengths
Number of Pixels in Spectrum: 1024
>>>>>Begin Spectral Data<<<<<
801.071	22440
801.214	22272
801.356	21975
801.499	21941
801.641	21774
801.783	21701
801.926	21660
802.068	21587
802.211	21534
802.353	21648
802.496	21412
802.638	21298
802.78	21085
802.923	21142
803.065	21058
803.208	21127
803.35	21112
803.492	21154
803.635	21192
803.777	21264
803.919	21154
804.061	21519
804.204	21226
804.346	21062
804.488	20994
804.63	21005
804.773	21062
804.915	21112
805.057	21157
805.199	21085
805.341	21157
805.483	21058
805.626	21192
805.768	21020
805.91	21043
806.052	21104
806.194	20910
806.336	21096
806.478	20960
806.62	21112
806.762	21096
806.904	21237
807.046	21363
807.188	21298
807.33	21439
807.472	21462
807.614	21313
807.756	21325
807.898	21218
808.04	21161
808.182	21264
808.324	21218
808.465	21466
808.607	21530
808.749	21561
808.891	21644
809.033	21762
809.174	21724
809.316	21629
809.458	21644
809.6	21511
809.741	21507
809.883	21534
810.025	21622
810.166	21641
810.308	21557
810.45	21629
810.591	21473
810.733	21374
810.875	21245
811.016	21157
811.158	21009
811.299	21260
811.441	21344
811.582	21351
811.724	21252
811.865	21272
812.007	21260
812.148	21188
812.29	21272
812.431	21374
812.573	21515
812.714	21526
812.855	21690
812.997	21838
813.138	21987
813.279	21899
813.421	21568
813.562	21542
813.703	21492
813.845	21260
813.986	21093
814.127	20853
814.268	20788
814.41	20819
814.551	20739
814.692	20861
814.833	20746
814.974	20705
815.115	20754
815.256	20465
815.397	20511
815.539	20579
815.68	20556
815.821	20488
815.962	20552
816.103	20434
816.244	20256
816.385	20130
816.526	20229
816.666	20119
816.807	19959
816.948	19887
817.089	20046
817.23	19986
817.371	19868
817.512	19982
817.653	19860
817.793	19818
817.934	19887
818.075	19894
818.216	19944
818.356	19727
818.497	19814
818.638	19590
818.778	19559
818.919	19601
819.06	19651
819.2	19708
819.341	19776
819.481	19822
819.622	19913
819.762	20012
819.903	20001
820.043	19936
820.184	19906
820.324	19887
820.465	19982
820.605	19913
820.746	19856
820.886	19791
821.026	19845
821.167	19875
821.307	19913
821.447	19769
821.588	19693
821.728	19518
821.868	19460
822.008	19354
822.149	19301
822.289	19259
822.429	19027
822.569	19004
822.709	18924
822.849	18757
822.99	18825
823.13	18783
823.27	18825
823.41	18551
823.55	18471
823.69	18681
823.83	18574
823.97	18601
824.11	18346
824.25	18372
824.389	18273
824.529	18448
824.669	18296
824.809	18422
824.949	18483
825.089	18403
825.228	18395
825.368	18174
825.508	18072
825.648	18159
825.787	18133
825.927	18194
826.067	18072
826.206	18133
826.346	18133
826.485	18155
826.625	18072
826.765	18258
826.904	18194
827.044	17901
827.183	17863
827.323	17836
827.462	17942
827.601	17901
827.741	17840
827.88	17935
828.02	17691
828.159	17813
828.298	17878
828.437	17954
828.577	17805
828.716	17897
828.855	17821
828.994	17543
829.134	17600
829.273	17592
829.412	17524
829.551	17528
829.69	17463
829.829	17577
829.968	17604
830.107	17619
830.246	17638
830.385	17532
830.524	17455
830.663	17356
830.802	17303
830.941	17216
831.08	17246
831.219	17261
831.357	17204
831.496	17478
831.635	17220
831.774	17102
831.913	17189
832.051	17041
832.19	17041
832.329	16987
832.467	16946
832.606	16919
832.744	16847
832.883	16877
833.022	16919
833.16	16949
833.299	16904
833.437	16991
833.576	16911
833.714	16930
833.852	16938
833.991	16965
834.129	17025
834.267	17052
834.406	16957
834.544	16957
834.682	17025
834.821	16896
834.959	17113
835.097	16866
835.235	17025
835.373	16938
835.511	16995
835.65	16904
835.788	16900
835.926	16713
836.064	16664
836.202	16706
836.34	16877
836.478	16942
836.615	16752
836.753	16858
836.891	16972
837.029	16904
837.167	16885
837.305	16820
837.443	16740
837.58	16710
837.718	16801
837.856	16755
837.993	16721
838.131	16668
838.269	16668
838.406	16752
838.544	16580
838.681	16459
838.819	16432
838.956	16295
839.094	16306
839.231	16287
839.369	16398
839.506	16603
839.643	16489
839.781	16318
839.918	16234
840.055	16363
840.193	16322
840.33	16325
840.467	16211
840.604	16215
840.742	16470
840.879	16063
841.016	16211
841.153	16223
841.29	16322
841.427	16249
841.564	16337
841.701	16306
841.838	16223
841.975	16226
842.112	16238
842.249	16059
842.385	16040
842.522	16310
842.659	16071
842.796	16090
842.933	16059
843.069	16010
843.206	16036
843.343	16124
843.479	16051
843.616	16010
843.752	15846
843.889	15797
844.025	15918
844.162	15899
844.298	15922
844.435	15823
844.571	15835
844.708	15884
844.844	16010
844.98	15994
845.117	15873
845.253	15861
845.389	15743
845.525	15880
845.661	15865
845.798	15819
845.934	15865
846.07	16002
846.206	16021
846.342	15915
846.478	15759
846.614	15496
846.75	15511
846.886	15424
847.022	15523
847.158	15435
847.294	15488
847.429	15488
847.565	15359
847.701	15599
847.837	15138
847.972	15104
848.108	15272
848.244	15150
848.379	14986
848.515	14925
848.65	14967
848.786	15017
848.921	14842
849.057	15020
849.192	15184
849.328	14937
849.463	15058
849.598	14914
849.734	14960
849.869	14868
850.004	14746
850.14	14891
850.275	14815
850.41	14705
850.545	14716
850.68	14735
850.815	14861
850.95	14716
851.085	14979
851.22	14952
851.355	14880
851.49	14735
851.625	14735
851.76	14602
851.895	14701
852.03	14610
852.165	14746
852.299	14861
852.434	14750
852.569	14739
852.703	14773
852.838	14735
852.973	14967
853.107	14823
853.242	14769
853.376	14773
853.511	14549
853.645	14667
853.78	14750
853.914	14526
854.048	14606
854.183	14533
854.317	14651
854.451	14807
854.585	14621
854.72	14659
854.854	14689
854.988	14568
855.122	14625
855.256	14465
855.39	14552
855.524	14610
855.658	14629
855.792	14610
855.926	14689
856.06	14594
856.194	14720
856.327	14667
856.461	14537
856.595	14568
856.729	14674
856.862	14640
856.996	14739
857.13	14720
857.263	14731
857.397	14644
857.53	14610
857.664	14731
857.797	14670
857.931	14758
858.064	14693
858.197	14720
858.331	14663
858.464	14598
858.597	14571
858.731	14541
858.864	14583
858.997	14629
859.13	14655
859.263	14670
859.396	14777
859.529	14613
859.662	14610
859.795	14537
859.928	14636
860.061	14727
860.194	14796
860.327	14663
860.46	14670
860.592	14621
860.725	14670
860.858	14769
860.99	14613
861.123	14549
861.256	14610
861.388	14625
861.521	15348
861.653	14549
861.786	14492
861.918	14412
862.05	14594
862.183	14663
862.315	14621
862.447	14697
862.58	14594
862.712	14511
862.844	14320
862.976	14514
863.108	14431
863.24	14777
863.372	14256
863.504	14427
863.636	14503
863.768	14461
863.9	14415
864.032	14339
864.164	14332
864.296	14503
864.428	14469
864.559	14560
864.691	14568
864.823	14476
864.954	14423
865.086	14461
865.217	14374
865.349	14343
865.48	14446
865.612	14385
865.743	14454
865.875	14412
866.006	14415
866.137	14454
866.269	14434
866.4	14351
866.531	14294
866.662	14313
866.793	14278
866.924	14374
867.055	14404
867.186	14370
867.317	14362
867.448	14305
867.579	14324
867.71	14240
867.841	14263
867.972	14366
868.103	14351
868.233	14282
868.364	14324
868.495	14473
868.625	14648
868.756	14785
868.886	14590
869.017	14590
869.147	14686
869.278	14842
869.408	14697
869.539	14727
869.669	14724
869.799	14708
869.929	14826
870.06	14705
870.19	14933
870.32	14986
870.45	15017
870.58	15123
870.71	15089
870.84	15237
870.97	15081
871.1	15066
871.23	15233
871.36	15241
871.489	15074
871.619	15203
871.749	15062
871.879	15241
872.008	15370
872.138	15199
872.267	15188
872.397	15085
872.526	15100
872.656	15051
872.785	15116
872.915	15275
873.044	15321
873.173	15321
873.303	15283
873.432	15310
873.561	15389
873.69	15279
873.819	15302
873.948	15355
874.077	15310
874.206	15340
874.335	15214
874.464	15378
874.593	15534
874.722	15576
874.851	15572
874.979	15599
875.108	15652
875.237	15633
875.365	15591
875.494	15656
875.623	15709
875.751	15568
875.88	15667
876.008	15736
876.136	15751
876.265	15994
876.393	16093
876.521	16032
876.65	15998
876.778	16036
876.906	15945
877.034	15983
877.162	16071
877.29	15972
877.418	16010
877.546	15998
877.674	15960
877.802	15994
877.93	16086
878.058	16036
878.185	15903
878.313	16082
878.441	16002
878.568	15949
878.696	15994
878.824	16101
878.951	16177
879.079	16287
879.206	16363
879.333	16295
879.461	16158
879.588	16249
879.715	16360
879.842	16382
879.97	16249
880.097	15975
880.224	15888
880.351	15994
880.478	15895
880.605	15827
880.732	15861
880.859	16036
880.986	15949
881.112	15949
881.239	15789
881.366	15679
881.493	15553
881.619	15553
881.746	15568
881.872	15599
881.999	15462
882.125	15523
882.252	15698
882.378	15488
882.505	15751
882.631	15500
882.757	15428
882.883	15367
883.01	15370
883.136	15325
883.262	15112
883.388	15260
883.514	15363
883.64	15355
883.766	15306
883.892	15241
884.018	15184
884.143	15237
884.269	15523
884.395	15058
884.52	15070
884.646	15039
884.772	15081
884.897	14937
885.023	15081
885.148	15188
885.274	15249
885.399	15150
885.524	15043
885.65	15055
885.775	15146
885.9	15001
886.025	15085
886.15	15119
886.275	15020
886.4	14880
886.525	14986
886.65	15001
886.775	14933
886.9	15116
887.025	15195
887.149	15036
887.274	14864
887.399	14842
887.523	14883
887.648	14815
887.773	14853
887.897	14887
888.021	14937
888.146	14811
888.27	14925
888.395	15013
888.519	14864
888.643	14982
888.767	14921
888.891	14705
889.015	14727
889.139	14815
889.263	14625
889.387	14750
889.511	14887
889.635	14773
889.759	14621
889.883	14701
890.006	14830
890.13	14720
890.254	14655
890.377	14655
890.501	14545
890.624	14450
890.748	14473
890.871	14427
890.995	14317
891.118	14256
891.241	14533
891.364	14358
891.488	14533
891.611	14446
891.734	14522
891.857	14499
891.98	14488
892.103	14503
892.226	14503
892.349	14469
892.471	14202
892.594	14351
892.717	14366
892.839	14301
892.962	14282
893.085	14438
893.207	14358
893.33	14282
893.452	14374
893.575	14419
893.697	14343
893.819	14473
893.941	14564
894.064	14530
894.186	14400
894.308	14396
894.43	14549
894.552	14575
894.674	14564
894.796	14317
894.918	14431
895.04	14396
895.161	14564
895.283	14454
895.405	14488
895.526	14469
895.648	14434
895.769	14514
895.891	14530
896.012	14610
896.134	14606
896.255	14587
896.376	14556
896.498	14526
896.619	14541
896.74	14526
896.861	14537
896.982	14906
897.103	15085
897.224	14868
897.345	14762
897.466	14754
897.587	14876
897.708	14941
897.828	14952
897.949	14754
898.07	14689
898.19	14785
898.311	14929
898.431	14838
898.552	14842
898.672	14982
898.792	14975
898.913	14967
899.033	14811
899.153	14735
899.273	14682
899.393	14724
899.513	14769
899.633	14739
899.753	14739
899.873	14872
899.993	14857
900.113	14758
900.232	14853
900.352	14724
900.472	14621
900.591	14503
900.711	14655
900.83	14625
900.95	14731
901.069	14617
901.189	14541
901.308	14362
901.427	14271
901.546	14199
901.665	14259
901.784	14187
901.904	14100
902.023	14027
902.141	13944
902.26	13906
902.379	13978
902.498	13753
902.617	13826
902.735	13936
902.854	13791
902.973	13776
903.091	13616
903.21	13571
903.328	13624
903.446	13518
903.565	13396
903.683	13419
903.801	13304
903.919	13308
904.038	13339
904.156	13285
904.274	13266
904.392	13270
904.51	13209
904.627	13141
904.745	13244
904.863	13209
904.981	13027
905.098	12886
905.216	12932
905.334	12951
905.451	12977
905.569	12973
905.686	12882
905.803	12958
905.921	12779
906.038	12817
906.155	12726
906.272	12597
906.389	12665
906.506	12551
906.623	12574
906.74	12475
906.857	12433
906.974	12445
907.091	12574
907.208	12662
907.324	12528
907.441	12395
907.557	12311
907.674	12228
907.79	12125
907.907	12148
908.023	12228
908.139	12197
908.256	12144
908.372	12068
908.488	12148
908.604	12133
908.72	11965
908.836	12087
908.952	12003
909.068	12015
909.184	12095
909.3	11946
909.415	12102
909.531	11984
909.647	11866
909.762	11836
909.878	11764
909.993	11843
910.108	11672
910.224	11794
910.339	11809
910.454	11680
910.57	11665
910.685	11570
910.8	11809
910.915	11718
911.03	11661
911.145	11520
911.259	11440
911.374	11505
911.489	11273
911.604	11296
911.718	11246
911.833	11269
911.947	11216
912.062	10987
912.176	11231
912.291	11223
912.405	11212
912.519	11372
912.633	11455
912.748	11254
912.862	11159
912.976	11060
913.09	10987
913.204	11140
913.318	11121
913.431	11140
913.545	11170
913.659	11136
913.772	11064
913.886	10915
914	11083
914.113	11029
914.226	11102
914.34	10984
914.453	10858
914.566	11109
914.68	10938
914.793	10908
914.906	10736
915.019	10679
915.132	10573
915.245	10793
915.358	10675
915.47	10653
915.583	10786
915.696	10721
915.809	10873
915.921	10904
916.034	10771
916.146	10603
916.259	10656
916.371	10710
916.483	10733
916.595	10679
916.708	10580
916.82	10679
916.932	10618
917.044	10588
917.156	10584
917.268	10402
917.38	10546
917.491	10493
917.603	10573
917.715	10664
917.826	10607
917.938	10489
918.049	10409
918.161	10554
918.272	10698
918.384	10611
918.495	10519
918.606	10379
918.717	10462
918.828	10481
918.939	10432
919.05	10318
919.161	10314
919.272	10150
919.383	10306
919.494	10455
919.604	10637
919.715	10428
919.826	10280
919.936	10390
920.047	10462
920.157	10417
920.267	10645
920.378	10481
920.488	10287
920.598	10603
920.708	10790
920.818	10626
920.928	10603
921.038	10733
921.148	10843
921.258	10409
921.368	10440
921.477	10234
921.587	10238
921.697	10131
921.806	10314
921.916	10131
922.025	9998
922.134	9960
922.244	9956
922.353	10036
922.462	9918
922.571	9892
922.68	9629
922.789	9629
922.898	9622
923.007	9584
923.116	9713
923.224	9637
923.333	9660
923.442	9603
923.55	9469
923.659	9519
923.767	9614
923.876	9561
923.984	9614
924.092	9435
924.201	9523
924.309	9557
924.417	9530
924.525	9523
924.633	9553
924.741	10447
924.849	9340
924.956	9454
925.064	9294
925.172	9188
925.279	9222
925.387	9329
925.494	9374
925.602	9420
925.709	9351
925.816	9313
925.924	9332
926.031	9435
926.138	9336
926.245	9317
926.352	9249
926.459	9401
926.566	9374
926.673	9260
926.779	9211
926.886	9192
926.993	9062
927.099	8982
927.206	8876
927.312	8982
927.419	9070
927.525	8941
927.631	9017
927.737	8883
927.843	8933
927.95	8773
928.056	8868
928.162	8933
928.267	8956
928.373	9507
928.479	9001
928.585	8773
928.69	8864
928.796	8937
928.901	8845
929.007	8670
929.112	8956
929.218	8777
929.323	8731
929.428	8697
929.533	8925
929.638	8644
929.743	8686
929.848	8727
929.953	8727
930.058	8663
930.163	8473
930.267	8507
930.372	8644
930.477	8473
930.581	8686
930.685	8541
930.79	8377
930.894	8499
930.998	8404
931.103	8545
931.207	8259
931.311	8244
931.415	8088
931.519	7898
931.623	7967
