Data from test_V78500241_2553.txt Node
Date: Fri Mar 25 14:51:29 CST 2022
User: usil
Spectrometer: V785-0024
Trigger mode: 0
Integration Time (sec): 4.000000E-1
Scans to average: 1
Nonlinearity correction enabled: false
Boxcar width: 0
Storing dark spectrum: false
XAxis mode: Wavelengths
Number of Pixels in Spectrum: 1024
>>>>>Begin Spectral Data<<<<<
801.071	22131
801.214	22055
801.356	21644
801.499	21553
801.641	21534
801.783	21450
801.926	21431
802.068	21348
802.211	21363
802.353	21138
802.496	20944
802.638	20960
802.78	20899
802.923	20941
803.065	20667
803.208	20655
803.35	20773
803.492	20838
803.635	21100
803.777	20701
803.919	20830
804.061	21020
804.204	20739
804.346	20697
804.488	20609
804.63	20796
804.773	20571
804.915	20727
805.057	20758
805.199	20667
805.341	20731
805.483	20758
805.626	20769
805.768	20568
805.91	20788
806.052	20594
806.194	20564
806.336	20853
806.478	20526
806.62	20564
806.762	20697
806.904	20838
807.046	21058
807.188	20990
807.33	21157
807.472	21093
807.614	20956
807.756	20857
807.898	20819
808.04	20686
808.182	20765
808.324	20609
808.465	20663
808.607	20849
808.749	21013
808.891	21127
809.033	21161
809.174	21055
809.316	20990
809.458	21051
809.6	20906
809.741	21142
809.883	21180
810.025	21138
810.166	21154
810.308	21089
810.45	21157
810.591	20982
810.733	20804
810.875	20819
811.016	20686
811.158	20724
811.299	20773
811.441	21077
811.582	20933
811.724	20735
811.865	20743
812.007	20724
812.148	20891
812.29	20895
812.431	20777
812.573	21096
812.714	21157
812.855	21359
812.997	21435
813.138	21462
813.279	21275
813.421	21378
813.562	21325
813.703	21001
813.845	20891
813.986	20724
814.127	20560
814.268	20423
814.41	20370
814.551	20431
814.692	20408
814.833	20282
814.974	20305
815.115	20328
815.256	20267
815.397	20290
815.539	20214
815.68	20138
815.821	20058
815.962	20149
816.103	20058
816.244	19925
816.385	19750
816.526	19860
816.666	19662
816.807	19411
816.948	19586
817.089	19685
817.23	19628
817.371	19419
817.512	19441
817.653	19339
817.793	19445
817.934	19521
818.075	19464
818.216	19426
818.356	19411
818.497	19324
818.638	19080
818.778	19133
818.919	19206
819.06	19133
819.2	19232
819.341	19331
819.481	19365
819.622	19578
819.762	19734
819.903	19590
820.043	19544
820.184	19312
820.324	19499
820.465	19514
820.605	19365
820.746	19438
820.886	19343
821.026	19430
821.167	19449
821.307	19510
821.447	19415
821.588	19270
821.728	19065
821.868	19129
822.008	18928
822.149	18897
822.289	18753
822.429	18525
822.569	18502
822.709	18593
822.849	18483
822.99	18254
823.13	18384
823.27	18308
823.41	18216
823.55	18224
823.69	18110
823.83	18251
823.97	18102
824.11	18007
824.25	17840
824.389	17958
824.529	17973
824.669	17977
824.809	17889
824.949	18045
825.089	17946
825.228	17950
825.368	17783
825.508	17756
825.648	17771
825.787	17874
825.927	17805
826.067	17737
826.206	17623
826.346	17790
826.485	17790
826.625	17596
826.765	17779
826.904	17703
827.044	17474
827.183	17471
827.323	17311
827.462	17497
827.601	17433
827.741	17463
827.88	17425
828.02	17356
828.159	17337
828.298	17417
828.437	17535
828.577	17269
828.716	17497
828.855	17387
828.994	17170
829.134	17212
829.273	17159
829.412	17193
829.551	17052
829.69	17086
829.829	17216
829.968	17250
830.107	17193
830.246	17094
830.385	17094
830.524	17022
830.663	16953
830.802	16915
830.941	16847
831.08	16641
831.219	16835
831.357	16763
831.496	17071
831.635	16702
831.774	16736
831.913	16679
832.051	16592
832.19	16516
832.329	16664
832.467	16481
832.606	16421
832.744	16409
832.883	16413
833.022	16337
833.16	16447
833.299	16516
833.437	16417
833.576	16561
833.714	16565
833.852	16626
833.991	16573
834.129	16645
834.267	16679
834.406	16523
834.544	16481
834.682	16497
834.821	16478
834.959	16645
835.097	16565
835.235	16634
835.373	16599
835.511	16630
835.65	16466
835.788	16432
835.926	16390
836.064	16253
836.202	16363
836.34	16405
836.478	16538
836.615	16424
836.753	16447
836.891	16550
837.029	16542
837.167	16386
837.305	16371
837.443	16322
837.58	16249
837.718	16421
837.856	16318
837.993	16173
838.131	16371
838.269	16284
838.406	16219
838.544	16234
838.681	16025
838.819	16040
838.956	15876
839.094	15903
839.231	15998
839.369	16128
839.506	16249
839.643	16128
839.781	15827
839.918	15880
840.055	15865
840.193	15800
840.33	15941
840.467	15800
840.604	15873
840.742	16036
840.879	15770
841.016	15800
841.153	15720
841.29	15918
841.427	15960
841.564	15941
841.701	15899
841.838	15876
841.975	15694
842.112	15869
842.249	15648
842.385	15637
842.522	15827
842.659	15667
842.796	15599
842.933	15591
843.069	15614
843.206	15603
843.343	15755
843.479	15717
843.616	15679
843.752	15405
843.889	15431
844.025	15553
844.162	15329
844.298	15458
844.435	15462
844.571	15424
844.708	15511
844.844	15720
844.98	15538
845.117	15511
845.253	15458
845.389	15370
845.525	15443
845.661	15340
845.798	15264
845.934	15306
846.07	15161
846.206	15298
846.342	15416
846.478	15192
846.614	15081
846.75	14925
846.886	14971
847.022	15116
847.158	14979
847.294	15074
847.429	15089
847.565	14956
847.701	15291
847.837	14823
847.972	14727
848.108	14845
848.244	14830
848.379	14731
848.515	14594
848.65	14606
848.786	14564
848.921	14568
849.057	14629
849.192	14659
849.328	14648
849.463	14674
849.598	14552
849.734	14530
849.869	14446
850.004	14358
850.14	14381
850.275	14377
850.41	14320
850.545	14305
850.68	14301
850.815	14473
850.95	14503
851.085	14503
851.22	14454
851.355	14309
851.49	14343
851.625	14362
851.76	14305
851.895	14267
852.03	14206
852.165	14332
852.299	14404
852.434	14579
852.569	14457
852.703	14347
852.838	14381
852.973	14526
853.107	14476
853.242	14347
853.376	14290
853.511	14088
853.645	14153
853.78	14267
853.914	14214
854.048	14221
854.183	14123
854.317	14374
854.451	14412
854.585	14199
854.72	14221
854.854	14389
854.988	14244
855.122	14214
855.256	14062
855.39	14282
855.524	14267
855.658	14290
855.792	14259
855.926	14202
856.06	14282
856.194	14366
856.327	14324
856.461	14202
856.595	14183
856.729	14271
856.862	14377
856.996	14282
857.13	14309
857.263	14320
857.397	14370
857.53	14259
857.664	14336
857.797	14309
857.931	14366
858.064	14214
858.197	14381
858.331	14221
858.464	14161
858.597	14138
858.731	14233
858.864	14130
858.997	14244
859.13	14267
859.263	14187
859.396	14336
859.529	14199
859.662	14138
859.795	14210
859.928	14278
860.061	14457
860.194	14385
860.327	14286
860.46	14161
860.592	14282
860.725	14442
860.858	14271
860.99	14263
861.123	14172
861.256	14218
861.388	14210
861.521	14754
861.653	14073
861.786	14145
861.918	14138
862.05	14153
862.183	14172
862.315	14317
862.447	14214
862.58	14240
862.712	13982
862.844	13868
862.976	14043
863.108	14119
863.24	14461
863.372	13944
863.504	13978
863.636	13932
863.768	14008
863.9	14001
864.032	13974
864.164	13921
864.296	14126
864.428	14134
864.559	14054
864.691	14115
864.823	14084
864.954	14031
865.086	14088
865.217	14111
865.349	13894
865.48	14054
865.612	14054
865.743	14183
865.875	13963
866.006	14024
866.137	13959
866.269	13989
866.4	14016
866.531	13936
866.662	14058
866.793	13970
866.924	13925
867.055	14050
867.186	14001
867.317	13936
867.448	13898
867.579	14031
867.71	13959
867.841	13856
867.972	13982
868.103	13959
868.233	13959
868.364	13970
868.495	14100
868.625	14225
868.756	14275
868.886	14240
869.017	14237
869.147	14415
869.278	14488
869.408	14278
869.539	14225
869.669	14362
869.799	14290
869.929	14309
870.06	14404
870.19	14594
870.32	14613
870.45	14598
870.58	14705
870.71	14754
870.84	14807
870.97	14526
871.1	14625
871.23	14883
871.36	14785
871.489	14773
871.619	14743
871.749	14853
871.879	14960
872.008	15024
872.138	14830
872.267	14872
872.397	14724
872.526	14743
872.656	14735
872.785	14659
872.915	14880
873.044	15017
873.173	14845
873.303	15005
873.432	14891
873.561	15081
873.69	14933
873.819	14861
873.948	14967
874.077	14902
874.206	14819
874.335	14872
874.464	15058
874.593	15161
874.722	15207
874.851	15135
874.979	15222
875.108	15298
875.237	15180
875.365	15207
875.494	15195
875.623	15264
875.751	15218
875.88	15161
876.008	15431
876.136	15412
876.265	15584
876.393	15793
876.521	15759
876.65	15717
876.778	15679
876.906	15778
877.034	15564
877.162	15652
877.29	15637
877.418	15739
877.546	15568
877.674	15629
877.802	15671
877.93	15629
878.058	15580
878.185	15542
878.313	15747
878.441	15591
878.568	15542
878.696	15584
878.824	15576
878.951	15736
879.079	15762
879.206	15956
879.333	15831
879.461	15694
879.588	15816
879.715	15835
879.842	15903
879.97	15713
880.097	15443
880.224	15386
880.351	15545
880.478	15408
880.605	15553
880.732	15553
880.859	15800
880.986	15523
881.112	15561
881.239	15332
881.366	15291
881.493	15256
881.619	15135
881.746	15028
881.872	15188
881.999	15173
882.125	15188
882.252	15192
882.378	15260
882.505	15302
882.631	15093
882.757	14960
882.883	14998
883.01	15039
883.136	14918
883.262	14739
883.388	14864
883.514	14994
883.64	15043
883.766	14899
883.892	14746
884.018	14724
884.143	14899
884.269	15020
884.395	14678
884.52	14587
884.646	14674
884.772	14625
884.897	14621
885.023	14670
885.148	14868
885.274	14781
885.399	14739
885.524	14682
885.65	14667
885.775	14617
885.9	14682
886.025	14773
886.15	14735
886.275	14629
886.4	14564
886.525	14720
886.65	14686
886.775	14579
886.9	14823
887.025	14918
887.149	14659
887.274	14564
887.399	14393
887.523	14514
887.648	14461
887.773	14457
887.897	14568
888.021	14514
888.146	14438
888.27	14598
888.395	14651
888.519	14564
888.643	14545
888.767	14594
888.891	14461
889.015	14339
889.139	14434
889.263	14434
889.387	14438
889.511	14511
889.635	14438
889.759	14461
889.883	14370
890.006	14412
890.13	14396
890.254	14294
890.377	14339
890.501	14107
890.624	14126
890.748	14263
890.871	14043
890.995	13986
891.118	14145
891.241	14149
891.364	14126
891.488	14161
891.611	14054
891.734	14069
891.857	14111
891.98	14107
892.103	14088
892.226	14126
892.349	14039
892.471	13921
892.594	13978
892.717	14046
892.839	14050
892.962	14088
893.085	14115
893.207	14084
893.33	13898
893.452	14027
893.575	14084
893.697	14054
893.819	14180
893.941	14275
894.064	14286
894.186	13986
894.308	13970
894.43	14153
894.552	14221
894.674	14233
894.796	14035
894.918	14046
895.04	14168
895.161	14225
895.283	14286
895.405	14142
895.526	14164
895.648	14153
895.769	14153
895.891	14206
896.012	14298
896.134	14218
896.255	14301
896.376	14199
896.498	14168
896.619	14244
896.74	14263
896.861	14313
896.982	14686
897.103	14762
897.224	14514
897.345	14492
897.466	14423
897.587	14492
897.708	14594
897.828	14564
897.949	14526
898.07	14446
898.19	14571
898.311	14716
898.431	14568
898.552	14556
898.672	14651
898.792	14754
898.913	14667
899.033	14522
899.153	14492
899.273	14358
899.393	14454
899.513	14492
899.633	14434
899.753	14457
899.873	14446
899.993	14514
900.113	14473
900.232	14465
900.352	14511
900.472	14393
900.591	14187
900.711	14309
900.83	14263
900.95	14393
901.069	14434
901.189	14252
901.308	14073
901.427	13967
901.546	13906
901.665	14065
901.784	14005
901.904	13833
902.023	13772
902.141	13677
902.26	13556
902.379	13643
902.498	13556
902.617	13594
902.735	13586
902.854	13506
902.973	13430
903.091	13407
903.21	13274
903.328	13263
903.446	13282
903.565	13088
903.683	13084
903.801	13015
903.919	13114
904.038	13061
904.156	13061
904.274	13012
904.392	12947
904.51	12951
904.627	12932
904.745	12913
904.863	12981
904.981	12776
905.098	12650
905.216	12639
905.334	12662
905.451	12753
905.569	12627
905.686	12642
905.803	12669
905.921	12540
906.038	12574
906.155	12422
906.272	12266
906.389	12399
906.506	12197
906.623	12148
906.74	12098
906.857	12091
906.974	12083
907.091	12308
907.208	12243
907.324	12163
907.441	12121
907.557	11965
907.674	12022
907.79	11843
907.907	11961
908.023	11954
908.139	11912
908.256	11912
908.372	11935
908.488	11802
908.604	11737
908.72	11653
908.836	11767
908.952	11672
909.068	11714
909.184	11767
909.3	11771
909.415	11790
909.531	11688
909.647	11570
909.762	11501
909.878	11486
909.993	11535
910.108	11490
910.224	11417
910.339	11482
910.454	11436
910.57	11341
910.685	11341
910.8	11600
910.915	11501
911.03	11372
911.145	11223
911.259	11193
911.374	11220
911.489	11109
911.604	11056
911.718	11003
911.833	10968
911.947	10869
912.062	10763
912.176	10908
912.291	10953
912.405	10995
912.519	11151
912.633	11155
912.748	10968
912.862	10953
912.976	10755
913.09	10710
913.204	10797
913.318	10911
913.431	10858
913.545	10908
913.659	10942
913.772	10809
913.886	10694
914	10626
914.113	10797
914.226	10850
914.34	10774
914.453	10611
914.566	10797
914.68	10702
914.793	10679
914.906	10459
915.019	10455
915.132	10417
915.245	10485
915.358	10470
915.47	10474
915.583	10462
915.696	10485
915.809	10493
915.921	10634
916.034	10451
916.146	10409
916.259	10390
916.371	10508
916.483	10432
916.595	10337
916.708	10367
916.82	10447
916.932	10402
917.044	10363
917.156	10318
917.268	10272
917.38	10314
917.491	10230
917.603	10333
917.715	10367
917.826	10424
917.938	10215
918.049	10162
918.161	10352
918.272	10402
918.384	10459
918.495	10322
918.606	10200
918.717	10109
918.828	10150
918.939	10223
919.05	10059
919.161	10169
919.272	9972
919.383	10105
919.494	10295
919.604	10329
919.715	10227
919.826	10120
919.936	10177
920.047	10238
920.157	10162
920.267	10451
920.378	10185
920.488	10207
920.598	10443
920.708	10470
920.818	10352
920.928	10363
921.038	10538
921.148	10523
921.258	10261
921.368	10162
921.477	10086
921.587	9998
921.697	9888
921.806	10002
921.916	9915
922.025	9819
922.134	9740
922.244	9747
922.353	9842
922.462	9656
922.571	9599
922.68	9382
922.789	9412
922.898	9447
923.007	9382
923.116	9416
923.224	9420
923.333	9439
923.442	9313
923.55	9321
923.659	9310
923.767	9405
923.876	9279
923.984	9416
924.092	9245
924.201	9317
924.309	9370
924.417	9279
924.525	9283
924.633	9340
924.741	10032
924.849	9036
924.956	9260
925.064	9093
925.172	9028
925.279	9039
925.387	9154
925.494	9119
925.602	9260
925.709	9150
925.816	9074
925.924	9097
926.031	9157
926.138	9165
926.245	9192
926.352	9055
926.459	9173
926.566	9211
926.673	9005
926.779	8948
926.886	8994
926.993	8910
927.099	8800
927.206	8785
927.312	8762
927.419	8891
927.525	8769
927.631	8838
927.737	8712
927.843	8667
927.95	8610
928.056	8621
928.162	8659
928.267	8785
928.373	9370
928.479	8868
928.585	8583
928.69	8697
928.796	8697
928.901	8613
929.007	8480
929.112	8720
929.218	8590
929.323	8602
929.428	8530
929.533	8670
929.638	8469
929.743	8549
929.848	8488
929.953	8526
930.058	8427
930.163	8298
930.267	8389
930.372	8495
930.477	8237
930.581	8484
930.685	8385
930.79	8233
930.894	8233
930.998	8267
931.103	8294
931.207	8081
931.311	8020
931.415	7982
931.519	7792
931.623	7681
