Data from test_V78500241_2832.txt Node
Date: Fri Mar 25 14:53:26 CST 2022
User: usil
Spectrometer: V785-0024
Trigger mode: 0
Integration Time (sec): 4.000000E-1
Scans to average: 1
Nonlinearity correction enabled: false
Boxcar width: 0
Storing dark spectrum: false
XAxis mode: Wavelengths
Number of Pixels in Spectrum: 1024
>>>>>Begin Spectral Data<<<<<
801.071	22059
801.214	21941
801.356	21747
801.499	21633
801.641	21447
801.783	21412
801.926	21378
802.068	21397
802.211	21310
802.353	21233
802.496	21005
802.638	20963
802.78	20887
802.923	20823
803.065	20705
803.208	20693
803.35	20788
803.492	20857
803.635	20872
803.777	20830
803.919	20815
804.061	21165
804.204	20811
804.346	20697
804.488	20754
804.63	20655
804.773	20606
804.915	20651
805.057	20796
805.199	20659
805.341	20739
805.483	20644
805.626	20845
805.768	20552
805.91	20720
806.052	20613
806.194	20533
806.336	20777
806.478	20632
806.62	20530
806.762	20716
806.904	20861
807.046	21055
807.188	21062
807.33	20971
807.472	21169
807.614	20914
807.756	20929
807.898	20880
808.04	20727
808.182	20644
808.324	20712
808.465	20705
808.607	20918
808.749	21055
808.891	21203
809.033	21169
809.174	21169
809.316	21017
809.458	21085
809.6	21150
809.741	21085
809.883	21024
810.025	21325
810.166	21146
810.308	21203
810.45	21093
810.591	21036
810.733	20937
810.875	20845
811.016	20640
811.158	20613
811.299	20807
811.441	20952
811.582	20979
811.724	20781
811.865	20678
812.007	20800
812.148	20807
812.29	20895
812.431	20876
812.573	21142
812.714	21306
812.855	21268
812.997	21340
813.138	21428
813.279	21408
813.421	21306
813.562	21264
813.703	21093
813.845	20982
813.986	20788
814.127	20587
814.268	20473
814.41	20476
814.551	20320
814.692	20396
814.833	20271
814.974	20290
815.115	20336
815.256	20218
815.397	20107
815.539	20298
815.68	20096
815.821	20058
815.962	20138
816.103	20069
816.244	19970
816.385	19791
816.526	19799
816.666	19609
816.807	19438
816.948	19529
817.089	19674
817.23	19605
817.371	19521
817.512	19464
817.653	19426
817.793	19434
817.934	19556
818.075	19559
818.216	19643
818.356	19441
818.497	19331
818.638	19118
818.778	19244
818.919	19247
819.06	19209
819.2	19247
819.341	19354
819.481	19377
819.622	19601
819.762	19662
819.903	19609
820.043	19578
820.184	19533
820.324	19537
820.465	19483
820.605	19487
820.746	19411
820.886	19358
821.026	19369
821.167	19354
821.307	19400
821.447	19460
821.588	19236
821.728	19209
821.868	18924
822.008	18924
822.149	18856
822.289	18764
822.429	18551
822.569	18582
822.709	18578
822.849	18323
822.99	18391
823.13	18262
823.27	18308
823.41	18133
823.55	18079
823.69	18121
823.83	18163
823.97	18129
824.11	17874
824.25	17923
824.389	17809
824.529	18030
824.669	17840
824.809	18045
824.949	18045
825.089	17984
825.228	17939
825.368	17745
825.508	17726
825.648	17798
825.787	17851
825.927	17764
826.067	17619
826.206	17745
826.346	17737
826.485	17676
826.625	17802
826.765	17836
826.904	17771
827.044	17554
827.183	17436
827.323	17478
827.462	17520
827.601	17406
827.741	17406
827.88	17433
828.02	17345
828.159	17379
828.298	17379
828.437	17402
828.577	17387
828.716	17482
828.855	17402
828.994	17231
829.134	17280
829.273	17280
829.412	17170
829.551	17151
829.69	17090
829.829	17227
829.968	17246
830.107	17117
830.246	17151
830.385	17132
830.524	17003
830.663	16957
830.802	16900
830.941	16752
831.08	16786
831.219	16767
831.357	16790
831.496	16816
831.635	16664
831.774	16679
831.913	16588
832.051	16546
832.19	16550
832.329	16561
832.467	16493
832.606	16398
832.744	16474
832.883	16398
833.022	16405
833.16	16470
833.299	16451
833.437	16500
833.576	16462
833.714	16493
833.852	16474
833.991	16485
834.129	16558
834.267	16535
834.406	16569
834.544	16470
834.682	16451
834.821	16561
834.959	16645
835.097	16443
835.235	16554
835.373	16497
835.511	16641
835.65	16325
835.788	16375
835.926	16272
836.064	16234
836.202	16261
836.34	16565
836.478	16447
836.615	16493
836.753	16466
836.891	16462
837.029	16436
837.167	16352
837.305	16253
837.443	16261
837.58	16253
837.718	16379
837.856	16268
837.993	16166
838.131	16333
838.269	16219
838.406	16246
838.544	16265
838.681	16093
838.819	16013
838.956	15838
839.094	15831
839.231	15857
839.369	16002
839.506	16154
839.643	16055
839.781	15838
839.918	15751
840.055	15922
840.193	15736
840.33	15804
840.467	15869
840.604	15899
840.742	16173
840.879	15618
841.016	15766
841.153	15739
841.29	15937
841.427	15861
841.564	15930
841.701	15778
841.838	15698
841.975	15713
842.112	15739
842.249	15671
842.385	15561
842.522	15895
842.659	15637
842.796	15584
842.933	15641
843.069	15534
843.206	15538
843.343	15667
843.479	15603
843.616	15599
843.752	15443
843.889	15397
844.025	15603
844.162	15294
844.298	15462
844.435	15287
844.571	15462
844.708	15439
844.844	15625
844.98	15561
845.117	15553
845.253	15344
845.389	15389
845.525	15348
845.661	15291
845.798	15268
845.934	15252
846.07	15157
846.206	15195
846.342	15256
846.478	15241
846.614	15017
846.75	14937
846.886	14861
847.022	15093
847.158	14937
847.294	14899
847.429	15020
847.565	14895
847.701	15207
847.837	14785
847.972	14743
848.108	14880
848.244	14815
848.379	14697
848.515	14610
848.65	14549
848.786	14590
848.921	14549
849.057	14632
849.192	14655
849.328	14621
849.463	14530
849.598	14454
849.734	14461
849.869	14412
850.004	14351
850.14	14427
850.275	14332
850.41	14202
850.545	14267
850.68	14358
850.815	14434
850.95	14275
851.085	14518
851.22	14469
851.355	14412
851.49	14336
851.625	14347
851.76	14324
851.895	14225
852.03	14229
852.165	14313
852.299	14294
852.434	14438
852.569	14355
852.703	14374
852.838	14438
852.973	14473
853.107	14522
853.242	14351
853.376	14244
853.511	14161
853.645	14176
853.78	14324
853.914	14263
854.048	14221
854.183	14195
854.317	14161
854.451	14358
854.585	14176
854.72	14115
854.854	14206
854.988	14130
855.122	14172
855.256	14092
855.39	14210
855.524	14286
855.658	14286
855.792	14225
855.926	14271
856.06	14267
856.194	14400
856.327	14195
856.461	14153
856.595	14123
856.729	14183
856.862	14336
856.996	14259
857.13	14339
857.263	14347
857.397	14404
857.53	14134
857.664	14336
857.797	14313
857.931	14282
858.064	14172
858.197	14309
858.331	14134
858.464	14157
858.597	14119
858.731	14142
858.864	14294
858.997	14119
859.13	14233
859.263	14221
859.396	14351
859.529	14221
859.662	14233
859.795	14149
859.928	14286
860.061	14415
860.194	14423
860.327	14256
860.46	14301
860.592	14328
860.725	14275
860.858	14328
860.99	14119
861.123	14111
861.256	14111
861.388	14164
861.521	14811
861.653	14039
861.786	14062
861.918	14123
862.05	14088
862.183	14221
862.315	14168
862.447	14191
862.58	14130
862.712	14111
862.844	13837
862.976	14062
863.108	14084
863.24	14393
863.372	13944
863.504	14020
863.636	13955
863.768	14065
863.9	14027
864.032	13883
864.164	14001
864.296	14039
864.428	14043
864.559	14035
864.691	14039
864.823	14050
864.954	14020
865.086	13982
865.217	13959
865.349	13902
865.48	13997
865.612	13909
865.743	14062
865.875	14020
866.006	13951
866.137	13967
866.269	13936
866.4	13974
866.531	13978
866.662	13925
866.793	13868
866.924	13906
867.055	13959
867.186	13970
867.317	13871
867.448	13921
867.579	13883
867.71	13875
867.841	13951
867.972	13967
868.103	14062
868.233	13970
868.364	13986
868.495	14107
868.625	14309
868.756	14317
868.886	14142
869.017	14252
869.147	14275
869.278	14339
869.408	14153
869.539	14248
869.669	14317
869.799	14336
869.929	14336
870.06	14301
870.19	14541
870.32	14476
870.45	14556
870.58	14575
870.71	14712
870.84	14724
870.97	14625
871.1	14545
871.23	14758
871.36	14838
871.489	14823
871.619	14705
871.749	14861
871.879	14887
872.008	14849
872.138	14826
872.267	14861
872.397	14724
872.526	14613
872.656	14610
872.785	14708
872.915	14899
873.044	14948
873.173	14815
873.303	14899
873.432	14819
873.561	14906
873.69	14956
873.819	14853
873.948	14933
874.077	14899
874.206	14823
874.335	14876
874.464	14998
874.593	15146
874.722	15089
874.851	15310
874.979	15180
875.108	15332
875.237	15249
875.365	15097
875.494	15157
875.623	15294
875.751	15157
875.88	15211
876.008	15431
876.136	15443
876.265	15557
876.393	15724
876.521	15720
876.65	15755
876.778	15587
876.906	15595
877.034	15530
877.162	15568
877.29	15591
877.418	15686
877.546	15584
877.674	15595
877.802	15538
877.93	15660
878.058	15603
878.185	15469
878.313	15549
878.441	15641
878.568	15428
878.696	15507
878.824	15504
878.951	15629
879.079	15785
879.206	15937
879.333	15838
879.461	15732
879.588	15755
879.715	15797
879.842	15892
879.97	15686
880.097	15538
880.224	15412
880.351	15431
880.478	15511
880.605	15462
880.732	15530
880.859	15641
880.986	15473
881.112	15515
881.239	15386
881.366	15287
881.493	15211
881.619	15127
881.746	14986
881.872	15165
881.999	15066
882.125	15104
882.252	15180
882.378	14986
882.505	15389
882.631	15070
882.757	14918
882.883	14921
883.01	14914
883.136	14823
883.262	14845
883.388	14777
883.514	14918
883.64	14998
883.766	14845
883.892	14636
884.018	14876
884.143	14941
884.269	15150
884.395	14720
884.52	14560
884.646	14632
884.772	14697
884.897	14556
885.023	14564
885.148	14777
885.274	14712
885.399	14891
885.524	14594
885.65	14625
885.775	14716
885.9	14640
886.025	14788
886.15	14644
886.275	14617
886.4	14610
886.525	14564
886.65	14613
886.775	14503
886.9	14815
887.025	14887
887.149	14594
887.274	14419
887.399	14560
887.523	14495
887.648	14343
887.773	14343
887.897	14583
888.021	14503
888.146	14404
888.27	14610
888.395	14575
888.519	14469
888.643	14454
888.767	14522
888.891	14347
889.015	14434
889.139	14317
889.263	14381
889.387	14495
889.511	14526
889.635	14454
889.759	14229
889.883	14259
890.006	14271
890.13	14400
890.254	14328
890.377	14244
890.501	14119
890.624	14126
890.748	14206
890.871	14073
890.995	14012
891.118	13989
891.241	14069
891.364	14027
891.488	14157
891.611	14065
891.734	14065
891.857	13989
891.98	14084
892.103	14107
892.226	14058
892.349	14081
892.471	13932
892.594	14058
892.717	14008
892.839	14008
892.962	13997
893.085	14126
893.207	14020
893.33	13906
893.452	13894
893.575	14077
893.697	14039
893.819	14233
893.941	14191
894.064	14225
894.186	14012
894.308	13986
894.43	14195
894.552	14214
894.674	14172
894.796	14050
894.918	14088
895.04	14054
895.161	14149
895.283	14092
895.405	14123
895.526	14088
895.648	14161
895.769	14202
895.891	14092
896.012	14240
896.134	14206
896.255	14183
896.376	14256
896.498	14240
896.619	14259
896.74	14256
896.861	14298
896.982	14564
897.103	14705
897.224	14492
897.345	14389
897.466	14396
897.587	14492
897.708	14606
897.828	14533
897.949	14427
898.07	14385
898.19	14393
898.311	14492
898.431	14488
898.552	14552
898.672	14617
898.792	14640
898.913	14579
899.033	14457
899.153	14347
899.273	14362
899.393	14377
899.513	14454
899.633	14415
899.753	14537
899.873	14336
899.993	14492
900.113	14370
900.232	14511
900.352	14415
900.472	14298
900.591	14202
900.711	14290
900.83	14123
900.95	14320
901.069	14408
901.189	14187
901.308	13989
901.427	13932
901.546	13944
901.665	13978
901.784	13902
901.904	13906
902.023	13807
902.141	13586
902.26	13529
902.379	13620
902.498	13510
902.617	13468
902.735	13586
902.854	13578
902.973	13480
903.091	13259
903.21	13149
903.328	13236
903.446	13114
903.565	13053
903.683	13206
903.801	13053
903.919	13091
904.038	13122
904.156	12951
904.274	12913
904.392	12920
904.51	12897
904.627	12916
904.745	12973
904.863	13004
904.981	12711
905.098	12509
905.216	12574
905.334	12559
905.451	12623
905.569	12566
905.686	12559
905.803	12650
905.921	12384
906.038	12608
906.155	12369
906.272	12395
906.389	12323
906.506	12083
906.623	12281
906.74	12167
906.857	12064
906.974	12125
907.091	12251
907.208	12285
907.324	12201
907.441	12186
907.557	11946
907.674	11958
907.79	11851
907.907	11912
908.023	11980
908.139	11973
908.256	11939
908.372	11916
908.488	11843
908.604	11798
908.72	11684
908.836	11600
908.952	11710
909.068	11699
909.184	11805
909.3	11710
909.415	11737
909.531	11741
909.647	11528
909.762	11547
909.878	11486
909.993	11520
910.108	11448
910.224	11246
910.339	11414
910.454	11383
910.57	11345
910.685	11250
910.8	11520
910.915	11474
911.03	11303
911.145	11170
911.259	11109
911.374	11201
911.489	11094
911.604	11037
911.718	10938
911.833	10991
911.947	10889
912.062	10809
912.176	10873
912.291	10919
912.405	10953
912.519	11166
912.633	11299
912.748	10980
912.862	10965
912.976	10782
913.09	10683
913.204	10763
913.318	10831
913.431	10873
913.545	10972
913.659	10949
913.772	10873
913.886	10748
914	10748
914.113	10782
914.226	10793
914.34	10828
914.453	10603
914.566	10714
914.68	10679
914.793	10668
914.906	10481
915.019	10417
915.132	10413
915.245	10508
915.358	10508
915.47	10535
915.583	10592
915.696	10523
915.809	10588
915.921	10694
916.034	10455
916.146	10363
916.259	10337
916.371	10508
916.483	10455
916.595	10386
916.708	10497
916.82	10363
916.932	10333
917.044	10348
917.156	10371
917.268	10276
917.38	10344
917.491	10261
917.603	10379
917.715	10363
917.826	10440
917.938	10360
918.049	10249
918.161	10329
918.272	10398
918.384	10478
918.495	10394
918.606	10147
918.717	10124
918.828	10166
918.939	10333
919.05	10101
919.161	10143
919.272	10025
919.383	10055
919.494	10215
919.604	10436
919.715	10291
919.826	10131
919.936	10268
920.047	10329
920.157	10219
920.267	10409
920.378	10314
920.488	10177
920.598	10360
920.708	10531
920.818	10459
920.928	10466
921.038	10592
921.148	10565
921.258	10169
921.368	10135
921.477	10124
921.587	10044
921.697	9922
921.806	10032
921.916	9964
922.025	9770
922.134	9838
922.244	9759
922.353	9876
922.462	9705
922.571	9622
922.68	9496
922.789	9466
922.898	9428
923.007	9462
923.116	9504
923.224	9492
923.333	9401
923.442	9374
923.55	9405
923.659	9359
923.767	9477
923.876	9268
923.984	9359
924.092	9230
924.201	9340
924.309	9321
924.417	9291
924.525	9264
924.633	9264
924.741	10093
924.849	9097
924.956	9241
925.064	9154
925.172	9051
925.279	9066
925.387	9135
925.494	9188
925.602	9260
925.709	9241
925.816	9032
925.924	9230
926.031	9176
926.138	9112
926.245	9146
926.352	9062
926.459	9169
926.566	9241
926.673	9142
926.779	8960
926.886	8948
926.993	8880
927.099	8838
927.206	8857
927.312	8769
927.419	8868
927.525	8891
927.631	8921
927.737	8731
927.843	8701
927.95	8651
928.056	8674
928.162	8739
928.267	8796
928.373	9329
928.479	8849
928.585	8579
928.69	8727
928.796	8708
928.901	8651
929.007	8526
929.112	8625
929.218	8587
929.323	8602
929.428	8499
929.533	8644
929.638	8575
929.743	8507
929.848	8594
929.953	8537
930.058	8488
930.163	8244
930.267	8370
930.372	8415
930.477	8286
930.581	8560
930.685	8450
930.79	8259
930.894	8233
930.998	8237
931.103	8377
931.207	7997
931.311	7986
931.415	7959
931.519	7788
931.623	7753
