Data from test_V78500241_1514.txt Node
Date: Fri Mar 25 14:44:15 CST 2022
User: usil
Spectrometer: V785-0024
Trigger mode: 0
Integration Time (sec): 4.000000E-1
Scans to average: 1
Nonlinearity correction enabled: false
Boxcar width: 0
Storing dark spectrum: false
XAxis mode: Wavelengths
Number of Pixels in Spectrum: 1024
>>>>>Begin Spectral Data<<<<<
801.071	22447
801.214	22265
801.356	22048
801.499	21926
801.641	21873
801.783	21671
801.926	21880
802.068	21713
802.211	21709
802.353	21591
802.496	21325
802.638	21275
802.78	21188
802.923	21176
803.065	21119
803.208	21135
803.35	21222
803.492	21313
803.635	21298
803.777	21161
803.919	21214
804.061	21488
804.204	21214
804.346	21108
804.488	21066
804.63	21028
804.773	20975
804.915	21028
805.057	21214
805.199	21047
805.341	21123
805.483	21241
805.626	21173
805.768	20971
805.91	21104
806.052	21100
806.194	20933
806.336	21173
806.478	21089
806.62	21096
806.762	21051
806.904	21218
807.046	21428
807.188	21374
807.33	21454
807.472	21599
807.614	21382
807.756	21500
807.898	21351
808.04	21283
808.182	21230
808.324	21378
808.465	21389
808.607	21568
808.749	21743
808.891	21778
809.033	21743
809.174	21656
809.316	21545
809.458	21618
809.6	21519
809.741	21549
809.883	21553
810.025	21709
810.166	21603
810.308	21652
810.45	21618
810.591	21504
810.733	21386
810.875	21291
811.016	21089
811.158	21123
811.299	21294
811.441	21473
811.582	21443
811.724	21256
811.865	21192
812.007	21123
812.148	21291
812.29	21222
812.431	21332
812.573	21633
812.714	21705
812.855	21785
812.997	21850
813.138	21937
813.279	21808
813.421	21793
813.562	21644
813.703	21511
813.845	21485
813.986	21085
814.127	20948
814.268	20842
814.41	20880
814.551	20861
814.692	20880
814.833	20777
814.974	20606
815.115	20883
815.256	20632
815.397	20503
815.539	20651
815.68	20476
815.821	20488
815.962	20655
816.103	20473
816.244	20313
816.385	20176
816.526	20248
816.666	20119
816.807	19951
816.948	20107
817.089	20039
817.23	19951
817.371	19982
817.512	20008
817.653	20001
817.793	19913
817.934	19986
818.075	20005
818.216	19967
818.356	19860
818.497	19830
818.638	19639
818.778	19510
818.919	19586
819.06	19643
819.2	19677
819.341	19887
819.481	19894
819.622	19959
819.762	20126
819.903	20050
820.043	19978
820.184	19894
820.324	19955
820.465	19993
820.605	19841
820.746	19868
820.886	19833
821.026	19849
821.167	19936
821.307	19784
821.447	19807
821.588	19757
821.728	19578
821.868	19422
822.008	19335
822.149	19282
822.289	19198
822.429	19084
822.569	19065
822.709	18951
822.849	18817
822.99	18977
823.13	18692
823.27	18726
823.41	18612
823.55	18494
823.69	18582
823.83	18525
823.97	18528
824.11	18399
824.25	18334
824.389	18380
824.529	18353
824.669	18361
824.809	18437
824.949	18369
825.089	18437
825.228	18323
825.368	18167
825.508	18174
825.648	18174
825.787	18228
825.927	18296
826.067	18190
826.206	18167
826.346	18209
826.485	18007
826.625	18049
826.765	18178
826.904	18117
827.044	17878
827.183	17859
827.323	17775
827.462	17908
827.601	17836
827.741	17821
827.88	17798
828.02	17649
828.159	17752
828.298	17942
828.437	17874
828.577	17840
828.716	17958
828.855	17794
828.994	17623
829.134	17608
829.273	17585
829.412	17474
829.551	17551
829.69	17589
829.829	17581
829.968	17676
830.107	17680
830.246	17649
830.385	17505
830.524	17524
830.663	17398
830.802	17341
830.941	17193
831.08	17166
831.219	17216
831.357	17246
831.496	17497
831.635	17235
831.774	17029
831.913	17086
832.051	17022
832.19	16858
832.329	17045
832.467	16854
832.606	16873
832.744	16923
832.883	16839
833.022	16790
833.16	16908
833.299	16839
833.437	16946
833.576	16915
833.714	16892
833.852	16915
833.991	16946
834.129	17060
834.267	16946
834.406	16930
834.544	16953
834.682	16919
834.821	16930
834.959	17124
835.097	16938
835.235	16995
835.373	17033
835.511	16968
835.65	16763
835.788	16786
835.926	16656
836.064	16675
836.202	16672
836.34	16820
836.478	16896
836.615	16744
836.753	16771
836.891	16820
837.029	16881
837.167	16877
837.305	16721
837.443	16771
837.58	16675
837.718	16691
837.856	16622
837.993	16611
838.131	16774
838.269	16588
838.406	16607
838.544	16573
838.681	16272
838.819	16405
838.956	16238
839.094	16173
839.231	16287
839.369	16310
839.506	16592
839.643	16512
839.781	16303
839.918	16291
840.055	16166
840.193	16131
840.33	16280
840.467	16200
840.604	16249
840.742	16360
840.879	16097
841.016	16093
841.153	16109
841.29	16398
841.427	16265
841.564	16234
841.701	16234
841.838	16154
841.975	16177
842.112	16105
842.249	16013
842.385	15926
842.522	16147
842.659	15953
842.796	15895
842.933	16029
843.069	15960
843.206	15846
843.343	15998
843.479	15964
843.616	15876
843.752	15728
843.889	15808
844.025	15892
844.162	15797
844.298	15884
844.435	15774
844.571	15614
844.708	15975
844.844	15922
844.98	15895
845.117	16002
845.253	15797
845.389	15663
845.525	15751
845.661	15732
845.798	15717
845.934	15778
846.07	15816
846.206	15831
846.342	15937
846.478	15720
846.614	15488
846.75	15378
846.886	15363
847.022	15439
847.158	15344
847.294	15325
847.429	15378
847.565	15351
847.701	15671
847.837	15081
847.972	15089
848.108	15165
848.244	15272
848.379	15058
848.515	14929
848.65	14910
848.786	15017
848.921	14868
849.057	15089
849.192	15089
849.328	14971
849.463	15043
849.598	14937
849.734	14937
849.869	14845
850.004	14712
850.14	14769
850.275	14697
850.41	14632
850.545	14693
850.68	14731
850.815	14682
850.95	14720
851.085	14937
851.22	14830
851.355	14651
851.49	14720
851.625	14701
851.76	14674
851.895	14568
852.03	14556
852.165	14659
852.299	14716
852.434	14735
852.569	14724
852.703	14689
852.838	14826
852.973	14788
853.107	14845
853.242	14644
853.376	14644
853.511	14469
853.645	14518
853.78	14655
853.914	14678
854.048	14598
854.183	14522
854.317	14617
854.451	14731
854.585	14663
854.72	14533
854.854	14632
854.988	14499
855.122	14465
855.256	14465
855.39	14663
855.524	14686
855.658	14613
855.792	14575
855.926	14651
856.06	14579
856.194	14587
856.327	14537
856.461	14575
856.595	14522
856.729	14518
856.862	14697
856.996	14537
857.13	14655
857.263	14765
857.397	14617
857.53	14518
857.664	14640
857.797	14613
857.931	14655
858.064	14613
858.197	14796
858.331	14495
858.464	14602
858.597	14450
858.731	14606
858.864	14579
858.997	14488
859.13	14606
859.263	14583
859.396	14598
859.529	14560
859.662	14514
859.795	14575
859.928	14579
860.061	14720
860.194	14613
860.327	14625
860.46	14583
860.592	14686
860.725	14750
860.858	14739
860.99	14617
861.123	14518
861.256	14473
861.388	14613
861.521	15146
861.653	14488
861.786	14473
861.918	14473
862.05	14518
862.183	14431
862.315	14476
862.447	14629
862.58	14412
862.712	14423
862.844	14332
862.976	14408
863.108	14419
863.24	14720
863.372	14267
863.504	14423
863.636	14389
863.768	14389
863.9	14343
864.032	14275
864.164	14271
864.296	14294
864.428	14461
864.559	14530
864.691	14454
864.823	14347
864.954	14332
865.086	14385
865.217	14347
865.349	14298
865.48	14305
865.612	14339
865.743	14480
865.875	14404
866.006	14286
866.137	14328
866.269	14404
866.4	14362
866.531	14317
866.662	14336
866.793	14221
866.924	14339
867.055	14244
867.186	14286
867.317	14275
867.448	14221
867.579	14332
867.71	14149
867.841	14275
867.972	14290
868.103	14294
868.233	14259
868.364	14309
868.495	14415
868.625	14598
868.756	14678
868.886	14423
869.017	14541
869.147	14644
869.278	14625
869.408	14526
869.539	14602
869.669	14720
869.799	14522
869.929	14697
870.06	14705
870.19	14853
870.32	14861
870.45	14960
870.58	14994
870.71	15028
870.84	15097
870.97	14960
871.1	14979
871.23	15116
871.36	15222
871.489	15036
871.619	15097
871.749	15032
871.879	15184
872.008	15287
872.138	15222
872.267	15169
872.397	15066
872.526	14956
872.656	14925
872.785	14960
872.915	15184
873.044	15249
873.173	15100
873.303	15237
873.432	15169
873.561	15348
873.69	15241
873.819	15355
873.948	15351
874.077	15165
874.206	15195
874.335	15184
874.464	15355
874.593	15587
874.722	15416
874.851	15564
874.979	15523
875.108	15538
875.237	15424
875.365	15389
875.494	15454
875.623	15660
875.751	15625
875.88	15523
876.008	15682
876.136	15781
876.265	15915
876.393	16032
876.521	15937
876.65	16063
876.778	15899
876.906	15899
877.034	15892
877.162	16048
877.29	15808
877.418	16013
877.546	15884
877.674	15991
877.802	15934
877.93	15884
878.058	15926
878.185	15808
878.313	15915
878.441	16063
878.568	15762
878.696	15888
878.824	15949
878.951	16048
879.079	16192
879.206	16337
879.333	16200
879.461	15964
879.588	16215
879.715	16196
879.842	16268
879.97	16040
880.097	15895
880.224	15835
880.351	15865
880.478	15873
880.605	15842
880.732	15766
880.859	16002
880.986	15781
881.112	15869
881.239	15679
881.366	15519
881.493	15458
881.619	15496
881.746	15488
881.872	15466
881.999	15450
882.125	15439
882.252	15507
882.378	15530
882.505	15652
882.631	15462
882.757	15313
882.883	15450
883.01	15313
883.136	15180
883.262	15283
883.388	15116
883.514	15329
883.64	15325
883.766	15287
883.892	15123
884.018	15252
884.143	15302
884.269	15389
884.395	15150
884.52	14857
884.646	14937
884.772	14868
884.897	14804
885.023	15005
885.148	15036
885.274	15150
885.399	15150
885.524	14986
885.65	14963
885.775	14941
885.9	14960
886.025	15138
886.15	15108
886.275	14956
886.4	14941
886.525	14982
886.65	14937
886.775	14777
886.9	15039
887.025	15275
887.149	14941
887.274	14826
887.399	14830
887.523	14762
887.648	14777
887.773	14720
887.897	14887
888.021	14811
888.146	14693
888.27	14876
888.395	14842
888.519	14910
888.643	14765
888.767	14960
888.891	14727
889.015	14663
889.139	14765
889.263	14655
889.387	14689
889.511	14910
889.635	14727
889.759	14537
889.883	14556
890.006	14674
890.13	14792
890.254	14663
890.377	14651
890.501	14423
890.624	14507
890.748	14518
890.871	14362
890.995	14320
891.118	14313
891.241	14305
891.364	14240
891.488	14469
891.611	14324
891.734	14313
891.857	14423
891.98	14431
892.103	14438
892.226	14328
892.349	14358
892.471	14157
892.594	14248
892.717	14362
892.839	14434
892.962	14404
893.085	14339
893.207	14412
893.33	14233
893.452	14313
893.575	14434
893.697	14267
893.819	14541
893.941	14537
894.064	14438
894.186	14282
894.308	14355
894.43	14434
894.552	14499
894.674	14408
894.796	14267
894.918	14343
895.04	14282
895.161	14560
895.283	14408
895.405	14450
895.526	14438
895.648	14480
895.769	14400
895.891	14514
896.012	14625
896.134	14434
896.255	14503
896.376	14503
896.498	14419
896.619	14469
896.74	14545
896.861	14507
896.982	14891
897.103	15024
897.224	14765
897.345	14758
897.466	14735
897.587	14705
897.708	14933
897.828	14937
897.949	14880
898.07	14712
898.19	14739
898.311	14849
898.431	14716
898.552	14826
898.672	14975
898.792	14910
898.913	14868
899.033	14769
899.153	14701
899.273	14655
899.393	14678
899.513	14670
899.633	14697
899.753	14754
899.873	14686
899.993	14670
900.113	14629
900.232	14667
900.352	14739
900.472	14644
900.591	14598
900.711	14610
900.83	14514
900.95	14651
901.069	14621
901.189	14461
901.308	14332
901.427	14202
901.546	14305
901.665	14271
901.784	14317
901.904	14202
902.023	14035
902.141	13963
902.26	13753
902.379	13864
902.498	13822
902.617	13723
902.735	13879
902.854	13788
902.973	13712
903.091	13537
903.21	13510
903.328	13483
903.446	13525
903.565	13438
903.683	13373
903.801	13240
903.919	13373
904.038	13350
904.156	13270
904.274	13266
904.392	13160
904.51	13236
904.627	13217
904.745	13240
904.863	13301
904.981	13015
905.098	12863
905.216	12894
905.334	12958
905.451	12916
905.569	12817
905.686	12863
905.803	12894
905.921	12745
906.038	12806
906.155	12673
906.272	12639
906.389	12612
906.506	12464
906.623	12452
906.74	12441
906.857	12300
906.974	12300
907.091	12486
907.208	12639
907.324	12467
907.441	12410
907.557	12220
907.674	12254
907.79	12045
907.907	12152
908.023	12213
908.139	12106
908.256	12220
908.372	12175
908.488	12083
908.604	11901
908.72	12038
908.836	11939
908.952	11908
909.068	11992
909.184	12053
909.3	11946
909.415	12038
909.531	11961
909.647	11790
909.762	11668
909.878	11718
909.993	11790
910.108	11646
910.224	11786
910.339	11729
910.454	11604
910.57	11589
910.685	11493
910.8	11786
910.915	11707
911.03	11562
911.145	11402
911.259	11452
911.374	11425
911.489	11318
911.604	11246
911.718	11204
911.833	11208
911.947	11048
912.062	10991
912.176	11162
912.291	11102
912.405	11185
912.519	11383
912.633	11391
912.748	11208
912.862	11204
912.976	11006
913.09	10957
913.204	11025
913.318	11064
913.431	11193
913.545	11143
913.659	11155
913.772	11086
913.886	10881
914	10961
914.113	11003
914.226	11037
914.34	10987
914.453	10854
914.566	10987
914.68	10984
914.793	10854
914.906	10649
915.019	10649
915.132	10588
915.245	10558
915.358	10660
915.47	10714
915.583	10733
915.696	10714
915.809	10828
915.921	10801
916.034	10649
916.146	10599
916.259	10618
916.371	10622
916.483	10645
916.595	10535
916.708	10584
916.82	10607
916.932	10573
917.044	10565
917.156	10527
917.268	10462
917.38	10527
917.491	10481
917.603	10588
917.715	10554
917.826	10550
917.938	10497
918.049	10455
918.161	10500
918.272	10622
918.384	10687
918.495	10466
918.606	10394
918.717	10268
918.828	10379
918.939	10386
919.05	10238
919.161	10432
919.272	10181
919.383	10265
919.494	10363
919.604	10630
919.715	10436
919.826	10284
919.936	10386
920.047	10565
920.157	10390
920.267	10538
920.378	10394
920.488	10424
920.598	10516
920.708	10664
920.818	10569
920.928	10535
921.038	10763
921.148	10721
921.258	10512
921.368	10291
921.477	10131
921.587	10268
921.697	10150
921.806	10268
921.916	10223
922.025	10002
922.134	9926
922.244	9979
922.353	9956
922.462	9816
922.571	9766
922.68	9679
922.789	9603
922.898	9637
923.007	9553
923.116	9622
923.224	9633
923.333	9618
923.442	9450
923.55	9511
923.659	9549
923.767	9526
923.876	9492
923.984	9610
924.092	9428
924.201	9492
924.309	9553
924.417	9462
924.525	9363
924.633	9504
924.741	10417
924.849	9275
924.956	9351
925.064	9195
925.172	9233
925.279	9237
925.387	9287
925.494	9279
925.602	9374
925.709	9393
925.816	9218
925.924	9348
926.031	9298
926.138	9287
926.245	9329
926.352	9264
926.459	9336
926.566	9313
926.673	9233
926.779	9135
926.886	9104
926.993	9005
927.099	9009
927.206	9009
927.312	8880
927.419	8975
927.525	8990
927.631	9032
927.737	8929
927.843	8849
927.95	8762
928.056	8861
928.162	8963
928.267	8891
928.373	9401
928.479	8986
928.585	8727
928.69	8880
928.796	8933
928.901	8868
929.007	8701
929.112	8769
929.218	8788
929.323	8693
929.428	8701
929.533	8773
929.638	8579
929.743	8678
929.848	8758
929.953	8648
930.058	8587
930.163	8454
930.267	8457
930.372	8632
930.477	8469
930.581	8678
930.685	8533
930.79	8389
930.894	8412
930.998	8320
931.103	8556
931.207	8191
931.311	8065
931.415	8043
931.519	7902
931.623	7887
