Data from test_V78500241_1212.txt Node
Date: Fri Mar 25 14:42:09 CST 2022
User: usil
Spectrometer: V785-0024
Trigger mode: 0
Integration Time (sec): 4.000000E-1
Scans to average: 1
Nonlinearity correction enabled: false
Boxcar width: 0
Storing dark spectrum: false
XAxis mode: Wavelengths
Number of Pixels in Spectrum: 1024
>>>>>Begin Spectral Data<<<<<
801.071	22554
801.214	22352
801.356	22128
801.499	21915
801.641	21709
801.783	21793
801.926	21766
802.068	21759
802.211	21736
802.353	21572
802.496	21431
802.638	21256
802.78	21192
802.923	21222
803.065	21093
803.208	21108
803.35	21157
803.492	21176
803.635	21199
803.777	21161
803.919	21260
804.061	21538
804.204	21135
804.346	21036
804.488	21024
804.63	21085
804.773	20960
804.915	21001
805.057	21154
805.199	20906
805.341	21131
805.483	21218
805.626	21154
805.768	20925
805.91	21055
806.052	21051
806.194	21020
806.336	21146
806.478	21096
806.62	20994
806.762	21165
806.904	21138
807.046	21469
807.188	21469
807.33	21344
807.472	21397
807.614	21306
807.756	21344
807.898	21313
808.04	21131
808.182	21066
808.324	21218
808.465	21207
808.607	21336
808.749	21515
808.891	21633
809.033	21606
809.174	21591
809.316	21477
809.458	21466
809.6	21393
809.741	21481
809.883	21496
810.025	21622
810.166	21667
810.308	21614
810.45	21477
810.591	21466
810.733	21401
810.875	21249
811.016	21131
811.158	21214
811.299	21329
811.441	21340
811.582	21344
811.724	21249
811.865	21233
812.007	21233
812.148	21161
812.29	21093
812.431	21431
812.573	21431
812.714	21603
812.855	21762
812.997	21926
813.138	21960
813.279	21751
813.421	21656
813.562	21580
813.703	21473
813.845	21313
813.986	21081
814.127	20925
814.268	20758
814.41	20762
814.551	20785
814.692	20937
814.833	20815
814.974	20689
815.115	20785
815.256	20613
815.397	20560
815.539	20598
815.68	20568
815.821	20328
815.962	20552
816.103	20473
816.244	20377
816.385	20389
816.526	20225
816.666	20183
816.807	19894
816.948	19986
817.089	20084
817.23	20024
817.371	19963
817.512	19864
817.653	19841
817.793	19833
817.934	20039
818.075	19913
818.216	19978
818.356	19963
818.497	19712
818.638	19506
818.778	19693
818.919	19590
819.06	19670
819.2	19674
819.341	19784
819.481	19769
819.622	19997
819.762	20214
819.903	20157
820.043	19925
820.184	20024
820.324	19906
820.465	20016
820.605	19849
820.746	19967
820.886	19723
821.026	19849
821.167	19753
821.307	19883
821.447	19913
821.588	19681
821.728	19575
821.868	19472
822.008	19301
822.149	19320
822.289	19339
822.429	19053
822.569	19031
822.709	19000
822.849	18825
822.99	18760
823.13	18696
823.27	18753
823.41	18730
823.55	18528
823.69	18608
823.83	18547
823.97	18566
824.11	18338
824.25	18391
824.389	18369
824.529	18486
824.669	18376
824.809	18479
824.949	18540
825.089	18399
825.228	18422
825.368	18171
825.508	18216
825.648	18270
825.787	18289
825.927	18201
826.067	18209
826.206	18095
826.346	18182
826.485	18304
826.625	18159
826.765	18266
826.904	18106
827.044	17950
827.183	17980
827.323	17775
827.462	17969
827.601	17927
827.741	17847
827.88	18007
828.02	17843
828.159	17889
828.298	17950
828.437	17908
828.577	17665
828.716	18091
828.855	17954
828.994	17596
829.134	17615
829.273	17646
829.412	17707
829.551	17566
829.69	17604
829.829	17703
829.968	17851
830.107	17653
830.246	17729
830.385	17539
830.524	17509
830.663	17356
830.802	17334
830.941	17185
831.08	17200
831.219	17376
831.357	17197
831.496	17425
831.635	17197
831.774	17128
831.913	17216
832.051	17003
832.19	17037
832.329	17090
832.467	17029
832.606	16805
832.744	16953
832.883	16938
833.022	16904
833.16	16949
833.299	17033
833.437	16843
833.576	16965
833.714	17094
833.852	17045
833.991	16957
834.129	17060
834.267	17048
834.406	16961
834.544	17041
834.682	16972
834.821	16976
834.959	17170
835.097	17022
835.235	17155
835.373	17109
835.511	17124
835.65	16984
835.788	16946
835.926	16847
836.064	16740
836.202	16797
836.34	16919
836.478	16923
836.615	16904
836.753	16915
836.891	16934
837.029	16938
837.167	16881
837.305	16862
837.443	16691
837.58	16683
837.718	16850
837.856	16866
837.993	16759
838.131	16763
838.269	16630
838.406	16668
838.544	16687
838.681	16451
838.819	16500
838.956	16337
839.094	16246
839.231	16306
839.369	16580
839.506	16748
839.643	16535
839.781	16318
839.918	16291
840.055	16360
840.193	16299
840.33	16333
840.467	16386
840.604	16295
840.742	16622
840.879	16219
841.016	16147
841.153	16207
841.29	16398
841.427	16303
841.564	16363
841.701	16318
841.838	16257
841.975	16226
842.112	16204
842.249	16166
842.385	16063
842.522	16287
842.659	16105
842.796	16109
842.933	16131
843.069	16090
843.206	16040
843.343	16147
843.479	16109
843.616	16120
843.752	15953
843.889	15854
844.025	16006
844.162	15888
844.298	16135
844.435	15915
844.571	15876
844.708	16017
844.844	16078
844.98	15994
845.117	15972
845.253	15869
845.389	15755
845.525	15739
845.661	15846
845.798	15789
845.934	15838
846.07	15751
846.206	15816
846.342	15869
846.478	15778
846.614	15523
846.75	15393
846.886	15466
847.022	15504
847.158	15420
847.294	15496
847.429	15496
847.565	15428
847.701	15644
847.837	15192
847.972	15150
848.108	15302
848.244	15214
848.379	15123
848.515	15001
848.65	15028
848.786	15032
848.921	14994
849.057	15264
849.192	15165
849.328	14994
849.463	15058
849.598	14971
849.734	14967
849.869	14998
850.004	14796
850.14	14823
850.275	14861
850.41	14785
850.545	14762
850.68	14762
850.815	14785
850.95	14883
851.085	14963
851.22	14933
851.355	14838
851.49	14823
851.625	14765
851.76	14743
851.895	14632
852.03	14781
852.165	14815
852.299	14880
852.434	14826
852.569	14925
852.703	14861
852.838	14895
852.973	14925
853.107	14944
853.242	14705
853.376	14792
853.511	14560
853.645	14769
853.78	14807
853.914	14754
854.048	14678
854.183	14670
854.317	14712
854.451	14864
854.585	14796
854.72	14716
854.854	14834
854.988	14636
855.122	14697
855.256	14568
855.39	14556
855.524	14788
855.658	14735
855.792	14769
855.926	14716
856.06	14701
856.194	14769
856.327	14701
856.461	14606
856.595	14667
856.729	14743
856.862	14735
856.996	14712
857.13	14689
857.263	14842
857.397	14800
857.53	14644
857.664	14670
857.797	14819
857.931	14861
858.064	14746
858.197	14739
858.331	14651
858.464	14663
858.597	14610
858.731	14765
858.864	14720
858.997	14663
859.13	14716
859.263	14659
859.396	14781
859.529	14663
859.662	14701
859.795	14571
859.928	14674
860.061	14746
860.194	14941
860.327	14792
860.46	14697
860.592	14727
860.725	14781
860.858	14777
860.99	14739
861.123	14617
861.256	14644
861.388	14659
861.521	15386
861.653	14651
861.786	14438
861.918	14613
862.05	14636
862.183	14644
862.315	14613
862.447	14769
862.58	14674
862.712	14389
862.844	14351
862.976	14530
863.108	14465
863.24	14967
863.372	14377
863.504	14484
863.636	14503
863.768	14545
863.9	14480
864.032	14385
864.164	14511
864.296	14492
864.428	14541
864.559	14522
864.691	14583
864.823	14541
864.954	14552
865.086	14560
865.217	14568
865.349	14450
865.48	14438
865.612	14438
865.743	14648
865.875	14454
866.006	14438
866.137	14503
866.269	14530
866.4	14503
866.531	14442
866.662	14374
866.793	14377
866.924	14438
867.055	14434
867.186	14507
867.317	14511
867.448	14389
867.579	14526
867.71	14389
867.841	14400
867.972	14355
868.103	14488
868.233	14526
868.364	14514
868.495	14522
868.625	14655
868.756	14724
868.886	14606
869.017	14708
869.147	14849
869.278	14895
869.408	14762
869.539	14724
869.669	14834
869.799	14777
869.929	14925
870.06	14773
870.19	15119
870.32	15024
870.45	14956
870.58	15066
870.71	15192
870.84	15275
870.97	15146
871.1	15058
871.23	15389
871.36	15329
871.489	15252
871.619	15313
871.749	15302
871.879	15329
872.008	15466
872.138	15348
872.267	15279
872.397	15203
872.526	15154
872.656	15055
872.785	15173
872.915	15291
873.044	15420
873.173	15245
873.303	15439
873.432	15488
873.561	15458
873.69	15378
873.819	15405
873.948	15492
874.077	15443
874.206	15329
874.335	15393
874.464	15504
874.593	15606
874.722	15568
874.851	15705
874.979	15732
875.108	15686
875.237	15652
875.365	15549
875.494	15732
875.623	15717
875.751	15652
875.88	15751
876.008	15823
876.136	15915
876.265	16166
876.393	16162
876.521	16204
876.65	16143
876.778	16116
876.906	16063
877.034	15998
877.162	15975
877.29	15968
877.418	16048
877.546	16048
877.674	16055
877.802	16131
877.93	16131
878.058	15956
878.185	16040
878.313	16147
878.441	16097
878.568	16017
878.696	16067
878.824	16078
878.951	16226
879.079	16341
879.206	16413
879.333	16325
879.461	16162
879.588	16253
879.715	16219
879.842	16310
879.97	16158
880.097	15960
880.224	15892
880.351	16013
880.478	16002
880.605	16021
880.732	15953
880.859	16097
880.986	15941
881.112	15972
881.239	15785
881.366	15743
881.493	15663
881.619	15663
881.746	15648
881.872	15599
881.999	15496
882.125	15534
882.252	15606
882.378	15599
882.505	15812
882.631	15557
882.757	15386
882.883	15458
883.01	15370
883.136	15348
883.262	15306
883.388	15260
883.514	15401
883.64	15416
883.766	15416
883.892	15062
884.018	15313
884.143	15355
884.269	15439
884.395	15123
884.52	15154
884.646	15119
884.772	15081
884.897	15032
885.023	15199
885.148	15150
885.274	15298
885.399	15192
885.524	15100
885.65	15135
885.775	15108
885.9	15081
886.025	15192
886.15	15264
886.275	15066
886.4	15028
886.525	15062
886.65	15074
886.775	15043
886.9	15157
887.025	15351
887.149	15135
887.274	15077
887.399	14838
887.523	14971
887.648	14883
887.773	14868
887.897	15062
888.021	14948
888.146	14887
888.27	15001
888.395	14948
888.519	15017
888.643	14925
888.767	14933
888.891	14883
889.015	14720
889.139	14815
889.263	14716
889.387	14902
889.511	15039
889.635	14849
889.759	14826
889.883	14777
890.006	14804
890.13	15020
890.254	14727
890.377	14724
890.501	14663
890.624	14659
890.748	14655
890.871	14575
890.995	14503
891.118	14377
891.241	14442
891.364	14541
891.488	14621
891.611	14579
891.734	14412
891.857	14537
891.98	14419
892.103	14598
892.226	14530
892.349	14419
892.471	14347
892.594	14545
892.717	14522
892.839	14530
892.962	14499
893.085	14518
893.207	14549
893.33	14358
893.452	14400
893.575	14556
893.697	14457
893.819	14583
893.941	14678
894.064	14686
894.186	14499
894.308	14434
894.43	14560
894.552	14724
894.674	14727
894.796	14427
894.918	14533
895.04	14450
895.161	14613
895.283	14594
895.405	14587
895.526	14583
895.648	14629
895.769	14461
895.891	14663
896.012	14686
896.134	14659
896.255	14651
896.376	14610
896.498	14632
896.619	14689
896.74	14663
896.861	14667
896.982	14921
897.103	15127
897.224	14952
897.345	14861
897.466	14800
897.587	14895
897.708	14994
897.828	14929
897.949	14872
898.07	14815
898.19	14872
898.311	15020
898.431	14899
898.552	14998
898.672	15024
898.792	15062
898.913	15028
899.033	14895
899.153	14807
899.273	14731
899.393	14693
899.513	14834
899.633	14777
899.753	14880
899.873	14708
899.993	14819
900.113	14872
900.232	14887
900.352	14842
900.472	14682
900.591	14632
900.711	14613
900.83	14571
900.95	14746
901.069	14773
901.189	14583
901.308	14423
901.427	14290
901.546	14328
901.665	14355
901.784	14419
901.904	14225
902.023	14157
902.141	14001
902.26	13909
902.379	13936
902.498	13883
902.617	13852
902.735	14020
902.854	13868
902.973	13875
903.091	13704
903.21	13620
903.328	13677
903.446	13529
903.565	13464
903.683	13400
903.801	13445
903.919	13426
904.038	13362
904.156	13346
904.274	13339
904.392	13289
904.51	13209
904.627	13350
904.745	13339
904.863	13274
904.981	13050
905.098	12985
905.216	13038
905.334	13053
905.451	12970
905.569	12996
905.686	12985
905.803	12897
905.921	12810
906.038	12924
906.155	12859
906.272	12722
906.389	12730
906.506	12604
906.623	12540
906.74	12555
906.857	12369
906.974	12532
907.091	12662
907.208	12658
907.324	12506
907.441	12582
907.557	12315
907.674	12308
907.79	12254
907.907	12292
908.023	12353
908.139	12304
908.256	12266
908.372	12209
908.488	12190
908.604	12053
908.72	11984
908.836	12171
908.952	12083
909.068	12057
909.184	12178
909.3	12038
909.415	12072
909.531	12045
909.647	11866
909.762	11802
909.878	11851
909.993	11863
910.108	11783
910.224	11779
910.339	11843
910.454	11821
910.57	11680
910.685	11627
910.8	11901
910.915	11832
911.03	11657
911.145	11471
911.259	11554
911.374	11547
911.489	11524
911.604	11379
911.718	11307
911.833	11318
911.947	11155
912.062	11140
912.176	11258
912.291	11250
912.405	11292
912.519	11524
912.633	11471
912.748	11307
912.862	11303
912.976	11193
913.09	11117
913.204	11067
913.318	11170
913.431	11315
913.545	11326
913.659	11231
913.772	11189
913.886	11006
914	11022
914.113	11132
914.226	11147
914.34	11140
914.453	10984
914.566	11140
914.68	11052
914.793	10900
914.906	10782
915.019	10752
915.132	10717
915.245	10854
915.358	10793
915.47	10793
915.583	10801
915.696	10824
915.809	10877
915.921	10930
916.034	10835
916.146	10698
916.259	10698
916.371	10824
916.483	10778
916.595	10653
916.708	10752
916.82	10683
916.932	10698
917.044	10679
917.156	10672
917.268	10569
917.38	10637
917.491	10538
917.603	10630
917.715	10580
917.826	10736
917.938	10580
918.049	10519
918.161	10596
918.272	10691
918.384	10706
918.495	10634
918.606	10428
918.717	10459
918.828	10504
918.939	10504
919.05	10394
919.161	10470
919.272	10238
919.383	10375
919.494	10527
919.604	10710
919.715	10554
919.826	10417
919.936	10451
920.047	10611
920.157	10493
920.267	10622
920.378	10527
920.488	10360
920.598	10675
920.708	10759
920.818	10683
920.928	10637
921.038	10801
921.148	10793
921.258	10542
921.368	10459
921.477	10367
921.587	10375
921.697	10200
921.806	10394
921.916	10185
922.025	10143
922.134	10044
922.244	9907
922.353	10131
922.462	9892
922.571	9846
922.68	9679
922.789	9667
922.898	9747
923.007	9709
923.116	9736
923.224	9679
923.333	9656
923.442	9549
923.55	9633
923.659	9606
923.767	9694
923.876	9526
923.984	9622
924.092	9496
924.201	9564
924.309	9557
924.417	9564
924.525	9557
924.633	9523
924.741	10280
924.849	9374
924.956	9458
925.064	9344
925.172	9302
925.279	9317
925.387	9374
925.494	9336
925.602	9496
925.709	9458
925.816	9249
925.924	9370
926.031	9370
926.138	9378
926.245	9435
926.352	9275
926.459	9306
926.566	9378
926.673	9272
926.779	9245
926.886	9157
926.993	9138
927.099	9058
927.206	9036
927.312	9013
927.419	9081
927.525	9116
927.631	9123
927.737	8933
927.843	8906
927.95	8891
928.056	8937
928.162	8906
928.267	8921
928.373	9576
928.479	9051
928.585	8838
928.69	8910
928.796	9009
928.901	8834
929.007	8705
929.112	8887
929.218	8876
929.323	8754
929.428	8758
929.533	8933
929.638	8693
929.743	8743
929.848	8788
929.953	8769
930.058	8613
930.163	8530
930.267	8552
930.372	8674
930.477	8480
930.581	8724
930.685	8648
930.79	8434
930.894	8469
930.998	8499
931.103	8629
931.207	8279
931.311	8180
931.415	8107
931.519	8020
931.623	8012
