Data from test_V78500241_1954.txt Node
Date: Fri Mar 25 14:47:19 CST 2022
User: usil
Spectrometer: V785-0024
Trigger mode: 0
Integration Time (sec): 4.000000E-1
Scans to average: 1
Nonlinearity correction enabled: false
Boxcar width: 0
Storing dark spectrum: false
XAxis mode: Wavelengths
Number of Pixels in Spectrum: 1024
>>>>>Begin Spectral Data<<<<<
801.071	22063
801.214	21937
801.356	21762
801.499	21739
801.641	21591
801.783	21382
801.926	21572
802.068	21416
802.211	21302
802.353	21218
802.496	21036
802.638	20960
802.78	20861
802.923	20880
803.065	20781
803.208	20762
803.35	20842
803.492	20899
803.635	21043
803.777	20750
803.919	20720
804.061	21165
804.204	20864
804.346	20823
804.488	20788
804.63	20838
804.773	20693
804.915	20727
805.057	20918
805.199	20674
805.341	20750
805.483	21005
805.626	20792
805.768	20823
805.91	20750
806.052	20754
806.194	20659
806.336	20807
806.478	20678
806.62	20568
806.762	20762
806.904	20956
807.046	21096
807.188	20891
807.33	21066
807.472	21096
807.614	20899
807.756	20925
807.898	20845
808.04	20804
808.182	20659
808.324	20819
808.465	20792
808.607	21013
808.749	21173
808.891	21127
809.033	21268
809.174	21230
809.316	21009
809.458	21119
809.6	20979
809.741	20982
809.883	21096
810.025	21336
810.166	21367
810.308	21313
810.45	21150
810.591	21096
810.733	20857
810.875	20914
811.016	20838
811.158	20693
811.299	20880
811.441	21066
811.582	21085
811.724	20895
811.865	20861
812.007	20842
812.148	20857
812.29	20948
812.431	20956
812.573	21112
812.714	21256
812.855	21313
812.997	21382
813.138	21690
813.279	21408
813.421	21393
813.562	21435
813.703	21096
813.845	20891
813.986	20697
814.127	20625
814.268	20393
814.41	20434
814.551	20343
814.692	20427
814.833	20465
814.974	20275
815.115	20305
815.256	20233
815.397	20313
815.539	20210
815.68	20187
815.821	20024
815.962	20161
816.103	20062
816.244	20100
816.385	19955
816.526	19769
816.666	19647
816.807	19510
816.948	19696
817.089	19578
817.23	19670
817.371	19480
817.512	19563
817.653	19620
817.793	19495
817.934	19590
818.075	19586
818.216	19502
818.356	19373
818.497	19365
818.638	19285
818.778	19168
818.919	19251
819.06	19152
819.2	19388
819.341	19388
819.481	19457
819.622	19521
819.762	19624
819.903	19590
820.043	19529
820.184	19578
820.324	19457
820.465	19632
820.605	19563
820.746	19544
820.886	19392
821.026	19506
821.167	19502
821.307	19441
821.447	19514
821.588	19362
821.728	19255
821.868	18913
822.008	18905
822.149	18916
822.289	18939
822.429	18604
822.569	18597
822.709	18540
822.849	18410
822.99	18456
823.13	18452
823.27	18395
823.41	18315
823.55	18148
823.69	18235
823.83	18228
823.97	18178
824.11	18034
824.25	17973
824.389	18019
824.529	18022
824.669	18057
824.809	18095
824.949	18003
825.089	18110
825.228	17973
825.368	17828
825.508	17726
825.648	17870
825.787	17832
825.927	17840
826.067	17741
826.206	17684
826.346	17802
826.485	17828
826.625	17794
826.765	17847
826.904	17726
827.044	17570
827.183	17589
827.323	17455
827.462	17516
827.601	17497
827.741	17467
827.88	17429
828.02	17258
828.159	17436
828.298	17497
828.437	17585
828.577	17322
828.716	17646
828.855	17512
828.994	17296
829.134	17242
829.273	17273
829.412	17223
829.551	17299
829.69	17174
829.829	17242
829.968	17315
830.107	17379
830.246	17143
830.385	17227
830.524	16968
830.663	17098
830.802	17010
830.941	16812
831.08	16854
831.219	16946
831.357	16892
831.496	17056
831.635	16854
831.774	16847
831.913	16793
832.051	16637
832.19	16603
832.329	16729
832.467	16542
832.606	16565
832.744	16512
832.883	16504
833.022	16451
833.16	16664
833.299	16592
833.437	16569
833.576	16599
833.714	16618
833.852	16569
833.991	16569
834.129	16653
834.267	16649
834.406	16668
834.544	16713
834.682	16592
834.821	16622
834.959	16793
835.097	16542
835.235	16641
835.373	16603
835.511	16592
835.65	16333
835.788	16618
835.926	16447
836.064	16367
836.202	16405
836.34	16592
836.478	16577
836.615	16538
836.753	16508
836.891	16637
837.029	16622
837.167	16485
837.305	16523
837.443	16382
837.58	16306
837.718	16470
837.856	16402
837.993	16402
838.131	16451
838.269	16310
838.406	16291
838.544	16265
838.681	16162
838.819	16112
838.956	15991
839.094	15888
839.231	16158
839.369	16010
839.506	16348
839.643	16246
839.781	15907
839.918	15922
840.055	16036
840.193	15899
840.33	15934
840.467	15991
840.604	15850
840.742	16192
840.879	15793
841.016	15857
841.153	15907
841.29	16048
841.427	15956
841.564	16051
841.701	16010
841.838	15915
841.975	15823
842.112	15876
842.249	15861
842.385	15705
842.522	15998
842.659	15781
842.796	15587
842.933	15690
843.069	15637
843.206	15679
843.343	15778
843.479	15804
843.616	15751
843.752	15595
843.889	15515
844.025	15690
844.162	15462
844.298	15667
844.435	15477
844.571	15534
844.708	15610
844.844	15618
844.98	15686
845.117	15629
845.253	15473
845.389	15359
845.525	15412
845.661	15431
845.798	15416
845.934	15325
846.07	15226
846.206	15252
846.342	15393
846.478	15272
846.614	15180
846.75	15051
846.886	15154
847.022	15241
847.158	15024
847.294	15100
847.429	15222
847.565	15195
847.701	15351
847.837	14807
847.972	14887
848.108	14941
848.244	14868
848.379	14735
848.515	14750
848.65	14644
848.786	14804
848.921	14594
849.057	14769
849.192	14876
849.328	14674
849.463	14743
849.598	14689
849.734	14674
849.869	14629
850.004	14476
850.14	14537
850.275	14446
850.41	14362
850.545	14381
850.68	14480
850.815	14484
850.95	14469
851.085	14610
851.22	14568
851.355	14533
851.49	14492
851.625	14442
851.76	14465
851.895	14362
852.03	14244
852.165	14400
852.299	14469
852.434	14629
852.569	14499
852.703	14537
852.838	14625
852.973	14667
853.107	14644
853.242	14438
853.376	14431
853.511	14256
853.645	14240
853.78	14408
853.914	14366
854.048	14267
854.183	14358
854.317	14377
854.451	14526
854.585	14305
854.72	14366
854.854	14442
854.988	14218
855.122	14286
855.256	14180
855.39	14385
855.524	14298
855.658	14454
855.792	14393
855.926	14298
856.06	14396
856.194	14427
856.327	14339
856.461	14259
856.595	14244
856.729	14324
856.862	14446
856.996	14298
857.13	14393
857.263	14339
857.397	14442
857.53	14248
857.664	14385
857.797	14450
857.931	14393
858.064	14400
858.197	14450
858.331	14298
858.464	14225
858.597	14278
858.731	14240
858.864	14202
858.997	14290
859.13	14355
859.263	14294
859.396	14328
859.529	14263
859.662	14336
859.795	14214
859.928	14286
860.061	14469
860.194	14446
860.327	14412
860.46	14370
860.592	14366
860.725	14415
860.858	14431
860.99	14267
861.123	14271
861.256	14278
861.388	14396
861.521	15199
861.653	14305
861.786	14202
861.918	14168
862.05	14240
862.183	14305
862.315	14381
862.447	14389
862.58	14259
862.712	14153
862.844	14084
862.976	14107
863.108	14210
863.24	14454
863.372	14054
863.504	14088
863.636	14046
863.768	14134
863.9	14081
864.032	14069
864.164	14149
864.296	14195
864.428	14248
864.559	14225
864.691	14164
864.823	14191
864.954	14153
865.086	14130
865.217	14012
865.349	14005
865.48	14107
865.612	14103
865.743	14237
865.875	14058
866.006	14062
866.137	14149
866.269	13986
866.4	14206
866.531	14088
866.662	13997
866.793	13997
866.924	14115
867.055	14130
867.186	14168
867.317	13974
867.448	13955
867.579	14077
867.71	13936
867.841	14020
867.972	14096
868.103	14119
868.233	14081
868.364	14183
868.495	14183
868.625	14313
868.756	14396
868.886	14259
869.017	14309
869.147	14423
869.278	14419
869.408	14423
869.539	14358
869.669	14480
869.799	14412
869.929	14503
870.06	14431
870.19	14629
870.32	14613
870.45	14606
870.58	14678
870.71	14804
870.84	14720
870.97	14750
871.1	14804
871.23	14849
871.36	14845
871.489	14872
871.619	14937
871.749	14899
871.879	15043
872.008	15001
872.138	14929
872.267	14887
872.397	14785
872.526	14804
872.656	14765
872.785	14861
872.915	14994
873.044	15089
873.173	14963
873.303	14967
873.432	14982
873.561	15051
873.69	15013
873.819	15020
873.948	15123
874.077	14960
874.206	15013
874.335	14971
874.464	15173
874.593	15310
874.722	15230
874.851	15435
874.979	15332
875.108	15424
875.237	15176
875.365	15230
875.494	15325
875.623	15458
875.751	15275
875.88	15218
876.008	15431
876.136	15534
876.265	15701
876.393	15747
876.521	15854
876.65	15751
876.778	15682
876.906	15606
877.034	15739
877.162	15660
877.29	15625
877.418	15709
877.546	15846
877.674	15644
877.802	15728
877.93	15709
878.058	15724
878.185	15648
878.313	15648
878.441	15766
878.568	15595
878.696	15622
878.824	15732
878.951	15800
879.079	15884
879.206	16120
879.333	15861
879.461	15800
879.588	15869
879.715	15899
879.842	15888
879.97	15675
880.097	15538
880.224	15564
880.351	15599
880.478	15557
880.605	15561
880.732	15603
880.859	15747
880.986	15568
881.112	15743
881.239	15424
881.366	15325
881.493	15203
881.619	15165
881.746	15211
881.872	15214
881.999	15116
882.125	15135
882.252	15336
882.378	15348
882.505	15344
882.631	15154
882.757	14956
882.883	15070
883.01	15077
883.136	14933
883.262	14910
883.388	14895
883.514	15085
883.64	15123
883.766	14990
883.892	14918
884.018	14834
884.143	14971
884.269	15077
884.395	14735
884.52	14743
884.646	14807
884.772	14579
884.897	14701
885.023	14777
885.148	14910
885.274	14887
885.399	14788
885.524	14864
885.65	14826
885.775	14701
885.9	14762
886.025	14819
886.15	14902
886.275	14716
886.4	14636
886.525	14727
886.65	14731
886.775	14705
886.9	14823
887.025	14952
887.149	14762
887.274	14590
887.399	14495
887.523	14492
887.648	14518
887.773	14461
887.897	14598
888.021	14705
888.146	14457
888.27	14602
888.395	14735
888.519	14610
888.643	14621
888.767	14659
888.891	14499
889.015	14400
889.139	14438
889.263	14488
889.387	14594
889.511	14697
889.635	14610
889.759	14473
889.883	14412
890.006	14446
890.13	14507
890.254	14461
890.377	14408
890.501	14210
890.624	14233
890.748	14298
890.871	14168
890.995	14145
891.118	13978
891.241	14123
891.364	14054
891.488	14240
891.611	14195
891.734	14153
891.857	14168
891.98	14130
892.103	14275
892.226	14214
892.349	14050
892.471	13970
892.594	14123
892.717	14130
892.839	14149
892.962	14180
893.085	14195
893.207	14199
893.33	14107
893.452	14073
893.575	14187
893.697	14145
893.819	14313
893.941	14294
894.064	14355
894.186	14123
894.308	14046
894.43	14301
894.552	14423
894.674	14347
894.796	14077
894.918	14119
895.04	14161
895.161	14298
895.283	14282
895.405	14157
895.526	14218
895.648	14221
895.769	14301
895.891	14286
896.012	14446
896.134	14309
896.255	14259
896.376	14336
896.498	14320
896.619	14336
896.74	14317
896.861	14389
896.982	14583
897.103	14758
897.224	14594
897.345	14613
897.466	14533
897.587	14541
897.708	14659
897.828	14667
897.949	14583
898.07	14476
898.19	14526
898.311	14617
898.431	14507
898.552	14701
898.672	14739
898.792	14724
898.913	14716
899.033	14648
899.153	14484
899.273	14419
899.393	14454
899.513	14511
899.633	14450
899.753	14518
899.873	14492
899.993	14518
900.113	14526
900.232	14537
900.352	14469
900.472	14298
900.591	14366
900.711	14423
900.83	14381
900.95	14400
901.069	14446
901.189	14313
901.308	14123
901.427	13917
901.546	13955
901.665	14027
901.784	14065
901.904	13887
902.023	13765
902.141	13677
902.26	13605
902.379	13628
902.498	13582
902.617	13578
902.735	13685
902.854	13632
902.973	13620
903.091	13415
903.21	13247
903.328	13247
903.446	13266
903.565	13255
903.683	13137
903.801	13053
903.919	13160
904.038	13114
904.156	13053
904.274	13091
904.392	13015
904.51	12878
904.627	13069
904.745	12966
904.863	13012
904.981	12833
905.098	12654
905.216	12692
905.334	12764
905.451	12738
905.569	12623
905.686	12772
905.803	12684
905.921	12555
906.038	12665
906.155	12559
906.272	12418
906.389	12467
906.506	12315
906.623	12308
906.74	12311
906.857	12106
906.974	12197
907.091	12342
907.208	12471
907.324	12353
907.441	12171
907.557	12019
907.674	12022
907.79	11999
907.907	11980
908.023	12060
908.139	12030
908.256	11855
908.372	11958
908.488	11779
908.604	11828
908.72	11790
908.836	11798
908.952	11824
909.068	11798
909.184	11965
909.3	11680
909.415	11889
909.531	11817
909.647	11554
909.762	11528
909.878	11570
909.993	11524
910.108	11509
910.224	11592
910.339	11562
910.454	11486
910.57	11376
910.685	11360
910.8	11600
910.915	11554
911.03	11448
911.145	11353
911.259	11231
911.374	11258
911.489	11216
911.604	11227
911.718	10953
911.833	11048
911.947	10923
912.062	10790
912.176	11029
912.291	11075
912.405	10953
912.519	11208
912.633	11258
912.748	11075
912.862	11048
912.976	10850
913.09	10793
913.204	10889
913.318	10812
913.431	10968
913.545	10968
913.659	11003
913.772	10885
913.886	10812
914	10645
914.113	10885
914.226	10953
914.34	10919
914.453	10729
914.566	10843
914.68	10687
914.793	10698
914.906	10546
915.019	10455
915.132	10398
915.245	10523
915.358	10580
915.47	10451
915.583	10531
915.696	10558
915.809	10596
915.921	10694
916.034	10512
916.146	10466
916.259	10447
916.371	10615
916.483	10580
916.595	10497
916.708	10481
916.82	10485
916.932	10363
917.044	10523
917.156	10489
917.268	10325
917.38	10337
917.491	10318
917.603	10322
917.715	10443
917.826	10421
917.938	10363
918.049	10322
918.161	10386
918.272	10402
918.384	10436
918.495	10329
918.606	10223
918.717	10192
918.828	10215
918.939	10265
919.05	10139
919.161	10227
919.272	10013
919.383	10101
919.494	10284
919.604	10455
919.715	10242
919.826	10150
919.936	10215
920.047	10287
920.157	10329
920.267	10379
920.378	10211
920.488	10204
920.598	10481
920.708	10546
920.818	10394
920.928	10428
921.038	10569
921.148	10558
921.258	10325
921.368	10162
921.477	10143
921.587	10116
921.697	9918
921.806	10093
921.916	9915
922.025	9835
922.134	9724
922.244	9720
922.353	9800
922.462	9701
922.571	9561
922.68	9572
922.789	9405
922.898	9477
923.007	9477
923.116	9530
923.224	9481
923.333	9488
923.442	9405
923.55	9279
923.659	9401
923.767	9443
923.876	9344
923.984	9397
924.092	9348
924.201	9313
924.309	9348
924.417	9279
924.525	9279
924.633	9336
924.741	10215
924.849	9116
924.956	9332
925.064	9085
925.172	9062
925.279	9047
925.387	9214
925.494	9142
925.602	9241
925.709	9203
925.816	9013
925.924	9135
926.031	9233
926.138	9119
926.245	9169
926.352	8971
926.459	9211
926.566	9188
926.673	9036
926.779	8925
926.886	9001
926.993	8948
927.099	8861
927.206	8762
927.312	8845
927.419	8902
927.525	8921
927.631	8914
927.737	8735
927.843	8766
927.95	8610
928.056	8716
928.162	8788
928.267	8834
928.373	9450
928.479	8788
928.585	8655
928.69	8766
928.796	8804
928.901	8670
929.007	8473
929.112	8655
929.218	8644
929.323	8556
929.428	8640
929.533	8625
929.638	8495
929.743	8537
929.848	8537
929.953	8537
930.058	8522
930.163	8298
930.267	8431
930.372	8480
930.477	8389
930.581	8598
930.685	8408
930.79	8244
930.894	8305
930.998	8252
931.103	8434
931.207	8054
931.311	8081
931.415	7944
931.519	7792
931.623	7845
