Data from test_V78500241_3050.txt Node
Date: Fri Mar 25 14:54:57 CST 2022
User: usil
Spectrometer: V785-0024
Trigger mode: 0
Integration Time (sec): 4.000000E-1
Scans to average: 1
Nonlinearity correction enabled: false
Boxcar width: 0
Storing dark spectrum: false
XAxis mode: Wavelengths
Number of Pixels in Spectrum: 1024
>>>>>Begin Spectral Data<<<<<
801.071	22162
801.214	21972
801.356	21800
801.499	21686
801.641	21542
801.783	21454
801.926	21435
802.068	21389
802.211	21329
802.353	21264
802.496	21180
802.638	20876
802.78	20929
802.923	20845
803.065	20682
803.208	20727
803.35	20762
803.492	20899
803.635	20963
803.777	20800
803.919	20811
804.061	21074
804.204	20918
804.346	20640
804.488	20609
804.63	20876
804.773	20716
804.915	20640
805.057	20902
805.199	20648
805.341	20625
805.483	20845
805.626	20864
805.768	20705
805.91	20678
806.052	20731
806.194	20659
806.336	20815
806.478	20705
806.62	20727
806.762	20727
806.904	20861
807.046	21108
807.188	21001
807.33	21081
807.472	21096
807.614	20986
807.756	21051
807.898	20845
808.04	20716
808.182	20807
808.324	20826
808.465	20758
808.607	21043
808.749	21108
808.891	21245
809.033	21233
809.174	21123
809.316	21195
809.458	21154
809.6	21017
809.741	21104
809.883	21074
810.025	21218
810.166	21233
810.308	21264
810.45	21199
810.591	21077
810.733	20834
810.875	20876
811.016	20796
811.158	20792
811.299	20937
811.441	21123
811.582	20982
811.724	20724
811.865	20849
812.007	20868
812.148	20937
812.29	20868
812.431	20982
812.573	21066
812.714	21329
812.855	21332
812.997	21348
813.138	21568
813.279	21534
813.421	21355
813.562	21329
813.703	21028
813.845	20998
813.986	20800
814.127	20564
814.268	20442
814.41	20362
814.551	20362
814.692	20389
814.833	20377
814.974	20393
815.115	20446
815.256	20176
815.397	20256
815.539	20229
815.68	20096
815.821	20119
815.962	20157
816.103	19993
816.244	19932
816.385	19898
816.526	19963
816.666	19772
816.807	19556
816.948	19620
817.089	19613
817.23	19506
817.371	19506
817.512	19384
817.653	19529
817.793	19422
817.934	19502
818.075	19548
818.216	19518
818.356	19472
818.497	19388
818.638	19263
818.778	19236
818.919	19213
819.06	19270
819.2	19320
819.341	19525
819.481	19559
819.622	19525
819.762	19700
819.903	19658
820.043	19613
820.184	19533
820.324	19499
820.465	19597
820.605	19396
820.746	19506
820.886	19285
821.026	19449
821.167	19453
821.307	19438
821.447	19491
821.588	19453
821.728	19217
821.868	19103
822.008	18905
822.149	18954
822.289	18878
822.429	18722
822.569	18631
822.709	18578
822.849	18467
822.99	18285
823.13	18376
823.27	18475
823.41	18369
823.55	18155
823.69	18270
823.83	18342
823.97	18186
824.11	17961
824.25	17935
824.389	18019
824.529	18083
824.669	18045
824.809	18110
824.949	18155
825.089	18038
825.228	18011
825.368	17802
825.508	17695
825.648	17771
825.787	17828
825.927	17726
826.067	17760
826.206	17615
826.346	17935
826.485	17813
826.625	17668
826.765	17783
826.904	17783
827.044	17463
827.183	17444
827.323	17341
827.462	17463
827.601	17391
827.741	17436
827.88	17376
828.02	17322
828.159	17459
828.298	17520
828.437	17444
828.577	17440
828.716	17547
828.855	17402
828.994	17174
829.134	17181
829.273	17174
829.412	17140
829.551	17102
829.69	17128
829.829	17208
829.968	17261
830.107	17223
830.246	17193
830.385	17109
830.524	17159
830.663	16984
830.802	16881
830.941	16733
831.08	16744
831.219	16752
831.357	16824
831.496	16957
831.635	16771
831.774	16691
831.913	16653
832.051	16603
832.19	16500
832.329	16519
832.467	16523
832.606	16459
832.744	16440
832.883	16508
833.022	16443
833.16	16424
833.299	16660
833.437	16398
833.576	16535
833.714	16580
833.852	16523
833.991	16538
834.129	16554
834.267	16554
834.406	16436
834.544	16542
834.682	16443
834.821	16527
834.959	16717
835.097	16584
835.235	16588
835.373	16565
835.511	16580
835.65	16440
835.788	16519
835.926	16215
836.064	16242
836.202	16329
836.34	16531
836.478	16443
836.615	16348
836.753	16421
836.891	16478
837.029	16478
837.167	16341
837.305	16257
837.443	16333
837.58	16238
837.718	16409
837.856	16207
837.993	16196
838.131	16268
838.269	16215
838.406	16185
838.544	16040
838.681	16101
838.819	15941
838.956	15812
839.094	15774
839.231	15869
839.369	15998
839.506	16185
839.643	16162
839.781	15869
839.918	15865
840.055	15827
840.193	15857
840.33	15797
840.467	15743
840.604	15819
840.742	16044
840.879	15667
841.016	15713
841.153	15660
841.29	15842
841.427	15827
841.564	15838
841.701	15724
841.838	15755
841.975	15682
842.112	15713
842.249	15698
842.385	15584
842.522	15816
842.659	15667
842.796	15618
842.933	15580
843.069	15454
843.206	15496
843.343	15690
843.479	15644
843.616	15709
843.752	15363
843.889	15405
844.025	15485
844.162	15389
844.298	15447
844.435	15359
844.571	15363
844.708	15424
844.844	15519
844.98	15584
845.117	15515
845.253	15291
845.389	15207
845.525	15306
845.661	15351
845.798	15127
845.934	15230
846.07	15108
846.206	15233
846.342	15389
846.478	15203
846.614	14952
846.75	14933
846.886	14918
847.022	15051
847.158	14986
847.294	14925
847.429	14963
847.565	14895
847.701	15123
847.837	14705
847.972	14659
848.108	14842
848.244	14712
848.379	14518
848.515	14571
848.65	14476
848.786	14610
848.921	14556
849.057	14708
849.192	14701
849.328	14602
849.463	14590
849.598	14503
849.734	14499
849.869	14362
850.004	14412
850.14	14332
850.275	14370
850.41	14252
850.545	14256
850.68	14313
850.815	14221
850.95	14351
851.085	14469
851.22	14374
851.355	14408
851.49	14286
851.625	14256
851.76	14218
851.895	14225
852.03	14149
852.165	14332
852.299	14351
852.434	14370
852.569	14377
852.703	14469
852.838	14412
852.973	14408
853.107	14473
853.242	14290
853.376	14172
853.511	14031
853.645	14062
853.78	14343
853.914	14149
854.048	14263
854.183	14164
854.317	14202
854.451	14442
854.585	14126
854.72	14130
854.854	14240
854.988	14050
855.122	14153
855.256	14077
855.39	14153
855.524	14259
855.658	14267
855.792	14130
855.926	14206
856.06	14256
856.194	14195
856.327	14134
856.461	14111
856.595	14103
856.729	14172
856.862	14290
856.996	14271
857.13	14374
857.263	14317
857.397	14377
857.53	14237
857.664	14248
857.797	14214
857.931	14358
858.064	14267
858.197	14313
858.331	14142
858.464	14111
858.597	14134
858.731	14149
858.864	14202
858.997	14214
859.13	14248
859.263	14195
859.396	14191
859.529	14267
859.662	14081
859.795	14172
859.928	14191
860.061	14263
860.194	14454
860.327	14195
860.46	14225
860.592	14282
860.725	14248
860.858	14244
860.99	14252
861.123	13993
861.256	14180
861.388	14107
861.521	14883
861.653	13959
861.786	14065
861.918	13955
862.05	14039
862.183	14195
862.315	14119
862.447	14195
862.58	14062
862.712	13959
862.844	13959
862.976	14005
863.108	13936
863.24	14298
863.372	13890
863.504	13944
863.636	13993
863.768	14008
863.9	13917
864.032	13967
864.164	13967
864.296	13967
864.428	14096
864.559	13993
864.691	14008
864.823	14157
864.954	14058
865.086	13989
865.217	13947
865.349	13818
865.48	13997
865.612	13887
865.743	14111
865.875	13890
866.006	13898
866.137	13997
866.269	13830
866.4	14046
866.531	13947
866.662	13955
866.793	13868
866.924	13940
867.055	13860
867.186	13997
867.317	13883
867.448	13902
867.579	13845
867.71	13898
867.841	13894
867.972	13989
868.103	13906
868.233	14012
868.364	13963
868.495	14115
868.625	14142
868.756	14214
868.886	14039
869.017	14111
869.147	14313
869.278	14355
869.408	14309
869.539	14164
869.669	14317
869.799	14275
869.929	14317
870.06	14195
870.19	14556
870.32	14507
870.45	14541
870.58	14670
870.71	14594
870.84	14746
870.97	14610
871.1	14549
871.23	14731
871.36	14765
871.489	14708
871.619	14746
871.749	14716
871.879	14811
872.008	14918
872.138	14842
872.267	14674
872.397	14731
872.526	14632
872.656	14560
872.785	14587
872.915	14800
873.044	14861
873.173	14811
873.303	14800
873.432	14823
873.561	14887
873.69	14933
873.819	14849
873.948	14941
874.077	14895
874.206	14857
874.335	14872
874.464	14994
874.593	15127
874.722	15119
874.851	15180
874.979	15237
875.108	15291
875.237	15188
875.365	15112
875.494	15176
875.623	15275
875.751	15188
875.88	15207
876.008	15329
876.136	15302
876.265	15622
876.393	15778
876.521	15663
876.65	15561
876.778	15713
876.906	15614
877.034	15492
877.162	15603
877.29	15492
877.418	15656
877.546	15637
877.674	15515
877.802	15549
877.93	15549
878.058	15538
878.185	15485
878.313	15584
878.441	15519
878.568	15439
878.696	15534
878.824	15576
878.951	15671
879.079	15785
879.206	15823
879.333	15717
879.461	15595
879.588	15751
879.715	15755
879.842	15930
879.97	15690
880.097	15428
880.224	15340
880.351	15488
880.478	15485
880.605	15363
880.732	15397
880.859	15675
880.986	15450
881.112	15458
881.239	15264
881.366	15245
881.493	15157
881.619	15123
881.746	15077
881.872	15062
881.999	15032
882.125	14982
882.252	15017
882.378	15112
882.505	15272
882.631	15032
882.757	15017
882.883	14902
883.01	14823
883.136	14834
883.262	14716
883.388	14689
883.514	15001
883.64	14990
883.766	14857
883.892	14693
884.018	14697
884.143	14876
884.269	15024
884.395	14674
884.52	14556
884.646	14598
884.772	14476
884.897	14507
885.023	14533
885.148	14670
885.274	14735
885.399	14686
885.524	14526
885.65	14602
885.775	14674
885.9	14571
886.025	14659
886.15	14636
886.275	14560
886.4	14503
886.525	14537
886.65	14571
886.775	14492
886.9	14807
887.025	14910
887.149	14457
887.274	14343
887.399	14457
887.523	14351
887.648	14358
887.773	14419
887.897	14545
888.021	14381
888.146	14370
888.27	14541
888.395	14629
888.519	14476
888.643	14476
888.767	14499
888.891	14324
889.015	14309
889.139	14355
889.263	14263
889.387	14434
889.511	14514
889.635	14427
889.759	14225
889.883	14343
890.006	14317
890.13	14419
890.254	14282
890.377	14324
890.501	14100
890.624	14218
890.748	14145
890.871	14145
890.995	13864
891.118	13841
891.241	14069
891.364	13993
891.488	14084
891.611	14062
891.734	13978
891.857	14058
891.98	13928
892.103	14077
892.226	14039
892.349	14020
892.471	13727
892.594	13978
892.717	13997
892.839	14012
892.962	14065
893.085	13978
893.207	14020
893.33	13906
893.452	13947
893.575	14092
893.697	14069
893.819	14206
893.941	14206
894.064	14153
894.186	14027
894.308	14107
894.43	14077
894.552	14263
894.674	14111
894.796	14046
894.918	14077
895.04	14088
895.161	14145
895.283	14195
895.405	14039
895.526	14138
895.648	14092
895.769	14123
895.891	14096
896.012	14176
896.134	14237
896.255	14248
896.376	14153
896.498	14142
896.619	14191
896.74	14142
896.861	14298
896.982	14446
897.103	14777
897.224	14389
897.345	14473
897.466	14419
897.587	14343
897.708	14610
897.828	14503
897.949	14469
898.07	14298
898.19	14431
898.311	14674
898.431	14431
898.552	14541
898.672	14636
898.792	14613
898.913	14545
899.033	14484
899.153	14381
899.273	14294
899.393	14389
899.513	14450
899.633	14522
899.753	14450
899.873	14461
899.993	14484
900.113	14381
900.232	14450
900.352	14313
900.472	14351
900.591	14221
900.711	14214
900.83	14153
900.95	14351
901.069	14366
901.189	14248
901.308	14001
901.427	13917
901.546	13989
901.665	13963
901.784	13997
901.904	13894
902.023	13715
902.141	13510
902.26	13476
902.379	13651
902.498	13400
902.617	13468
902.735	13613
902.854	13468
902.973	13445
903.091	13331
903.21	13282
903.328	13217
903.446	13240
903.565	13034
903.683	13122
903.801	13019
903.919	13034
904.038	13118
904.156	12993
904.274	12962
904.392	12920
904.51	12894
904.627	12840
904.745	12928
904.863	12977
904.981	12650
905.098	12616
905.216	12513
905.334	12612
905.451	12616
905.569	12563
905.686	12696
905.803	12604
905.921	12365
906.038	12532
906.155	12407
906.272	12304
906.389	12334
906.506	12148
906.623	12163
906.74	12175
906.857	12015
906.974	12087
907.091	12247
907.208	12296
907.324	12266
907.441	12083
907.557	11939
907.674	11927
907.79	11775
907.907	11904
908.023	12003
908.139	11889
908.256	11821
908.372	11878
908.488	11828
908.604	11733
908.72	11630
908.836	11684
908.952	11646
909.068	11691
909.184	11741
909.3	11688
909.415	11695
909.531	11707
909.647	11455
909.762	11452
909.878	11414
909.993	11554
910.108	11501
910.224	11482
910.339	11429
910.454	11273
910.57	11258
910.685	11341
910.8	11497
910.915	11429
911.03	11334
911.145	11147
911.259	11136
911.374	11166
911.489	11094
911.604	11037
911.718	10923
911.833	10911
911.947	10801
912.062	10729
912.176	10908
912.291	10900
912.405	10858
912.519	11121
912.633	11094
912.748	10930
912.862	10919
912.976	10767
913.09	10660
913.204	10763
913.318	10839
913.431	10908
913.545	10930
913.659	10915
913.772	10752
913.886	10698
914	10687
914.113	10759
914.226	10816
914.34	10759
914.453	10565
914.566	10755
914.68	10653
914.793	10588
914.906	10489
915.019	10322
915.132	10246
915.245	10386
915.358	10432
915.47	10398
915.583	10485
915.696	10462
915.809	10542
915.921	10531
916.034	10421
916.146	10428
916.259	10310
916.371	10440
916.483	10394
916.595	10432
916.708	10367
916.82	10322
916.932	10386
917.044	10318
917.156	10303
917.268	10253
917.38	10360
917.491	10299
917.603	10287
917.715	10409
917.826	10348
917.938	10173
918.049	10105
918.161	10295
918.272	10432
918.384	10375
918.495	10348
918.606	10154
918.717	10082
918.828	10162
918.939	10219
919.05	10090
919.161	10150
919.272	9930
919.383	9953
919.494	10261
919.604	10341
919.715	10150
919.826	10017
919.936	10154
920.047	10261
920.157	10124
920.267	10428
920.378	10230
920.488	10162
920.598	10398
920.708	10459
920.818	10375
920.928	10375
921.038	10470
921.148	10417
921.258	10249
921.368	10074
921.477	10139
921.587	10093
921.697	9857
921.806	10071
921.916	9941
922.025	9724
922.134	9762
922.244	9671
922.353	9743
922.462	9606
922.571	9549
922.68	9401
922.789	9317
922.898	9386
923.007	9389
923.116	9481
923.224	9439
923.333	9401
923.442	9294
923.55	9283
923.659	9313
923.767	9378
923.876	9268
923.984	9348
924.092	9283
924.201	9329
924.309	9351
924.417	9310
924.525	9135
924.633	9233
924.741	10204
924.849	8986
924.956	9203
925.064	9043
925.172	9005
925.279	9005
925.387	9070
925.494	9104
925.602	9241
925.709	9264
925.816	9028
925.924	9154
926.031	9123
926.138	9074
926.245	9085
926.352	9089
926.459	9161
926.566	9150
926.673	9043
926.779	8952
926.886	8944
926.993	8819
927.099	8849
927.206	8693
927.312	8853
927.419	8819
927.525	8804
927.631	8834
927.737	8701
927.843	8682
927.95	8602
928.056	8663
928.162	8667
928.267	8777
928.373	9294
928.479	8720
928.585	8556
928.69	8625
928.796	8750
928.901	8636
929.007	8408
929.112	8674
929.218	8518
929.323	8457
929.428	8507
929.533	8568
929.638	8511
929.743	8450
929.848	8537
929.953	8552
930.058	8377
930.163	8259
930.267	8294
930.372	8358
930.477	8214
930.581	8469
930.685	8355
930.79	8210
930.894	8256
930.998	8191
931.103	8381
931.207	8020
931.311	7951
931.415	7902
931.519	7689
931.623	7727
