Data from test_V78500241_321.txt Node
Date: Fri Mar 25 14:35:57 CST 2022
User: usil
Spectrometer: V785-0024
Trigger mode: 0
Integration Time (sec): 4.000000E-1
Scans to average: 1
Nonlinearity correction enabled: false
Boxcar width: 0
Storing dark spectrum: false
XAxis mode: Wavelengths
Number of Pixels in Spectrum: 1024
>>>>>Begin Spectral Data<<<<<
801.071	26891
801.214	27058
801.356	26720
801.499	26560
801.641	26495
801.783	26457
801.926	26499
802.068	26495
802.211	26408
802.353	26218
802.496	26096
802.638	26035
802.78	25997
802.923	25963
803.065	25883
803.208	25879
803.35	26031
803.492	26161
803.635	26180
803.777	26012
803.919	25986
804.061	26294
804.204	26077
804.346	25845
804.488	25940
804.63	25925
804.773	25913
804.915	25974
805.057	26157
805.199	25890
805.341	26084
805.483	26069
805.626	25959
805.768	25947
805.91	26005
806.052	25928
806.194	25750
806.336	26142
806.478	26065
806.62	25883
806.762	26046
806.904	26229
807.046	26526
807.188	26233
807.33	26419
807.472	26351
807.614	26412
807.756	26389
807.898	26244
808.04	26176
808.182	26069
808.324	26210
808.465	26164
808.607	26332
808.749	26503
808.891	26655
809.033	26663
809.174	26701
809.316	26408
809.458	26617
809.6	26549
809.741	26533
809.883	26457
810.025	26765
810.166	26697
810.308	26807
810.45	26651
810.591	26518
810.733	26476
810.875	26336
811.016	26183
811.158	26149
811.299	26400
811.441	26469
811.582	26412
811.724	26473
811.865	26358
812.007	26244
812.148	26317
812.29	26324
812.431	26457
812.573	26705
812.714	26712
812.855	26693
812.997	26952
813.138	27127
813.279	26895
813.421	26921
813.562	26880
813.703	26697
813.845	26640
813.986	26385
814.127	26031
814.268	25928
814.41	26035
814.551	25940
814.692	25883
814.833	25868
814.974	25845
815.115	25921
815.256	25822
815.397	25696
815.539	25727
815.68	25681
815.821	25552
815.962	25765
816.103	25666
816.244	25525
816.385	25278
816.526	25301
816.666	25034
816.807	25095
816.948	25019
817.089	25152
817.23	25168
817.371	25091
817.512	25122
817.653	24954
817.793	25122
817.934	25012
818.075	25000
818.216	24985
818.356	24909
818.497	24859
818.638	24582
818.778	24749
818.919	24791
819.06	24726
819.2	24882
819.341	24943
819.481	24943
819.622	24985
819.762	25141
819.903	25198
820.043	25175
820.184	25126
820.324	25099
820.465	24905
820.605	25023
820.746	25004
820.886	24848
821.026	25019
821.167	25042
821.307	24909
821.447	24894
821.588	24772
821.728	24627
821.868	24475
822.008	24194
822.149	24311
822.289	24216
822.429	24213
822.569	24026
822.709	23847
822.849	23855
822.99	23802
823.13	23851
823.27	23676
823.41	23608
823.55	23531
823.69	23570
823.83	23684
823.97	23421
824.11	23364
824.25	23242
824.389	23337
824.529	23459
824.669	23303
824.809	23497
824.949	23570
825.089	23395
825.228	23417
825.368	23140
825.508	23185
825.648	23250
825.787	23113
825.927	23315
826.067	23113
826.206	23223
826.346	23197
826.485	23223
826.625	23170
826.765	23334
826.904	23109
827.044	22987
827.183	22869
827.323	22877
827.462	22927
827.601	22946
827.741	22778
827.88	22892
828.02	22733
828.159	22713
828.298	22778
828.437	22873
828.577	22752
828.716	23029
828.855	22706
828.994	22588
829.134	22656
829.273	22443
829.412	22424
829.551	22557
829.69	22538
829.829	22462
829.968	22554
830.107	22588
830.246	22649
830.385	22527
830.524	22489
830.663	22280
830.802	22204
830.941	22154
831.08	22124
831.219	22280
831.357	22181
831.496	22322
831.635	22086
831.774	22029
831.913	22051
832.051	21808
832.19	21854
832.329	21972
832.467	21823
832.606	21580
832.744	21667
832.883	21724
833.022	21660
833.16	21736
833.299	21709
833.437	21671
833.576	21675
833.714	21667
833.852	21816
833.991	21759
834.129	21835
834.267	21770
834.406	21789
834.544	21831
834.682	21816
834.821	21690
834.959	21842
835.097	21538
835.235	21762
835.373	21781
835.511	21717
835.65	21557
835.788	21534
835.926	21496
836.064	21450
836.202	21374
836.34	21526
836.478	21637
836.615	21538
836.753	21515
836.891	21549
837.029	21553
837.167	21507
837.305	21511
837.443	21450
837.58	21329
837.718	21542
837.856	21481
837.993	21329
838.131	21424
838.269	21313
838.406	21389
838.544	21249
838.681	21074
838.819	21112
838.956	20857
839.094	20845
839.231	20921
839.369	21081
839.506	21199
839.643	21104
839.781	20864
839.918	20845
840.055	20883
840.193	20758
840.33	20838
840.467	20678
840.604	20758
840.742	21055
840.879	20644
841.016	20781
841.153	20693
841.29	20834
841.427	20682
841.564	20743
841.701	20785
841.838	20754
841.975	20598
842.112	20644
842.249	20602
842.385	20632
842.522	20678
842.659	20629
842.796	20526
842.933	20590
843.069	20404
843.206	20495
843.343	20556
843.479	20571
843.616	20579
843.752	20252
843.889	20309
844.025	20473
844.162	20202
844.298	20294
844.435	20183
844.571	20191
844.708	20267
844.844	20404
844.98	20339
845.117	20256
845.253	20252
845.389	20191
845.525	20206
845.661	20240
845.798	20119
845.934	20107
846.07	20016
846.206	20069
846.342	20225
846.478	20088
846.614	19788
846.75	19681
846.886	19803
847.022	19791
847.158	19818
847.294	19837
847.429	19635
847.565	19662
847.701	20008
847.837	19525
847.972	19411
848.108	19487
848.244	19449
848.379	19255
848.515	19228
848.65	19225
848.786	19263
848.921	19278
849.057	19350
849.192	19350
849.328	19308
849.463	19312
849.598	19148
849.734	19206
849.869	19057
850.004	19065
850.14	19042
850.275	19034
850.41	19046
850.545	19004
850.68	19031
850.815	19023
850.95	18958
851.085	19095
851.22	19103
851.355	19000
851.49	18996
851.625	18985
851.76	19015
851.895	18745
852.03	18863
852.165	18993
852.299	18962
852.434	19084
852.569	18977
852.703	18897
852.838	19061
852.973	19133
853.107	19015
853.242	18863
853.376	18817
853.511	18738
853.645	18856
853.78	18871
853.914	18817
854.048	18776
854.183	18745
854.317	18817
854.451	19042
854.585	18806
854.72	18711
854.854	18844
854.988	18692
855.122	18825
855.256	18635
855.39	18776
855.524	18848
855.658	18821
855.792	18787
855.926	18825
856.06	18859
856.194	18958
856.327	18787
856.461	18631
856.595	18707
856.729	18760
856.862	18829
856.996	18878
857.13	18947
857.263	18787
857.397	18947
857.53	18707
857.664	18798
857.797	18787
857.931	18867
858.064	18802
858.197	18840
858.331	18791
858.464	18639
858.597	18684
858.731	18673
858.864	18582
858.997	18757
859.13	18764
859.263	18760
859.396	18970
859.529	18817
859.662	18692
859.795	18650
859.928	18715
860.061	18894
860.194	18913
860.327	18783
860.46	18661
860.592	18863
860.725	18837
860.858	18783
860.99	18776
861.123	18661
861.256	18661
861.388	18787
861.521	19396
861.653	18783
861.786	18681
861.918	18578
862.05	18722
862.183	18795
862.315	18901
862.447	18810
862.58	18875
862.712	18540
862.844	18471
862.976	18608
863.108	18650
863.24	18802
863.372	18380
863.504	18467
863.636	18426
863.768	18570
863.9	18506
864.032	18391
864.164	18445
864.296	18544
864.428	18532
864.559	18525
864.691	18612
864.823	18528
864.954	18429
865.086	18441
865.217	18327
865.349	18361
865.48	18262
865.612	18338
865.743	18540
865.875	18376
866.006	18296
866.137	18346
866.269	18464
866.4	18399
866.531	18220
866.662	18353
866.793	18277
866.924	18300
867.055	18353
867.186	18369
867.317	18315
867.448	18136
867.579	18353
867.71	18125
867.841	18243
867.972	18235
868.103	18418
868.233	18308
868.364	18285
868.495	18391
868.625	18589
868.756	18719
868.886	18486
869.017	18547
869.147	18612
869.278	18711
869.408	18585
869.539	18544
869.669	18661
869.799	18623
869.929	18631
870.06	18563
870.19	18760
870.32	18795
870.45	18970
870.58	18909
870.71	18996
870.84	19076
870.97	18875
871.1	18901
871.23	19076
871.36	19080
871.489	19148
871.619	19053
871.749	19065
871.879	19164
872.008	19247
872.138	19289
872.267	19042
872.397	19080
872.526	19015
872.656	18913
872.785	19034
872.915	19168
873.044	19240
873.173	19175
873.303	19202
873.432	19190
873.561	19240
873.69	19168
873.819	19118
873.948	19331
874.077	19137
874.206	19107
874.335	19175
874.464	19346
874.593	19445
874.722	19438
874.851	19483
874.979	19525
875.108	19514
875.237	19453
875.365	19301
875.494	19499
875.623	19521
875.751	19495
875.88	19533
876.008	19491
876.136	19628
876.265	19818
876.393	19902
876.521	19818
876.65	19864
876.778	19750
876.906	19700
877.034	19799
877.162	19830
877.29	19791
877.418	19837
877.546	19772
877.674	19951
877.802	19761
877.93	19830
878.058	19753
878.185	19666
878.313	19731
878.441	19795
878.568	19689
878.696	19700
878.824	19807
878.951	19822
879.079	20020
879.206	20191
879.333	20107
879.461	19940
879.588	19982
879.715	20016
879.842	20301
879.97	19921
880.097	19734
880.224	19597
880.351	19746
880.478	19712
880.605	19601
880.732	19685
880.859	19959
880.986	19712
881.112	19670
881.239	19616
881.366	19441
881.493	19362
881.619	19377
881.746	19190
881.872	19335
881.999	19263
882.125	19228
882.252	19407
882.378	19339
882.505	19480
882.631	19244
882.757	19008
882.883	19198
883.01	19095
883.136	18973
883.262	18909
883.388	18886
883.514	19080
883.64	19053
883.766	18943
883.892	18970
884.018	18928
884.143	19110
884.269	19171
884.395	18821
884.52	18665
884.646	18787
884.772	18665
884.897	18585
885.023	18620
885.148	18798
885.274	18817
885.399	18726
885.524	18650
885.65	18749
885.775	18722
885.9	18631
886.025	18791
886.15	18776
886.275	18639
886.4	18570
886.525	18734
886.65	18608
886.775	18597
886.9	18798
887.025	18859
887.149	18612
887.274	18559
887.399	18498
887.523	18426
887.648	18418
887.773	18433
887.897	18597
888.021	18513
888.146	18464
888.27	18612
888.395	18498
888.519	18506
888.643	18365
888.767	18532
888.891	18384
889.015	18262
889.139	18342
889.263	18296
889.387	18388
889.511	18452
889.635	18422
889.759	18213
889.883	18216
890.006	18163
890.13	18289
890.254	18205
890.377	18251
890.501	17992
890.624	18106
890.748	18098
890.871	17958
890.995	17863
891.118	17904
891.241	17847
891.364	17946
891.488	17996
891.611	17908
891.734	17931
891.857	17901
891.98	17920
892.103	17878
892.226	17874
892.349	17927
892.471	17760
892.594	17824
892.717	17775
892.839	17668
892.962	17805
893.085	17836
893.207	17802
893.33	17722
893.452	17684
893.575	17851
893.697	17779
893.819	17999
893.941	18079
894.064	17999
894.186	17832
894.308	17798
894.43	17954
894.552	18053
894.674	17897
894.796	17805
894.918	17821
895.04	17916
895.161	17958
895.283	17980
895.405	17771
895.526	17885
895.648	17874
895.769	17912
895.891	17946
896.012	17901
896.134	17961
896.255	17840
896.376	17935
896.498	17870
896.619	17912
896.74	17950
896.861	18011
896.982	18152
897.103	18460
897.224	18308
897.345	18102
897.466	18102
897.587	18129
897.708	18254
897.828	18072
897.949	18136
898.07	18064
898.19	18125
898.311	18388
898.431	18087
898.552	18216
898.672	18194
898.792	18243
898.913	18076
899.033	17950
899.153	17954
899.273	17805
899.393	17832
899.513	17935
899.633	17950
899.753	17942
899.873	17904
899.993	18003
900.113	18041
900.232	17912
900.352	17889
900.472	17752
900.591	17630
900.711	17718
900.83	17821
900.95	17946
901.069	17779
901.189	17680
901.308	17505
901.427	17520
901.546	17383
901.665	17269
901.784	17284
901.904	17288
902.023	17052
902.141	16938
902.26	16953
902.379	17006
902.498	16938
902.617	16831
902.735	16843
902.854	16850
902.973	16790
903.091	16565
903.21	16649
903.328	16561
903.446	16478
903.565	16424
903.683	16375
903.801	16261
903.919	16318
904.038	16379
904.156	16200
904.274	16204
904.392	16154
904.51	16200
904.627	16196
904.745	16196
904.863	16112
904.981	15975
905.098	15819
905.216	15819
905.334	15857
905.451	15755
905.569	15793
905.686	15842
905.803	15800
905.921	15587
906.038	15728
906.155	15641
906.272	15477
906.389	15492
906.506	15344
906.623	15420
906.74	15291
906.857	15222
906.974	15214
907.091	15408
907.208	15519
907.324	15344
907.441	15180
907.557	15100
907.674	15207
907.79	14998
907.907	15013
908.023	15100
908.139	15024
908.256	15013
908.372	15005
908.488	15024
908.604	14785
908.72	14788
908.836	14807
908.952	14735
909.068	14883
909.184	15005
909.3	14693
909.415	14754
909.531	14746
909.647	14552
909.762	14579
909.878	14434
909.993	14621
910.108	14461
910.224	14465
910.339	14571
910.454	14358
910.57	14347
910.685	14286
910.8	14476
910.915	14484
911.03	14400
911.145	14153
911.259	14142
911.374	14161
911.489	14027
911.604	13967
911.718	13883
911.833	13902
911.947	13734
912.062	13639
912.176	13879
912.291	13849
912.405	13883
912.519	13970
912.633	14069
912.748	13894
912.862	13837
912.976	13708
913.09	13636
913.204	13624
913.318	13689
913.431	13807
913.545	13837
913.659	13940
913.772	13666
913.886	13632
914	13495
914.113	13540
914.226	13636
914.34	13662
914.453	13434
914.566	13567
914.68	13472
914.793	13411
914.906	13316
915.019	13194
915.132	13042
915.245	13194
915.358	13301
915.47	13217
915.583	13194
915.696	13225
915.809	13282
915.921	13289
916.034	13198
916.146	13118
916.259	13137
916.371	13255
916.483	13103
916.595	13057
916.708	13084
916.82	13015
916.932	12947
917.044	13031
917.156	13012
917.268	12928
917.38	13023
917.491	12962
917.603	13000
917.715	13072
917.826	13034
917.938	12920
918.049	12753
918.161	12913
918.272	12989
918.384	12973
918.495	12856
918.606	12715
918.717	12593
918.828	12726
918.939	12795
919.05	12646
919.161	12726
919.272	12467
919.383	12536
919.494	12673
919.604	12924
919.715	12738
919.826	12536
919.936	12616
920.047	12802
920.157	12627
920.267	12920
920.378	12730
920.488	12627
920.598	12825
920.708	12916
920.818	12787
920.928	12791
921.038	13053
921.148	12844
921.258	12681
921.368	12471
921.477	12486
921.587	12483
921.697	12262
921.806	12506
921.916	12296
922.025	12186
922.134	12163
922.244	12053
922.353	12186
922.462	11942
922.571	11939
922.68	11843
922.789	11756
922.898	11767
923.007	11672
923.116	11817
923.224	11790
923.333	11748
923.442	11646
923.55	11649
923.659	11676
923.767	11646
923.876	11532
923.984	11604
924.092	11501
924.201	11539
924.309	11459
924.417	11608
924.525	11452
924.633	11547
924.741	12338
924.849	11307
924.956	11440
925.064	11296
925.172	11197
925.279	11280
925.387	11368
925.494	11296
925.602	11391
925.709	11372
925.816	11185
925.924	11181
926.031	11273
926.138	11322
926.245	11277
926.352	11185
926.459	11353
926.566	11326
926.673	11140
926.779	11159
926.886	11048
926.993	10877
927.099	10908
927.206	10839
927.312	10847
927.419	10915
927.525	10873
927.631	10904
927.737	10809
927.843	10717
927.95	10687
928.056	10733
928.162	10774
928.267	10892
928.373	11337
928.479	10877
928.585	10607
928.69	10733
928.796	10809
928.901	10656
929.007	10474
929.112	10550
929.218	10641
929.323	10523
929.428	10565
929.533	10550
929.638	10440
929.743	10478
929.848	10481
929.953	10360
930.058	10348
930.163	10162
930.267	10162
930.372	10417
930.477	10227
930.581	10405
930.685	10242
930.79	10196
930.894	10154
930.998	10074
931.103	10272
931.207	9899
931.311	9797
931.415	9717
931.519	9663
931.623	9542
