Data from test_V78500241_1972.txt Node
Date: Fri Mar 25 14:47:26 CST 2022
User: usil
Spectrometer: V785-0024
Trigger mode: 0
Integration Time (sec): 4.000000E-1
Scans to average: 1
Nonlinearity correction enabled: false
Boxcar width: 0
Storing dark spectrum: false
XAxis mode: Wavelengths
Number of Pixels in Spectrum: 1024
>>>>>Begin Spectral Data<<<<<
801.071	22032
801.214	21850
801.356	21648
801.499	21641
801.641	21519
801.783	21507
801.926	21458
802.068	21473
802.211	21291
802.353	21298
802.496	21051
802.638	21047
802.78	20906
802.923	20910
803.065	20800
803.208	20724
803.35	20682
803.492	20967
803.635	20864
803.777	20765
803.919	20773
804.061	21272
804.204	20777
804.346	20705
804.488	20640
804.63	20750
804.773	20727
804.915	20796
805.057	20880
805.199	20727
805.341	20792
805.483	20872
805.626	20804
805.768	20678
805.91	20762
806.052	20769
806.194	20708
806.336	20861
806.478	20819
806.62	20686
806.762	20735
806.904	20902
807.046	21123
807.188	20967
807.33	21013
807.472	21028
807.614	20880
807.756	21032
807.898	20895
808.04	20754
808.182	20746
808.324	20785
808.465	20792
808.607	21043
808.749	21100
808.891	21260
809.033	21260
809.174	21245
809.316	21150
809.458	21077
809.6	21039
809.741	21184
809.883	21074
810.025	21256
810.166	21272
810.308	21348
810.45	21138
810.591	21047
810.733	20902
810.875	20796
811.016	20743
811.158	20773
811.299	20902
811.441	20937
811.582	20910
811.724	20872
811.865	20849
812.007	20834
812.148	20864
812.29	20849
812.431	21051
812.573	21146
812.714	21313
812.855	21329
812.997	21363
813.138	21561
813.279	21492
813.421	21340
813.562	21275
813.703	21047
813.845	21077
813.986	20769
814.127	20552
814.268	20545
814.41	20396
814.551	20419
814.692	20415
814.833	20328
814.974	20419
815.115	20385
815.256	20282
815.397	20298
815.539	20301
815.68	20107
815.821	20050
815.962	20107
816.103	20195
816.244	19917
816.385	19894
816.526	19856
816.666	19658
816.807	19495
816.948	19548
817.089	19647
817.23	19651
817.371	19403
817.512	19582
817.653	19651
817.793	19445
817.934	19597
818.075	19510
818.216	19525
818.356	19365
818.497	19381
818.638	19217
818.778	19304
818.919	19122
819.06	19335
819.2	19232
819.341	19320
819.481	19339
819.622	19605
819.762	19818
819.903	19727
820.043	19670
820.184	19548
820.324	19419
820.465	19590
820.605	19506
820.746	19445
820.886	19369
821.026	19464
821.167	19499
821.307	19601
821.447	19400
821.588	19217
821.728	19251
821.868	19031
822.008	18890
822.149	19042
822.289	18814
822.429	18654
822.569	18559
822.709	18669
822.849	18521
822.99	18445
823.13	18391
823.27	18399
823.41	18277
823.55	18182
823.69	18235
823.83	18190
823.97	18083
824.11	18015
824.25	18064
824.389	17980
824.529	18110
824.669	18011
824.809	18072
824.949	18057
825.089	18030
825.228	17920
825.368	17798
825.508	17821
825.648	17752
825.787	17748
825.927	17733
826.067	17657
826.206	17729
826.346	17836
826.485	17863
826.625	17707
826.765	17866
826.904	17866
827.044	17592
827.183	17501
827.323	17455
827.462	17589
827.601	17452
827.741	17459
827.88	17524
828.02	17277
828.159	17482
828.298	17501
828.437	17577
828.577	17452
828.716	17646
828.855	17528
828.994	17162
829.134	17284
829.273	17292
829.412	17200
829.551	17227
829.69	17151
829.829	17212
829.968	17326
830.107	17391
830.246	17265
830.385	17315
830.524	17060
830.663	17121
830.802	16862
830.941	16820
831.08	16854
831.219	16892
831.357	16885
831.496	17124
831.635	16923
831.774	16687
831.913	16839
832.051	16542
832.19	16668
832.329	16755
832.467	16527
832.606	16428
832.744	16634
832.883	16546
833.022	16519
833.16	16550
833.299	16634
833.437	16588
833.576	16554
833.714	16615
833.852	16573
833.991	16603
834.129	16729
834.267	16630
834.406	16687
834.544	16618
834.682	16668
834.821	16538
834.959	16729
835.097	16611
835.235	16702
835.373	16607
835.511	16596
835.65	16470
835.788	16508
835.926	16497
836.064	16337
836.202	16306
836.34	16569
836.478	16554
836.615	16455
836.753	16470
836.891	16561
837.029	16580
837.167	16485
837.305	16455
837.443	16386
837.58	16421
837.718	16542
837.856	16367
837.993	16211
838.131	16363
838.269	16291
838.406	16310
838.544	16284
838.681	16139
838.819	16036
838.956	15987
839.094	15949
839.231	16021
839.369	16082
839.506	16299
839.643	16230
839.781	16013
839.918	15941
840.055	15934
840.193	15953
840.33	15960
840.467	15873
840.604	15979
840.742	16242
840.879	15717
841.016	15793
841.153	15842
841.29	16013
841.427	16036
841.564	15979
841.701	15937
841.838	15903
841.975	15865
842.112	15854
842.249	15861
842.385	15686
842.522	15869
842.659	15797
842.796	15713
842.933	15694
843.069	15606
843.206	15629
843.343	15804
843.479	15641
843.616	15720
843.752	15538
843.889	15492
844.025	15682
844.162	15405
844.298	15648
844.435	15515
844.571	15435
844.708	15542
844.844	15709
844.98	15660
845.117	15633
845.253	15515
845.389	15500
845.525	15473
845.661	15431
845.798	15313
845.934	15329
846.07	15275
846.206	15393
846.342	15424
846.478	15340
846.614	15085
846.75	15032
846.886	15074
847.022	15249
847.158	15138
847.294	15165
847.429	15047
847.565	15097
847.701	15279
847.837	14834
847.972	14864
848.108	14864
848.244	14838
848.379	14743
848.515	14716
848.65	14575
848.786	14739
848.921	14785
849.057	14777
849.192	14693
849.328	14743
849.463	14678
849.598	14731
849.734	14625
849.869	14632
850.004	14537
850.14	14545
850.275	14438
850.41	14381
850.545	14415
850.68	14396
850.815	14408
850.95	14450
851.085	14613
851.22	14457
851.355	14495
851.49	14389
851.625	14431
851.76	14415
851.895	14278
852.03	14275
852.165	14408
852.299	14450
852.434	14488
852.569	14476
852.703	14457
852.838	14583
852.973	14617
853.107	14598
853.242	14396
853.376	14389
853.511	14123
853.645	14298
853.78	14446
853.914	14305
854.048	14336
854.183	14282
854.317	14374
854.451	14530
854.585	14320
854.72	14317
854.854	14328
854.988	14221
855.122	14298
855.256	14123
855.39	14305
855.524	14389
855.658	14317
855.792	14396
855.926	14442
856.06	14396
856.194	14469
856.327	14282
856.461	14298
856.595	14370
856.729	14351
856.862	14343
856.996	14385
857.13	14362
857.263	14480
857.397	14366
857.53	14324
857.664	14423
857.797	14427
857.931	14434
858.064	14290
858.197	14419
858.331	14377
858.464	14317
858.597	14259
858.731	14259
858.864	14267
858.997	14244
859.13	14400
859.263	14317
859.396	14457
859.529	14248
859.662	14214
859.795	14259
859.928	14275
860.061	14511
860.194	14457
860.327	14332
860.46	14336
860.592	14385
860.725	14518
860.858	14400
860.99	14309
861.123	14294
861.256	14290
861.388	14408
861.521	14929
861.653	14168
861.786	14180
861.918	14092
862.05	14210
862.183	14298
862.315	14374
862.447	14358
862.58	14206
862.712	14111
862.844	14107
862.976	14214
863.108	14138
863.24	14423
863.372	13936
863.504	14062
863.636	14088
863.768	14100
863.9	14115
864.032	14027
864.164	14050
864.296	14123
864.428	14161
864.559	14126
864.691	14168
864.823	14199
864.954	14191
865.086	14123
865.217	14092
865.349	13993
865.48	14073
865.612	14062
865.743	14218
865.875	14073
866.006	14016
866.137	14088
866.269	14054
866.4	14065
866.531	14020
866.662	14035
866.793	14024
866.924	14054
867.055	14050
867.186	14043
867.317	14081
867.448	13955
867.579	14103
867.71	14001
867.841	14008
867.972	14016
868.103	14092
868.233	14126
868.364	14100
868.495	14176
868.625	14282
868.756	14442
868.886	14172
869.017	14256
869.147	14492
869.278	14355
869.408	14351
869.539	14415
869.669	14415
869.799	14396
869.929	14400
870.06	14503
870.19	14583
870.32	14644
870.45	14663
870.58	14800
870.71	14906
870.84	14853
870.97	14765
871.1	14743
871.23	14891
871.36	14937
871.489	14861
871.619	14842
871.749	14857
871.879	14944
872.008	15123
872.138	15024
872.267	14952
872.397	14792
872.526	14750
872.656	14815
872.785	14689
872.915	14914
873.044	14990
873.173	15024
873.303	15017
873.432	14933
873.561	15150
873.69	15051
873.819	14941
873.948	15055
874.077	15017
874.206	15036
874.335	14986
874.464	15112
874.593	15389
874.722	15260
874.851	15302
874.979	15359
875.108	15325
875.237	15283
875.365	15135
875.494	15203
875.623	15355
875.751	15275
875.88	15336
876.008	15378
876.136	15523
876.265	15591
876.393	15838
876.521	15816
876.65	15835
876.778	15774
876.906	15755
877.034	15713
877.162	15770
877.29	15682
877.418	15736
877.546	15793
877.674	15622
877.802	15667
877.93	15663
878.058	15542
878.185	15625
878.313	15713
878.441	15652
878.568	15530
878.696	15709
878.824	15751
878.951	15770
879.079	15922
879.206	15937
879.333	15869
879.461	15663
879.588	15713
879.715	15884
879.842	16010
879.97	15774
880.097	15530
880.224	15526
880.351	15591
880.478	15481
880.605	15481
880.732	15538
880.859	15800
880.986	15526
881.112	15587
881.239	15481
881.366	15237
881.493	15241
881.619	15226
881.746	15188
881.872	15252
881.999	15207
882.125	15180
882.252	15199
882.378	15272
882.505	15412
882.631	15135
882.757	14967
882.883	15119
883.01	15043
883.136	15024
883.262	14826
883.388	14880
883.514	14986
883.64	15077
883.766	15051
883.892	14781
884.018	14853
884.143	15112
884.269	15203
884.395	14773
884.52	14773
884.646	14785
884.772	14705
884.897	14712
885.023	14701
885.148	14849
885.274	14826
885.399	14876
885.524	14735
885.65	14804
885.775	14724
885.9	14667
886.025	14948
886.15	14815
886.275	14716
886.4	14610
886.525	14659
886.65	14701
886.775	14625
886.9	14880
887.025	14937
887.149	14739
887.274	14575
887.399	14503
887.523	14522
887.648	14545
887.773	14427
887.897	14598
888.021	14644
888.146	14571
888.27	14598
888.395	14659
888.519	14514
888.643	14583
888.767	14545
888.891	14564
889.015	14355
889.139	14457
889.263	14317
889.387	14522
889.511	14621
889.635	14526
889.759	14461
889.883	14404
890.006	14488
890.13	14503
890.254	14450
890.377	14370
890.501	14275
890.624	14199
890.748	14336
890.871	14218
890.995	14126
891.118	14058
891.241	14115
891.364	14191
891.488	14153
891.611	14126
891.734	14119
891.857	14225
891.98	14210
892.103	14191
892.226	14267
892.349	14119
892.471	13974
892.594	14123
892.717	14145
892.839	14065
892.962	14149
893.085	14123
893.207	14214
893.33	14069
893.452	14046
893.575	14161
893.697	14039
893.819	14313
893.941	14294
894.064	14336
894.186	14096
894.308	14005
894.43	14275
894.552	14336
894.674	14313
894.796	14103
894.918	14096
895.04	14214
895.161	14221
895.283	14355
895.405	14001
895.526	14229
895.648	14244
895.769	14256
895.891	14317
896.012	14221
896.134	14252
896.255	14305
896.376	14248
896.498	14256
896.619	14294
896.74	14248
896.861	14355
896.982	14746
897.103	14731
897.224	14613
897.345	14575
897.466	14492
897.587	14499
897.708	14708
897.828	14674
897.949	14476
898.07	14484
898.19	14461
898.311	14785
898.431	14419
898.552	14644
898.672	14845
898.792	14811
898.913	14689
899.033	14545
899.153	14495
899.273	14450
899.393	14374
899.513	14518
899.633	14465
899.753	14511
899.873	14336
899.993	14511
900.113	14511
900.232	14518
900.352	14446
900.472	14381
900.591	14313
900.711	14396
900.83	14313
900.95	14457
901.069	14434
901.189	14221
901.308	14054
901.427	14016
901.546	14077
901.665	14024
901.784	14088
901.904	13887
902.023	13803
902.141	13674
902.26	13628
902.379	13632
902.498	13632
902.617	13582
902.735	13647
902.854	13529
902.973	13556
903.091	13362
903.21	13392
903.328	13350
903.446	13320
903.565	13289
903.683	13232
903.801	13160
903.919	13091
904.038	13160
904.156	12970
904.274	13076
904.392	12886
904.51	12913
904.627	13004
904.745	13012
904.863	13061
904.981	12798
905.098	12669
905.216	12635
905.334	12700
905.451	12673
905.569	12658
905.686	12719
905.803	12639
905.921	12452
906.038	12612
906.155	12513
906.272	12350
906.389	12426
906.506	12178
906.623	12277
906.74	12251
906.857	12136
906.974	12155
907.091	12300
907.208	12429
907.324	12334
907.441	12155
907.557	12034
907.674	12133
907.79	11904
907.907	11984
908.023	12098
908.139	11969
908.256	11988
908.372	11954
908.488	11923
908.604	11813
908.72	11836
908.836	11809
908.952	11783
909.068	11779
909.184	11901
909.3	11634
909.415	11863
909.531	11828
909.647	11668
909.762	11581
909.878	11554
909.993	11573
910.108	11528
910.224	11615
910.339	11539
910.454	11512
910.57	11452
910.685	11387
910.8	11707
910.915	11471
911.03	11539
911.145	11239
911.259	11261
911.374	11239
911.489	11170
911.604	11197
911.718	10987
911.833	11029
911.947	10911
912.062	10847
912.176	10930
912.291	10942
912.405	10957
912.519	11212
912.633	11269
912.748	11037
912.862	11010
912.976	10869
913.09	10740
913.204	10862
913.318	10911
913.431	10999
913.545	10946
913.659	11018
913.772	10877
913.886	10790
914	10683
914.113	10812
914.226	10942
914.34	10816
914.453	10622
914.566	10748
914.68	10717
914.793	10698
914.906	10443
915.019	10424
915.132	10344
915.245	10493
915.358	10508
915.47	10508
915.583	10481
915.696	10561
915.809	10573
915.921	10660
916.034	10440
916.146	10481
916.259	10466
916.371	10535
916.483	10523
916.595	10413
916.708	10432
916.82	10474
916.932	10390
917.044	10413
917.156	10413
917.268	10287
917.38	10360
917.491	10329
917.603	10382
917.715	10459
917.826	10447
917.938	10291
918.049	10215
918.161	10344
918.272	10455
918.384	10455
918.495	10344
918.606	10246
918.717	10223
918.828	10246
918.939	10337
919.05	10109
919.161	10223
919.272	10025
919.383	10090
919.494	10249
919.604	10466
919.715	10268
919.826	10211
919.936	10295
920.047	10367
920.157	10284
920.267	10516
920.378	10329
920.488	10272
920.598	10485
920.708	10573
920.818	10443
920.928	10462
921.038	10569
921.148	10630
921.258	10337
921.368	10223
921.477	10128
921.587	10090
921.697	9972
921.806	10120
921.916	10029
922.025	9922
922.134	9838
922.244	9793
922.353	9846
922.462	9751
922.571	9606
922.68	9614
922.789	9542
922.898	9633
923.007	9515
923.116	9584
923.224	9603
923.333	9523
923.442	9439
923.55	9359
923.659	9485
923.767	9466
923.876	9401
923.984	9443
924.092	9420
924.201	9450
924.309	9397
924.417	9412
924.525	9359
924.633	9325
924.741	10325
924.849	9161
924.956	9298
925.064	9176
925.172	9108
925.279	9127
925.387	9256
925.494	9272
925.602	9313
925.709	9249
925.816	9100
925.924	9241
926.031	9211
926.138	9142
926.245	9256
926.352	9051
926.459	9287
926.566	9294
926.673	9123
926.779	9062
926.886	9089
926.993	8887
927.099	8933
927.206	8883
927.312	8815
927.419	8941
927.525	8994
927.631	8902
927.737	8720
927.843	8769
927.95	8682
928.056	8804
928.162	8796
928.267	8807
928.373	9488
928.479	8910
928.585	8682
928.69	8773
928.796	8880
928.901	8686
929.007	8549
929.112	8724
929.218	8636
929.323	8648
929.428	8533
929.533	8689
929.638	8503
929.743	8625
929.848	8549
929.953	8526
930.058	8549
930.163	8343
930.267	8442
930.372	8564
930.477	8339
930.581	8613
930.685	8419
930.79	8305
930.894	8347
930.998	8233
931.103	8427
931.207	8115
931.311	8024
931.415	8039
931.519	7860
931.623	7909
