Data from test_V78500241_1789.txt Node
Date: Fri Mar 25 14:46:10 CST 2022
User: usil
Spectrometer: V785-0024
Trigger mode: 0
Integration Time (sec): 4.000000E-1
Scans to average: 1
Nonlinearity correction enabled: false
Boxcar width: 0
Storing dark spectrum: false
XAxis mode: Wavelengths
Number of Pixels in Spectrum: 1024
>>>>>Begin Spectral Data<<<<<
801.071	22139
801.214	22002
801.356	21804
801.499	21808
801.641	21633
801.783	21660
801.926	21610
802.068	21378
802.211	21542
802.353	21275
802.496	21154
802.638	20990
802.78	20963
802.923	20849
803.065	20769
803.208	20842
803.35	20948
803.492	20948
803.635	20933
803.777	20849
803.919	20948
804.061	21233
804.204	20899
804.346	20796
804.488	20659
804.63	20883
804.773	20792
804.915	20807
805.057	20899
805.199	20720
805.341	20781
805.483	20963
805.626	20834
805.768	20769
805.91	20830
806.052	20830
806.194	20663
806.336	20944
806.478	20655
806.62	20765
806.762	20899
806.904	21028
807.046	21317
807.188	21184
807.33	20963
807.472	21081
807.614	20948
807.756	21100
807.898	20853
808.04	20830
808.182	20887
808.324	20887
808.465	20788
808.607	21081
808.749	21112
808.891	21252
809.033	21294
809.174	21222
809.316	21199
809.458	21233
809.6	21116
809.741	21142
809.883	21207
810.025	21359
810.166	21351
810.308	21260
810.45	21252
810.591	21188
810.733	20986
810.875	21001
811.016	20861
811.158	20807
811.299	21009
811.441	20979
811.582	21085
811.724	20876
811.865	20864
812.007	20849
812.148	20899
812.29	21001
812.431	21077
812.573	21112
812.714	21176
812.855	21450
812.997	21682
813.138	21652
813.279	21564
813.421	21469
813.562	21367
813.703	21252
813.845	21074
813.986	20823
814.127	20670
814.268	20602
814.41	20511
814.551	20393
814.692	20522
814.833	20320
814.974	20461
815.115	20556
815.256	20320
815.397	20423
815.539	20286
815.68	20244
815.821	20210
815.962	20199
816.103	20168
816.244	20107
816.385	19944
816.526	20012
816.666	19791
816.807	19681
816.948	19666
817.089	19769
817.23	19590
817.371	19620
817.512	19655
817.653	19559
817.793	19594
817.934	19624
818.075	19666
818.216	19677
818.356	19533
818.497	19373
818.638	19316
818.778	19320
818.919	19327
819.06	19381
819.2	19354
819.341	19434
819.481	19525
819.622	19731
819.762	19727
819.903	19700
820.043	19544
820.184	19628
820.324	19609
820.465	19643
820.605	19594
820.746	19525
820.886	19491
821.026	19624
821.167	19597
821.307	19647
821.447	19419
821.588	19419
821.728	19228
821.868	19137
822.008	19084
822.149	18977
822.289	19034
822.429	18791
822.569	18711
822.709	18677
822.849	18650
822.99	18517
823.13	18464
823.27	18540
823.41	18311
823.55	18300
823.69	18361
823.83	18304
823.97	18266
824.11	18038
824.25	18064
824.389	18178
824.529	18106
824.669	18011
824.809	18232
824.949	18110
825.089	18220
825.228	18064
825.368	17980
825.508	17855
825.648	17984
825.787	17870
825.927	17942
826.067	17836
826.206	17840
826.346	17916
826.485	17874
826.625	17805
826.765	17980
826.904	17745
827.044	17634
827.183	17570
827.323	17444
827.462	17585
827.601	17535
827.741	17592
827.88	17642
828.02	17383
828.159	17512
828.298	17642
828.437	17611
828.577	17478
828.716	17634
828.855	17554
828.994	17280
829.134	17356
829.273	17292
829.412	17406
829.551	17216
829.69	17250
829.829	17345
829.968	17398
830.107	17273
830.246	17227
830.385	17326
830.524	17284
830.663	17109
830.802	16976
830.941	16900
831.08	16927
831.219	16968
831.357	16919
831.496	17197
831.635	16881
831.774	16881
831.913	16828
832.051	16816
832.19	16790
832.329	16778
832.467	16683
832.606	16626
832.744	16573
832.883	16664
833.022	16615
833.16	16565
833.299	16767
833.437	16516
833.576	16649
833.714	16694
833.852	16675
833.991	16721
834.129	16820
834.267	16641
834.406	16748
834.544	16752
834.682	16660
834.821	16656
834.959	16839
835.097	16729
835.235	16820
835.373	16626
835.511	16687
835.65	16634
835.788	16569
835.926	16421
836.064	16440
836.202	16462
836.34	16637
836.478	16683
836.615	16523
836.753	16656
836.891	16649
837.029	16599
837.167	16584
837.305	16519
837.443	16550
837.58	16436
837.718	16485
837.856	16550
837.993	16333
838.131	16485
838.269	16421
838.406	16318
838.544	16405
838.681	16124
838.819	16032
838.956	16010
839.094	15918
839.231	16097
839.369	16051
839.506	16421
839.643	16188
839.781	16032
839.918	15972
840.055	16025
840.193	15857
840.33	16013
840.467	16055
840.604	16067
840.742	16200
840.879	15888
841.016	15915
841.153	15884
841.29	16048
841.427	16006
841.564	15987
841.701	15949
841.838	15998
841.975	15949
842.112	15918
842.249	15808
842.385	15789
842.522	15918
842.659	15785
842.796	15797
842.933	15850
843.069	15762
843.206	15736
843.343	15819
843.479	15755
843.616	15789
843.752	15641
843.889	15656
844.025	15625
844.162	15606
844.298	15618
844.435	15686
844.571	15564
844.708	15610
844.844	15690
844.98	15751
845.117	15641
845.253	15496
845.389	15519
845.525	15557
845.661	15519
845.798	15431
845.934	15378
846.07	15348
846.206	15294
846.342	15431
846.478	15302
846.614	15157
846.75	15089
846.886	15135
847.022	15218
847.158	15275
847.294	15131
847.429	15298
847.565	15070
847.701	15317
847.837	14914
847.972	14769
848.108	15013
848.244	14914
848.379	14773
848.515	14716
848.65	14708
848.786	14670
848.921	14754
849.057	14857
849.192	14872
849.328	14754
849.463	14785
849.598	14754
849.734	14682
849.869	14606
850.004	14465
850.14	14579
850.275	14492
850.41	14473
850.545	14408
850.68	14400
850.815	14549
850.95	14514
851.085	14644
851.22	14640
851.355	14495
851.49	14465
851.625	14499
851.76	14431
851.895	14377
852.03	14412
852.165	14408
852.299	14492
852.434	14602
852.569	14488
852.703	14419
852.838	14579
852.973	14613
853.107	14655
853.242	14469
853.376	14404
853.511	14233
853.645	14282
853.78	14579
853.914	14480
854.048	14294
854.183	14347
854.317	14351
854.451	14484
854.585	14336
854.72	14275
854.854	14355
854.988	14309
855.122	14385
855.256	14313
855.39	14328
855.524	14351
855.658	14400
855.792	14377
855.926	14469
856.06	14419
856.194	14431
856.327	14336
856.461	14332
856.595	14355
856.729	14400
856.862	14393
856.996	14393
857.13	14499
857.263	14465
857.397	14492
857.53	14385
857.664	14514
857.797	14454
857.931	14613
858.064	14446
858.197	14552
858.331	14362
858.464	14324
858.597	14290
858.731	14324
858.864	14282
858.997	14317
859.13	14305
859.263	14404
859.396	14431
859.529	14385
859.662	14267
859.795	14320
859.928	14366
860.061	14556
860.194	14518
860.327	14317
860.46	14446
860.592	14427
860.725	14469
860.858	14549
860.99	14343
861.123	14309
861.256	14240
861.388	14320
861.521	15039
861.653	14320
861.786	14183
861.918	14214
862.05	14267
862.183	14408
862.315	14320
862.447	14343
862.58	14370
862.712	14142
862.844	14077
862.976	14252
863.108	14221
863.24	14518
863.372	14039
863.504	14130
863.636	14164
863.768	14183
863.9	14107
864.032	14084
864.164	14054
864.296	14168
864.428	14218
864.559	14214
864.691	14229
864.823	14126
864.954	14195
865.086	14278
865.217	14176
865.349	14111
865.48	14168
865.612	14176
865.743	14294
865.875	14145
866.006	14123
866.137	14153
866.269	14081
866.4	14111
866.531	14096
866.662	14065
866.793	14020
866.924	14153
867.055	14183
867.186	14237
867.317	14111
867.448	14012
867.579	14130
867.71	14008
867.841	14050
867.972	14058
868.103	14153
868.233	14081
868.364	14153
868.495	14244
868.625	14362
868.756	14358
868.886	14313
869.017	14282
869.147	14450
869.278	14499
869.408	14442
869.539	14366
869.669	14431
869.799	14400
869.929	14438
870.06	14522
870.19	14750
870.32	14644
870.45	14743
870.58	14727
870.71	14948
870.84	14864
870.97	14754
871.1	14773
871.23	15043
871.36	14986
871.489	14899
871.619	14876
871.749	14933
871.879	14998
872.008	15089
872.138	14982
872.267	14819
872.397	14823
872.526	14838
872.656	14883
872.785	14720
872.915	15047
873.044	15070
873.173	15032
873.303	15051
873.432	15089
873.561	15203
873.69	14998
873.819	14971
873.948	15176
874.077	15020
874.206	15100
874.335	15013
874.464	15211
874.593	15401
874.722	15154
874.851	15344
874.979	15340
875.108	15279
875.237	15325
875.365	15363
875.494	15268
875.623	15389
875.751	15317
875.88	15325
876.008	15466
876.136	15526
876.265	15732
876.393	15926
876.521	15800
876.65	15823
876.778	15736
876.906	15686
877.034	15652
877.162	15739
877.29	15717
877.418	15762
877.546	15751
877.674	15724
877.802	15797
877.93	15679
878.058	15793
878.185	15751
878.313	15633
878.441	15679
878.568	15720
878.696	15648
878.824	15861
878.951	15846
879.079	15968
879.206	16059
879.333	15899
879.461	15736
879.588	15857
879.715	15831
879.842	16105
879.97	15743
880.097	15542
880.224	15534
880.351	15720
880.478	15519
880.605	15633
880.732	15637
880.859	15880
880.986	15732
881.112	15606
881.239	15450
881.366	15370
881.493	15272
881.619	15283
881.746	15279
881.872	15241
881.999	15195
882.125	15279
882.252	15256
882.378	15241
882.505	15424
882.631	15287
882.757	15176
882.883	14979
883.01	15131
883.136	14975
883.262	15013
883.388	14880
883.514	15070
883.64	15203
883.766	15020
883.892	14921
884.018	14872
884.143	15032
884.269	15180
884.395	14880
884.52	14746
884.646	14887
884.772	14708
884.897	14648
885.023	14727
885.148	14845
885.274	14967
885.399	14804
885.524	14773
885.65	14712
885.775	14807
885.9	14777
886.025	14891
886.15	14838
886.275	14845
886.4	14564
886.525	14693
886.65	14708
886.775	14743
886.9	14838
887.025	14967
887.149	14769
887.274	14712
887.399	14560
887.523	14571
887.648	14571
887.773	14514
887.897	14693
888.021	14640
888.146	14533
888.27	14735
888.395	14754
888.519	14674
888.643	14731
888.767	14670
888.891	14598
889.015	14507
889.139	14560
889.263	14518
889.387	14636
889.511	14697
889.635	14621
889.759	14431
889.883	14503
890.006	14476
890.13	14537
890.254	14514
890.377	14514
890.501	14233
890.624	14229
890.748	14423
890.871	14286
890.995	14180
891.118	13974
891.241	14142
891.364	14161
891.488	14294
891.611	14149
891.734	14180
891.857	14229
891.98	14161
892.103	14286
892.226	14130
892.349	14142
892.471	13932
892.594	14111
892.717	14218
892.839	14157
892.962	14195
893.085	14267
893.207	14168
893.33	14031
893.452	14092
893.575	14271
893.697	14161
893.819	14336
893.941	14332
894.064	14301
894.186	14180
894.308	14084
894.43	14248
894.552	14320
894.674	14309
894.796	14115
894.918	14202
895.04	14221
895.161	14286
895.283	14202
895.405	14210
895.526	14168
895.648	14233
895.769	14263
895.891	14324
896.012	14385
896.134	14362
896.255	14282
896.376	14271
896.498	14309
896.619	14404
896.74	14385
896.861	14450
896.982	14648
897.103	14845
897.224	14621
897.345	14636
897.466	14552
897.587	14617
897.708	14739
897.828	14720
897.949	14632
898.07	14541
898.19	14533
898.311	14762
898.431	14602
898.552	14693
898.672	14743
898.792	14796
898.913	14743
899.033	14537
899.153	14568
899.273	14469
899.393	14514
899.513	14469
899.633	14606
899.753	14579
899.873	14568
899.993	14530
900.113	14480
900.232	14648
900.352	14476
900.472	14484
900.591	14396
900.711	14499
900.83	14381
900.95	14526
901.069	14514
901.189	14332
901.308	14134
901.427	14103
901.546	14096
901.665	14050
901.784	14065
901.904	14024
902.023	13974
902.141	13689
902.26	13685
902.379	13723
902.498	13719
902.617	13734
902.735	13765
902.854	13727
902.973	13605
903.091	13415
903.21	13388
903.328	13381
903.446	13301
903.565	13244
903.683	13308
903.801	13225
903.919	13221
904.038	13145
904.156	13050
904.274	13149
904.392	13080
904.51	12993
904.627	13046
904.745	13095
904.863	13088
904.981	12833
905.098	12829
905.216	12764
905.334	12901
905.451	12821
905.569	12745
905.686	12814
905.803	12738
905.921	12525
906.038	12703
906.155	12570
906.272	12475
906.389	12532
906.506	12369
906.623	12380
906.74	12365
906.857	12194
906.974	12262
907.091	12365
907.208	12433
907.324	12353
907.441	12296
907.557	12060
907.674	12076
907.79	12057
907.907	12083
908.023	12091
908.139	12110
908.256	12019
908.372	12072
908.488	12003
908.604	11935
908.72	11786
908.836	11863
908.952	11840
909.068	11794
909.184	11999
909.3	11904
909.415	11939
909.531	11863
909.647	11608
909.762	11623
909.878	11653
909.993	11726
910.108	11619
910.224	11592
910.339	11623
910.454	11547
910.57	11493
910.685	11326
910.8	11653
910.915	11600
911.03	11398
911.145	11330
911.259	11288
911.374	11330
911.489	11189
911.604	11246
911.718	11109
911.833	11193
911.947	11041
912.062	10896
912.176	11045
912.291	11132
912.405	11067
912.519	11307
912.633	11372
912.748	11121
912.862	11121
912.976	10930
913.09	10820
913.204	10858
913.318	10919
913.431	11048
913.545	11029
913.659	11045
913.772	10987
913.886	10816
914	10843
914.113	10900
914.226	10904
914.34	10892
914.453	10710
914.566	10938
914.68	10805
914.793	10759
914.906	10637
915.019	10565
915.132	10523
915.245	10569
915.358	10569
915.47	10649
915.583	10611
915.696	10637
915.809	10664
915.921	10752
916.034	10599
916.146	10527
916.259	10432
916.371	10687
916.483	10546
916.595	10519
916.708	10512
916.82	10535
916.932	10466
917.044	10500
917.156	10500
917.268	10398
917.38	10443
917.491	10348
917.603	10432
917.715	10504
917.826	10443
917.938	10325
918.049	10341
918.161	10440
918.272	10561
918.384	10558
918.495	10546
918.606	10344
918.717	10253
918.828	10363
918.939	10337
919.05	10223
919.161	10223
919.272	10131
919.383	10120
919.494	10344
919.604	10561
919.715	10295
919.826	10112
919.936	10238
920.047	10470
920.157	10249
920.267	10466
920.378	10356
920.488	10284
920.598	10489
920.708	10687
920.818	10569
920.928	10481
921.038	10607
921.148	10637
921.258	10333
921.368	10287
921.477	10143
921.587	10192
921.697	10116
921.806	10150
921.916	10044
922.025	9972
922.134	9873
922.244	9850
922.353	9918
922.462	9686
922.571	9622
922.68	9610
922.789	9511
922.898	9549
923.007	9485
923.116	9576
923.224	9610
923.333	9587
923.442	9428
923.55	9462
923.659	9405
923.767	9500
923.876	9412
923.984	9534
924.092	9458
924.201	9473
924.309	9393
924.417	9454
924.525	9264
924.633	9336
924.741	10257
924.849	9283
924.956	9268
925.064	9211
925.172	9138
925.279	9070
925.387	9233
925.494	9249
925.602	9287
925.709	9313
925.816	9138
925.924	9192
926.031	9317
926.138	9230
926.245	9268
926.352	9127
926.459	9233
926.566	9245
926.673	9203
926.779	9161
926.886	9112
926.993	8914
927.099	8918
927.206	8899
927.312	8838
927.419	9024
927.525	8960
927.631	8998
927.737	8804
927.843	8811
927.95	8678
928.056	8762
928.162	8746
928.267	8891
928.373	9424
928.479	8891
928.585	8697
928.69	8754
928.796	8792
928.901	8678
929.007	8575
929.112	8701
929.218	8663
929.323	8640
929.428	8651
929.533	8754
929.638	8606
929.743	8590
929.848	8663
929.953	8571
930.058	8545
930.163	8362
930.267	8366
930.372	8564
930.477	8221
930.581	8674
930.685	8461
930.79	8286
930.894	8305
930.998	8309
931.103	8583
931.207	8134
931.311	8054
931.415	8077
931.519	7830
931.623	7818
