Data from test_V78500241_2296.txt Node
Date: Fri Mar 25 14:49:41 CST 2022
User: usil
Spectrometer: V785-0024
Trigger mode: 0
Integration Time (sec): 4.000000E-1
Scans to average: 1
Nonlinearity correction enabled: false
Boxcar width: 0
Storing dark spectrum: false
XAxis mode: Wavelengths
Number of Pixels in Spectrum: 1024
>>>>>Begin Spectral Data<<<<<
801.071	22139
801.214	22188
801.356	21873
801.499	21819
801.641	21564
801.783	21526
801.926	21583
802.068	21507
802.211	21481
802.353	21336
802.496	21108
802.638	20986
802.78	21009
802.923	21017
803.065	20872
803.208	20853
803.35	20891
803.492	20944
803.635	20975
803.777	20796
803.919	20910
804.061	21173
804.204	20902
804.346	20739
804.488	20697
804.63	20925
804.773	20762
804.915	20811
805.057	20887
805.199	20735
805.341	20960
805.483	20952
805.626	20773
805.768	20670
805.91	20849
806.052	20800
806.194	20769
806.336	20982
806.478	20807
806.62	20670
806.762	20838
806.904	20952
807.046	21127
807.188	21108
807.33	21199
807.472	21135
807.614	21077
807.756	21093
807.898	20899
808.04	20834
808.182	20834
808.324	21055
808.465	20899
808.607	21138
808.749	21230
808.891	21298
809.033	21378
809.174	21211
809.316	21119
809.458	21077
809.6	21131
809.741	21291
809.883	21233
810.025	21275
810.166	21321
810.308	21401
810.45	21348
810.591	21252
810.733	21142
810.875	20994
811.016	20910
811.158	20804
811.299	21013
811.441	21135
811.582	21066
811.724	20876
811.865	20948
812.007	20998
812.148	20986
812.29	20982
812.431	21169
812.573	21313
812.714	21458
812.855	21424
812.997	21515
813.138	21614
813.279	21580
813.421	21492
813.562	21553
813.703	21154
813.845	21272
813.986	20834
814.127	20693
814.268	20598
814.41	20682
814.551	20511
814.692	20507
814.833	20328
814.974	20404
815.115	20598
815.256	20469
815.397	20366
815.539	20343
815.68	20149
815.821	20130
815.962	20267
816.103	20142
816.244	20062
816.385	19963
816.526	19993
816.666	19822
816.807	19647
816.948	19647
817.089	19780
817.23	19731
817.371	19643
817.512	19731
817.653	19704
817.793	19540
817.934	19506
818.075	19628
818.216	19620
818.356	19624
818.497	19525
818.638	19232
818.778	19339
818.919	19327
819.06	19373
819.2	19377
819.341	19468
819.481	19396
819.622	19708
819.762	19833
819.903	19803
820.043	19742
820.184	19556
820.324	19582
820.465	19772
820.605	19689
820.746	19480
820.886	19468
821.026	19670
821.167	19586
821.307	19658
821.447	19499
821.588	19460
821.728	19259
821.868	19179
822.008	19084
822.149	19000
822.289	18932
822.429	18719
822.569	18646
822.709	18654
822.849	18517
822.99	18517
823.13	18498
823.27	18555
823.41	18311
823.55	18300
823.69	18323
823.83	18311
823.97	18178
824.11	18110
824.25	18041
824.389	17984
824.529	18159
824.669	18106
824.809	18194
824.949	18117
825.089	18110
825.228	18049
825.368	17840
825.508	17916
825.648	17942
825.787	17935
825.927	17927
826.067	17821
826.206	17847
826.346	17893
826.485	17874
826.625	17847
826.765	17893
826.904	17817
827.044	17649
827.183	17509
827.323	17608
827.462	17608
827.601	17512
827.741	17551
827.88	17592
828.02	17463
828.159	17524
828.298	17554
828.437	17512
828.577	17471
828.716	17596
828.855	17383
828.994	17353
829.134	17250
829.273	17349
829.412	17296
829.551	17189
829.69	17143
829.829	17307
829.968	17406
830.107	17223
830.246	17288
830.385	17311
830.524	17079
830.663	17159
830.802	16972
830.941	16980
831.08	16812
831.219	17010
831.357	16980
831.496	17018
831.635	16717
831.774	16828
831.913	16778
832.051	16592
832.19	16596
832.329	16691
832.467	16573
832.606	16523
832.744	16474
832.883	16535
833.022	16554
833.16	16607
833.299	16698
833.437	16531
833.576	16577
833.714	16649
833.852	16630
833.991	16778
834.129	16694
834.267	16607
834.406	16710
834.544	16687
834.682	16672
834.821	16634
834.959	16710
835.097	16569
835.235	16733
835.373	16733
835.511	16637
835.65	16573
835.788	16432
835.926	16352
836.064	16329
836.202	16363
836.34	16512
836.478	16710
836.615	16455
836.753	16459
836.891	16634
837.029	16413
837.167	16474
837.305	16284
837.443	16356
837.58	16291
837.718	16455
837.856	16485
837.993	16322
838.131	16360
838.269	16322
838.406	16356
838.544	16272
838.681	16105
838.819	16055
838.956	15907
839.094	15876
839.231	16040
839.369	16055
839.506	16367
839.643	16173
839.781	15907
839.918	15846
840.055	15899
840.193	15907
840.33	15911
840.467	15865
840.604	15975
840.742	16188
840.879	15762
841.016	15778
841.153	15911
841.29	15987
841.427	16010
841.564	16025
841.701	15968
841.838	15774
841.975	15759
842.112	15819
842.249	15641
842.385	15717
842.522	15865
842.659	15781
842.796	15618
842.933	15762
843.069	15656
843.206	15576
843.343	15774
843.479	15724
843.616	15781
843.752	15466
843.889	15447
844.025	15682
844.162	15428
844.298	15633
844.435	15519
844.571	15408
844.708	15599
844.844	15622
844.98	15610
845.117	15557
845.253	15378
845.389	15340
845.525	15389
845.661	15317
845.798	15291
845.934	15275
846.07	15256
846.206	15310
846.342	15389
846.478	15249
846.614	15135
846.75	15036
846.886	14990
847.022	15165
847.158	15070
847.294	15100
847.429	15085
847.565	15024
847.701	15272
847.837	14807
847.972	14762
848.108	14849
848.244	14823
848.379	14678
848.515	14606
848.65	14602
848.786	14667
848.921	14746
849.057	14693
849.192	14727
849.328	14610
849.463	14682
849.598	14564
849.734	14537
849.869	14522
850.004	14446
850.14	14438
850.275	14446
850.41	14294
850.545	14396
850.68	14343
850.815	14457
850.95	14385
851.085	14587
851.22	14533
851.355	14461
851.49	14339
851.625	14404
851.76	14275
851.895	14301
852.03	14355
852.165	14366
852.299	14412
852.434	14511
852.569	14377
852.703	14393
852.838	14484
852.973	14495
853.107	14598
853.242	14457
853.376	14362
853.511	14256
853.645	14267
853.78	14377
853.914	14343
854.048	14313
854.183	14248
854.317	14240
854.451	14461
854.585	14294
854.72	14225
854.854	14396
854.988	14180
855.122	14305
855.256	14183
855.39	14237
855.524	14450
855.658	14328
855.792	14206
855.926	14400
856.06	14328
856.194	14434
856.327	14256
856.461	14210
856.595	14229
856.729	14244
856.862	14434
856.996	14278
857.13	14336
857.263	14404
857.397	14454
857.53	14229
857.664	14351
857.797	14317
857.931	14313
858.064	14347
858.197	14404
858.331	14328
858.464	14259
858.597	14107
858.731	14263
858.864	14172
858.997	14320
859.13	14309
859.263	14298
859.396	14328
859.529	14237
859.662	14237
859.795	14237
859.928	14332
860.061	14347
860.194	14370
860.327	14267
860.46	14271
860.592	14408
860.725	14419
860.858	14393
860.99	14294
861.123	14183
861.256	14206
861.388	14263
861.521	14849
861.653	14134
861.786	14145
861.918	14084
862.05	14221
862.183	14317
862.315	14294
862.447	14229
862.58	14218
862.712	13947
862.844	14058
862.976	14092
863.108	14043
863.24	14393
863.372	13974
863.504	14024
863.636	14050
863.768	14065
863.9	14115
864.032	13982
864.164	14065
864.296	14157
864.428	14210
864.559	14191
864.691	14172
864.823	14187
864.954	14016
865.086	14111
865.217	14138
865.349	14005
865.48	13986
865.612	14035
865.743	14130
865.875	14088
866.006	13993
866.137	14043
866.269	14027
866.4	14081
866.531	14168
866.662	13989
866.793	13974
866.924	13936
867.055	13902
867.186	14107
867.317	13993
867.448	13944
867.579	14001
867.71	13963
867.841	13864
867.972	14027
868.103	13986
868.233	14005
868.364	14046
868.495	14069
868.625	14240
868.756	14286
868.886	14176
869.017	14191
869.147	14400
869.278	14294
869.408	14370
869.539	14366
869.669	14412
869.799	14252
869.929	14301
870.06	14419
870.19	14518
870.32	14610
870.45	14625
870.58	14727
870.71	14834
870.84	14773
870.97	14602
871.1	14644
871.23	14937
871.36	14914
871.489	14800
871.619	14853
871.749	14861
871.879	14804
872.008	15039
872.138	14883
872.267	14807
872.397	14815
872.526	14712
872.656	14697
872.785	14674
872.915	14880
873.044	14952
873.173	14883
873.303	14895
873.432	14937
873.561	15020
873.69	14906
873.819	14998
873.948	14990
874.077	14899
874.206	14941
874.335	14895
874.464	15001
874.593	15260
874.722	15256
874.851	15291
874.979	15264
875.108	15237
875.237	15203
875.365	15207
875.494	15211
875.623	15230
875.751	15272
875.88	15237
876.008	15431
876.136	15462
876.265	15595
876.393	15880
876.521	15713
876.65	15698
876.778	15770
876.906	15561
877.034	15523
877.162	15663
877.29	15549
877.418	15625
877.546	15759
877.674	15625
877.802	15694
877.93	15736
878.058	15633
878.185	15637
878.313	15549
878.441	15675
878.568	15545
878.696	15610
878.824	15675
878.951	15770
879.079	15770
879.206	15979
879.333	15819
879.461	15770
879.588	15842
879.715	15865
879.842	15987
879.97	15717
880.097	15595
880.224	15428
880.351	15481
880.478	15500
880.605	15515
880.732	15511
880.859	15675
880.986	15507
881.112	15492
881.239	15389
881.366	15325
881.493	15313
881.619	15150
881.746	15112
881.872	15252
881.999	15180
882.125	15211
882.252	15180
882.378	15165
882.505	15306
882.631	15135
882.757	15047
882.883	15089
883.01	14925
883.136	14914
883.262	14887
883.388	14864
883.514	14971
883.64	15020
883.766	14952
883.892	14792
884.018	14880
884.143	14883
884.269	14994
884.395	14819
884.52	14644
884.646	14731
884.772	14640
884.897	14552
885.023	14743
885.148	14724
885.274	14834
885.399	14804
885.524	14670
885.65	14678
885.775	14746
885.9	14788
886.025	14788
886.15	14746
886.275	14678
886.4	14560
886.525	14587
886.65	14568
886.775	14617
886.9	14849
887.025	15001
887.149	14670
887.274	14450
887.399	14564
887.523	14461
887.648	14514
887.773	14404
887.897	14682
888.021	14571
888.146	14476
888.27	14651
888.395	14724
888.519	14606
888.643	14640
888.767	14587
888.891	14457
889.015	14339
889.139	14396
889.263	14366
889.387	14431
889.511	14590
889.635	14499
889.759	14366
889.883	14336
890.006	14469
890.13	14396
890.254	14206
890.377	14256
890.501	14172
890.624	14240
890.748	14347
890.871	14138
890.995	13974
891.118	13944
891.241	14031
891.364	14103
891.488	14153
891.611	14073
891.734	13989
891.857	14035
891.98	14050
892.103	14115
892.226	14176
892.349	13997
892.471	13890
892.594	14069
892.717	14050
892.839	14096
892.962	14103
893.085	14111
893.207	14119
893.33	13986
893.452	13970
893.575	14100
893.697	14058
893.819	14290
893.941	14278
894.064	14225
894.186	13978
894.308	14031
894.43	14252
894.552	14305
894.674	14267
894.796	14069
894.918	14058
895.04	14096
895.161	14267
895.283	14240
895.405	14126
895.526	14191
895.648	14202
895.769	14309
895.891	14214
896.012	14309
896.134	14294
896.255	14252
896.376	14176
896.498	14218
896.619	14370
896.74	14259
896.861	14252
896.982	14610
897.103	14727
897.224	14511
897.345	14495
897.466	14503
897.587	14533
897.708	14689
897.828	14610
897.949	14503
898.07	14381
898.19	14530
898.311	14670
898.431	14476
898.552	14556
898.672	14644
898.792	14746
898.913	14640
899.033	14503
899.153	14587
899.273	14362
899.393	14484
899.513	14514
899.633	14495
899.753	14473
899.873	14450
899.993	14507
900.113	14461
900.232	14522
900.352	14454
900.472	14366
900.591	14339
900.711	14404
900.83	14332
900.95	14408
901.069	14396
901.189	14206
901.308	14046
901.427	13932
901.546	14024
901.665	14123
901.784	14050
901.904	13845
902.023	13837
902.141	13540
902.26	13651
902.379	13620
902.498	13502
902.617	13601
902.735	13632
902.854	13582
902.973	13441
903.091	13343
903.21	13270
903.328	13289
903.446	13179
903.565	13171
903.683	13232
903.801	13099
903.919	13099
904.038	13122
904.156	13027
904.274	13076
904.392	12985
904.51	12920
904.627	12958
904.745	13004
904.863	13000
904.981	12741
905.098	12703
905.216	12654
905.334	12703
905.451	12745
905.569	12726
905.686	12639
905.803	12635
905.921	12441
906.038	12582
906.155	12502
906.272	12357
906.389	12399
906.506	12232
906.623	12163
906.74	12220
906.857	12136
906.974	12175
907.091	12281
907.208	12342
907.324	12304
907.441	12190
907.557	11999
907.674	12045
907.79	12019
907.907	11908
908.023	11969
908.139	11999
908.256	11874
908.372	11882
908.488	11878
908.604	11767
908.72	11752
908.836	11794
908.952	11714
909.068	11745
909.184	11817
909.3	11786
909.415	11760
909.531	11729
909.647	11554
909.762	11547
909.878	11539
909.993	11570
910.108	11486
910.224	11455
910.339	11520
910.454	11429
910.57	11349
910.685	11273
910.8	11566
910.915	11467
911.03	11311
911.145	11296
911.259	11258
911.374	11212
911.489	11174
911.604	11064
911.718	10915
911.833	10995
911.947	10892
912.062	10850
912.176	11003
912.291	10942
912.405	10930
912.519	11235
912.633	11064
912.748	11003
912.862	10953
912.976	10843
913.09	10835
913.204	10778
913.318	10896
913.431	10949
913.545	10915
913.659	10980
913.772	10904
913.886	10771
914	10752
914.113	10843
914.226	10908
914.34	10801
914.453	10755
914.566	10805
914.68	10694
914.793	10615
914.906	10561
915.019	10424
915.132	10402
915.245	10398
915.358	10428
915.47	10558
915.583	10558
915.696	10535
915.809	10599
915.921	10656
916.034	10459
916.146	10478
916.259	10466
916.371	10535
916.483	10455
916.595	10398
916.708	10398
916.82	10436
916.932	10390
917.044	10371
917.156	10386
917.268	10223
917.38	10291
917.491	10306
917.603	10352
917.715	10379
917.826	10455
917.938	10356
918.049	10223
918.161	10352
918.272	10478
918.384	10451
918.495	10344
918.606	10116
918.717	10135
918.828	10192
918.939	10223
919.05	10036
919.161	10246
919.272	9979
919.383	10029
919.494	10261
919.604	10470
919.715	10238
919.826	10036
919.936	10154
920.047	10249
920.157	10261
920.267	10382
920.378	10249
920.488	10242
920.598	10367
920.708	10584
920.818	10379
920.928	10413
921.038	10580
921.148	10512
921.258	10200
921.368	10185
921.477	10101
921.587	10059
921.697	9956
921.806	10029
921.916	9922
922.025	9873
922.134	9751
922.244	9732
922.353	9740
922.462	9682
922.571	9629
922.68	9420
922.789	9462
922.898	9515
923.007	9443
923.116	9466
923.224	9488
923.333	9462
923.442	9363
923.55	9272
923.659	9348
923.767	9488
923.876	9340
923.984	9401
924.092	9294
924.201	9382
924.309	9336
924.417	9393
924.525	9310
924.633	9329
924.741	10204
924.849	9085
924.956	9287
925.064	9104
925.172	8990
925.279	9093
925.387	9093
925.494	9070
925.602	9294
925.709	9169
925.816	9047
925.924	9180
926.031	9199
926.138	9176
926.245	9157
926.352	9051
926.459	9123
926.566	9260
926.673	9176
926.779	8994
926.886	8952
926.993	8857
927.099	8857
927.206	8773
927.312	8796
927.419	8887
927.525	8769
927.631	8845
927.737	8823
927.843	8705
927.95	8651
928.056	8655
928.162	8746
928.267	8800
928.373	9420
928.479	8796
928.585	8514
928.69	8724
928.796	8746
928.901	8629
929.007	8579
929.112	8625
929.218	8617
929.323	8598
929.428	8606
929.533	8682
929.638	8499
929.743	8552
929.848	8629
929.953	8533
930.058	8488
930.163	8317
930.267	8366
930.372	8438
930.477	8286
930.581	8511
930.685	8434
930.79	8195
930.894	8336
930.998	8218
931.103	8370
931.207	8065
931.311	8039
931.415	7959
931.519	7746
931.623	7788
