Data from test_V78500241_290.txt Node
Date: Fri Mar 25 14:35:44 CST 2022
User: usil
Spectrometer: V785-0024
Trigger mode: 0
Integration Time (sec): 4.000000E-1
Scans to average: 1
Nonlinearity correction enabled: false
Boxcar width: 0
Storing dark spectrum: false
XAxis mode: Wavelengths
Number of Pixels in Spectrum: 1024
>>>>>Begin Spectral Data<<<<<
801.071	27344
801.214	27138
801.356	26868
801.499	26929
801.641	26663
801.783	26682
801.926	26636
802.068	26507
802.211	26476
802.353	26480
802.496	26305
802.638	26240
802.78	26298
802.923	26088
803.065	26138
803.208	26020
803.35	26214
803.492	26225
803.635	26362
803.777	26248
803.919	26514
804.061	26746
804.204	26290
804.346	26244
804.488	26111
804.63	26180
804.773	26073
804.915	26305
805.057	26195
805.199	26157
805.341	26271
805.483	26263
805.626	26237
805.768	26096
805.91	26301
806.052	26176
806.194	26164
806.336	26408
806.478	26199
806.62	26202
806.762	26389
806.904	26423
807.046	26746
807.188	26503
807.33	26629
807.472	26625
807.614	26686
807.756	26583
807.898	26419
808.04	26396
808.182	26423
808.324	26522
808.465	26431
808.607	26678
808.749	26731
808.891	26940
809.033	27039
809.174	26918
809.316	26834
809.458	26834
809.6	26765
809.741	26720
809.883	26712
810.025	26975
810.166	27062
810.308	26933
810.45	26944
810.591	26853
810.733	26583
810.875	26587
811.016	26651
811.158	26495
811.299	26735
811.441	26701
811.582	26796
811.724	26720
811.865	26587
812.007	26560
812.148	26644
812.29	26720
812.431	26750
812.573	26754
812.714	26998
812.855	26979
812.997	27275
813.138	27249
813.279	27123
813.421	27119
813.562	26990
813.703	26861
813.845	26918
813.986	26602
814.127	26328
814.268	26103
814.41	26267
814.551	26157
814.692	26221
814.833	26142
814.974	26111
815.115	26168
815.256	26107
815.397	26065
815.539	26035
815.68	25860
815.821	25898
815.962	25814
816.103	25894
816.244	25712
816.385	25670
816.526	25544
816.666	25430
816.807	25266
816.948	25327
817.089	25578
817.23	25263
817.371	25335
817.512	25285
817.653	25145
817.793	25263
817.934	25400
818.075	25301
818.216	25206
818.356	25331
818.497	25133
818.638	25008
818.778	25027
818.919	25034
819.06	25031
819.2	25175
819.341	25091
819.481	25129
819.622	25384
819.762	25419
819.903	25312
820.043	25331
820.184	25232
820.324	25251
820.465	25316
820.605	25141
820.746	25312
820.886	25137
821.026	25198
821.167	25228
821.307	25251
821.447	25194
821.588	24954
821.728	24935
821.868	24783
822.008	24688
822.149	24570
822.289	24467
822.429	24338
822.569	24243
822.709	24266
822.849	24098
822.99	24148
823.13	24011
823.27	23980
823.41	23878
823.55	23714
823.69	23874
823.83	23874
823.97	23847
824.11	23687
824.25	23596
824.389	23547
824.529	23661
824.669	23604
824.809	23714
824.949	23684
825.089	23634
825.228	23558
825.368	23463
825.508	23455
825.648	23417
825.787	23395
825.927	23398
826.067	23349
826.206	23353
826.346	23349
826.485	23474
826.625	23387
826.765	23436
826.904	23668
827.044	23193
827.183	23193
827.323	23098
827.462	23162
827.601	23170
827.741	23060
827.88	23121
828.02	22927
828.159	23052
828.298	23025
828.437	23147
828.577	22953
828.716	23113
828.855	23071
828.994	22759
829.134	22843
829.273	22839
829.412	22889
829.551	22691
829.69	22691
829.829	22759
829.968	22774
830.107	22831
830.246	22763
830.385	22706
830.524	22748
830.663	22561
830.802	22489
830.941	22379
831.08	22318
831.219	22394
831.357	22333
831.496	22653
831.635	22344
831.774	22265
831.913	22181
832.051	22090
832.19	22158
832.329	22090
832.467	22070
832.606	22013
832.744	21987
832.883	21987
833.022	21975
833.16	22032
833.299	21998
833.437	21895
833.576	22044
833.714	21945
833.852	22029
833.991	22097
834.129	22207
834.267	22070
834.406	21998
834.544	21972
834.682	22036
834.821	21964
834.959	22200
835.097	21960
835.235	22090
835.373	21854
835.511	22086
835.65	21888
835.788	21831
835.926	21717
836.064	21641
836.202	21717
836.34	21808
836.478	21907
836.615	21899
836.753	21743
836.891	22013
837.029	21892
837.167	21800
837.305	21766
837.443	21663
837.58	21663
837.718	21846
837.856	21667
837.993	21595
838.131	21675
838.269	21496
838.406	21599
838.544	21507
838.681	21439
838.819	21218
838.956	21047
839.094	21081
839.231	21264
839.369	21348
839.506	21458
839.643	21344
839.781	21119
839.918	21116
840.055	21195
840.193	21085
840.33	21070
840.467	20960
840.604	21089
840.742	21408
840.879	20941
841.016	21001
841.153	21062
841.29	21070
841.427	20986
841.564	21036
841.701	21005
841.838	21039
841.975	20861
842.112	20891
842.249	20785
842.385	20765
842.522	21047
842.659	20925
842.796	20788
842.933	20758
843.069	20712
843.206	20712
843.343	20845
843.479	20697
843.616	20796
843.752	20640
843.889	20434
844.025	20644
844.162	20541
844.298	20560
844.435	20549
844.571	20454
844.708	20518
844.844	20686
844.98	20602
845.117	20625
845.253	20377
845.389	20438
845.525	20427
845.661	20438
845.798	20423
845.934	20431
846.07	20404
846.206	20404
846.342	20473
846.478	20347
846.614	20206
846.75	19947
846.886	20035
847.022	20020
847.158	20024
847.294	20084
847.429	20039
847.565	19955
847.701	20225
847.837	19727
847.972	19674
848.108	19849
848.244	19753
848.379	19571
848.515	19468
848.65	19567
848.786	19514
848.921	19578
849.057	19666
849.192	19628
849.328	19586
849.463	19643
849.598	19438
849.734	19449
849.869	19362
850.004	19209
850.14	19388
850.275	19346
850.41	19244
850.545	19335
850.68	19156
850.815	19263
850.95	19251
851.085	19441
851.22	19331
851.355	19259
851.49	19266
851.625	19156
851.76	19213
851.895	19175
852.03	19080
852.165	19247
852.299	19232
852.434	19289
852.569	19312
852.703	19164
852.838	19232
852.973	19213
853.107	19278
853.242	19228
853.376	19061
853.511	19027
853.645	19053
853.78	19141
853.914	19088
854.048	18954
854.183	19008
854.317	19095
854.451	19213
854.585	19076
854.72	19023
854.854	19065
854.988	18947
855.122	19050
855.256	18886
855.39	19053
855.524	19076
855.658	19095
855.792	19141
855.926	19084
856.06	19160
856.194	18996
856.327	19069
856.461	18985
856.595	18970
856.729	19023
856.862	19160
856.996	19065
857.13	19080
857.263	19103
857.397	19152
857.53	19008
857.664	19145
857.797	19080
857.931	19129
858.064	19019
858.197	19175
858.331	19000
858.464	18920
858.597	18806
858.731	18996
858.864	18951
858.997	19053
859.13	19080
859.263	18973
859.396	19050
859.529	18852
859.662	18951
859.795	19069
859.928	18954
860.061	19095
860.194	19129
860.327	18970
860.46	18985
860.592	18932
860.725	19137
860.858	19107
860.99	18996
861.123	18852
861.256	18867
861.388	19072
861.521	19586
861.653	18806
861.786	18867
861.918	18871
862.05	19053
862.183	18935
862.315	19038
862.447	19213
862.58	18947
862.712	18894
862.844	18745
862.976	18890
863.108	18661
863.24	19118
863.372	18547
863.504	18688
863.636	18677
863.768	18661
863.9	18684
864.032	18513
864.164	18719
864.296	18711
864.428	18757
864.559	18795
864.691	18734
864.823	18597
864.954	18650
865.086	18589
865.217	18612
865.349	18612
865.48	18722
865.612	18665
865.743	18738
865.875	18669
866.006	18570
866.137	18661
866.269	18642
866.4	18639
866.531	18726
866.662	18498
866.793	18464
866.924	18578
867.055	18661
867.186	18528
867.317	18460
867.448	18486
867.579	18467
867.71	18544
867.841	18540
867.972	18483
868.103	18498
868.233	18601
868.364	18547
868.495	18707
868.625	18734
868.756	18779
868.886	18559
869.017	18722
869.147	18798
869.278	18840
869.408	18821
869.539	18817
869.669	18817
869.799	18875
869.929	18916
870.06	19000
870.19	19133
870.32	19091
870.45	19023
870.58	19183
870.71	19266
870.84	19346
870.97	19099
871.1	19301
871.23	19339
871.36	19304
871.489	19225
871.619	19324
871.749	19339
871.879	19369
872.008	19400
872.138	19358
872.267	19441
872.397	19297
872.526	19183
872.656	19179
872.785	19171
872.915	19301
873.044	19495
873.173	19339
873.303	19415
873.432	19445
873.561	19491
873.69	19335
873.819	19430
873.948	19487
874.077	19411
874.206	19335
874.335	19396
874.464	19453
874.593	19575
874.722	19571
874.851	19791
874.979	19658
875.108	19689
875.237	19559
875.365	19563
875.494	19639
875.623	19784
875.751	19533
875.88	19715
876.008	19807
876.136	19909
876.265	19989
876.393	20202
876.521	20153
876.65	20100
876.778	20046
876.906	20062
877.034	19978
877.162	20016
877.29	20020
877.418	20062
877.546	20065
877.674	20100
877.802	20062
877.93	20092
878.058	19989
878.185	19993
878.313	20130
878.441	20176
878.568	19818
878.696	19944
878.824	20126
878.951	20115
879.079	20275
879.206	20362
879.333	20313
879.461	20142
879.588	20225
879.715	20164
879.842	20434
879.97	20050
880.097	19970
880.224	19902
880.351	19898
880.478	19803
880.605	19845
880.732	19974
880.859	20092
880.986	19967
881.112	20035
881.239	19738
881.366	19712
881.493	19662
881.619	19563
881.746	19548
881.872	19609
881.999	19552
882.125	19396
882.252	19518
882.378	19590
882.505	19655
882.631	19270
882.757	19388
882.883	19350
883.01	19274
883.136	19304
883.262	19065
883.388	19084
883.514	19381
883.64	19343
883.766	19221
883.892	18947
884.018	19156
884.143	19377
884.269	19308
884.395	19034
884.52	18928
884.646	18890
884.772	18837
884.897	18837
885.023	18867
885.148	19072
885.274	19103
885.399	19027
885.524	18920
885.65	19027
885.775	18920
885.9	18954
886.025	18897
886.15	18916
886.275	19072
886.4	18806
886.525	18825
886.65	18829
886.775	18764
886.9	19000
887.025	19152
887.149	18897
887.274	18745
887.399	18768
887.523	18726
887.648	18570
887.773	18563
887.897	18856
888.021	18783
888.146	18749
888.27	18817
888.395	18696
888.519	18719
888.643	18779
888.767	18787
888.891	18593
889.015	18460
889.139	18498
889.263	18525
889.387	18525
889.511	18703
889.635	18604
889.759	18452
889.883	18517
890.006	18525
890.13	18593
890.254	18445
890.377	18414
890.501	18254
890.624	18247
890.748	18243
890.871	18213
890.995	18171
891.118	18041
891.241	18144
891.364	18098
891.488	18266
891.611	17999
891.734	18136
891.857	18174
891.98	18171
892.103	18091
892.226	18083
892.349	18079
892.471	17984
892.594	17988
892.717	18102
892.839	18038
892.962	17988
893.085	18159
893.207	17984
893.33	17870
893.452	17950
893.575	18041
893.697	17980
893.819	18152
893.941	18216
894.064	18095
894.186	17984
894.308	17931
894.43	18102
894.552	18209
894.674	18125
894.796	18026
894.918	18030
895.04	18053
895.161	18133
895.283	17988
895.405	17988
895.526	18095
895.648	18068
895.769	18057
895.891	18247
896.012	18140
896.134	18114
896.255	18213
896.376	18114
896.498	18057
896.619	18072
896.74	18174
896.861	18224
896.982	18422
897.103	18589
897.224	18517
897.345	18330
897.466	18304
897.587	18300
897.708	18448
897.828	18429
897.949	18254
898.07	18243
898.19	18270
898.311	18296
898.431	18292
898.552	18369
898.672	18399
898.792	18353
898.913	18388
899.033	18213
899.153	18129
899.273	18038
899.393	18064
899.513	18140
899.633	18057
899.753	18140
899.873	17882
899.993	18114
900.113	18102
900.232	18102
900.352	18045
900.472	17882
900.591	17821
900.711	17980
900.83	17851
900.95	18022
901.069	18015
901.189	17832
901.308	17684
901.427	17577
901.546	17452
901.665	17630
901.784	17566
901.904	17440
902.023	17337
902.141	17155
902.26	17075
902.379	17174
902.498	17018
902.617	17014
902.735	17147
902.854	16999
902.973	16953
903.091	16736
903.21	16782
903.328	16706
903.446	16607
903.565	16588
903.683	16607
903.801	16523
903.919	16569
904.038	16459
904.156	16356
904.274	16417
904.392	16337
904.51	16322
904.627	16325
904.745	16356
904.863	16432
904.981	16067
905.098	16067
905.216	15994
905.334	16029
905.451	16013
905.569	15968
905.686	15987
905.803	15949
905.921	15850
906.038	15892
906.155	15759
906.272	15709
906.389	15705
906.506	15507
906.623	15629
906.74	15576
906.857	15416
906.974	15462
907.091	15637
907.208	15568
907.324	15637
907.441	15439
907.557	15313
907.674	15348
907.79	15169
907.907	15173
908.023	15367
908.139	15283
908.256	15211
908.372	15173
908.488	15142
908.604	15081
908.72	14990
908.836	15039
908.952	14990
909.068	14872
909.184	15051
909.3	14918
909.415	14960
909.531	14967
909.647	14727
909.762	14648
909.878	14750
909.993	14674
910.108	14705
910.224	14606
910.339	14587
910.454	14556
910.57	14492
910.685	14461
910.8	14800
910.915	14621
911.03	14503
911.145	14358
911.259	14176
911.374	14301
911.489	14263
911.604	14202
911.718	14012
911.833	14100
911.947	13860
912.062	13898
912.176	14012
912.291	14119
912.405	13936
912.519	14320
912.633	14210
912.748	14103
912.862	14020
912.976	13913
913.09	13738
913.204	13849
913.318	13822
913.431	13913
913.545	14012
913.659	13955
913.772	13826
913.886	13704
914	13662
914.113	13803
914.226	13826
914.34	13780
914.453	13613
914.566	13791
914.68	13643
914.793	13632
914.906	13396
915.019	13339
915.132	13247
915.245	13377
915.358	13392
915.47	13411
915.583	13434
915.696	13457
915.809	13586
915.921	13445
916.034	13327
916.146	13194
916.259	13236
916.371	13327
916.483	13297
916.595	13202
916.708	13149
916.82	13225
916.932	13194
917.044	13168
917.156	13152
917.268	13099
917.38	13141
917.491	13141
917.603	13019
917.715	13213
917.826	13206
917.938	13076
918.049	12939
918.161	13118
918.272	13187
918.384	13145
918.495	13099
918.606	12886
918.717	12871
918.828	12913
918.939	12905
919.05	12817
919.161	12791
919.272	12715
919.383	12681
919.494	12852
919.604	13008
919.715	12833
919.826	12795
919.936	12760
920.047	12909
920.157	12791
920.267	13053
920.378	12821
920.488	12817
920.598	12993
920.708	13091
920.818	13004
920.928	12981
921.038	13065
921.148	13095
921.258	12738
921.368	12745
921.477	12593
921.587	12547
921.697	12418
921.806	12639
921.916	12433
922.025	12350
922.134	12243
922.244	12114
922.353	12273
922.462	12167
922.571	12011
922.68	11912
922.789	11912
922.898	11946
923.007	11752
923.116	11927
923.224	11984
923.333	11847
923.442	11790
923.55	11767
923.659	11794
923.767	11901
923.876	11615
923.984	11802
924.092	11714
924.201	11771
924.309	11726
924.417	11668
924.525	11684
924.633	11691
924.741	12540
924.849	11417
924.956	11566
925.064	11516
925.172	11414
925.279	11410
925.387	11505
925.494	11368
925.602	11547
925.709	11486
925.816	11402
925.924	11425
926.031	11551
926.138	11444
926.245	11493
926.352	11410
926.459	11364
926.566	11520
926.673	11341
926.779	11189
926.886	11277
926.993	11056
927.099	11025
927.206	10976
927.312	10911
927.419	11136
927.525	11037
927.631	11052
927.737	10980
927.843	10843
927.95	10736
928.056	10904
928.162	10915
928.267	10949
928.373	11478
928.479	10908
928.585	10774
928.69	10866
928.796	10896
928.901	10835
929.007	10607
929.112	10714
929.218	10736
929.323	10694
929.428	10611
929.533	10797
929.638	10618
929.743	10618
929.848	10630
929.953	10660
930.058	10603
930.163	10337
930.267	10356
930.372	10459
930.477	10322
930.581	10569
930.685	10417
930.79	10306
930.894	10200
930.998	10261
931.103	10344
931.207	10025
931.311	10025
931.415	9857
931.519	9713
931.623	9690
