Data from test_V78500241_2758.txt Node
Date: Fri Mar 25 14:52:55 CST 2022
User: usil
Spectrometer: V785-0024
Trigger mode: 0
Integration Time (sec): 4.000000E-1
Scans to average: 1
Nonlinearity correction enabled: false
Boxcar width: 0
Storing dark spectrum: false
XAxis mode: Wavelengths
Number of Pixels in Spectrum: 1024
>>>>>Begin Spectral Data<<<<<
801.071	21991
801.214	21972
801.356	21614
801.499	21564
801.641	21538
801.783	21393
801.926	21530
802.068	21367
802.211	21302
802.353	21188
802.496	20937
802.638	20918
802.78	20804
802.923	20876
803.065	20594
803.208	20629
803.35	20697
803.492	20739
803.635	20963
803.777	20769
803.919	20781
804.061	21104
804.204	20689
804.346	20769
804.488	20571
804.63	20773
804.773	20625
804.915	20629
805.057	20758
805.199	20526
805.341	20541
805.483	20735
805.626	20708
805.768	20632
805.91	20670
806.052	20636
806.194	20560
806.336	20743
806.478	20587
806.62	20613
806.762	20621
806.904	20739
807.046	21017
807.188	20933
807.33	21009
807.472	20914
807.614	20963
807.756	20895
807.898	20902
808.04	20549
808.182	20636
808.324	20773
808.465	20838
808.607	21001
808.749	20971
808.891	21176
809.033	21310
809.174	21138
809.316	20956
809.458	21066
809.6	20929
809.741	20990
809.883	21116
810.025	21135
810.166	21157
810.308	21112
810.45	21123
810.591	20979
810.733	20887
810.875	20819
811.016	20697
811.158	20754
811.299	20800
811.441	20883
811.582	20800
811.724	20849
811.865	20697
812.007	20712
812.148	20861
812.29	20800
812.431	21043
812.573	21085
812.714	21237
812.855	21237
812.997	21367
813.138	21515
813.279	21443
813.421	21275
813.562	21211
813.703	21066
813.845	20830
813.986	20682
814.127	20381
814.268	20381
814.41	20366
814.551	20343
814.692	20358
814.833	20195
814.974	20168
815.115	20377
815.256	20210
815.397	20172
815.539	20229
815.68	20126
815.821	20016
815.962	20088
816.103	19989
816.244	19928
816.385	19879
816.526	19837
816.666	19639
816.807	19457
816.948	19548
817.089	19502
817.23	19514
817.371	19339
817.512	19480
817.653	19544
817.793	19289
817.934	19320
818.075	19434
818.216	19521
818.356	19438
818.497	19202
818.638	18985
818.778	19091
818.919	19187
819.06	19209
819.2	19297
819.341	19304
819.481	19266
819.622	19548
819.762	19635
819.903	19441
820.043	19544
820.184	19537
820.324	19441
820.465	19441
820.605	19381
820.746	19449
820.886	19206
821.026	19468
821.167	19392
821.307	19434
821.447	19346
821.588	19168
821.728	19122
821.868	18993
822.008	18825
822.149	18897
822.289	18707
822.429	18464
822.569	18494
822.709	18563
822.849	18350
822.99	18384
823.13	18311
823.27	18296
823.41	18254
823.55	18003
823.69	18144
823.83	18144
823.97	18091
824.11	17920
824.25	17866
824.389	17851
824.529	17984
824.669	17866
824.809	17927
824.949	18011
825.089	17927
825.228	17920
825.368	17619
825.508	17615
825.648	17783
825.787	17634
825.927	17737
826.067	17638
826.206	17562
826.346	17748
826.485	17672
826.625	17703
826.765	17760
826.904	17680
827.044	17566
827.183	17406
827.323	17364
827.462	17417
827.601	17318
827.741	17391
827.88	17311
828.02	17216
828.159	17284
828.298	17372
828.437	17410
828.577	17220
828.716	17452
828.855	17360
828.994	17200
829.134	17250
829.273	17162
829.412	17136
829.551	17094
829.69	16995
829.829	17098
829.968	17341
830.107	17166
830.246	17159
830.385	17128
830.524	17033
830.663	16942
830.802	16869
830.941	16736
831.08	16759
831.219	16892
831.357	16801
831.496	17006
831.635	16691
831.774	16675
831.913	16603
832.051	16440
832.19	16580
832.329	16634
832.467	16413
832.606	16447
832.744	16508
832.883	16497
833.022	16569
833.16	16508
833.299	16554
833.437	16447
833.576	16436
833.714	16603
833.852	16516
833.991	16516
834.129	16474
834.267	16573
834.406	16493
834.544	16561
834.682	16466
834.821	16558
834.959	16683
835.097	16440
835.235	16546
835.373	16538
835.511	16599
835.65	16367
835.788	16417
835.926	16367
836.064	16306
836.202	16249
836.34	16447
836.478	16527
836.615	16344
836.753	16356
836.891	16462
837.029	16421
837.167	16462
837.305	16341
837.443	16379
837.58	16158
837.718	16356
837.856	16287
837.993	16219
838.131	16322
838.269	16284
838.406	16333
838.544	16188
838.681	16090
838.819	15975
838.956	15819
839.094	15808
839.231	15835
839.369	15964
839.506	16265
839.643	16029
839.781	15911
839.918	15838
840.055	15873
840.193	15861
840.33	15846
840.467	15842
840.604	15876
840.742	16071
840.879	15675
841.016	15720
841.153	15698
841.29	15876
841.427	15888
841.564	15778
841.701	15819
841.838	15804
841.975	15778
842.112	15701
842.249	15580
842.385	15644
842.522	15800
842.659	15701
842.796	15622
842.933	15587
843.069	15587
843.206	15564
843.343	15747
843.479	15663
843.616	15663
843.752	15462
843.889	15435
844.025	15610
844.162	15294
844.298	15492
844.435	15367
844.571	15359
844.708	15523
844.844	15523
844.98	15549
845.117	15450
845.253	15374
845.389	15241
845.525	15340
845.661	15321
845.798	15241
845.934	15291
846.07	15169
846.206	15302
846.342	15408
846.478	15245
846.614	15043
846.75	14899
846.886	14826
847.022	15058
847.158	15017
847.294	14986
847.429	14998
847.565	15058
847.701	15207
847.837	14705
847.972	14613
848.108	14899
848.244	14804
848.379	14568
848.515	14636
848.65	14518
848.786	14530
848.921	14670
849.057	14678
849.192	14648
849.328	14522
849.463	14583
849.598	14598
849.734	14480
849.869	14320
850.004	14385
850.14	14351
850.275	14362
850.41	14248
850.545	14317
850.68	14400
850.815	14362
850.95	14404
851.085	14480
851.22	14366
851.355	14419
851.49	14187
851.625	14317
851.76	14362
851.895	14214
852.03	14225
852.165	14275
852.299	14275
852.434	14454
852.569	14385
852.703	14381
852.838	14332
852.973	14370
853.107	14537
853.242	14309
853.376	14145
853.511	14103
853.645	14221
853.78	14313
853.914	14195
854.048	14233
854.183	14180
854.317	14218
854.451	14427
854.585	14210
854.72	14096
854.854	14301
854.988	14161
855.122	14240
855.256	14096
855.39	14187
855.524	14305
855.658	14290
855.792	14244
855.926	14286
856.06	14202
856.194	14305
856.327	14229
856.461	14107
856.595	14225
856.729	14218
856.862	14301
856.996	14145
857.13	14252
857.263	14309
857.397	14343
857.53	14210
857.664	14252
857.797	14256
857.931	14320
858.064	14294
858.197	14267
858.331	14233
858.464	14153
858.597	14024
858.731	14248
858.864	14256
858.997	14126
859.13	14275
859.263	14256
859.396	14195
859.529	14202
859.662	14187
859.795	14153
859.928	14298
860.061	14313
860.194	14427
860.327	14248
860.46	14168
860.592	14286
860.725	14294
860.858	14336
860.99	14111
861.123	14126
861.256	14107
861.388	14218
861.521	14883
861.653	14073
861.786	14016
861.918	14069
862.05	14107
862.183	14164
862.315	14191
862.447	14237
862.58	14237
862.712	13974
862.844	13974
862.976	14039
863.108	14157
863.24	14446
863.372	13875
863.504	13936
863.636	14058
863.768	14062
863.9	13974
864.032	13925
864.164	14043
864.296	14088
864.428	14145
864.559	13993
864.691	14088
864.823	14081
864.954	14020
865.086	14084
865.217	13944
865.349	13955
865.48	13887
865.612	13921
865.743	14126
865.875	13974
866.006	13944
866.137	14058
866.269	13936
866.4	13894
866.531	13936
866.662	13982
866.793	13871
866.924	13982
867.055	13875
867.186	14016
867.317	13906
867.448	13833
867.579	14024
867.71	13856
867.841	13868
867.972	13967
868.103	14005
868.233	13944
868.364	13951
868.495	14081
868.625	14168
868.756	14290
868.886	14115
869.017	14336
869.147	14385
869.278	14320
869.408	14294
869.539	14164
869.669	14278
869.799	14377
869.929	14313
870.06	14309
870.19	14587
870.32	14575
870.45	14514
870.58	14621
870.71	14781
870.84	14769
870.97	14629
871.1	14621
871.23	14838
871.36	14815
871.489	14701
871.619	14739
871.749	14804
871.879	14902
872.008	14899
872.138	14792
872.267	14762
872.397	14705
872.526	14689
872.656	14674
872.785	14667
872.915	14849
873.044	14929
873.173	14823
873.303	14861
873.432	14910
873.561	15024
873.69	14971
873.819	14883
873.948	14910
874.077	14883
874.206	14868
874.335	14823
874.464	15043
874.593	15116
874.722	15119
874.851	15226
874.979	15302
875.108	15302
875.237	15108
875.365	15100
875.494	15169
875.623	15245
875.751	15116
875.88	15252
876.008	15279
876.136	15473
876.265	15595
876.393	15778
876.521	15572
876.65	15557
876.778	15587
876.906	15568
877.034	15507
877.162	15591
877.29	15606
877.418	15576
877.546	15591
877.674	15557
877.802	15530
877.93	15595
878.058	15511
878.185	15584
878.313	15469
878.441	15584
878.568	15561
878.696	15580
878.824	15679
878.951	15679
879.079	15835
879.206	15953
879.333	15694
879.461	15595
879.588	15739
879.715	15770
879.842	15915
879.97	15781
880.097	15401
880.224	15515
880.351	15538
880.478	15545
880.605	15302
880.732	15428
880.859	15614
880.986	15496
881.112	15515
881.239	15397
881.366	15146
881.493	15089
881.619	15036
881.746	15043
881.872	15077
881.999	15108
882.125	15112
882.252	15214
882.378	15104
882.505	15222
882.631	15093
882.757	14918
882.883	14994
883.01	14967
883.136	14910
883.262	14743
883.388	14663
883.514	14952
883.64	15055
883.766	14925
883.892	14754
884.018	14785
884.143	14781
884.269	14979
884.395	14670
884.52	14686
884.646	14663
884.772	14556
884.897	14606
885.023	14575
885.148	14762
885.274	14857
885.399	14758
885.524	14636
885.65	14651
885.775	14708
885.9	14644
886.025	14853
886.15	14705
886.275	14602
886.4	14568
886.525	14636
886.65	14598
886.775	14583
886.9	14758
887.025	14842
887.149	14659
887.274	14457
887.399	14480
887.523	14427
887.648	14484
887.773	14332
887.897	14484
888.021	14541
888.146	14465
888.27	14488
888.395	14530
888.519	14568
888.643	14492
888.767	14526
888.891	14442
889.015	14336
889.139	14282
889.263	14313
889.387	14450
889.511	14507
889.635	14503
889.759	14317
889.883	14294
890.006	14431
890.13	14518
890.254	14248
890.377	14161
890.501	14210
890.624	14096
890.748	14271
890.871	14020
890.995	14031
891.118	13959
891.241	14077
891.364	14016
891.488	14149
891.611	13986
891.734	14073
891.857	14172
891.98	14096
892.103	14138
892.226	14092
892.349	14020
892.471	13868
892.594	14092
892.717	14050
892.839	13989
892.962	13986
893.085	14145
893.207	14001
893.33	13921
893.452	13959
893.575	14081
893.697	14115
893.819	14172
893.941	14153
894.064	14199
894.186	14069
894.308	13997
894.43	14081
894.552	14199
894.674	14210
894.796	14065
894.918	14073
895.04	14046
895.161	14149
895.283	14180
895.405	14092
895.526	14084
895.648	14084
895.769	14210
895.891	14214
896.012	14271
896.134	14256
896.255	14172
896.376	14210
896.498	14248
896.619	14339
896.74	14172
896.861	14355
896.982	14454
897.103	14720
897.224	14526
897.345	14454
897.466	14404
897.587	14495
897.708	14511
897.828	14552
897.949	14526
898.07	14374
898.19	14385
898.311	14674
898.431	14552
898.552	14533
898.672	14674
898.792	14724
898.913	14575
899.033	14446
899.153	14400
899.273	14412
899.393	14358
899.513	14377
899.633	14522
899.753	14484
899.873	14427
899.993	14427
900.113	14374
900.232	14480
900.352	14328
900.472	14286
900.591	14282
900.711	14393
900.83	14202
900.95	14412
901.069	14412
901.189	14240
901.308	13989
901.427	13913
901.546	14001
901.665	13997
901.784	13982
901.904	13784
902.023	13776
902.141	13613
902.26	13590
902.379	13575
902.498	13480
902.617	13468
902.735	13499
902.854	13582
902.973	13426
903.091	13259
903.21	13259
903.328	13301
903.446	13285
903.565	13050
903.683	13072
903.801	12989
903.919	13076
904.038	13061
904.156	12962
904.274	13057
904.392	13023
904.51	12958
904.627	12897
904.745	12958
904.863	12993
904.981	12730
905.098	12585
905.216	12608
905.334	12578
905.451	12707
905.569	12604
905.686	12639
905.803	12688
905.921	12445
906.038	12536
906.155	12483
906.272	12273
906.389	12346
906.506	12235
906.623	12277
906.74	12163
906.857	12045
906.974	12175
907.091	12232
907.208	12273
907.324	12239
907.441	12190
907.557	11916
907.674	11992
907.79	11863
907.907	11866
908.023	11920
908.139	11939
908.256	11893
908.372	11916
908.488	11923
908.604	11680
908.72	11786
908.836	11790
908.952	11646
909.068	11608
909.184	11821
909.3	11684
909.415	11726
909.531	11722
909.647	11509
909.762	11501
909.878	11471
909.993	11398
910.108	11440
910.224	11433
910.339	11528
910.454	11379
910.57	11303
910.685	11246
910.8	11501
910.915	11505
911.03	11391
911.145	11280
911.259	11162
911.374	11216
911.489	11094
911.604	11025
911.718	10919
911.833	10991
911.947	10862
912.062	10824
912.176	10919
912.291	10987
912.405	10934
912.519	11132
912.633	11098
912.748	11079
912.862	10946
912.976	10801
913.09	10721
913.204	10797
913.318	10885
913.431	10873
913.545	10831
913.659	10930
913.772	10869
913.886	10759
914	10599
914.113	10831
914.226	10850
914.34	10740
914.453	10618
914.566	10767
914.68	10675
914.793	10702
914.906	10538
915.019	10341
915.132	10405
915.245	10440
915.358	10443
915.47	10470
915.583	10462
915.696	10550
915.809	10603
915.921	10618
916.034	10436
916.146	10375
916.259	10325
916.371	10367
916.483	10466
916.595	10371
916.708	10394
916.82	10360
916.932	10379
917.044	10325
917.156	10375
917.268	10211
917.38	10318
917.491	10306
917.603	10284
917.715	10436
917.826	10474
917.938	10318
918.049	10230
918.161	10299
918.272	10466
918.384	10367
918.495	10284
918.606	10207
918.717	10074
918.828	10150
918.939	10196
919.05	10044
919.161	10097
919.272	9949
919.383	10059
919.494	10204
919.604	10325
919.715	10219
919.826	10051
919.936	10124
920.047	10207
920.157	10188
920.267	10371
920.378	10200
920.488	10227
920.598	10348
920.708	10424
920.818	10436
920.928	10371
921.038	10558
921.148	10577
921.258	10200
921.368	10120
921.477	10051
921.587	10017
921.697	9975
921.806	10021
921.916	9880
922.025	9740
922.134	9724
922.244	9740
922.353	9785
922.462	9671
922.571	9603
922.68	9447
922.789	9443
922.898	9450
923.007	9401
923.116	9477
923.224	9458
923.333	9450
923.442	9351
923.55	9260
923.659	9348
923.767	9374
923.876	9249
923.984	9408
924.092	9226
924.201	9256
924.309	9306
924.417	9340
924.525	9245
924.633	9306
924.741	10059
924.849	9085
924.956	9199
925.064	9051
925.172	8910
925.279	9100
925.387	9062
925.494	9093
925.602	9211
925.709	9108
925.816	9020
925.924	9066
926.031	9180
926.138	9116
926.245	9138
926.352	9062
926.459	9161
926.566	9237
926.673	9119
926.779	8948
926.886	8941
926.993	8815
927.099	8750
927.206	8743
927.312	8735
927.419	8807
927.525	8849
927.631	8826
927.737	8701
927.843	8693
927.95	8602
928.056	8667
928.162	8708
928.267	8739
928.373	9401
928.479	8777
928.585	8541
928.69	8678
928.796	8697
928.901	8602
929.007	8522
929.112	8640
929.218	8560
929.323	8556
929.428	8507
929.533	8594
929.638	8514
929.743	8571
929.848	8594
929.953	8431
930.058	8343
930.163	8218
930.267	8343
930.372	8457
930.477	8214
930.581	8499
930.685	8374
930.79	8233
930.894	8328
930.998	8221
931.103	8393
931.207	8012
931.311	7955
931.415	7921
931.519	7704
931.623	7719
