Data from test_V78500241_2025.txt Node
Date: Fri Mar 25 14:47:48 CST 2022
User: usil
Spectrometer: V785-0024
Trigger mode: 0
Integration Time (sec): 4.000000E-1
Scans to average: 1
Nonlinearity correction enabled: false
Boxcar width: 0
Storing dark spectrum: false
XAxis mode: Wavelengths
Number of Pixels in Spectrum: 1024
>>>>>Begin Spectral Data<<<<<
801.071	22090
801.214	22013
801.356	21823
801.499	21724
801.641	21466
801.783	21450
801.926	21568
802.068	21458
802.211	21428
802.353	21184
802.496	21062
802.638	20998
802.78	20925
802.923	20868
803.065	20845
803.208	20746
803.35	20754
803.492	20823
803.635	20800
803.777	20777
803.919	20826
804.061	21173
804.204	20906
804.346	20686
804.488	20556
804.63	20735
804.773	20750
804.915	20689
805.057	20902
805.199	20651
805.341	20743
805.483	20807
805.626	20765
805.768	20701
805.91	20746
806.052	20689
806.194	20609
806.336	20842
806.478	20781
806.62	20640
806.762	20838
806.904	20899
807.046	21093
807.188	20963
807.33	21055
807.472	21028
807.614	20914
807.756	20948
807.898	20891
808.04	20765
808.182	20811
808.324	20845
808.465	20838
808.607	20960
808.749	21142
808.891	21291
809.033	21298
809.174	21203
809.316	21062
809.458	21161
809.6	21058
809.741	21135
809.883	21192
810.025	21249
810.166	21211
810.308	21180
810.45	21192
810.591	21131
810.733	20994
810.875	20880
811.016	20929
811.158	20762
811.299	20925
811.441	20925
811.582	21070
811.724	20899
811.865	20815
812.007	20952
812.148	20796
812.29	20994
812.431	21047
812.573	21195
812.714	21389
812.855	21420
812.997	21447
813.138	21591
813.279	21526
813.421	21283
813.562	21332
813.703	21081
813.845	21032
813.986	20826
814.127	20621
814.268	20404
814.41	20480
814.551	20427
814.692	20590
814.833	20400
814.974	20301
815.115	20256
815.256	20195
815.397	20324
815.539	20111
815.68	20077
815.821	20046
815.962	20157
816.103	20008
816.244	19902
816.385	19894
816.526	19864
816.666	19696
816.807	19605
816.948	19700
817.089	19662
817.23	19563
817.371	19609
817.512	19491
817.653	19575
817.793	19552
817.934	19506
818.075	19609
818.216	19590
818.356	19381
818.497	19316
818.638	19194
818.778	19278
818.919	19266
819.06	19285
819.2	19324
819.341	19438
819.481	19502
819.622	19510
819.762	19765
819.903	19734
820.043	19556
820.184	19590
820.324	19449
820.465	19540
820.605	19594
820.746	19590
820.886	19384
821.026	19487
821.167	19544
821.307	19578
821.447	19476
821.588	19365
821.728	19304
821.868	19088
822.008	18901
822.149	18958
822.289	18897
822.429	18669
822.569	18726
822.709	18589
822.849	18464
822.99	18448
823.13	18502
823.27	18346
823.41	18289
823.55	18197
823.69	18235
823.83	18270
823.97	18148
824.11	18190
824.25	17996
824.389	18072
824.529	18091
824.669	18072
824.809	18110
824.949	18057
825.089	18049
825.228	18007
825.368	17904
825.508	17863
825.648	17874
825.787	17783
825.927	17958
826.067	17809
826.206	17729
826.346	17992
826.485	17805
826.625	17726
826.765	17840
826.904	17885
827.044	17558
827.183	17668
827.323	17493
827.462	17585
827.601	17463
827.741	17562
827.88	17547
828.02	17444
828.159	17459
828.298	17505
828.437	17661
828.577	17414
828.716	17680
828.855	17566
828.994	17284
829.134	17322
829.273	17261
829.412	17235
829.551	17166
829.69	17284
829.829	17395
829.968	17398
830.107	17303
830.246	17341
830.385	17292
830.524	17208
830.663	17071
830.802	16976
830.941	16869
831.08	16949
831.219	16972
831.357	16942
831.496	17117
831.635	16889
831.774	16801
831.913	16782
832.051	16634
832.19	16706
832.329	16721
832.467	16599
832.606	16466
832.744	16485
832.883	16622
833.022	16550
833.16	16527
833.299	16679
833.437	16580
833.576	16580
833.714	16694
833.852	16710
833.991	16660
834.129	16748
834.267	16675
834.406	16687
834.544	16748
834.682	16729
834.821	16687
834.959	16771
835.097	16592
835.235	16698
835.373	16668
835.511	16611
835.65	16580
835.788	16508
835.926	16417
836.064	16318
836.202	16459
836.34	16535
836.478	16649
836.615	16554
836.753	16569
836.891	16748
837.029	16516
837.167	16485
837.305	16527
837.443	16474
837.58	16424
837.718	16432
837.856	16402
837.993	16398
838.131	16451
838.269	16440
838.406	16363
838.544	16276
838.681	16105
838.819	16131
838.956	15892
839.094	15911
839.231	16010
839.369	16112
839.506	16322
839.643	16169
839.781	16029
839.918	15968
840.055	15975
840.193	15968
840.33	15926
840.467	15964
840.604	16032
840.742	16272
840.879	15854
841.016	15781
841.153	15926
841.29	16017
841.427	15991
841.564	16002
841.701	15987
841.838	15903
841.975	15937
842.112	15907
842.249	15762
842.385	15614
842.522	15983
842.659	15915
842.796	15766
842.933	15751
843.069	15755
843.206	15614
843.343	15899
843.479	15823
843.616	15827
843.752	15568
843.889	15618
844.025	15652
844.162	15595
844.298	15629
844.435	15561
844.571	15507
844.708	15671
844.844	15759
844.98	15751
845.117	15679
845.253	15526
845.389	15443
845.525	15507
845.661	15450
845.798	15256
845.934	15466
846.07	15302
846.206	15386
846.342	15435
846.478	15329
846.614	15214
846.75	15001
846.886	15112
847.022	15237
847.158	15184
847.294	15154
847.429	15085
847.565	15135
847.701	15313
847.837	14853
847.972	14796
848.108	14971
848.244	14944
848.379	14777
848.515	14670
848.65	14743
848.786	14701
848.921	14682
849.057	14823
849.192	14819
849.328	14815
849.463	14701
849.598	14720
849.734	14556
849.869	14549
850.004	14461
850.14	14473
850.275	14518
850.41	14450
850.545	14431
850.68	14533
850.815	14511
850.95	14560
851.085	14636
851.22	14583
851.355	14492
851.49	14374
851.625	14503
851.76	14370
851.895	14385
852.03	14336
852.165	14454
852.299	14526
852.434	14587
852.569	14560
852.703	14476
852.838	14587
852.973	14625
853.107	14613
853.242	14518
853.376	14431
853.511	14221
853.645	14393
853.78	14457
853.914	14454
854.048	14358
854.183	14282
854.317	14355
854.451	14465
854.585	14427
854.72	14366
854.854	14324
854.988	14256
855.122	14294
855.256	14214
855.39	14358
855.524	14366
855.658	14362
855.792	14313
855.926	14320
856.06	14366
856.194	14408
856.327	14252
856.461	14278
856.595	14317
856.729	14324
856.862	14423
856.996	14469
857.13	14408
857.263	14457
857.397	14446
857.53	14309
857.664	14408
857.797	14396
857.931	14374
858.064	14389
858.197	14469
858.331	14320
858.464	14225
858.597	14324
858.731	14278
858.864	14240
858.997	14286
859.13	14404
859.263	14396
859.396	14415
859.529	14324
859.662	14313
859.795	14275
859.928	14355
860.061	14457
860.194	14522
860.327	14408
860.46	14347
860.592	14431
860.725	14499
860.858	14480
860.99	14282
861.123	14271
861.256	14286
861.388	14248
861.521	14986
861.653	14172
861.786	14107
861.918	14149
862.05	14298
862.183	14328
862.315	14415
862.447	14362
862.58	14259
862.712	14081
862.844	14123
862.976	14206
863.108	14214
863.24	14484
863.372	14119
863.504	14024
863.636	14020
863.768	14233
863.9	14176
864.032	14100
864.164	14111
864.296	14202
864.428	14199
864.559	14263
864.691	14275
864.823	14202
864.954	14237
865.086	14199
865.217	14145
865.349	14039
865.48	14077
865.612	14077
865.743	14195
865.875	14077
866.006	14005
866.137	14126
866.269	14058
866.4	14103
866.531	14001
866.662	14016
866.793	14035
866.924	14001
867.055	14084
867.186	14126
867.317	14012
867.448	14092
867.579	14020
867.71	14027
867.841	13921
867.972	14157
868.103	14027
868.233	14111
868.364	14103
868.495	14229
868.625	14438
868.756	14412
868.886	14275
869.017	14263
869.147	14431
869.278	14511
869.408	14351
869.539	14355
869.669	14419
869.799	14404
869.929	14499
870.06	14355
870.19	14606
870.32	14651
870.45	14815
870.58	14834
870.71	14845
870.84	14811
870.97	14670
871.1	14617
871.23	15013
871.36	14963
871.489	14758
871.619	14952
871.749	14906
871.879	14975
872.008	15020
872.138	14933
872.267	14952
872.397	14777
872.526	14781
872.656	14712
872.785	14883
872.915	14990
873.044	15077
873.173	14994
873.303	15077
873.432	15062
873.561	14998
873.69	15017
873.819	15001
873.948	15173
874.077	15051
874.206	14948
874.335	15047
874.464	15081
874.593	15283
874.722	15157
874.851	15363
874.979	15389
875.108	15389
875.237	15291
875.365	15252
875.494	15313
875.623	15405
875.751	15332
875.88	15332
876.008	15382
876.136	15549
876.265	15816
876.393	16032
876.521	15884
876.65	15732
876.778	15709
876.906	15682
877.034	15705
877.162	15705
877.29	15545
877.418	15686
877.546	15797
877.674	15652
877.802	15694
877.93	15629
878.058	15663
878.185	15682
878.313	15816
878.441	15698
878.568	15523
878.696	15686
878.824	15713
878.951	15808
879.079	15892
879.206	15987
879.333	15823
879.461	15781
879.588	15823
879.715	15949
879.842	16021
879.97	15690
880.097	15504
880.224	15648
880.351	15564
880.478	15584
880.605	15496
880.732	15538
880.859	15816
880.986	15679
881.112	15591
881.239	15492
881.366	15363
881.493	15233
881.619	15138
881.746	15226
881.872	15298
881.999	15150
882.125	15161
882.252	15249
882.378	15317
882.505	15370
882.631	15241
882.757	15028
882.883	15085
883.01	15123
883.136	15039
883.262	14933
883.388	14910
883.514	15032
883.64	15081
883.766	14998
883.892	14921
884.018	14838
884.143	15047
884.269	15093
884.395	14906
884.52	14815
884.646	14788
884.772	14697
884.897	14602
885.023	14743
885.148	14845
885.274	14857
885.399	14743
885.524	14815
885.65	14743
885.775	14811
885.9	14705
886.025	14982
886.15	14807
886.275	14689
886.4	14568
886.525	14716
886.65	14689
886.775	14697
886.9	14895
887.025	14933
887.149	14648
887.274	14590
887.399	14610
887.523	14560
887.648	14476
887.773	14469
887.897	14682
888.021	14708
888.146	14571
888.27	14705
888.395	14746
888.519	14640
888.643	14667
888.767	14636
888.891	14423
889.015	14476
889.139	14507
889.263	14381
889.387	14549
889.511	14644
889.635	14583
889.759	14404
889.883	14385
890.006	14473
890.13	14442
890.254	14370
890.377	14480
890.501	14294
890.624	14313
890.748	14366
890.871	14221
890.995	14092
891.118	14065
891.241	14202
891.364	14130
891.488	14256
891.611	14077
891.734	14164
891.857	14218
891.98	14119
892.103	14172
892.226	14126
892.349	14065
892.471	14001
892.594	14062
892.717	14111
892.839	14100
892.962	14103
893.085	14157
893.207	14168
893.33	13947
893.452	13978
893.575	14123
893.697	14138
893.819	14328
893.941	14320
894.064	14271
894.186	14092
894.308	14100
894.43	14286
894.552	14457
894.674	14290
894.796	14073
894.918	14176
895.04	14172
895.161	14237
895.283	14202
895.405	14111
895.526	14210
895.648	14244
895.769	14328
895.891	14355
896.012	14347
896.134	14282
896.255	14332
896.376	14263
896.498	14355
896.619	14290
896.74	14252
896.861	14415
896.982	14655
897.103	14807
897.224	14568
897.345	14511
897.466	14423
897.587	14545
897.708	14712
897.828	14598
897.949	14465
898.07	14442
898.19	14526
898.311	14785
898.431	14575
898.552	14522
898.672	14705
898.792	14674
898.913	14716
899.033	14610
899.153	14461
899.273	14377
899.393	14461
899.513	14682
899.633	14503
899.753	14514
899.873	14469
899.993	14503
900.113	14503
900.232	14545
900.352	14484
900.472	14377
900.591	14286
900.711	14427
900.83	14336
900.95	14446
901.069	14476
901.189	14343
901.308	14164
901.427	14149
901.546	14065
901.665	14134
901.784	14016
901.904	13936
902.023	13833
902.141	13651
902.26	13647
902.379	13788
902.498	13605
902.617	13559
902.735	13677
902.854	13525
902.973	13590
903.091	13362
903.21	13316
903.328	13316
903.446	13259
903.565	13175
903.683	13183
903.801	13110
903.919	13194
904.038	13168
904.156	12996
904.274	13050
904.392	12951
904.51	12996
904.627	13057
904.745	12962
904.863	12966
904.981	12795
905.098	12597
905.216	12722
905.334	12734
905.451	12722
905.569	12654
905.686	12825
905.803	12631
905.921	12540
906.038	12669
906.155	12471
906.272	12407
906.389	12494
906.506	12281
906.623	12266
906.74	12273
906.857	12129
906.974	12205
907.091	12395
907.208	12448
907.324	12315
907.441	12266
907.557	12068
907.674	12019
907.79	12007
907.907	11885
908.023	12015
908.139	12007
908.256	11958
908.372	11999
908.488	11901
908.604	11802
908.72	11786
908.836	11748
908.952	11775
909.068	11733
909.184	11901
909.3	11794
909.415	11767
909.531	11767
909.647	11649
909.762	11562
909.878	11604
909.993	11611
910.108	11661
910.224	11543
910.339	11573
910.454	11482
910.57	11391
910.685	11311
910.8	11615
910.915	11570
911.03	11455
911.145	11261
911.259	11208
911.374	11220
911.489	11128
911.604	11155
911.718	10957
911.833	11033
911.947	10968
912.062	10782
912.176	10957
912.291	11086
912.405	10999
912.519	11231
912.633	11220
912.748	11109
912.862	10946
912.976	10965
913.09	10824
913.204	10816
913.318	10904
913.431	11048
913.545	11033
913.659	10999
913.772	10991
913.886	10812
914	10759
914.113	10812
914.226	10889
914.34	10877
914.453	10740
914.566	10854
914.68	10668
914.793	10607
914.906	10493
915.019	10497
915.132	10497
915.245	10497
915.358	10519
915.47	10500
915.583	10622
915.696	10599
915.809	10618
915.921	10660
916.034	10428
916.146	10367
916.259	10402
916.371	10592
916.483	10527
916.595	10436
916.708	10432
916.82	10443
916.932	10371
917.044	10443
917.156	10424
917.268	10287
917.38	10440
917.491	10291
917.603	10428
917.715	10451
917.826	10497
917.938	10310
918.049	10204
918.161	10310
918.272	10523
918.384	10375
918.495	10299
918.606	10310
918.717	10131
918.828	10268
918.939	10223
919.05	10143
919.161	10223
919.272	10063
919.383	10097
919.494	10306
919.604	10409
919.715	10230
919.826	10181
919.936	10242
920.047	10268
920.157	10261
920.267	10523
920.378	10310
920.488	10204
920.598	10432
920.708	10538
920.818	10424
920.928	10417
921.038	10596
921.148	10573
921.258	10261
921.368	10143
921.477	10150
921.587	10093
921.697	10025
921.806	10139
921.916	9964
922.025	9816
922.134	9831
922.244	9701
922.353	9789
922.462	9762
922.571	9686
922.68	9485
922.789	9443
922.898	9450
923.007	9488
923.116	9507
923.224	9473
923.333	9576
923.442	9332
923.55	9355
923.659	9420
923.767	9507
923.876	9348
923.984	9488
924.092	9268
924.201	9340
924.309	9321
924.417	9401
924.525	9294
924.633	9325
924.741	10227
924.849	9131
924.956	9291
925.064	9157
925.172	9066
925.279	9146
925.387	9195
925.494	9112
925.602	9218
925.709	9214
925.816	9108
925.924	9154
926.031	9249
926.138	9119
926.245	9230
926.352	9074
926.459	9138
926.566	9188
926.673	9066
926.779	9009
926.886	8952
926.993	8910
927.099	8872
927.206	8838
927.312	8845
927.419	8918
927.525	8849
927.631	8849
927.737	8746
927.843	8788
927.95	8617
928.056	8735
928.162	8769
928.267	8766
928.373	9485
928.479	8788
928.585	8533
928.69	8746
928.796	8735
928.901	8606
929.007	8632
929.112	8663
929.218	8636
929.323	8545
929.428	8583
929.533	8724
929.638	8541
929.743	8442
929.848	8610
929.953	8583
930.058	8488
930.163	8370
930.267	8385
930.372	8484
930.477	8301
930.581	8583
930.685	8324
930.79	8355
930.894	8282
930.998	8358
931.103	8400
931.207	8046
931.311	8020
931.415	8005
931.519	7803
931.623	7757
