Data from test_V78500241_103.txt Node
Date: Fri Mar 25 14:34:26 CST 2022
User: usil
Spectrometer: V785-0024
Trigger mode: 0
Integration Time (sec): 4.000000E-1
Scans to average: 1
Nonlinearity correction enabled: false
Boxcar width: 0
Storing dark spectrum: false
XAxis mode: Wavelengths
Number of Pixels in Spectrum: 1024
>>>>>Begin Spectral Data<<<<<
801.071	29452
801.214	29330
801.356	29159
801.499	28942
801.641	28946
801.783	28877
801.926	28980
802.068	28919
802.211	28706
802.353	28786
802.496	28679
802.638	28618
802.78	28622
802.923	28401
803.065	28519
803.208	28569
803.35	28634
803.492	28767
803.635	28713
803.777	28729
803.919	28786
804.061	29010
804.204	28942
804.346	28626
804.488	28630
804.63	28694
804.773	28710
804.915	28748
805.057	28816
805.199	28965
805.341	29075
805.483	28965
805.626	28908
805.768	28949
805.91	29067
806.052	29121
806.194	28942
806.336	29273
806.478	29124
806.62	29250
806.762	29383
806.904	29539
807.046	29893
807.188	30095
807.33	29920
807.472	30292
807.614	30213
807.756	30585
807.898	30703
808.04	30954
808.182	31540
808.324	32119
808.465	33108
808.607	33937
808.749	34561
808.891	34938
809.033	35223
809.174	34637
809.316	33743
809.458	32998
809.6	32202
809.741	31742
809.883	31145
810.025	30943
810.166	30547
810.308	30395
810.45	30296
810.591	30159
810.733	29958
810.875	29790
811.016	29505
811.158	29444
811.299	29661
811.441	29505
811.582	29604
811.724	29509
811.865	29414
812.007	29512
812.148	29318
812.29	29368
812.431	29467
812.573	29653
812.714	29653
812.855	29752
812.997	29912
813.138	29942
813.279	29862
813.421	29638
813.562	29687
813.703	29554
813.845	29421
813.986	29113
814.127	28946
814.268	28877
814.41	28923
814.551	28767
814.692	28850
814.833	28565
814.974	28748
815.115	28656
815.256	28599
815.397	28641
815.539	28611
815.68	28557
815.821	28280
815.962	28394
816.103	28272
816.244	28226
816.385	28120
816.526	28166
816.666	27808
816.807	27812
816.948	27846
817.089	27789
817.23	27869
817.371	27778
817.512	27857
817.653	27732
817.793	27663
817.934	27808
818.075	27785
818.216	27831
818.356	27728
818.497	27572
818.638	27462
818.778	27511
818.919	27473
819.06	27576
819.2	27633
819.341	27504
819.481	27591
819.622	27831
819.762	28128
819.903	28002
820.043	27888
820.184	27705
820.324	27800
820.465	27857
820.605	27739
820.746	27846
820.886	27500
821.026	27743
821.167	27580
821.307	27713
821.447	27568
821.588	27511
821.728	27386
821.868	27146
822.008	27070
822.149	27001
822.289	26971
822.429	26796
822.569	26731
822.709	26712
822.849	26579
822.99	26442
823.13	26427
823.27	26503
823.41	26271
823.55	26142
823.69	26290
823.83	26157
823.97	26202
824.11	26210
824.25	26008
824.389	26073
824.529	26043
824.669	26050
824.809	26225
824.949	26062
825.089	26111
825.228	26024
825.368	25894
825.508	25791
825.648	25822
825.787	25898
825.927	25830
826.067	25799
826.206	25883
826.346	25746
826.485	25921
826.625	25753
826.765	25928
826.904	25769
827.044	25643
827.183	25700
827.323	25506
827.462	25597
827.601	25396
827.741	25518
827.88	25479
828.02	25411
828.159	25362
828.298	25518
828.437	25472
828.577	25293
828.716	25590
828.855	25331
828.994	25225
829.134	25194
829.273	25236
829.412	25072
829.551	25072
829.69	25069
829.829	25209
829.968	25190
830.107	25202
830.246	25171
830.385	25099
830.524	24924
830.663	24890
830.802	24890
830.941	24787
831.08	24749
831.219	24665
831.357	24741
831.496	24848
831.635	24688
831.774	24612
831.913	24570
832.051	24395
832.19	24509
832.329	24540
832.467	24388
832.606	24323
832.744	24304
832.883	24361
833.022	24407
833.16	24452
833.299	24471
833.437	24483
833.576	24555
833.714	24597
833.852	24661
833.991	24677
834.129	24681
834.267	24711
834.406	24616
834.544	24601
834.682	24528
834.821	24521
834.959	24696
835.097	24403
835.235	24601
835.373	24441
835.511	24426
835.65	24292
835.788	24155
835.926	24178
836.064	23996
836.202	24030
836.34	24117
836.478	24224
836.615	24083
836.753	24053
836.891	24224
837.029	24205
837.167	24076
837.305	24114
837.443	24003
837.58	23916
837.718	24087
837.856	23977
837.993	23901
838.131	23988
838.269	23954
838.406	23817
838.544	23748
838.681	23748
838.819	23680
838.956	23410
839.094	23414
839.231	23387
839.369	23547
839.506	23653
839.643	23535
839.781	23315
839.918	23341
840.055	23353
840.193	23239
840.33	23189
840.467	23299
840.604	23326
840.742	23436
840.879	23067
841.016	23162
841.153	23090
841.29	23433
841.427	23178
841.564	23315
841.701	23277
841.838	23170
841.975	23086
842.112	23060
842.249	23010
842.385	23025
842.522	22995
842.659	23117
842.796	22854
842.933	23048
843.069	22987
843.206	22877
843.343	22984
843.479	22976
843.616	22923
843.752	22706
843.889	22801
844.025	22889
844.162	22748
844.298	22908
844.435	22850
844.571	22862
844.708	23044
844.844	23151
844.98	23208
845.117	23482
845.253	23493
845.389	23748
845.525	24502
845.661	26054
845.798	27485
845.934	28965
846.07	29600
846.206	29284
846.342	28261
846.478	26473
846.614	24760
846.75	23783
846.886	23265
847.022	22892
847.158	22790
847.294	22424
847.429	22413
847.565	22329
847.701	22493
847.837	21949
847.972	21930
848.108	22032
848.244	21854
848.379	21823
848.515	21770
848.65	21622
848.786	21736
848.921	21667
849.057	21804
849.192	21831
849.328	21622
849.463	21690
849.598	21519
849.734	21610
849.869	21561
850.004	21435
850.14	21424
850.275	21542
850.41	21370
850.545	21351
850.68	21416
850.815	21382
850.95	21317
851.085	21488
851.22	21496
851.355	21397
851.49	21393
851.625	21367
851.76	21370
851.895	21268
852.03	21291
852.165	21504
852.299	21580
852.434	21523
852.569	21382
852.703	21416
852.838	21473
852.973	21587
853.107	21591
853.242	21279
853.376	21230
853.511	21218
853.645	21332
853.78	21428
853.914	21154
854.048	21195
854.183	21317
854.317	21332
854.451	21416
854.585	21302
854.72	21184
854.854	21272
854.988	21256
855.122	21211
855.256	21093
855.39	21173
855.524	21199
855.658	21176
855.792	21188
855.926	21127
856.06	21226
856.194	21199
856.327	21077
856.461	21108
856.595	21058
856.729	21096
856.862	21329
856.996	21169
857.13	21169
857.263	21199
857.397	21192
857.53	21058
857.664	21146
857.797	21184
857.931	21298
858.064	21093
858.197	21157
858.331	21081
858.464	21154
858.597	21096
858.731	21176
858.864	20960
858.997	21047
859.13	21195
859.263	21154
859.396	21195
859.529	20944
859.662	20956
859.795	21009
859.928	21077
860.061	21393
860.194	21268
860.327	21173
860.46	21081
860.592	21089
860.725	21036
860.858	21055
860.99	20876
861.123	20937
861.256	20960
861.388	21108
861.521	21599
861.653	20899
861.786	20845
861.918	20937
862.05	20975
862.183	21116
862.315	21001
862.447	21154
862.58	20994
862.712	20861
862.844	20845
862.976	20887
863.108	20823
863.24	21036
863.372	20678
863.504	20773
863.636	20773
863.768	20785
863.9	20708
864.032	20625
864.164	20708
864.296	20765
864.428	20758
864.559	20796
864.691	20754
864.823	20670
864.954	20705
865.086	20640
865.217	20648
865.349	20537
865.48	20488
865.612	20697
865.743	20670
865.875	20640
866.006	20541
866.137	20575
866.269	20499
866.4	20663
866.531	20651
866.662	20552
866.793	20682
866.924	20560
867.055	20686
867.186	20587
867.317	20473
867.448	20419
867.579	20427
867.71	20545
867.841	20446
867.972	20613
868.103	20507
868.233	20640
868.364	20629
868.495	20678
868.625	20697
868.756	20861
868.886	20739
869.017	20842
869.147	20826
869.278	20925
869.408	20705
869.539	20670
869.669	20963
869.799	20659
869.929	20777
870.06	20830
870.19	20998
870.32	21009
870.45	21104
870.58	21039
870.71	21237
870.84	21203
870.97	21214
871.1	21100
871.23	21325
871.36	21332
871.489	21237
871.619	21279
871.749	21344
871.879	21458
872.008	21485
872.138	21530
872.267	21397
872.397	21348
872.526	21214
872.656	21336
872.785	21230
872.915	21382
873.044	21557
873.173	21542
873.303	21473
873.432	21519
873.561	21606
873.69	21511
873.819	21538
873.948	21519
874.077	21477
874.206	21424
874.335	21614
874.464	21694
874.593	21629
874.722	21724
874.851	21869
874.979	21884
875.108	21861
875.237	21717
875.365	21785
875.494	21823
875.623	21808
875.751	21865
875.88	22032
876.008	21949
876.136	22147
876.265	22360
876.393	22363
876.521	22386
876.65	22443
876.778	22379
876.906	22375
877.034	22196
877.162	22447
877.29	22348
877.418	22421
877.546	22459
877.674	22447
877.802	22360
877.93	22554
878.058	22512
878.185	22500
878.313	22596
878.441	22786
878.568	22763
878.696	22991
878.824	23136
878.951	23493
879.079	23802
879.206	24525
879.333	24882
879.461	25251
879.588	25495
879.715	25567
879.842	25613
879.97	24840
880.097	24220
880.224	23779
880.351	23558
880.478	23315
880.605	23109
880.732	23003
880.859	23143
880.986	22839
881.112	23010
881.239	22904
881.366	22774
881.493	22519
881.619	22523
881.746	22462
881.872	22497
881.999	22497
882.125	22421
882.252	22523
882.378	22535
882.505	22649
882.631	22459
882.757	22284
882.883	22242
883.01	22322
883.136	22299
883.262	22230
883.388	22051
883.514	22284
883.64	22329
883.766	22147
883.892	22044
884.018	22166
884.143	22230
884.269	22379
884.395	22010
884.52	21922
884.646	22048
884.772	21774
884.897	21660
885.023	22036
885.148	21987
885.274	22025
885.399	21918
885.524	21892
885.65	21705
885.775	21816
885.9	21724
886.025	21835
886.15	21804
886.275	21629
886.4	21564
886.525	21629
886.65	21534
886.775	21344
886.9	21603
887.025	21682
887.149	21462
887.274	21340
887.399	21317
887.523	21169
887.648	21055
887.773	20963
887.897	21154
888.021	21176
888.146	20963
888.27	21214
888.395	21192
888.519	21055
888.643	21020
888.767	21112
888.891	20918
889.015	20804
889.139	20929
889.263	20769
889.387	20887
889.511	20868
889.635	20701
889.759	20667
889.883	20807
890.006	20697
890.13	20906
890.254	20667
890.377	20606
890.501	20495
890.624	20404
890.748	20427
890.871	20267
890.995	20290
891.118	20149
891.241	20290
891.364	20324
891.488	20320
891.611	20244
891.734	20290
891.857	20153
891.98	20206
892.103	20153
892.226	20225
892.349	20176
892.471	20027
892.594	20062
892.717	20092
892.839	20020
892.962	19978
893.085	20077
893.207	20077
893.33	19913
893.452	19868
893.575	20058
893.697	19936
893.819	20081
893.941	20126
894.064	20035
894.186	19951
894.308	19944
894.43	19989
894.552	20138
894.674	19967
894.796	19814
894.918	19845
895.04	19906
895.161	19955
895.283	19890
895.405	19856
895.526	19967
895.648	19822
895.769	19902
895.891	19928
896.012	19906
896.134	20054
896.255	19898
896.376	19799
896.498	19776
896.619	20012
896.74	19871
896.861	19887
896.982	20237
897.103	20495
897.224	20202
897.345	20058
897.466	20088
897.587	20172
897.708	20176
897.828	20107
897.949	20005
898.07	19970
898.19	19906
898.311	20126
898.431	19978
898.552	19986
898.672	20050
898.792	20138
898.913	19963
899.033	19970
899.153	19746
899.273	19632
899.393	19811
899.513	19814
899.633	19731
899.753	19841
899.873	19734
899.993	19765
900.113	19666
900.232	19795
900.352	19715
900.472	19525
900.591	19415
900.711	19525
900.83	19601
900.95	19708
901.069	19734
901.189	19506
901.308	19251
901.427	19152
901.546	19137
901.665	19122
901.784	19175
901.904	18951
902.023	18973
902.141	18707
902.26	18521
902.379	18688
902.498	18566
902.617	18525
902.735	18722
902.854	18559
902.973	18502
903.091	18292
903.21	18216
903.328	18228
903.446	18258
903.565	18038
903.683	18209
903.801	18038
903.919	17954
904.038	17988
904.156	17836
904.274	17882
904.392	17859
904.51	17726
904.627	17840
904.745	17901
904.863	17802
904.981	17547
905.098	17558
905.216	17478
905.334	17455
905.451	17528
905.569	17482
905.686	17406
905.803	17539
905.921	17174
906.038	17425
906.155	17307
906.272	17113
906.389	17155
906.506	17033
906.623	17159
906.74	17018
906.857	16915
906.974	16854
907.091	17033
907.208	17067
907.324	17071
907.441	16999
907.557	16828
907.674	16816
907.79	16664
907.907	16736
908.023	16771
908.139	16630
908.256	16615
908.372	16481
908.488	16573
908.604	16459
908.72	16386
908.836	16432
908.952	16432
909.068	16417
909.184	16558
909.3	16333
909.415	16402
909.531	16443
909.647	16162
909.762	16101
909.878	16071
909.993	16124
910.108	16048
910.224	16090
910.339	16048
910.454	16044
910.57	15895
910.685	15793
910.8	16173
910.915	16112
911.03	15956
911.145	15747
911.259	15701
911.374	15690
911.489	15591
911.604	15523
911.718	15332
911.833	15439
911.947	15397
912.062	15214
912.176	15405
912.291	15279
912.405	15370
912.519	15534
912.633	15530
912.748	15500
912.862	15389
912.976	15233
913.09	15116
913.204	15218
913.318	15264
913.431	15233
913.545	15336
913.659	15302
913.772	15173
913.886	15085
914	14929
914.113	15112
914.226	15157
914.34	15077
914.453	14948
914.566	15127
914.68	15100
914.793	14838
914.906	14788
915.019	14670
915.132	14602
915.245	14651
915.358	14663
915.47	14701
915.583	14594
915.696	14727
915.809	14724
915.921	14880
916.034	14579
916.146	14568
916.259	14545
916.371	14682
916.483	14621
916.595	14454
916.708	14495
916.82	14560
916.932	14484
917.044	14408
917.156	14476
917.268	14301
917.38	14366
917.491	14336
917.603	14305
917.715	14381
917.826	14381
917.938	14286
918.049	14195
918.161	14240
918.272	14313
918.384	14385
918.495	14210
918.606	14153
918.717	14100
918.828	14164
918.939	14161
919.05	13997
919.161	14016
919.272	13803
919.383	13974
919.494	14027
919.604	14271
919.715	14008
919.826	13909
919.936	14001
920.047	14054
920.157	14115
920.267	14065
920.378	14073
920.488	13963
920.598	14183
920.708	14298
920.818	14107
920.928	14149
921.038	14248
921.148	14161
921.258	13932
921.368	13860
921.477	13860
921.587	13738
921.697	13643
921.806	13715
921.916	13578
922.025	13495
922.134	13468
922.244	13350
922.353	13400
922.462	13244
922.571	13194
922.68	13110
922.789	13042
922.898	13122
923.007	12973
923.116	13107
923.224	13027
923.333	12996
923.442	12882
923.55	12791
923.659	12890
923.767	12890
923.876	12806
923.984	12848
924.092	12711
924.201	12749
924.309	12814
924.417	12821
924.525	12715
924.633	12776
924.741	13708
924.849	12521
924.956	12654
925.064	12471
925.172	12388
925.279	12410
925.387	12445
925.494	12521
925.602	12547
925.709	12563
925.816	12292
925.924	12391
926.031	12448
926.138	12452
926.245	12441
926.352	12361
926.459	12361
926.566	12445
926.673	12308
926.779	12201
926.886	12190
926.993	12095
927.099	12019
927.206	11984
927.312	12015
927.419	12003
927.525	12087
927.631	12053
927.737	11863
927.843	11935
927.95	11786
928.056	11775
928.162	11893
928.267	11923
928.373	12456
928.479	11954
928.585	11729
928.69	11703
928.796	11805
928.901	11714
929.007	11539
929.112	11710
929.218	11703
929.323	11547
929.428	11543
929.533	11722
929.638	11433
929.743	11512
929.848	11649
929.953	11532
930.058	11368
930.163	11277
930.267	11258
930.372	11455
930.477	11303
930.581	11372
930.685	11261
930.79	11201
930.894	11143
930.998	11083
931.103	11261
931.207	10915
931.311	10843
931.415	10694
931.519	10538
931.623	10462
