Data from test_V78500241_2331.txt Node
Date: Fri Mar 25 14:49:56 CST 2022
User: usil
Spectrometer: V785-0024
Trigger mode: 0
Integration Time (sec): 4.000000E-1
Scans to average: 1
Nonlinearity correction enabled: false
Boxcar width: 0
Storing dark spectrum: false
XAxis mode: Wavelengths
Number of Pixels in Spectrum: 1024
>>>>>Begin Spectral Data<<<<<
801.071	22192
801.214	22128
801.356	21823
801.499	21747
801.641	21671
801.783	21568
801.926	21709
802.068	21477
802.211	21359
802.353	21252
802.496	21085
802.638	21051
802.78	20990
802.923	20937
803.065	20834
803.208	20762
803.35	20811
803.492	21077
803.635	21226
803.777	20815
803.919	20986
804.061	21294
804.204	20906
804.346	20777
804.488	20765
804.63	21017
804.773	20629
804.915	20735
805.057	20902
805.199	20678
805.341	20830
805.483	20891
805.626	20914
805.768	20765
805.91	20762
806.052	20887
806.194	20758
806.336	20925
806.478	20804
806.62	20819
806.762	20811
806.904	21043
807.046	21226
807.188	21173
807.33	21112
807.472	21176
807.614	20998
807.756	21009
807.898	21047
808.04	20826
808.182	20838
808.324	20906
808.465	20971
808.607	21108
808.749	21146
808.891	21310
809.033	21431
809.174	21325
809.316	21241
809.458	21127
809.6	21077
809.741	21245
809.883	21180
810.025	21329
810.166	21378
810.308	21359
810.45	21237
810.591	21245
810.733	21005
810.875	20872
811.016	20834
811.158	20876
811.299	21062
811.441	20998
811.582	21039
811.724	20937
811.865	20895
812.007	20937
812.148	20933
812.29	21005
812.431	21028
812.573	21310
812.714	21443
812.855	21348
812.997	21485
813.138	21576
813.279	21485
813.421	21424
813.562	21363
813.703	21313
813.845	21093
813.986	20807
814.127	20686
814.268	20644
814.41	20469
814.551	20465
814.692	20552
814.833	20511
814.974	20385
815.115	20507
815.256	20366
815.397	20301
815.539	20275
815.68	20206
815.821	20248
815.962	20275
816.103	20263
816.244	19898
816.385	19940
816.526	19902
816.666	19814
816.807	19616
816.948	19689
817.089	19742
817.23	19666
817.371	19655
817.512	19552
817.653	19624
817.793	19468
817.934	19613
818.075	19578
818.216	19609
818.356	19575
818.497	19400
818.638	19312
818.778	19373
818.919	19297
819.06	19320
819.2	19312
819.341	19491
819.481	19586
819.622	19635
819.762	19814
819.903	19681
820.043	19647
820.184	19597
820.324	19567
820.465	19620
820.605	19628
820.746	19605
820.886	19441
821.026	19514
821.167	19559
821.307	19719
821.447	19563
821.588	19369
821.728	19350
821.868	19099
822.008	18939
822.149	19057
822.289	18996
822.429	18810
822.569	18661
822.709	18669
822.849	18437
822.99	18399
823.13	18532
823.27	18395
823.41	18353
823.55	18152
823.69	18289
823.83	18391
823.97	18247
824.11	18041
824.25	18015
824.389	18034
824.529	18209
824.669	18038
824.809	18091
824.949	18129
825.089	18011
825.228	18057
825.368	17870
825.508	17836
825.648	17885
825.787	17908
825.927	17786
826.067	17752
826.206	17859
826.346	17912
826.485	17821
826.625	17737
826.765	17939
826.904	17961
827.044	17589
827.183	17581
827.323	17558
827.462	17642
827.601	17539
827.741	17482
827.88	17497
828.02	17376
828.159	17478
828.298	17554
828.437	17581
828.577	17406
828.716	17691
828.855	17512
828.994	17193
829.134	17334
829.273	17246
829.412	17216
829.551	17307
829.69	17200
829.829	17269
829.968	17292
830.107	17299
830.246	17269
830.385	17181
830.524	17143
830.663	17018
830.802	17037
830.941	16778
831.08	16976
831.219	17018
831.357	16885
831.496	17086
831.635	16873
831.774	16759
831.913	16729
832.051	16694
832.19	16706
832.329	16630
832.467	16504
832.606	16527
832.744	16413
832.883	16443
833.022	16577
833.16	16550
833.299	16550
833.437	16542
833.576	16588
833.714	16588
833.852	16641
833.991	16664
834.129	16729
834.267	16664
834.406	16584
834.544	16645
834.682	16618
834.821	16599
834.959	16691
835.097	16573
835.235	16771
835.373	16607
835.511	16615
835.65	16417
835.788	16466
835.926	16405
836.064	16356
836.202	16360
836.34	16569
836.478	16649
836.615	16493
836.753	16493
836.891	16626
837.029	16527
837.167	16497
837.305	16436
837.443	16379
837.58	16341
837.718	16432
837.856	16459
837.993	16367
838.131	16382
838.269	16322
838.406	16424
838.544	16280
838.681	16112
838.819	16086
838.956	15926
839.094	15911
839.231	16006
839.369	16029
839.506	16348
839.643	16158
839.781	15937
839.918	15778
840.055	15873
840.193	15926
840.33	15846
840.467	15884
840.604	15945
840.742	16196
840.879	15770
841.016	15739
841.153	15800
841.29	16002
841.427	15835
841.564	16029
841.701	15869
841.838	15888
841.975	15789
842.112	15762
842.249	15797
842.385	15652
842.522	15804
842.659	15762
842.796	15732
842.933	15633
843.069	15663
843.206	15587
843.343	15709
843.479	15709
843.616	15675
843.752	15507
843.889	15443
844.025	15656
844.162	15416
844.298	15618
844.435	15485
844.571	15450
844.708	15504
844.844	15698
844.98	15553
845.117	15580
845.253	15454
845.389	15367
845.525	15416
845.661	15405
845.798	15180
845.934	15310
846.07	15332
846.206	15222
846.342	15298
846.478	15317
846.614	14910
846.75	14963
846.886	15020
847.022	15028
847.158	14990
847.294	15051
847.429	15146
847.565	15055
847.701	15283
847.837	14697
847.972	14689
848.108	14819
848.244	14891
848.379	14625
848.515	14686
848.65	14590
848.786	14583
848.921	14606
849.057	14651
849.192	14765
849.328	14796
849.463	14648
849.598	14571
849.734	14568
849.869	14419
850.004	14400
850.14	14469
850.275	14412
850.41	14317
850.545	14332
850.68	14427
850.815	14336
850.95	14339
851.085	14670
851.22	14476
851.355	14385
851.49	14423
851.625	14320
851.76	14431
851.895	14286
852.03	14317
852.165	14286
852.299	14454
852.434	14408
852.569	14366
852.703	14366
852.838	14492
852.973	14511
853.107	14549
853.242	14415
853.376	14298
853.511	14172
853.645	14298
853.78	14358
853.914	14294
854.048	14229
854.183	14252
854.317	14290
854.451	14415
854.585	14214
854.72	14263
854.854	14317
854.988	14210
855.122	14161
855.256	14119
855.39	14183
855.524	14259
855.658	14389
855.792	14298
855.926	14252
856.06	14393
856.194	14332
856.327	14305
856.461	14218
856.595	14218
856.729	14202
856.862	14336
856.996	14305
857.13	14313
857.263	14408
857.397	14309
857.53	14229
857.664	14396
857.797	14362
857.931	14457
858.064	14275
858.197	14309
858.331	14195
858.464	14153
858.597	14149
858.731	14332
858.864	14237
858.997	14267
859.13	14218
859.263	14366
859.396	14404
859.529	14100
859.662	14172
859.795	14172
859.928	14294
860.061	14389
860.194	14560
860.327	14347
860.46	14275
860.592	14408
860.725	14419
860.858	14396
860.99	14317
861.123	14210
861.256	14275
861.388	14191
861.521	14842
861.653	14119
861.786	14134
861.918	14142
862.05	14164
862.183	14202
862.315	14313
862.447	14259
862.58	14229
862.712	13986
862.844	13967
862.976	13997
863.108	14069
863.24	14503
863.372	14024
863.504	14027
863.636	14100
863.768	14142
863.9	13963
864.032	13963
864.164	14077
864.296	14119
864.428	14214
864.559	14199
864.691	14123
864.823	14123
864.954	14123
865.086	14077
865.217	14012
865.349	13963
865.48	14027
865.612	14024
865.743	14115
865.875	14035
866.006	13921
866.137	13970
866.269	14058
866.4	13993
866.531	14039
866.662	13925
866.793	13928
866.924	14058
867.055	14005
867.186	14050
867.317	14001
867.448	13967
867.579	14100
867.71	13989
867.841	13989
867.972	13974
868.103	13997
868.233	14001
868.364	14050
868.495	14161
868.625	14259
868.756	14336
868.886	14172
869.017	14221
869.147	14385
869.278	14385
869.408	14248
869.539	14339
869.669	14450
869.799	14278
869.929	14480
870.06	14473
870.19	14621
870.32	14503
870.45	14610
870.58	14674
870.71	14777
870.84	14712
870.97	14769
871.1	14568
871.23	14910
871.36	14891
871.489	14724
871.619	14800
871.749	14872
871.879	14933
872.008	14960
872.138	14887
872.267	14864
872.397	14667
872.526	14602
872.656	14788
872.785	14720
872.915	14800
873.044	14941
873.173	14960
873.303	15013
873.432	14952
873.561	15005
873.69	15005
873.819	14937
873.948	15020
874.077	14986
874.206	14880
874.335	14914
874.464	15119
874.593	15214
874.722	15195
874.851	15256
874.979	15222
875.108	15363
875.237	15233
875.365	15131
875.494	15207
875.623	15325
875.751	15249
875.88	15249
876.008	15370
876.136	15458
876.265	15660
876.393	15857
876.521	15759
876.65	15808
876.778	15633
876.906	15561
877.034	15553
877.162	15663
877.29	15629
877.418	15705
877.546	15587
877.674	15644
877.802	15606
877.93	15774
878.058	15641
878.185	15572
878.313	15618
878.441	15671
878.568	15557
878.696	15572
878.824	15694
878.951	15808
879.079	15835
879.206	15987
879.333	15785
879.461	15823
879.588	15739
879.715	15838
879.842	16105
879.97	15812
880.097	15507
880.224	15435
880.351	15492
880.478	15458
880.605	15568
880.732	15663
880.859	15816
880.986	15610
881.112	15622
881.239	15454
881.366	15340
881.493	15310
881.619	15203
881.746	15165
881.872	15214
881.999	15146
882.125	15176
882.252	15192
882.378	15256
882.505	15321
882.631	15146
882.757	14933
882.883	15032
883.01	14971
883.136	14986
883.262	14937
883.388	14800
883.514	14979
883.64	15020
883.766	14971
883.892	14804
884.018	14986
884.143	14910
884.269	15039
884.395	14823
884.52	14651
884.646	14800
884.772	14682
884.897	14632
885.023	14785
885.148	14823
885.274	14876
885.399	14823
885.524	14682
885.65	14640
885.775	14754
885.9	14667
886.025	14853
886.15	14762
886.275	14674
886.4	14571
886.525	14651
886.65	14564
886.775	14636
886.9	14826
887.025	14895
887.149	14651
887.274	14503
887.399	14511
887.523	14389
887.648	14568
887.773	14396
887.897	14667
888.021	14568
888.146	14499
888.27	14689
888.395	14689
888.519	14594
888.643	14556
888.767	14533
888.891	14324
889.015	14400
889.139	14431
889.263	14282
889.387	14518
889.511	14636
889.635	14564
889.759	14427
889.883	14484
890.006	14526
890.13	14533
890.254	14298
890.377	14381
890.501	14229
890.624	14271
890.748	14271
890.871	14168
890.995	14065
891.118	14065
891.241	14183
891.364	14100
891.488	14172
891.611	14050
891.734	14142
891.857	14142
891.98	14081
892.103	14134
892.226	14130
892.349	14069
892.471	14031
892.594	14077
892.717	14191
892.839	14115
892.962	14103
893.085	14195
893.207	14210
893.33	13951
893.452	14024
893.575	14161
893.697	13963
893.819	14248
893.941	14294
894.064	14168
894.186	14062
894.308	14077
894.43	14142
894.552	14370
894.674	14286
894.796	14054
894.918	14199
895.04	14107
895.161	14259
895.283	14183
895.405	14096
895.526	14248
895.648	14252
895.769	14229
895.891	14267
896.012	14415
896.134	14282
896.255	14256
896.376	14206
896.498	14290
896.619	14423
896.74	14320
896.861	14370
896.982	14575
897.103	14769
897.224	14651
897.345	14587
897.466	14503
897.587	14526
897.708	14701
897.828	14686
897.949	14625
898.07	14503
898.19	14530
898.311	14727
898.431	14537
898.552	14613
898.672	14765
898.792	14800
898.913	14636
899.033	14530
899.153	14617
899.273	14431
899.393	14492
899.513	14503
899.633	14526
899.753	14579
899.873	14484
899.993	14454
900.113	14545
900.232	14613
900.352	14476
900.472	14381
900.591	14324
900.711	14336
900.83	14339
900.95	14511
901.069	14450
901.189	14336
901.308	14024
901.427	13947
901.546	14058
901.665	14130
901.784	14073
901.904	13947
902.023	13909
902.141	13586
902.26	13620
902.379	13651
902.498	13548
902.617	13662
902.735	13578
902.854	13651
902.973	13639
903.091	13426
903.21	13304
903.328	13350
903.446	13312
903.565	13263
903.683	13282
903.801	13095
903.919	13160
904.038	13114
904.156	12985
904.274	13126
904.392	12970
904.51	13031
904.627	12894
904.745	12962
904.863	13046
904.981	12856
905.098	12642
905.216	12677
905.334	12711
905.451	12677
905.569	12623
905.686	12726
905.803	12684
905.921	12479
906.038	12593
906.155	12456
906.272	12407
906.389	12467
906.506	12273
906.623	12254
906.74	12205
906.857	12076
906.974	12152
907.091	12277
907.208	12448
907.324	12285
907.441	12163
907.557	12026
907.674	12030
907.79	11958
907.907	11977
908.023	12057
908.139	12026
908.256	12011
908.372	11977
908.488	11973
908.604	11840
908.72	11809
908.836	11809
908.952	11764
909.068	11775
909.184	11912
909.3	11752
909.415	11737
909.531	11802
909.647	11509
909.762	11547
909.878	11493
909.993	11592
910.108	11520
910.224	11395
910.339	11505
910.454	11455
910.57	11417
910.685	11334
910.8	11539
910.915	11589
911.03	11364
911.145	11311
911.259	11197
911.374	11265
911.489	11151
911.604	11121
911.718	11075
911.833	11037
911.947	10938
912.062	10786
912.176	11056
912.291	10927
912.405	10961
912.519	11178
912.633	11242
912.748	11113
912.862	11033
912.976	10843
913.09	10763
913.204	10774
913.318	10858
913.431	10900
913.545	10942
913.659	10949
913.772	10869
913.886	10805
914	10828
914.113	10812
914.226	10911
914.34	10843
914.453	10675
914.566	10839
914.68	10717
914.793	10721
914.906	10508
915.019	10443
915.132	10371
915.245	10489
915.358	10466
915.47	10508
915.583	10554
915.696	10569
915.809	10675
915.921	10672
916.034	10512
916.146	10436
916.259	10424
916.371	10611
916.483	10584
916.595	10402
916.708	10398
916.82	10402
916.932	10394
917.044	10402
917.156	10344
917.268	10325
917.38	10337
917.491	10325
917.603	10367
917.715	10352
917.826	10527
917.938	10291
918.049	10192
918.161	10417
918.272	10493
918.384	10504
918.495	10375
918.606	10238
918.717	10242
918.828	10185
918.939	10276
919.05	10177
919.161	10257
919.272	10036
919.383	10021
919.494	10333
919.604	10481
919.715	10204
919.826	10082
919.936	10162
920.047	10325
920.157	10219
920.267	10443
920.378	10322
920.488	10253
920.598	10375
920.708	10596
920.818	10485
920.928	10382
921.038	10577
921.148	10500
921.258	10196
921.368	10196
921.477	10139
921.587	10071
921.697	9949
921.806	10067
921.916	10013
922.025	9808
922.134	9789
922.244	9698
922.353	9789
922.462	9740
922.571	9549
922.68	9526
922.789	9393
922.898	9435
923.007	9405
923.116	9580
923.224	9420
923.333	9458
923.442	9336
923.55	9355
923.659	9424
923.767	9336
923.876	9363
923.984	9389
924.092	9203
924.201	9386
924.309	9325
924.417	9302
924.525	9302
924.633	9298
924.741	10071
924.849	9169
924.956	9233
925.064	9108
925.172	9131
925.279	9119
925.387	9173
925.494	9108
925.602	9260
925.709	9264
925.816	9100
925.924	9176
926.031	9287
926.138	9249
926.245	9161
926.352	9100
926.459	9233
926.566	9283
926.673	9070
926.779	8975
926.886	9001
926.993	8807
927.099	8906
927.206	8796
927.312	8864
927.419	8944
927.525	8880
927.631	8921
927.737	8743
927.843	8716
927.95	8686
928.056	8754
928.162	8720
928.267	8796
928.373	9348
928.479	8838
928.585	8602
928.69	8762
928.796	8815
928.901	8697
929.007	8579
929.112	8598
929.218	8621
929.323	8549
929.428	8590
929.533	8674
929.638	8473
929.743	8545
929.848	8632
929.953	8457
930.058	8438
930.163	8305
930.267	8351
930.372	8492
930.477	8275
930.581	8545
930.685	8412
930.79	8275
930.894	8336
930.998	8252
931.103	8431
931.207	8043
931.311	7955
931.415	7925
931.519	7803
931.623	7746
