Data from test_V78500241_1034.txt Node
Date: Fri Mar 25 14:40:55 CST 2022
User: usil
Spectrometer: V785-0024
Trigger mode: 0
Integration Time (sec): 4.000000E-1
Scans to average: 1
Nonlinearity correction enabled: false
Boxcar width: 0
Storing dark spectrum: false
XAxis mode: Wavelengths
Number of Pixels in Spectrum: 1024
>>>>>Begin Spectral Data<<<<<
801.071	22869
801.214	22679
801.356	22538
801.499	22489
801.641	22398
801.783	22246
801.926	22280
802.068	22249
802.211	22200
802.353	21953
802.496	21781
802.638	21827
802.78	21789
802.923	21652
803.065	21610
803.208	21572
803.35	21610
803.492	21770
803.635	21747
803.777	21682
803.919	21781
804.061	22021
804.204	21819
804.346	21641
804.488	21450
804.63	21671
804.773	21553
804.915	21595
805.057	21713
805.199	21439
805.341	21671
805.483	21644
805.626	21698
805.768	21473
805.91	21439
806.052	21553
806.194	21462
806.336	21713
806.478	21739
806.62	21606
806.762	21606
806.904	21720
807.046	22078
807.188	22070
807.33	21911
807.472	22105
807.614	22021
807.756	22124
807.898	22025
808.04	21983
808.182	22029
808.324	22044
808.465	22360
808.607	22519
808.749	22736
808.891	22763
809.033	23052
809.174	22763
809.316	22603
809.458	22428
809.6	22386
809.741	22371
809.883	22291
810.025	22306
810.166	22348
810.308	22337
810.45	22310
810.591	22128
810.733	22032
810.875	21922
811.016	21789
811.158	21892
811.299	21994
811.441	21953
811.582	21873
811.724	21800
811.865	21739
812.007	21778
812.148	21755
812.29	21785
812.431	22021
812.573	22048
812.714	22219
812.855	22280
812.997	22379
813.138	22523
813.279	22428
813.421	22325
813.562	22158
813.703	22040
813.845	21972
813.986	21663
814.127	21504
814.268	21469
814.41	21447
814.551	21252
814.692	21424
814.833	21287
814.974	21226
815.115	21268
815.256	21062
815.397	21077
815.539	21272
815.68	21146
815.821	21043
815.962	21093
816.103	21104
816.244	20902
816.385	20826
816.526	20864
816.666	20743
816.807	20526
816.948	20533
817.089	20541
817.23	20590
817.371	20480
817.512	20617
817.653	20488
817.793	20442
817.934	20389
818.075	20537
818.216	20347
818.356	20423
818.497	20412
818.638	20218
818.778	20206
818.919	20202
819.06	20214
819.2	20324
819.341	20412
819.481	20313
819.622	20503
819.762	20686
819.903	20651
820.043	20556
820.184	20473
820.324	20533
820.465	20541
820.605	20446
820.746	20423
820.886	20404
821.026	20393
821.167	20415
821.307	20549
821.447	20309
821.588	20252
821.728	20237
821.868	20043
822.008	19887
822.149	19799
822.289	19898
822.429	19616
822.569	19514
822.709	19460
822.849	19419
822.99	19266
823.13	19282
823.27	19206
823.41	19137
823.55	19046
823.69	19137
823.83	19190
823.97	19152
824.11	18928
824.25	18894
824.389	18981
824.529	18989
824.669	18871
824.809	19148
824.949	19015
825.089	19031
825.228	19023
825.368	18703
825.508	18661
825.648	18779
825.787	18783
825.927	18783
826.067	18650
826.206	18734
826.346	18806
826.485	18665
826.625	18700
826.765	18897
826.904	18673
827.044	18650
827.183	18441
827.323	18410
827.462	18547
827.601	18376
827.741	18346
827.88	18471
828.02	18277
828.159	18422
828.298	18315
828.437	18506
828.577	18323
828.716	18414
828.855	18369
828.994	18262
829.134	18060
829.273	18201
829.412	18057
829.551	17980
829.69	18098
829.829	18098
829.968	18201
830.107	18243
830.246	18079
830.385	18129
830.524	18091
830.663	18015
830.802	17828
830.941	17783
831.08	17741
831.219	17752
831.357	17832
831.496	17893
831.635	17657
831.774	17687
831.913	17653
832.051	17520
832.19	17634
832.329	17551
832.467	17436
832.606	17402
832.744	17440
832.883	17360
833.022	17417
833.16	17482
833.299	17410
833.437	17474
833.576	17551
833.714	17562
833.852	17528
833.991	17585
834.129	17573
834.267	17497
834.406	17562
834.544	17566
834.682	17604
834.821	17497
834.959	17714
835.097	17493
835.235	17562
835.373	17532
835.511	17444
835.65	17322
835.788	17429
835.926	17242
836.064	17227
836.202	17197
836.34	17459
836.478	17406
836.615	17372
836.753	17364
836.891	17524
837.029	17387
837.167	17311
837.305	17292
837.443	17330
837.58	17307
837.718	17383
837.856	17273
837.993	17185
838.131	17296
838.269	17197
838.406	17155
838.544	17086
838.681	16957
838.819	16896
838.956	16805
839.094	16797
839.231	16889
839.369	16957
839.506	17227
839.643	17018
839.781	16736
839.918	16706
840.055	16759
840.193	16835
840.33	16755
840.467	16752
840.604	16828
840.742	17041
840.879	16535
841.016	16759
841.153	16641
841.29	16793
841.427	16774
841.564	16835
841.701	16752
841.838	16725
841.975	16733
842.112	16660
842.249	16656
842.385	16470
842.522	16881
842.659	16531
842.796	16421
842.933	16470
843.069	16497
843.206	16550
843.343	16561
843.479	16577
843.616	16554
843.752	16295
843.889	16276
844.025	16432
844.162	16417
844.298	16443
844.435	16375
844.571	16242
844.708	16371
844.844	16554
844.98	16618
845.117	16546
845.253	16432
845.389	16394
845.525	16542
845.661	16641
845.798	16850
845.934	16946
846.07	17143
846.206	17037
846.342	17162
846.478	16664
846.614	16360
846.75	16063
846.886	16010
847.022	16128
847.158	15991
847.294	15991
847.429	16002
847.565	15869
847.701	16162
847.837	15606
847.972	15553
848.108	15618
848.244	15656
848.379	15454
848.515	15477
848.65	15393
848.786	15507
848.921	15431
849.057	15603
849.192	15603
849.328	15466
849.463	15462
849.598	15389
849.734	15431
849.869	15367
850.004	15237
850.14	15260
850.275	15298
850.41	15150
850.545	15233
850.68	15241
850.815	15272
850.95	15157
851.085	15443
851.22	15340
851.355	15252
851.49	15294
851.625	15135
851.76	15245
851.895	15165
852.03	15135
852.165	15214
852.299	15313
852.434	15332
852.569	15294
852.703	15249
852.838	15245
852.973	15397
853.107	15523
853.242	15184
853.376	15169
853.511	15013
853.645	15039
853.78	15230
853.914	15020
854.048	15108
854.183	15138
854.317	15119
854.451	15287
854.585	15058
854.72	15077
854.854	15127
854.988	15062
855.122	15074
855.256	14967
855.39	15032
855.524	15192
855.658	15116
855.792	15150
855.926	15142
856.06	15146
856.194	15214
856.327	15097
856.461	15066
856.595	15047
856.729	15055
856.862	15218
856.996	15169
857.13	15112
857.263	15249
857.397	15176
857.53	15043
857.664	15119
857.797	15291
857.931	15218
858.064	15093
858.197	15199
858.331	15116
858.464	15039
858.597	14998
858.731	15043
858.864	15077
858.997	14956
859.13	15169
859.263	15146
859.396	15199
859.529	15070
859.662	15039
859.795	15055
859.928	15085
860.061	15313
860.194	15260
860.327	15135
860.46	15123
860.592	15233
860.725	15176
860.858	15264
860.99	15154
861.123	15058
861.256	15043
861.388	15112
861.521	15724
861.653	15051
861.786	14960
861.918	14971
862.05	14967
862.183	14982
862.315	15055
862.447	15165
862.58	15100
862.712	14941
862.844	14845
862.976	14941
863.108	14857
863.24	15192
863.372	14823
863.504	14864
863.636	14777
863.768	14941
863.9	14899
864.032	14842
864.164	14800
864.296	14960
864.428	14967
864.559	14952
864.691	15017
864.823	14933
864.954	14944
865.086	14937
865.217	14777
865.349	14834
865.48	14823
865.612	14849
865.743	14929
865.875	14861
866.006	14842
866.137	14804
866.269	14883
866.4	14773
866.531	14857
866.662	14788
866.793	14785
866.924	14826
867.055	14811
867.186	14792
867.317	14796
867.448	14720
867.579	14686
867.71	14632
867.841	14682
867.972	14773
868.103	14826
868.233	14849
868.364	14777
868.495	14883
868.625	15055
868.756	15165
868.886	14994
869.017	15005
869.147	15203
869.278	15199
869.408	15119
869.539	15074
869.669	15051
869.799	15176
869.929	15161
870.06	15150
870.19	15416
870.32	15351
870.45	15443
870.58	15458
870.71	15488
870.84	15618
870.97	15420
871.1	15428
871.23	15641
871.36	15622
871.489	15599
871.619	15641
871.749	15762
871.879	15720
872.008	15808
872.138	15736
872.267	15724
872.397	15587
872.526	15568
872.656	15481
872.785	15485
872.915	15736
873.044	15747
873.173	15679
873.303	15747
873.432	15671
873.561	15713
873.69	15717
873.819	15595
873.948	15823
874.077	15759
874.206	15682
874.335	15732
874.464	15831
874.593	15994
874.722	16032
874.851	16051
874.979	16048
875.108	16002
875.237	16017
875.365	15915
875.494	15991
875.623	16124
875.751	16116
875.88	16029
876.008	16150
876.136	16280
876.265	16470
876.393	16588
876.521	16443
876.65	16580
876.778	16398
876.906	16489
877.034	16493
877.162	16440
877.29	16390
877.418	16474
877.546	16504
877.674	16451
877.802	16508
877.93	16409
878.058	16379
878.185	16386
878.313	16569
878.441	16508
878.568	16360
878.696	16421
878.824	16554
878.951	16710
879.079	16797
879.206	16934
879.333	17010
879.461	16805
879.588	16961
879.715	17094
879.842	17204
879.97	16965
880.097	16668
880.224	16535
880.351	16523
880.478	16386
880.605	16356
880.732	16451
880.859	16546
880.986	16474
881.112	16413
881.239	16371
881.366	16192
881.493	16051
881.619	16021
881.746	16188
881.872	16078
881.999	16116
882.125	16017
882.252	16150
882.378	16120
882.505	16257
882.631	16025
882.757	15880
882.883	15903
883.01	15907
883.136	15819
883.262	15800
883.388	15720
883.514	15876
883.64	15892
883.766	15812
883.892	15663
884.018	15724
884.143	15797
884.269	15964
884.395	15652
884.52	15553
884.646	15622
884.772	15450
884.897	15519
885.023	15564
885.148	15656
885.274	15709
885.399	15686
885.524	15576
885.65	15622
885.775	15549
885.9	15515
886.025	15584
886.15	15660
886.275	15538
886.4	15416
886.525	15439
886.65	15435
886.775	15450
886.9	15610
887.025	15728
887.149	15496
887.274	15294
887.399	15245
887.523	15249
887.648	15203
887.773	15214
887.897	15473
888.021	15393
888.146	15291
888.27	15454
888.395	15260
888.519	15351
888.643	15374
888.767	15431
888.891	15252
889.015	15184
889.139	15203
889.263	15100
889.387	15135
889.511	15313
889.635	15287
889.759	15127
889.883	15089
890.006	15154
890.13	15142
890.254	15138
890.377	15081
890.501	15005
890.624	14944
890.748	15013
890.871	14971
890.995	14845
891.118	14788
891.241	14769
891.364	14743
891.488	14906
891.611	14842
891.734	14819
891.857	14929
891.98	14853
892.103	14891
892.226	14906
892.349	14819
892.471	14693
892.594	14781
892.717	14834
892.839	14765
892.962	14792
893.085	14845
893.207	14769
893.33	14594
893.452	14781
893.575	14906
893.697	14781
893.819	14925
893.941	15070
894.064	14944
894.186	14750
894.308	14815
894.43	14891
894.552	15097
894.674	14918
894.796	14754
894.918	14811
895.04	14807
895.161	14918
895.283	14937
895.405	14826
895.526	14925
895.648	14864
895.769	14944
895.891	14883
896.012	15013
896.134	14925
896.255	14868
896.376	14910
896.498	14921
896.619	15077
896.74	14902
896.861	14982
896.982	15169
897.103	15408
897.224	15203
897.345	15214
897.466	15097
897.587	15237
897.708	15408
897.828	15230
897.949	15264
898.07	15013
898.19	15207
898.311	15359
898.431	15100
898.552	15275
898.672	15439
898.792	15363
898.913	15302
899.033	15207
899.153	15161
899.273	15051
899.393	15142
899.513	15287
899.633	15173
899.753	15150
899.873	15055
899.993	15039
900.113	15097
900.232	15150
900.352	15138
900.472	14994
900.591	14933
900.711	15066
900.83	14880
900.95	15070
901.069	15150
901.189	14921
901.308	14811
901.427	14594
901.546	14663
901.665	14765
901.784	14621
901.904	14648
902.023	14431
902.141	14305
902.26	14168
902.379	14332
902.498	14309
902.617	14210
902.735	14252
902.854	14119
902.973	14096
903.091	13947
903.21	13947
903.328	13917
903.446	13947
903.565	13727
903.683	13845
903.801	13704
903.919	13769
904.038	13738
904.156	13563
904.274	13685
904.392	13578
904.51	13563
904.627	13453
904.745	13613
904.863	13616
904.981	13403
905.098	13236
905.216	13316
905.334	13312
905.451	13247
905.569	13285
905.686	13266
905.803	13190
905.921	13072
906.038	13183
906.155	13099
906.272	12966
906.389	13088
906.506	12829
906.623	12905
906.74	12772
906.857	12700
906.974	12783
907.091	12924
907.208	12909
907.324	12939
907.441	12741
907.557	12544
907.674	12604
907.79	12582
907.907	12536
908.023	12658
908.139	12570
908.256	12506
908.372	12490
908.488	12467
908.604	12281
908.72	12327
908.836	12376
908.952	12232
909.068	12323
909.184	12445
909.3	12270
909.415	12369
909.531	12483
909.647	12045
909.762	12098
909.878	12079
909.993	12121
910.108	12121
910.224	12106
910.339	12083
910.454	11988
910.57	11920
910.685	11863
910.8	12171
910.915	12117
911.03	11999
911.145	11741
911.259	11805
911.374	11790
911.489	11695
911.604	11684
911.718	11493
911.833	11619
911.947	11406
912.062	11311
912.176	11535
912.291	11501
912.405	11516
912.519	11707
912.633	11737
912.748	11543
912.862	11509
912.976	11402
913.09	11307
913.204	11398
913.318	11402
913.431	11520
913.545	11486
913.659	11573
913.772	11345
913.886	11246
914	11303
914.113	11379
914.226	11410
914.34	11334
914.453	11223
914.566	11360
914.68	11197
914.793	11201
914.906	11067
915.019	11006
915.132	10847
915.245	11003
915.358	11086
915.47	10984
915.583	11071
915.696	11067
915.809	11162
915.921	11132
916.034	10972
916.146	10942
916.259	10904
916.371	11041
916.483	10972
916.595	10873
916.708	10934
916.82	10896
916.932	10885
917.044	10961
917.156	10892
917.268	10774
917.38	10801
917.491	10744
917.603	10778
917.715	10976
917.826	10889
917.938	10847
918.049	10691
918.161	10854
918.272	10957
918.384	10984
918.495	10801
918.606	10691
918.717	10546
918.828	10641
918.939	10755
919.05	10668
919.161	10626
919.272	10497
919.383	10577
919.494	10717
919.604	10946
919.715	10675
919.826	10622
919.936	10656
920.047	10736
920.157	10759
920.267	10938
920.378	10714
920.488	10694
920.598	10869
920.708	11052
920.818	10805
920.928	10942
921.038	11006
921.148	11079
921.258	10664
921.368	10603
921.477	10535
921.587	10459
921.697	10443
921.806	10546
921.916	10360
922.025	10230
922.134	10249
922.244	10249
922.353	10257
922.462	10074
922.571	10067
922.68	9899
922.789	9915
922.898	10013
923.007	9880
923.116	10002
923.224	9911
923.333	9884
923.442	9762
923.55	9778
923.659	9740
923.767	9838
923.876	9717
923.984	9915
924.092	9644
924.201	9743
924.309	9747
924.417	9728
924.525	9701
924.633	9694
924.741	10649
924.849	9473
924.956	9614
925.064	9580
925.172	9485
925.279	9454
925.387	9580
925.494	9526
925.602	9660
925.709	9614
925.816	9424
925.924	9587
926.031	9576
926.138	9595
926.245	9587
926.352	9500
926.459	9576
926.566	9629
926.673	9458
926.779	9321
926.886	9306
926.993	9199
927.099	9283
927.206	9260
927.312	9169
927.419	9302
927.525	9176
927.631	9302
927.737	9131
927.843	9176
927.95	8975
928.056	9074
928.162	9112
928.267	9146
928.373	9800
928.479	9264
928.585	9009
928.69	9192
928.796	9119
928.901	9024
929.007	8864
929.112	9104
929.218	9032
929.323	8937
929.428	8937
929.533	9028
929.638	8853
929.743	8918
929.848	8967
929.953	8910
930.058	8845
930.163	8678
930.267	8712
930.372	8864
930.477	8720
930.581	8861
930.685	8792
930.79	8625
930.894	8712
930.998	8632
931.103	8758
931.207	8438
931.311	8423
931.415	8279
931.519	8195
931.623	8123
