Data from test_V78500241_2306.txt Node
Date: Fri Mar 25 14:49:46 CST 2022
User: usil
Spectrometer: V785-0024
Trigger mode: 0
Integration Time (sec): 4.000000E-1
Scans to average: 1
Nonlinearity correction enabled: false
Boxcar width: 0
Storing dark spectrum: false
XAxis mode: Wavelengths
Number of Pixels in Spectrum: 1024
>>>>>Begin Spectral Data<<<<<
801.071	22303
801.214	22135
801.356	21918
801.499	21838
801.641	21553
801.783	21622
801.926	21595
802.068	21542
802.211	21397
802.353	21412
802.496	21241
802.638	21173
802.78	21089
802.923	21043
803.065	20815
803.208	20845
803.35	20933
803.492	21085
803.635	21013
803.777	20944
803.919	21058
804.061	21287
804.204	20948
804.346	20921
804.488	20746
804.63	20864
804.773	20887
804.915	20876
805.057	20845
805.199	20830
805.341	20925
805.483	20975
805.626	20823
805.768	20796
805.91	20937
806.052	20800
806.194	20697
806.336	21013
806.478	20769
806.62	20724
806.762	20944
806.904	20982
807.046	21233
807.188	21055
807.33	21062
807.472	21180
807.614	21020
807.756	21093
807.898	20975
808.04	20857
808.182	20876
808.324	20868
808.465	20914
808.607	21100
808.749	21184
808.891	21378
809.033	21382
809.174	21211
809.316	21176
809.458	21222
809.6	21214
809.741	21180
809.883	21268
810.025	21477
810.166	21355
810.308	21389
810.45	21378
810.591	21199
810.733	21093
810.875	21032
811.016	21066
811.158	20838
811.299	21062
811.441	21116
811.582	21081
811.724	20948
811.865	20937
812.007	20921
812.148	20914
812.29	20986
812.431	21154
812.573	21146
812.714	21382
812.855	21488
812.997	21523
813.138	21622
813.279	21652
813.421	21473
813.562	21294
813.703	21195
813.845	21123
813.986	20876
814.127	20682
814.268	20541
814.41	20632
814.551	20514
814.692	20606
814.833	20457
814.974	20503
815.115	20629
815.256	20320
815.397	20400
815.539	20393
815.68	20320
815.821	20252
815.962	20218
816.103	20298
816.244	20092
816.385	20050
816.526	19986
816.666	19807
816.807	19708
816.948	19696
817.089	19837
817.23	19772
817.371	19727
817.512	19666
817.653	19597
817.793	19655
817.934	19700
818.075	19609
818.216	19628
818.356	19609
818.497	19468
818.638	19312
818.778	19282
818.919	19297
819.06	19373
819.2	19499
819.341	19453
819.481	19605
819.622	19632
819.762	19837
819.903	19788
820.043	19723
820.184	19643
820.324	19658
820.465	19784
820.605	19632
820.746	19723
820.886	19464
821.026	19586
821.167	19586
821.307	19655
821.447	19567
821.588	19495
821.728	19369
821.868	19190
822.008	19095
822.149	19053
822.289	18989
822.429	18730
822.569	18726
822.709	18776
822.849	18513
822.99	18620
823.13	18578
823.27	18483
823.41	18342
823.55	18277
823.69	18418
823.83	18361
823.97	18350
824.11	18159
824.25	18121
824.389	18243
824.529	18201
824.669	18041
824.809	18258
824.949	18220
825.089	18163
825.228	18098
825.368	17775
825.508	17786
825.648	17904
825.787	17866
825.927	17874
826.067	17809
826.206	17885
826.346	17779
826.485	17870
826.625	17828
826.765	17942
826.904	17988
827.044	17695
827.183	17589
827.323	17646
827.462	17585
827.601	17532
827.741	17535
827.88	17600
828.02	17421
828.159	17547
828.298	17581
828.437	17741
828.577	17581
828.716	17691
828.855	17520
828.994	17330
829.134	17292
829.273	17391
829.412	17273
829.551	17159
829.69	17246
829.829	17311
829.968	17391
830.107	17349
830.246	17246
830.385	17204
830.524	17181
830.663	17197
830.802	17105
830.941	17037
831.08	16915
831.219	16881
831.357	17014
831.496	17041
831.635	16889
831.774	16881
831.913	16763
832.051	16733
832.19	16683
832.329	16774
832.467	16618
832.606	16531
832.744	16538
832.883	16546
833.022	16550
833.16	16649
833.299	16550
833.437	16634
833.576	16615
833.714	16702
833.852	16725
833.991	16596
834.129	16679
834.267	16588
834.406	16523
834.544	16759
834.682	16637
834.821	16660
834.959	16805
835.097	16470
835.235	16691
835.373	16630
835.511	16736
835.65	16443
835.788	16512
835.926	16413
836.064	16394
836.202	16306
836.34	16440
836.478	16599
836.615	16489
836.753	16558
836.891	16573
837.029	16504
837.167	16417
837.305	16462
837.443	16398
837.58	16329
837.718	16462
837.856	16421
837.993	16402
838.131	16371
838.269	16284
838.406	16306
838.544	16238
838.681	16097
838.819	16101
838.956	15895
839.094	15850
839.231	15934
839.369	16147
839.506	16390
839.643	16223
839.781	15953
839.918	15899
840.055	15895
840.193	15880
840.33	15979
840.467	15972
840.604	16059
840.742	16143
840.879	15842
841.016	15850
841.153	15759
841.29	16044
841.427	15926
841.564	15884
841.701	15941
841.838	15956
841.975	15736
842.112	15793
842.249	15732
842.385	15641
842.522	15926
842.659	15656
842.796	15603
842.933	15675
843.069	15606
843.206	15690
843.343	15728
843.479	15823
843.616	15739
843.752	15523
843.889	15526
844.025	15694
844.162	15450
844.298	15606
844.435	15496
844.571	15450
844.708	15473
844.844	15682
844.98	15675
845.117	15587
845.253	15428
845.389	15393
845.525	15374
845.661	15378
845.798	15279
845.934	15374
846.07	15165
846.206	15397
846.342	15378
846.478	15329
846.614	15089
846.75	14971
846.886	15116
847.022	15161
847.158	15039
847.294	15062
847.429	15104
847.565	15100
847.701	15313
847.837	14792
847.972	14716
848.108	14971
848.244	14857
848.379	14693
848.515	14667
848.65	14598
848.786	14682
848.921	14693
849.057	14727
849.192	14648
849.328	14758
849.463	14708
849.598	14537
849.734	14602
849.869	14526
850.004	14427
850.14	14450
850.275	14457
850.41	14313
850.545	14278
850.68	14461
850.815	14434
850.95	14393
851.085	14571
851.22	14438
851.355	14423
851.49	14377
851.625	14336
851.76	14355
851.895	14324
852.03	14362
852.165	14427
852.299	14465
852.434	14419
852.569	14503
852.703	14412
852.838	14514
852.973	14552
853.107	14579
853.242	14267
853.376	14252
853.511	14233
853.645	14336
853.78	14423
853.914	14336
854.048	14221
854.183	14339
854.317	14195
854.451	14492
854.585	14263
854.72	14229
854.854	14320
854.988	14187
855.122	14275
855.256	14111
855.39	14176
855.524	14412
855.658	14317
855.792	14438
855.926	14286
856.06	14317
856.194	14385
856.327	14301
856.461	14214
856.595	14309
856.729	14332
856.862	14385
856.996	14351
857.13	14351
857.263	14461
857.397	14438
857.53	14237
857.664	14343
857.797	14362
857.931	14366
858.064	14320
858.197	14393
858.331	14305
858.464	14328
858.597	14218
858.731	14282
858.864	14278
858.997	14229
859.13	14336
859.263	14355
859.396	14332
859.529	14271
859.662	14309
859.795	14233
859.928	14252
860.061	14358
860.194	14442
860.327	14370
860.46	14320
860.592	14442
860.725	14324
860.858	14408
860.99	14294
861.123	14218
861.256	14267
861.388	14237
861.521	14826
861.653	14134
861.786	14123
861.918	14020
862.05	14206
862.183	14130
862.315	14244
862.447	14366
862.58	14221
862.712	14012
862.844	13978
862.976	14130
863.108	14195
863.24	14469
863.372	14001
863.504	14046
863.636	13986
863.768	14092
863.9	14107
864.032	13997
864.164	14012
864.296	14123
864.428	14123
864.559	14149
864.691	14161
864.823	14088
864.954	14123
865.086	14164
865.217	14024
865.349	13967
865.48	14008
865.612	14096
865.743	14214
865.875	14084
866.006	14031
866.137	14020
866.269	14100
866.4	14088
866.531	13944
866.662	13883
866.793	14012
866.924	13932
867.055	14024
867.186	14027
867.317	14043
867.448	13967
867.579	14024
867.71	13868
867.841	14008
867.972	14035
868.103	13989
868.233	14130
868.364	14069
868.495	14100
868.625	14332
868.756	14374
868.886	14206
869.017	14389
869.147	14442
869.278	14393
869.408	14355
869.539	14267
869.669	14355
869.799	14320
869.929	14385
870.06	14343
870.19	14678
870.32	14636
870.45	14613
870.58	14758
870.71	14750
870.84	14785
870.97	14632
871.1	14682
871.23	14891
871.36	14845
871.489	14674
871.619	14834
871.749	14956
871.879	14914
872.008	14967
872.138	14849
872.267	14746
872.397	14762
872.526	14674
872.656	14636
872.785	14762
872.915	14853
873.044	14979
873.173	14914
873.303	15028
873.432	14910
873.561	15043
873.69	14838
873.819	14963
873.948	15009
874.077	15020
874.206	14876
874.335	14944
874.464	15142
874.593	15135
874.722	15173
874.851	15291
874.979	15279
875.108	15336
875.237	15260
875.365	15112
875.494	15233
875.623	15332
875.751	15123
875.88	15317
876.008	15378
876.136	15469
876.265	15720
876.393	15774
876.521	15705
876.65	15762
876.778	15778
876.906	15667
877.034	15625
877.162	15751
877.29	15701
877.418	15705
877.546	15717
877.674	15663
877.802	15576
877.93	15633
878.058	15618
878.185	15587
878.313	15622
878.441	15652
878.568	15515
878.696	15610
878.824	15679
878.951	15644
879.079	15797
879.206	15949
879.333	15854
879.461	15709
879.588	15717
879.715	15800
879.842	15945
879.97	15743
880.097	15485
880.224	15523
880.351	15526
880.478	15591
880.605	15564
880.732	15485
880.859	15625
880.986	15576
881.112	15530
881.239	15439
881.366	15325
881.493	15184
881.619	15180
881.746	15222
881.872	15032
881.999	15237
882.125	15127
882.252	15241
882.378	15100
882.505	15302
882.631	15123
882.757	15017
882.883	15039
883.01	14952
883.136	14937
883.262	14800
883.388	14788
883.514	15009
883.64	14982
883.766	14982
883.892	14807
884.018	14823
884.143	14979
884.269	15032
884.395	14739
884.52	14655
884.646	14693
884.772	14701
884.897	14568
885.023	14735
885.148	14765
885.274	14804
885.399	14750
885.524	14670
885.65	14773
885.775	14689
885.9	14701
886.025	14834
886.15	14731
886.275	14640
886.4	14537
886.525	14724
886.65	14689
886.775	14541
886.9	14880
887.025	14952
887.149	14716
887.274	14465
887.399	14499
887.523	14469
887.648	14431
887.773	14404
887.897	14606
888.021	14560
888.146	14518
888.27	14644
888.395	14678
888.519	14518
888.643	14556
888.767	14606
888.891	14552
889.015	14381
889.139	14480
889.263	14332
889.387	14499
889.511	14537
889.635	14427
889.759	14313
889.883	14317
890.006	14396
890.13	14564
890.254	14248
890.377	14358
890.501	14210
890.624	14180
890.748	14195
890.871	14115
890.995	14020
891.118	13974
891.241	14100
891.364	14016
891.488	14138
891.611	14058
891.734	14058
891.857	14092
891.98	14058
892.103	14100
892.226	14111
892.349	14012
892.471	13944
892.594	14005
892.717	14050
892.839	14024
892.962	14039
893.085	14210
893.207	14046
893.33	13947
893.452	14054
893.575	14111
893.697	14084
893.819	14191
893.941	14267
894.064	14313
894.186	14069
894.308	14077
894.43	14199
894.552	14301
894.674	14278
894.796	14092
894.918	14119
895.04	14062
895.161	14248
895.283	14199
895.405	14100
895.526	14210
895.648	14134
895.769	14275
895.891	14317
896.012	14256
896.134	14290
896.255	14248
896.376	14218
896.498	14191
896.619	14278
896.74	14267
896.861	14351
896.982	14636
897.103	14724
897.224	14503
897.345	14503
897.466	14488
897.587	14514
897.708	14648
897.828	14587
897.949	14556
898.07	14446
898.19	14499
898.311	14689
898.431	14488
898.552	14602
898.672	14689
898.792	14743
898.913	14663
899.033	14579
899.153	14507
899.273	14404
899.393	14480
899.513	14522
899.633	14552
899.753	14518
899.873	14522
899.993	14522
900.113	14465
900.232	14511
900.352	14450
900.472	14366
900.591	14339
900.711	14476
900.83	14317
900.95	14400
901.069	14412
901.189	14339
901.308	14157
901.427	13936
901.546	14096
901.665	14103
901.784	14145
901.904	13913
902.023	13814
902.141	13696
902.26	13670
902.379	13742
902.498	13609
902.617	13510
902.735	13636
902.854	13567
902.973	13537
903.091	13400
903.21	13308
903.328	13324
903.446	13308
903.565	13202
903.683	13236
903.801	13034
903.919	13179
904.038	13244
904.156	13000
904.274	13076
904.392	12913
904.51	12962
904.627	12966
904.745	13061
904.863	13038
904.981	12909
905.098	12715
905.216	12669
905.334	12745
905.451	12673
905.569	12688
905.686	12726
905.803	12722
905.921	12513
906.038	12627
906.155	12467
906.272	12414
906.389	12471
906.506	12369
906.623	12365
906.74	12239
906.857	12197
906.974	12186
907.091	12319
907.208	12380
907.324	12342
907.441	12273
907.557	12049
907.674	12072
907.79	11984
907.907	11954
908.023	12030
908.139	11904
908.256	11973
908.372	12011
908.488	11920
908.604	11790
908.72	11752
908.836	11809
908.952	11699
909.068	11882
909.184	11908
909.3	11775
909.415	11866
909.531	11802
909.647	11581
909.762	11604
909.878	11448
909.993	11581
910.108	11600
910.224	11547
910.339	11585
910.454	11425
910.57	11356
910.685	11307
910.8	11699
910.915	11581
911.03	11402
911.145	11284
911.259	11204
911.374	11235
911.489	11162
911.604	11208
911.718	11029
911.833	11041
911.947	10938
912.062	10877
912.176	10987
912.291	10972
912.405	11033
912.519	11197
912.633	11250
912.748	11041
912.862	11045
912.976	10816
913.09	10801
913.204	10858
913.318	10927
913.431	10991
913.545	10965
913.659	10976
913.772	10885
913.886	10820
914	10782
914.113	10847
914.226	10824
914.34	10869
914.453	10649
914.566	10858
914.68	10687
914.793	10740
914.906	10542
915.019	10474
915.132	10447
915.245	10424
915.358	10561
915.47	10462
915.583	10546
915.696	10527
915.809	10649
915.921	10679
916.034	10485
916.146	10375
916.259	10459
916.371	10523
916.483	10500
916.595	10337
916.708	10424
916.82	10481
916.932	10443
917.044	10386
917.156	10371
917.268	10238
917.38	10398
917.491	10333
917.603	10360
917.715	10481
917.826	10398
917.938	10394
918.049	10265
918.161	10303
918.272	10478
918.384	10443
918.495	10284
918.606	10223
918.717	10177
918.828	10207
918.939	10295
919.05	10097
919.161	10207
919.272	10006
919.383	10090
919.494	10287
919.604	10504
919.715	10242
919.826	10185
919.936	10196
920.047	10318
920.157	10284
920.267	10409
920.378	10253
920.488	10219
920.598	10455
920.708	10618
920.818	10478
920.928	10379
921.038	10580
921.148	10500
921.258	10291
921.368	10215
921.477	10177
921.587	10093
921.697	10006
921.806	10059
921.916	10017
922.025	9873
922.134	9793
922.244	9755
922.353	9850
922.462	9648
922.571	9526
922.68	9545
922.789	9542
922.898	9511
923.007	9454
923.116	9526
923.224	9561
923.333	9431
923.442	9367
923.55	9363
923.659	9424
923.767	9466
923.876	9279
923.984	9393
924.092	9287
924.201	9298
924.309	9439
924.417	9389
924.525	9348
924.633	9359
924.741	10268
924.849	9138
924.956	9283
925.064	9154
925.172	9123
925.279	9097
925.387	9211
925.494	9116
925.602	9336
925.709	9203
925.816	9043
925.924	9195
926.031	9272
926.138	9173
926.245	9192
926.352	9039
926.459	9222
926.566	9298
926.673	9146
926.779	9020
926.886	8963
926.993	8910
927.099	8925
927.206	8849
927.312	8845
927.419	8895
927.525	8857
927.631	8971
927.737	8788
927.843	8754
927.95	8636
928.056	8750
928.162	8777
928.267	8857
928.373	9477
928.479	8880
928.585	8621
928.69	8804
928.796	8845
928.901	8667
929.007	8587
929.112	8743
929.218	8644
929.323	8636
929.428	8560
929.533	8727
929.638	8522
929.743	8571
929.848	8606
929.953	8587
930.058	8488
930.163	8408
930.267	8339
930.372	8533
930.477	8328
930.581	8590
930.685	8393
930.79	8309
930.894	8298
930.998	8275
931.103	8480
931.207	8069
931.311	8046
931.415	7982
931.519	7852
931.623	7761
