Data from test_V78500241_1900.txt Node
Date: Fri Mar 25 14:46:56 CST 2022
User: usil
Spectrometer: V785-0024
Trigger mode: 0
Integration Time (sec): 4.000000E-1
Scans to average: 1
Nonlinearity correction enabled: false
Boxcar width: 0
Storing dark spectrum: false
XAxis mode: Wavelengths
Number of Pixels in Spectrum: 1024
>>>>>Begin Spectral Data<<<<<
801.071	22124
801.214	21880
801.356	21816
801.499	21751
801.641	21431
801.783	21553
801.926	21568
802.068	21405
802.211	21386
802.353	21192
802.496	21135
802.638	20921
802.78	21066
802.923	20914
803.065	20815
803.208	20743
803.35	20712
803.492	20960
803.635	20960
803.777	20762
803.919	20868
804.061	21226
804.204	20872
804.346	20800
804.488	20788
804.63	20902
804.773	20777
804.915	20834
805.057	20883
805.199	20686
805.341	20750
805.483	20918
805.626	20788
805.768	20720
805.91	20811
806.052	20842
806.194	20674
806.336	20944
806.478	20693
806.62	20701
806.762	20708
806.904	20944
807.046	21146
807.188	21070
807.33	21142
807.472	21089
807.614	20948
807.756	20990
807.898	20861
808.04	20746
808.182	20796
808.324	20952
808.465	20868
808.607	21005
808.749	21108
808.891	21283
809.033	21287
809.174	21066
809.316	21051
809.458	21222
809.6	21036
809.741	21154
809.883	21188
810.025	21279
810.166	21230
810.308	21252
810.45	21195
810.591	21127
810.733	21001
810.875	20986
811.016	20815
811.158	20804
811.299	21013
811.441	21017
811.582	20967
811.724	20944
811.865	20899
812.007	20948
812.148	20853
812.29	20944
812.431	20925
812.573	21230
812.714	21195
812.855	21443
812.997	21523
813.138	21686
813.279	21450
813.421	21405
813.562	21321
813.703	21093
813.845	21085
813.986	20735
814.127	20602
814.268	20374
814.41	20400
814.551	20381
814.692	20400
814.833	20374
814.974	20286
815.115	20480
815.256	20286
815.397	20282
815.539	20248
815.68	20130
815.821	20058
815.962	20286
816.103	20065
816.244	20077
816.385	19932
816.526	19906
816.666	19696
816.807	19457
816.948	19662
817.089	19765
817.23	19483
817.371	19677
817.512	19521
817.653	19491
817.793	19525
817.934	19647
818.075	19521
818.216	19571
818.356	19491
818.497	19266
818.638	19202
818.778	19209
818.919	19278
819.06	19377
819.2	19327
819.341	19301
819.481	19480
819.622	19518
819.762	19772
819.903	19807
820.043	19521
820.184	19518
820.324	19514
820.465	19628
820.605	19586
820.746	19445
820.886	19331
821.026	19609
821.167	19483
821.307	19514
821.447	19559
821.588	19403
821.728	19251
821.868	19038
822.008	18878
822.149	18916
822.289	19034
822.429	18665
822.569	18589
822.709	18631
822.849	18559
822.99	18506
823.13	18410
823.27	18350
823.41	18296
823.55	18178
823.69	18251
823.83	18247
823.97	18159
824.11	18041
824.25	17882
824.389	18072
824.529	18125
824.669	18034
824.809	18121
824.949	18026
825.089	18076
825.228	17988
825.368	17859
825.508	17878
825.648	17889
825.787	17897
825.927	17885
826.067	17764
826.206	17851
826.346	17783
826.485	17809
826.625	17729
826.765	17935
826.904	17786
827.044	17619
827.183	17596
827.323	17554
827.462	17528
827.601	17444
827.741	17440
827.88	17528
828.02	17383
828.159	17512
828.298	17535
828.437	17478
828.577	17368
828.716	17665
828.855	17474
828.994	17277
829.134	17181
829.273	17273
829.412	17208
829.551	17220
829.69	17261
829.829	17436
829.968	17364
830.107	17349
830.246	17216
830.385	17056
830.524	17170
830.663	17045
830.802	17022
830.941	16889
831.08	16885
831.219	16961
831.357	16908
831.496	17083
831.635	16854
831.774	16774
831.913	16831
832.051	16660
832.19	16588
832.329	16683
832.467	16565
832.606	16470
832.744	16637
832.883	16558
833.022	16527
833.16	16592
833.299	16546
833.437	16634
833.576	16554
833.714	16611
833.852	16637
833.991	16584
834.129	16664
834.267	16710
834.406	16675
834.544	16668
834.682	16573
834.821	16592
834.959	16896
835.097	16599
835.235	16736
835.373	16759
835.511	16656
835.65	16531
835.788	16580
835.926	16436
836.064	16276
836.202	16322
836.34	16656
836.478	16653
836.615	16538
836.753	16592
836.891	16615
837.029	16493
837.167	16405
837.305	16405
837.443	16390
837.58	16379
837.718	16432
837.856	16417
837.993	16402
838.131	16348
838.269	16306
838.406	16470
838.544	16246
838.681	16219
838.819	16188
838.956	15975
839.094	15915
839.231	16017
839.369	16071
839.506	16459
839.643	16207
839.781	15964
839.918	15945
840.055	15972
840.193	15926
840.33	16021
840.467	15956
840.604	15934
840.742	16226
840.879	15819
841.016	15941
841.153	15899
841.29	16120
841.427	15964
841.564	16109
841.701	15983
841.838	15888
841.975	15850
842.112	15865
842.249	15884
842.385	15709
842.522	15892
842.659	15774
842.796	15698
842.933	15701
843.069	15770
843.206	15705
843.343	15831
843.479	15785
843.616	15766
843.752	15572
843.889	15492
844.025	15629
844.162	15469
844.298	15652
844.435	15660
844.571	15473
844.708	15568
844.844	15663
844.98	15663
845.117	15614
845.253	15526
845.389	15374
845.525	15401
845.661	15561
845.798	15382
845.934	15454
846.07	15378
846.206	15264
846.342	15428
846.478	15378
846.614	15108
846.75	15093
846.886	15039
847.022	15192
847.158	15169
847.294	15093
847.429	15157
847.565	15157
847.701	15408
847.837	14842
847.972	14842
848.108	14853
848.244	14838
848.379	14697
848.515	14708
848.65	14667
848.786	14682
848.921	14765
849.057	14796
849.192	14773
849.328	14769
849.463	14735
849.598	14701
849.734	14648
849.869	14579
850.004	14522
850.14	14560
850.275	14438
850.41	14366
850.545	14408
850.68	14450
850.815	14457
850.95	14450
851.085	14644
851.22	14514
851.355	14549
851.49	14381
851.625	14358
851.76	14434
851.895	14366
852.03	14347
852.165	14446
852.299	14434
852.434	14415
852.569	14602
852.703	14511
852.838	14503
852.973	14617
853.107	14571
853.242	14408
853.376	14278
853.511	14176
853.645	14263
853.78	14412
853.914	14343
854.048	14282
854.183	14362
854.317	14358
854.451	14537
854.585	14298
854.72	14343
854.854	14358
854.988	14206
855.122	14324
855.256	14267
855.39	14298
855.524	14484
855.658	14298
855.792	14404
855.926	14366
856.06	14434
856.194	14499
856.327	14332
856.461	14332
856.595	14271
856.729	14263
856.862	14389
856.996	14332
857.13	14355
857.263	14431
857.397	14419
857.53	14343
857.664	14320
857.797	14484
857.931	14514
858.064	14507
858.197	14457
858.331	14309
858.464	14332
858.597	14256
858.731	14389
858.864	14362
858.997	14301
859.13	14339
859.263	14370
859.396	14465
859.529	14332
859.662	14324
859.795	14404
859.928	14286
860.061	14556
860.194	14533
860.327	14446
860.46	14282
860.592	14545
860.725	14465
860.858	14495
860.99	14362
861.123	14294
861.256	14328
861.388	14454
861.521	15081
861.653	14256
861.786	14180
861.918	14206
862.05	14275
862.183	14278
862.315	14301
862.447	14400
862.58	14366
862.712	14039
862.844	14119
862.976	14199
863.108	14229
863.24	14549
863.372	14062
863.504	14115
863.636	14164
863.768	14126
863.9	14100
864.032	14027
864.164	14081
864.296	14202
864.428	14290
864.559	14210
864.691	14214
864.823	14161
864.954	14119
865.086	14142
865.217	14183
865.349	14081
865.48	14046
865.612	14077
865.743	14142
865.875	14077
866.006	14027
866.137	14081
866.269	14161
866.4	14096
866.531	14092
866.662	14024
866.793	14096
866.924	14081
867.055	14138
867.186	14161
867.317	14001
867.448	14058
867.579	14073
867.71	13993
867.841	14031
867.972	14050
868.103	14119
868.233	14115
868.364	14123
868.495	14130
868.625	14355
868.756	14480
868.886	14237
869.017	14366
869.147	14503
869.278	14503
869.408	14332
869.539	14393
869.669	14476
869.799	14343
869.929	14461
870.06	14503
870.19	14659
870.32	14632
870.45	14689
870.58	14785
870.71	14880
870.84	14899
870.97	14670
871.1	14693
871.23	14925
871.36	14979
871.489	14933
871.619	14941
871.749	14899
871.879	15058
872.008	15119
872.138	14902
872.267	14956
872.397	14861
872.526	14705
872.656	14845
872.785	14731
872.915	14918
873.044	15093
873.173	14937
873.303	15013
873.432	15039
873.561	15066
873.69	14967
873.819	14891
873.948	15081
874.077	14994
874.206	14960
874.335	15013
874.464	15047
874.593	15291
874.722	15203
874.851	15279
874.979	15397
875.108	15420
875.237	15291
875.365	15241
875.494	15252
875.623	15359
875.751	15310
875.88	15351
876.008	15389
876.136	15576
876.265	15808
876.393	15835
876.521	15850
876.65	15778
876.778	15857
876.906	15736
877.034	15720
877.162	15720
877.29	15660
877.418	15690
877.546	15781
877.674	15747
877.802	15766
877.93	15610
878.058	15625
878.185	15580
878.313	15644
878.441	15717
878.568	15526
878.696	15682
878.824	15743
878.951	15895
879.079	15907
879.206	15987
879.333	15964
879.461	15804
879.588	15831
879.715	15903
879.842	16006
879.97	15816
880.097	15614
880.224	15599
880.351	15557
880.478	15629
880.605	15656
880.732	15545
880.859	15800
880.986	15553
881.112	15663
881.239	15526
881.366	15351
881.493	15268
881.619	15291
881.746	15294
881.872	15218
881.999	15260
882.125	15176
882.252	15374
882.378	15283
882.505	15462
882.631	15093
882.757	14998
882.883	15005
883.01	15093
883.136	15039
883.262	14952
883.388	14937
883.514	15093
883.64	15047
883.766	14986
883.892	14910
884.018	14910
884.143	14971
884.269	15123
884.395	14899
884.52	14777
884.646	14762
884.772	14731
884.897	14777
885.023	14796
885.148	14849
885.274	14883
885.399	14887
885.524	14781
885.65	14830
885.775	14853
885.9	14724
886.025	14853
886.15	14773
886.275	14754
886.4	14594
886.525	14659
886.65	14739
886.775	14579
886.9	14979
887.025	14994
887.149	14663
887.274	14533
887.399	14602
887.523	14625
887.648	14545
887.773	14514
887.897	14613
888.021	14708
888.146	14674
888.27	14632
888.395	14689
888.519	14651
888.643	14682
888.767	14659
888.891	14571
889.015	14533
889.139	14560
889.263	14438
889.387	14488
889.511	14769
889.635	14568
889.759	14393
889.883	14511
890.006	14537
890.13	14598
890.254	14381
890.377	14332
890.501	14275
890.624	14256
890.748	14351
890.871	14229
890.995	14138
891.118	14126
891.241	14221
891.364	14142
891.488	14237
891.611	14088
891.734	14119
891.857	14237
891.98	14119
892.103	14233
892.226	14164
892.349	14123
892.471	13970
892.594	14081
892.717	14119
892.839	14183
892.962	14214
893.085	14210
893.207	14123
893.33	13986
893.452	14107
893.575	14161
893.697	14092
893.819	14377
893.941	14393
894.064	14320
894.186	14100
894.308	14054
894.43	14252
894.552	14400
894.674	14286
894.796	14130
894.918	14240
895.04	14157
895.161	14298
895.283	14210
895.405	14149
895.526	14313
895.648	14313
895.769	14248
895.891	14298
896.012	14377
896.134	14294
896.255	14271
896.376	14301
896.498	14358
896.619	14370
896.74	14343
896.861	14351
896.982	14670
897.103	14872
897.224	14667
897.345	14564
897.466	14503
897.587	14587
897.708	14651
897.828	14644
897.949	14461
898.07	14446
898.19	14571
898.311	14765
898.431	14701
898.552	14670
898.672	14674
898.792	14746
898.913	14602
899.033	14541
899.153	14598
899.273	14446
899.393	14446
899.513	14514
899.633	14575
899.753	14484
899.873	14507
899.993	14640
900.113	14465
900.232	14533
900.352	14507
900.472	14412
900.591	14355
900.711	14385
900.83	14385
900.95	14404
901.069	14526
901.189	14206
901.308	14202
901.427	13978
901.546	14020
901.665	14119
901.784	14100
901.904	13925
902.023	13811
902.141	13674
902.26	13613
902.379	13677
902.498	13594
902.617	13552
902.735	13655
902.854	13693
902.973	13605
903.091	13236
903.21	13312
903.328	13384
903.446	13365
903.565	13202
903.683	13228
903.801	13072
903.919	13156
904.038	13164
904.156	12913
904.274	13038
904.392	13008
904.51	13004
904.627	13088
904.745	13031
904.863	13053
904.981	12825
905.098	12639
905.216	12772
905.334	12715
905.451	12829
905.569	12738
905.686	12741
905.803	12639
905.921	12509
906.038	12631
906.155	12475
906.272	12437
906.389	12426
906.506	12296
906.623	12292
906.74	12281
906.857	12155
906.974	12186
907.091	12403
907.208	12460
907.324	12437
907.441	12232
907.557	12064
907.674	12072
907.79	11980
907.907	11935
908.023	12079
908.139	12041
908.256	11950
908.372	11927
908.488	11958
908.604	11847
908.72	11824
908.836	11805
908.952	11783
909.068	11828
909.184	11840
909.3	11783
909.415	11874
909.531	11798
909.647	11634
909.762	11535
909.878	11573
909.993	11558
910.108	11558
910.224	11585
910.339	11562
910.454	11444
910.57	11482
910.685	11345
910.8	11619
910.915	11619
911.03	11452
911.145	11292
911.259	11223
911.374	11288
911.489	11166
911.604	11197
911.718	11048
911.833	11094
911.947	10915
912.062	10923
912.176	10961
912.291	11083
912.405	11041
912.519	11197
912.633	11212
912.748	11037
912.862	11056
912.976	10908
913.09	10793
913.204	10835
913.318	10965
913.431	10892
913.545	10949
913.659	10949
913.772	10961
913.886	10759
914	10752
914.113	10927
914.226	10953
914.34	10866
914.453	10637
914.566	10835
914.68	10725
914.793	10820
914.906	10561
915.019	10432
915.132	10436
915.245	10535
915.358	10531
915.47	10531
915.583	10535
915.696	10592
915.809	10687
915.921	10683
916.034	10512
916.146	10535
916.259	10451
916.371	10615
916.483	10527
916.595	10508
916.708	10379
916.82	10455
916.932	10386
917.044	10474
917.156	10356
917.268	10352
917.38	10417
917.491	10390
917.603	10413
917.715	10390
917.826	10394
917.938	10341
918.049	10268
918.161	10394
918.272	10447
918.384	10497
918.495	10344
918.606	10230
918.717	10162
918.828	10291
918.939	10306
919.05	10204
919.161	10223
919.272	10040
919.383	10177
919.494	10344
919.604	10535
919.715	10242
919.826	10055
919.936	10177
920.047	10318
920.157	10242
920.267	10481
920.378	10265
920.488	10310
920.598	10432
920.708	10660
920.818	10512
920.928	10542
921.038	10637
921.148	10630
921.258	10299
921.368	10265
921.477	10131
921.587	10109
921.697	9987
921.806	10181
921.916	10036
922.025	9812
922.134	9823
922.244	9785
922.353	9800
922.462	9663
922.571	9629
922.68	9511
922.789	9447
922.898	9526
923.007	9412
923.116	9526
923.224	9469
923.333	9416
923.442	9443
923.55	9348
923.659	9291
923.767	9431
923.876	9332
923.984	9420
924.092	9302
924.201	9443
924.309	9329
924.417	9306
924.525	9264
924.633	9397
924.741	10318
924.849	9176
924.956	9310
925.064	9184
925.172	9055
925.279	9074
925.387	9097
925.494	9146
925.602	9310
925.709	9176
925.816	9100
925.924	9135
926.031	9310
926.138	9195
926.245	9222
926.352	8990
926.459	9195
926.566	9245
926.673	9135
926.779	8998
926.886	8948
926.993	8956
927.099	8925
927.206	8876
927.312	8853
927.419	8899
927.525	8891
927.631	8883
927.737	8773
927.843	8762
927.95	8610
928.056	8724
928.162	8758
928.267	8804
928.373	9332
928.479	8895
928.585	8610
928.69	8724
928.796	8804
928.901	8670
929.007	8571
929.112	8617
929.218	8629
929.323	8579
929.428	8579
929.533	8781
929.638	8507
929.743	8549
929.848	8530
929.953	8610
930.058	8533
930.163	8404
930.267	8366
930.372	8488
930.477	8400
930.581	8568
930.685	8404
930.79	8332
930.894	8263
930.998	8305
931.103	8404
931.207	8138
931.311	7989
931.415	7963
931.519	7792
931.623	7738
