Data from test_V78500241_3595.txt Node
Date: Fri Mar 25 14:58:45 CST 2022
User: usil
Spectrometer: V785-0024
Trigger mode: 0
Integration Time (sec): 4.000000E-1
Scans to average: 1
Nonlinearity correction enabled: false
Boxcar width: 0
Storing dark spectrum: false
XAxis mode: Wavelengths
Number of Pixels in Spectrum: 1024
>>>>>Begin Spectral Data<<<<<
801.071	21899
801.214	21690
801.356	21648
801.499	21428
801.641	21473
801.783	21317
801.926	21214
802.068	21283
802.211	21188
802.353	21085
802.496	20906
802.638	20887
802.78	20754
802.923	20720
803.065	20579
803.208	20552
803.35	20693
803.492	20758
803.635	20823
803.777	20602
803.919	20617
804.061	21055
804.204	20712
804.346	20522
804.488	20484
804.63	20727
804.773	20362
804.915	20495
805.057	20434
805.199	20465
805.341	20518
805.483	20526
805.626	20499
805.768	20560
805.91	20549
806.052	20511
806.194	20434
806.336	20758
806.478	20617
806.62	20438
806.762	20495
806.904	20769
807.046	20979
807.188	20948
807.33	20815
807.472	20883
807.614	20765
807.756	20701
807.898	20609
808.04	20533
808.182	20499
808.324	20552
808.465	20617
808.607	20765
808.749	20842
808.891	20986
809.033	20941
809.174	20960
809.316	20739
809.458	20845
809.6	20773
809.741	20845
809.883	20933
810.025	21020
810.166	21017
810.308	21028
810.45	21039
810.591	20739
810.733	20590
810.875	20678
811.016	20545
811.158	20533
811.299	20670
811.441	20746
811.582	20746
811.724	20697
811.865	20503
812.007	20552
812.148	20568
812.29	20629
812.431	20712
812.573	20933
812.714	21039
812.855	21058
812.997	21089
813.138	21268
813.279	21142
813.421	21173
813.562	21001
813.703	20834
813.845	20735
813.986	20408
814.127	20267
814.268	20149
814.41	20202
814.551	20077
814.692	20172
814.833	20138
814.974	20122
815.115	20161
815.256	20054
815.397	20073
815.539	20054
815.68	19928
815.821	19925
815.962	19993
816.103	19852
816.244	19772
816.385	19639
816.526	19746
816.666	19575
816.807	19453
816.948	19301
817.089	19457
817.23	19270
817.371	19240
817.512	19236
817.653	19236
817.793	19247
817.934	19327
818.075	19152
818.216	19388
818.356	19339
818.497	19232
818.638	18981
818.778	18989
818.919	19023
819.06	19012
819.2	19076
819.341	19137
819.481	19282
819.622	19244
819.762	19438
819.903	19369
820.043	19449
820.184	19293
820.324	19190
820.465	19278
820.605	19278
820.746	19198
820.886	19057
821.026	19240
821.167	19183
821.307	19263
821.447	19206
821.588	19042
821.728	18897
821.868	18837
822.008	18696
822.149	18738
822.289	18722
822.429	18422
822.569	18380
822.709	18380
822.849	18224
822.99	18133
823.13	18174
823.27	18167
823.41	17984
823.55	17893
823.69	17992
823.83	18015
823.97	17950
824.11	17783
824.25	17726
824.389	17748
824.529	17802
824.669	17714
824.809	17802
824.949	17802
825.089	17885
825.228	17764
825.368	17463
825.508	17592
825.648	17604
825.787	17520
825.927	17646
826.067	17558
826.206	17539
826.346	17535
826.485	17535
826.625	17535
826.765	17543
826.904	17554
827.044	17197
827.183	17341
827.323	17223
827.462	17299
827.601	17117
827.741	17250
827.88	17239
828.02	17064
828.159	17155
828.298	17288
828.437	17265
828.577	17200
828.716	17349
828.855	17288
828.994	16957
829.134	16961
829.273	17014
829.412	16919
829.551	16869
829.69	16900
829.829	17014
829.968	17003
830.107	17029
830.246	17025
830.385	16957
830.524	16892
830.663	16828
830.802	16672
830.941	16565
831.08	16538
831.219	16740
831.357	16641
831.496	16755
831.635	16504
831.774	16542
831.913	16500
832.051	16394
832.19	16402
832.329	16409
832.467	16188
832.606	16223
832.744	16230
832.883	16310
833.022	16097
833.16	16322
833.299	16303
833.437	16284
833.576	16318
833.714	16268
833.852	16348
833.991	16440
834.129	16470
834.267	16436
834.406	16390
834.544	16462
834.682	16322
834.821	16325
834.959	16462
835.097	16280
835.235	16428
835.373	16421
835.511	16459
835.65	16360
835.788	16360
835.926	16215
836.064	16101
836.202	16044
836.34	16223
836.478	16291
836.615	16253
836.753	16371
836.891	16394
837.029	16299
837.167	16268
837.305	16124
837.443	16139
837.58	16071
837.718	16230
837.856	16226
837.993	16086
838.131	16177
838.269	16048
838.406	16101
838.544	16090
838.681	15915
838.819	15892
838.956	15736
839.094	15682
839.231	15766
839.369	15926
839.506	16071
839.643	15934
839.781	15614
839.918	15701
840.055	15728
840.193	15713
840.33	15690
840.467	15759
840.604	15679
840.742	15991
840.879	15686
841.016	15561
841.153	15572
841.29	15827
841.427	15736
841.564	15846
841.701	15652
841.838	15720
841.975	15587
842.112	15679
842.249	15553
842.385	15466
842.522	15587
842.659	15587
842.796	15542
842.933	15481
843.069	15454
843.206	15481
843.343	15656
843.479	15561
843.616	15488
843.752	15291
843.889	15298
844.025	15393
844.162	15313
844.298	15443
844.435	15195
844.571	15279
844.708	15241
844.844	15519
844.98	15397
845.117	15348
845.253	15329
845.389	15176
845.525	15298
845.661	15173
845.798	15028
845.934	15154
846.07	15108
846.206	15230
846.342	15222
846.478	15123
846.614	14910
846.75	14834
846.886	14952
847.022	14990
847.158	14887
847.294	14929
847.429	14887
847.565	14819
847.701	15017
847.837	14625
847.972	14488
848.108	14758
848.244	14587
848.379	14564
848.515	14571
848.65	14473
848.786	14454
848.921	14446
849.057	14602
849.192	14556
849.328	14507
849.463	14446
849.598	14419
849.734	14370
849.869	14332
850.004	14259
850.14	14252
850.275	14336
850.41	14073
850.545	14225
850.68	14381
850.815	14195
850.95	14259
851.085	14389
851.22	14370
851.355	14290
851.49	14096
851.625	14123
851.76	14107
851.895	14225
852.03	14138
852.165	14237
852.299	14202
852.434	14240
852.569	14248
852.703	14233
852.838	14259
852.973	14385
853.107	14275
853.242	14161
853.376	14111
853.511	13947
853.645	14062
853.78	14214
853.914	14088
854.048	14069
854.183	14069
854.317	14153
854.451	14275
854.585	14016
854.72	14020
854.854	14145
854.988	14020
855.122	14027
855.256	13951
855.39	14031
855.524	14229
855.658	14199
855.792	14081
855.926	14180
856.06	14202
856.194	14214
856.327	14012
856.461	14069
856.595	14050
856.729	14043
856.862	14161
856.996	14168
857.13	14153
857.263	14240
857.397	14298
857.53	14138
857.664	14130
857.797	14199
857.931	14218
858.064	14111
858.197	14153
858.331	14130
858.464	14065
858.597	14043
858.731	14149
858.864	14092
858.997	14024
859.13	14138
859.263	14164
859.396	14161
859.529	14142
859.662	14084
859.795	14043
859.928	14126
860.061	14362
860.194	14263
860.327	14065
860.46	14092
860.592	14218
860.725	14229
860.858	14199
860.99	14149
861.123	14031
861.256	14084
861.388	14145
861.521	14971
861.653	14020
861.786	13921
861.918	13894
862.05	14084
862.183	14020
862.315	14069
862.447	14115
862.58	14077
862.712	13898
862.844	13856
862.976	14016
863.108	13936
863.24	14161
863.372	13761
863.504	13890
863.636	13871
863.768	13890
863.9	13826
864.032	13765
864.164	13902
864.296	13830
864.428	14001
864.559	13970
864.691	13917
864.823	13928
864.954	13898
865.086	13932
865.217	13944
865.349	13757
865.48	13932
865.612	13917
865.743	14039
865.875	13864
866.006	13818
866.137	13925
866.269	13875
866.4	13807
866.531	13795
866.662	13814
866.793	13772
866.924	13807
867.055	13837
867.186	13921
867.317	13845
867.448	13826
867.579	13818
867.71	13830
867.841	13753
867.972	13894
868.103	13970
868.233	13841
868.364	13947
868.495	13902
868.625	14134
868.756	14221
868.886	14107
869.017	14046
869.147	14267
869.278	14221
869.408	14088
869.539	14088
869.669	14130
869.799	14210
869.929	14317
870.06	14107
870.19	14431
870.32	14408
870.45	14442
870.58	14469
870.71	14712
870.84	14708
870.97	14476
871.1	14480
871.23	14678
871.36	14686
871.489	14693
871.619	14674
871.749	14815
871.879	14777
872.008	14887
872.138	14720
872.267	14670
872.397	14560
872.526	14537
872.656	14590
872.785	14541
872.915	14811
873.044	14773
873.173	14804
873.303	14872
873.432	14792
873.561	15043
873.69	14826
873.819	14800
873.948	14804
874.077	14857
874.206	14796
874.335	14823
874.464	14937
874.593	15039
874.722	15039
874.851	15154
874.979	15097
875.108	15138
875.237	15131
875.365	15062
875.494	15070
875.623	15104
875.751	15074
875.88	15169
876.008	15222
876.136	15317
876.265	15542
876.393	15682
876.521	15622
876.65	15591
876.778	15534
876.906	15466
877.034	15416
877.162	15591
877.29	15576
877.418	15526
877.546	15481
877.674	15519
877.802	15610
877.93	15439
878.058	15397
878.185	15359
878.313	15545
878.441	15500
878.568	15359
878.696	15485
878.824	15549
878.951	15568
879.079	15675
879.206	15827
879.333	15641
879.461	15625
879.588	15648
879.715	15713
879.842	15808
879.97	15587
880.097	15420
880.224	15291
880.351	15367
880.478	15412
880.605	15249
880.732	15450
880.859	15663
880.986	15351
881.112	15370
881.239	15222
881.366	15161
881.493	15146
881.619	15070
881.746	15036
881.872	15039
881.999	15116
882.125	15028
882.252	15051
882.378	15051
882.505	15135
882.631	15055
882.757	14868
882.883	14895
883.01	14811
883.136	14712
883.262	14746
883.388	14617
883.514	14914
883.64	14842
883.766	14868
883.892	14697
884.018	14754
884.143	14800
884.269	14864
884.395	14667
884.52	14537
884.646	14469
884.772	14495
884.897	14499
885.023	14476
885.148	14545
885.274	14602
885.399	14735
885.524	14579
885.65	14606
885.775	14583
885.9	14568
886.025	14636
886.15	14552
886.275	14552
886.4	14495
886.525	14507
886.65	14377
886.775	14457
886.9	14651
887.025	14815
887.149	14590
887.274	14431
887.399	14313
887.523	14461
887.648	14374
887.773	14218
887.897	14499
888.021	14320
888.146	14267
888.27	14492
888.395	14507
888.519	14427
888.643	14400
888.767	14450
888.891	14381
889.015	14290
889.139	14309
889.263	14263
889.387	14282
889.511	14530
889.635	14374
889.759	14172
889.883	14199
890.006	14278
890.13	14271
890.254	14176
890.377	14237
890.501	14050
890.624	14126
890.748	14195
890.871	14058
890.995	13947
891.118	13868
891.241	14046
891.364	13982
891.488	13989
891.611	13932
891.734	13947
891.857	14073
891.98	13967
892.103	14020
892.226	14031
892.349	13963
892.471	13746
892.594	13944
892.717	13940
892.839	13925
892.962	13928
893.085	13997
893.207	13940
893.33	13803
893.452	13928
893.575	14046
893.697	13997
893.819	14062
893.941	14153
894.064	14058
894.186	13989
894.308	13868
894.43	14096
894.552	14206
894.674	14054
894.796	13887
894.918	13921
895.04	13970
895.161	14149
895.283	14050
895.405	13978
895.526	14058
895.648	14145
895.769	14088
895.891	14180
896.012	14145
896.134	14134
896.255	14138
896.376	14084
896.498	14149
896.619	14176
896.74	14172
896.861	14126
896.982	14461
897.103	14575
897.224	14465
897.345	14275
897.466	14252
897.587	14339
897.708	14465
897.828	14381
897.949	14412
898.07	14278
898.19	14385
898.311	14514
898.431	14385
898.552	14545
898.672	14549
898.792	14625
898.913	14400
899.033	14408
899.153	14282
899.273	14214
899.393	14301
899.513	14324
899.633	14320
899.753	14381
899.873	14256
899.993	14351
900.113	14259
900.232	14366
900.352	14358
900.472	14221
900.591	14195
900.711	14214
900.83	14164
900.95	14309
901.069	14259
901.189	14092
901.308	13967
901.427	13799
901.546	13788
901.665	13970
901.784	13845
901.904	13738
902.023	13628
902.141	13457
902.26	13468
902.379	13487
902.498	13335
902.617	13388
902.735	13525
902.854	13350
902.973	13445
903.091	13194
903.21	13209
903.328	13187
903.446	13084
903.565	13008
903.683	13038
903.801	12966
903.919	12989
904.038	13023
904.156	12795
904.274	12882
904.392	12856
904.51	12817
904.627	12757
904.745	12905
904.863	12871
904.981	12681
905.098	12467
905.216	12559
905.334	12593
905.451	12547
905.569	12471
905.686	12547
905.803	12448
905.921	12334
906.038	12467
906.155	12353
906.272	12216
906.389	12235
906.506	12121
906.623	12133
906.74	12068
906.857	11958
906.974	12079
907.091	12194
907.208	12296
907.324	12171
907.441	12072
907.557	11878
907.674	11889
907.79	11741
907.907	11885
908.023	11961
908.139	11882
908.256	11908
908.372	11710
908.488	11775
908.604	11703
908.72	11657
908.836	11691
908.952	11554
909.068	11707
909.184	11771
909.3	11604
909.415	11661
909.531	11661
909.647	11478
909.762	11402
909.878	11433
909.993	11395
910.108	11383
910.224	11372
910.339	11467
910.454	11296
910.57	11288
910.685	11162
910.8	11539
910.915	11425
911.03	11208
911.145	11132
911.259	11071
911.374	11143
911.489	11098
911.604	11033
911.718	10843
911.833	10915
911.947	10763
912.062	10744
912.176	10869
912.291	10908
912.405	10828
912.519	11052
912.633	11048
912.748	10900
912.862	10873
912.976	10759
913.09	10687
913.204	10710
913.318	10824
913.431	10847
913.545	10816
913.659	10839
913.772	10763
913.886	10664
914	10653
914.113	10721
914.226	10790
914.34	10759
914.453	10558
914.566	10729
914.68	10611
914.793	10569
914.906	10451
915.019	10375
915.132	10223
915.245	10424
915.358	10405
915.47	10405
915.583	10356
915.696	10443
915.809	10542
915.921	10546
916.034	10367
916.146	10356
916.259	10356
916.371	10462
916.483	10440
916.595	10268
916.708	10337
916.82	10223
916.932	10268
917.044	10325
917.156	10261
917.268	10200
917.38	10223
917.491	10211
917.603	10249
917.715	10322
917.826	10291
917.938	10200
918.049	10109
918.161	10238
918.272	10386
918.384	10348
918.495	10295
918.606	10169
918.717	10055
918.828	10097
918.939	10078
919.05	10021
919.161	10116
919.272	9888
919.383	9968
919.494	10112
919.604	10356
919.715	10200
919.826	10090
919.936	10124
920.047	10192
920.157	10150
920.267	10234
920.378	10192
920.488	10086
920.598	10295
920.708	10459
920.818	10310
920.928	10253
921.038	10466
921.148	10474
921.258	10188
921.368	10055
921.477	9949
921.587	9926
921.697	9869
921.806	9998
921.916	9907
922.025	9671
922.134	9743
922.244	9610
922.353	9705
922.462	9545
922.571	9492
922.68	9458
922.789	9325
922.898	9408
923.007	9329
923.116	9378
923.224	9370
923.333	9344
923.442	9298
923.55	9283
923.659	9214
923.767	9329
923.876	9272
923.984	9325
924.092	9203
924.201	9249
924.309	9211
924.417	9287
924.525	9169
924.633	9241
924.741	9915
924.849	8982
924.956	9192
925.064	9009
925.172	8895
925.279	8948
925.387	9051
925.494	9005
925.602	9169
925.709	9089
925.816	8979
925.924	9005
926.031	9058
926.138	8994
926.245	9043
926.352	8941
926.459	9108
926.566	9131
926.673	9051
926.779	8929
926.886	8887
926.993	8834
927.099	8777
927.206	8655
927.312	8743
927.419	8887
927.525	8743
927.631	8823
927.737	8655
927.843	8670
927.95	8556
928.056	8598
928.162	8701
928.267	8754
928.373	9329
928.479	8716
928.585	8495
928.69	8686
928.796	8625
928.901	8552
929.007	8492
929.112	8575
929.218	8571
929.323	8442
929.428	8480
929.533	8659
929.638	8450
929.743	8450
929.848	8457
929.953	8404
930.058	8355
930.163	8233
930.267	8229
930.372	8408
930.477	8275
930.581	8412
930.685	8259
930.79	8126
930.894	8301
930.998	8187
931.103	8358
931.207	7974
931.311	7902
931.415	7868
931.519	7689
931.623	7746
