Data from test_V78500241_1528.txt Node
Date: Fri Mar 25 14:44:21 CST 2022
User: usil
Spectrometer: V785-0024
Trigger mode: 0
Integration Time (sec): 4.000000E-1
Scans to average: 1
Nonlinearity correction enabled: false
Boxcar width: 0
Storing dark spectrum: false
XAxis mode: Wavelengths
Number of Pixels in Spectrum: 1024
>>>>>Begin Spectral Data<<<<<
801.071	22413
801.214	22303
801.356	22036
801.499	22082
801.641	21789
801.783	21808
801.926	21698
802.068	21690
802.211	21591
802.353	21614
802.496	21336
802.638	21272
802.78	21207
802.923	21146
803.065	21096
803.208	21146
803.35	21123
803.492	21230
803.635	21359
803.777	21085
803.919	21291
804.061	21511
804.204	21154
804.346	21062
804.488	21055
804.63	21058
804.773	20994
804.915	21005
805.057	21154
805.199	21043
805.341	21138
805.483	21127
805.626	21116
805.768	20902
805.91	20895
806.052	20979
806.194	20952
806.336	21188
806.478	21062
806.62	20982
806.762	21062
806.904	21203
807.046	21424
807.188	21439
807.33	21412
807.472	21515
807.614	21367
807.756	21351
807.898	21176
808.04	21135
808.182	21192
808.324	21241
808.465	21351
808.607	21447
808.749	21545
808.891	21717
809.033	21709
809.174	21686
809.316	21530
809.458	21488
809.6	21488
809.741	21568
809.883	21576
810.025	21614
810.166	21644
810.308	21545
810.45	21545
810.591	21389
810.733	21294
810.875	21245
811.016	21173
811.158	21108
811.299	21237
811.441	21447
811.582	21363
811.724	21298
811.865	21119
812.007	21214
812.148	21085
812.29	21310
812.431	21332
812.573	21473
812.714	21622
812.855	21648
812.997	21819
813.138	21956
813.279	21869
813.421	21736
813.562	21682
813.703	21606
813.845	21348
813.986	21100
814.127	20971
814.268	20720
814.41	20769
814.551	20807
814.692	20796
814.833	20678
814.974	20750
815.115	20765
815.256	20533
815.397	20560
815.539	20708
815.68	20434
815.821	20526
815.962	20404
816.103	20465
816.244	20244
816.385	20244
816.526	20252
816.666	20145
816.807	19887
816.948	20008
817.089	19997
817.23	19921
817.371	20050
817.512	19860
817.653	19909
817.793	19913
817.934	19887
818.075	19852
818.216	19871
818.356	19803
818.497	19769
818.638	19605
818.778	19563
818.919	19556
819.06	19712
819.2	19582
819.341	19795
819.481	19803
819.622	19833
819.762	20069
819.903	19993
820.043	19826
820.184	19913
820.324	19852
820.465	19841
820.605	19849
820.746	19742
820.886	19655
821.026	19894
821.167	19837
821.307	19932
821.447	19860
821.588	19693
821.728	19582
821.868	19369
822.008	19255
822.149	19221
822.289	19228
822.429	19076
822.569	18905
822.709	19008
822.849	18795
822.99	18783
823.13	18760
823.27	18745
823.41	18506
823.55	18582
823.69	18521
823.83	18612
823.97	18509
824.11	18433
824.25	18273
824.389	18426
824.529	18460
824.669	18251
824.809	18445
824.949	18429
825.089	18388
825.228	18479
825.368	18220
825.508	18133
825.648	18152
825.787	18209
825.927	18209
826.067	18136
826.206	18152
826.346	18224
826.485	18178
826.625	18114
826.765	18323
826.904	18129
827.044	17897
827.183	17908
827.323	17699
827.462	17828
827.601	17809
827.741	17745
827.88	17893
828.02	17771
828.159	17863
828.298	17939
828.437	17901
828.577	17745
828.716	17920
828.855	17748
828.994	17589
829.134	17589
829.273	17604
829.412	17551
829.551	17577
829.69	17493
829.829	17680
829.968	17775
830.107	17691
830.246	17596
830.385	17554
830.524	17524
830.663	17387
830.802	17379
830.941	17288
831.08	17189
831.219	17303
831.357	17246
831.496	17429
831.635	17220
831.774	17216
831.913	17090
832.051	17025
832.19	17018
832.329	16949
832.467	16904
832.606	16839
832.744	16873
832.883	16953
833.022	16740
833.16	16858
833.299	16961
833.437	16904
833.576	16938
833.714	17010
833.852	17022
833.991	16965
834.129	17033
834.267	16968
834.406	16938
834.544	17033
834.682	17025
834.821	16946
834.959	17200
835.097	16930
835.235	17048
835.373	16946
835.511	16938
835.65	16915
835.788	16736
835.926	16656
836.064	16752
836.202	16706
836.34	16824
836.478	16930
836.615	16801
836.753	16866
836.891	16919
837.029	16809
837.167	16839
837.305	16759
837.443	16797
837.58	16706
837.718	16698
837.856	16725
837.993	16698
838.131	16729
838.269	16599
838.406	16603
838.544	16611
838.681	16382
838.819	16230
838.956	16272
839.094	16246
839.231	16303
839.369	16325
839.506	16675
839.643	16489
839.781	16306
839.918	16147
840.055	16363
840.193	16272
840.33	16295
840.467	16303
840.604	16219
840.742	16481
840.879	16109
841.016	16135
841.153	16211
841.29	16306
841.427	16177
841.564	16352
841.701	16173
841.838	16150
841.975	16131
842.112	16215
842.249	15975
842.385	15972
842.522	16223
842.659	16078
842.796	15964
842.933	15987
843.069	15972
843.206	15911
843.343	16055
843.479	16006
843.616	16010
843.752	15808
843.889	15797
844.025	15911
844.162	15766
844.298	15926
844.435	15808
844.571	15755
844.708	15831
844.844	16040
844.98	15994
845.117	15998
845.253	15682
845.389	15652
845.525	15774
845.661	15770
845.798	15694
845.934	15865
846.07	15808
846.206	15751
846.342	15816
846.478	15698
846.614	15458
846.75	15485
846.886	15313
847.022	15447
847.158	15325
847.294	15386
847.429	15386
847.565	15378
847.701	15564
847.837	15195
847.972	15062
848.108	15169
848.244	15161
848.379	14994
848.515	15005
848.65	14929
848.786	14933
848.921	14937
849.057	15104
849.192	15047
849.328	15005
849.463	15009
849.598	15001
849.734	14883
849.869	14815
850.004	14750
850.14	14750
850.275	14743
850.41	14667
850.545	14735
850.68	14655
850.815	14765
850.95	14663
851.085	14971
851.22	14815
851.355	14758
851.49	14701
851.625	14800
851.76	14735
851.895	14484
852.03	14575
852.165	14689
852.299	14701
852.434	14800
852.569	14724
852.703	14716
852.838	14876
852.973	14842
853.107	14826
853.242	14613
853.376	14610
853.511	14492
853.645	14564
853.78	14712
853.914	14583
854.048	14537
854.183	14518
854.317	14507
854.451	14800
854.585	14564
854.72	14537
854.854	14518
854.988	14537
855.122	14564
855.256	14362
855.39	14552
855.524	14640
855.658	14651
855.792	14655
855.926	14644
856.06	14590
856.194	14716
856.327	14514
856.461	14537
856.595	14568
856.729	14484
856.862	14724
856.996	14670
857.13	14682
857.263	14670
857.397	14613
857.53	14511
857.664	14598
857.797	14621
857.931	14716
858.064	14545
858.197	14640
858.331	14598
858.464	14606
858.597	14438
858.731	14514
858.864	14587
858.997	14636
859.13	14583
859.263	14636
859.396	14636
859.529	14492
859.662	14537
859.795	14484
859.928	14617
860.061	14697
860.194	14758
860.327	14613
860.46	14564
860.592	14674
860.725	14701
860.858	14674
860.99	14556
861.123	14492
861.256	14526
861.388	14644
861.521	15138
861.653	14480
861.786	14408
861.918	14450
862.05	14476
862.183	14438
862.315	14590
862.447	14632
862.58	14400
862.712	14339
862.844	14256
862.976	14328
863.108	14442
863.24	14746
863.372	14233
863.504	14400
863.636	14328
863.768	14476
863.9	14370
864.032	14332
864.164	14381
864.296	14317
864.428	14465
864.559	14469
864.691	14499
864.823	14450
864.954	14336
865.086	14469
865.217	14332
865.349	14210
865.48	14381
865.612	14225
865.743	14446
865.875	14415
866.006	14309
866.137	14298
866.269	14309
866.4	14389
866.531	14290
866.662	14286
866.793	14370
866.924	14328
867.055	14358
867.186	14332
867.317	14237
867.448	14259
867.579	14206
867.71	14259
867.841	14164
867.972	14320
868.103	14298
868.233	14408
868.364	14358
868.495	14366
868.625	14644
868.756	14602
868.886	14533
869.017	14621
869.147	14693
869.278	14743
869.408	14568
869.539	14484
869.669	14636
869.799	14674
869.929	14743
870.06	14678
870.19	14880
870.32	14857
870.45	14853
870.58	14960
870.71	15089
870.84	15020
870.97	14998
871.1	14929
871.23	15180
871.36	15146
871.489	15039
871.619	15142
871.749	15169
871.879	15230
872.008	15287
872.138	15214
872.267	15100
872.397	15036
872.526	14975
872.656	15058
872.785	14982
872.915	15203
873.044	15245
873.173	15184
873.303	15222
873.432	15256
873.561	15218
873.69	15279
873.819	15142
873.948	15310
874.077	15195
874.206	15226
874.335	15279
874.464	15313
874.593	15500
874.722	15557
874.851	15572
874.979	15420
875.108	15606
875.237	15481
875.365	15378
875.494	15454
875.623	15584
875.751	15485
875.88	15572
876.008	15610
876.136	15648
876.265	15918
876.393	16059
876.521	15972
876.65	15949
876.778	15895
876.906	15873
877.034	15857
877.162	15823
877.29	15812
877.418	15945
877.546	15930
877.674	15956
877.802	15854
877.93	15998
878.058	15808
878.185	15804
878.313	15861
878.441	15941
878.568	15759
878.696	15964
878.824	15930
878.951	15979
879.079	16097
879.206	16261
879.333	16071
879.461	16017
879.588	16112
879.715	16226
879.842	16341
879.97	16082
880.097	15854
880.224	15797
880.351	15778
880.478	15903
880.605	15755
880.732	15812
880.859	16036
880.986	15736
881.112	15903
881.239	15778
881.366	15652
881.493	15420
881.619	15431
881.746	15591
881.872	15378
881.999	15397
882.125	15435
882.252	15496
882.378	15504
882.505	15519
882.631	15428
882.757	15211
882.883	15306
883.01	15332
883.136	15192
883.262	15116
883.388	15112
883.514	15329
883.64	15325
883.766	15195
883.892	15104
884.018	15157
884.143	15188
884.269	15435
884.395	15100
884.52	14956
884.646	15032
884.772	14876
884.897	14876
885.023	14979
885.148	15127
885.274	15112
885.399	14960
885.524	14994
885.65	14906
885.775	14986
885.9	14944
886.025	15055
886.15	15032
886.275	14902
886.4	14823
886.525	14971
886.65	14933
886.775	14872
886.9	15013
887.025	15104
887.149	14979
887.274	14861
887.399	14788
887.523	14758
887.648	14754
887.773	14632
887.897	14826
888.021	14853
888.146	14849
888.27	14868
888.395	14967
888.519	14872
888.643	14902
888.767	14804
888.891	14712
889.015	14663
889.139	14689
889.263	14693
889.387	14849
889.511	14785
889.635	14739
889.759	14575
889.883	14670
890.006	14663
890.13	14777
890.254	14549
890.377	14701
890.501	14370
890.624	14480
890.748	14423
890.871	14434
890.995	14256
891.118	14298
891.241	14400
891.364	14370
891.488	14408
891.611	14419
891.734	14305
891.857	14393
891.98	14374
892.103	14412
892.226	14286
892.349	14396
892.471	14221
892.594	14237
892.717	14366
892.839	14317
892.962	14309
893.085	14400
893.207	14313
893.33	14214
893.452	14206
893.575	14347
893.697	14362
893.819	14476
893.941	14484
894.064	14473
894.186	14343
894.308	14275
894.43	14412
894.552	14514
894.674	14564
894.796	14389
894.918	14377
895.04	14404
895.161	14431
895.283	14427
895.405	14278
895.526	14415
895.648	14465
895.769	14446
895.891	14533
896.012	14492
896.134	14434
896.255	14594
896.376	14461
896.498	14393
896.619	14507
896.74	14533
896.861	14625
896.982	14883
897.103	14952
897.224	14861
897.345	14731
897.466	14735
897.587	14735
897.708	14777
897.828	14746
897.949	14754
898.07	14598
898.19	14769
898.311	14933
898.431	14838
898.552	14838
898.672	14944
898.792	14956
898.913	15009
899.033	14792
899.153	14686
899.273	14640
899.393	14625
899.513	14697
899.633	14743
899.753	14735
899.873	14682
899.993	14735
900.113	14636
900.232	14735
900.352	14636
900.472	14594
900.591	14560
900.711	14625
900.83	14587
900.95	14590
901.069	14686
901.189	14518
901.308	14393
901.427	14126
901.546	14183
901.665	14145
901.784	14290
901.904	14062
902.023	14046
902.141	13833
902.26	13780
902.379	13841
902.498	13750
902.617	13734
902.735	13852
902.854	13780
902.973	13704
903.091	13529
903.21	13537
903.328	13616
903.446	13453
903.565	13388
903.683	13411
903.801	13255
903.919	13373
904.038	13396
904.156	13118
904.274	13251
904.392	13183
904.51	13046
904.627	13213
904.745	13107
904.863	13236
904.981	13042
905.098	12878
905.216	12924
905.334	12863
905.451	12939
905.569	12901
905.686	12882
905.803	12905
905.921	12688
906.038	12764
906.155	12627
906.272	12639
906.389	12582
906.506	12410
906.623	12502
906.74	12456
906.857	12372
906.974	12338
907.091	12467
907.208	12555
907.324	12490
907.441	12334
907.557	12228
907.674	12167
907.79	12083
907.907	12140
908.023	12117
908.139	12205
908.256	12064
908.372	12182
908.488	12106
908.604	11916
908.72	11942
908.836	11977
908.952	11847
909.068	12007
909.184	12030
909.3	12045
909.415	12095
909.531	11935
909.647	11714
909.762	11680
909.878	11661
909.993	11642
910.108	11676
910.224	11623
910.339	11710
910.454	11646
910.57	11589
910.685	11558
910.8	11726
910.915	11684
911.03	11657
911.145	11448
911.259	11349
911.374	11345
911.489	11425
911.604	11311
911.718	11178
911.833	11178
911.947	11010
912.062	11045
912.176	11098
912.291	11261
912.405	11147
912.519	11307
912.633	11368
912.748	11250
912.862	11132
912.976	10991
913.09	10915
913.204	10999
913.318	11083
913.431	11124
913.545	11048
913.659	11109
913.772	11071
913.886	10927
914	10889
914.113	10949
914.226	10999
914.34	11018
914.453	10862
914.566	11045
914.68	10946
914.793	10866
914.906	10771
915.019	10611
915.132	10558
915.245	10618
915.358	10706
915.47	10630
915.583	10729
915.696	10694
915.809	10771
915.921	10873
916.034	10668
916.146	10607
916.259	10580
916.371	10729
916.483	10698
916.595	10611
916.708	10565
916.82	10615
916.932	10550
917.044	10637
917.156	10493
917.268	10558
917.38	10497
917.491	10432
917.603	10470
917.715	10512
917.826	10607
917.938	10421
918.049	10417
918.161	10474
918.272	10641
918.384	10630
918.495	10504
918.606	10371
918.717	10204
918.828	10325
918.939	10398
919.05	10253
919.161	10276
919.272	10158
919.383	10295
919.494	10394
919.604	10577
919.715	10325
919.826	10268
919.936	10310
920.047	10371
920.157	10322
920.267	10580
920.378	10325
920.488	10451
920.598	10565
920.708	10736
920.818	10573
920.928	10466
921.038	10698
921.148	10622
921.258	10409
921.368	10341
921.477	10329
921.587	10207
921.697	10071
921.806	10325
921.916	10154
922.025	9915
922.134	9975
922.244	9960
922.353	9979
922.462	9762
922.571	9762
922.68	9701
922.789	9580
922.898	9701
923.007	9515
923.116	9663
923.224	9599
923.333	9614
923.442	9462
923.55	9466
923.659	9511
923.767	9648
923.876	9420
923.984	9526
924.092	9420
924.201	9519
924.309	9386
924.417	9538
924.525	9329
924.633	9454
924.741	10310
924.849	9237
924.956	9382
925.064	9233
925.172	9199
925.279	9249
925.387	9340
925.494	9268
925.602	9439
925.709	9370
925.816	9241
925.924	9249
926.031	9370
926.138	9336
926.245	9332
926.352	9146
926.459	9310
926.566	9355
926.673	9184
926.779	9093
926.886	9127
926.993	9066
927.099	8979
927.206	8956
927.312	8838
927.419	8963
927.525	8948
927.631	9032
927.737	8895
927.843	8857
927.95	8750
928.056	8849
928.162	8929
928.267	8918
928.373	9435
928.479	8971
928.585	8693
928.69	8781
928.796	8887
928.901	8815
929.007	8632
929.112	8788
929.218	8720
929.323	8682
929.428	8659
929.533	8895
929.638	8689
929.743	8655
929.848	8667
929.953	8640
930.058	8568
930.163	8469
930.267	8461
930.372	8583
930.477	8389
930.581	8640
930.685	8568
930.79	8320
930.894	8442
930.998	8377
931.103	8503
931.207	8195
931.311	8073
931.415	8111
931.519	7925
931.623	7932
