Data from test_V78500241_420.txt Node
Date: Fri Mar 25 14:36:38 CST 2022
User: usil
Spectrometer: V785-0024
Trigger mode: 0
Integration Time (sec): 4.000000E-1
Scans to average: 1
Nonlinearity correction enabled: false
Boxcar width: 0
Storing dark spectrum: false
XAxis mode: Wavelengths
Number of Pixels in Spectrum: 1024
>>>>>Begin Spectral Data<<<<<
801.071	26724
801.214	26587
801.356	26229
801.499	26374
801.641	26069
801.783	26115
801.926	26119
802.068	25947
802.211	25986
802.353	25966
802.496	25693
802.638	25734
802.78	25776
802.923	25643
803.065	25544
803.208	25502
803.35	25441
803.492	25776
803.635	25613
803.777	25613
803.919	25708
804.061	25944
804.204	25605
804.346	25518
804.488	25403
804.63	25670
804.773	25506
804.915	25502
805.057	25628
805.199	25624
805.341	25708
805.483	25670
805.626	25563
805.768	25521
805.91	25624
806.052	25544
806.194	25521
806.336	25780
806.478	25567
806.62	25567
806.762	25715
806.904	25951
807.046	26115
807.188	26031
807.33	25955
807.472	25989
807.614	25898
807.756	25811
807.898	25883
808.04	25719
808.182	25643
808.324	25799
808.465	25799
808.607	25887
808.749	26130
808.891	26271
809.033	26256
809.174	26138
809.316	26107
809.458	26180
809.6	25982
809.741	26191
809.883	26263
810.025	26347
810.166	26332
810.308	26332
810.45	26149
810.591	26126
810.733	25917
810.875	25932
811.016	25909
811.158	25807
811.299	25978
811.441	26046
811.582	26005
811.724	25860
811.865	25906
812.007	25955
812.148	25951
812.29	25951
812.431	26126
812.573	26122
812.714	26267
812.855	26469
812.997	26400
813.138	26720
813.279	26663
813.421	26552
813.562	26355
813.703	26229
813.845	26058
813.986	25860
814.127	25693
814.268	25479
814.41	25438
814.551	25453
814.692	25419
814.833	25521
814.974	25320
815.115	25384
815.256	25232
815.397	25301
815.539	25259
815.68	25343
815.821	25084
815.962	25304
816.103	25190
816.244	24966
816.385	24909
816.526	24947
816.666	24772
816.807	24582
816.948	24863
817.089	24779
817.23	24654
817.371	24749
817.512	24654
817.653	24437
817.793	24661
817.934	24601
818.075	24566
818.216	24559
818.356	24544
818.497	24490
818.638	24350
818.778	24323
818.919	24292
819.06	24262
819.2	24475
819.341	24407
819.481	24620
819.622	24627
819.762	24768
819.903	24817
820.043	24715
820.184	24410
820.324	24547
820.465	24639
820.605	24582
820.746	24623
820.886	24521
821.026	24551
821.167	24517
821.307	24749
821.447	24612
821.588	24479
821.728	24216
821.868	24136
822.008	24098
822.149	23897
822.289	23821
822.429	23653
822.569	23710
822.709	23665
822.849	23349
822.99	23444
823.13	23482
823.27	23410
823.41	23265
823.55	23124
823.69	23288
823.83	23090
823.97	23075
824.11	22911
824.25	22965
824.389	22904
824.529	23003
824.669	22957
824.809	23102
824.949	23216
825.089	23014
825.228	22984
825.368	22820
825.508	22854
825.648	22755
825.787	22725
825.927	22717
826.067	22653
826.206	22771
826.346	22721
826.485	22634
826.625	22717
826.765	22862
826.904	22683
827.044	22493
827.183	22348
827.323	22417
827.462	22455
827.601	22523
827.741	22436
827.88	22382
828.02	22325
828.159	22428
828.298	22531
828.437	22417
828.577	22325
828.716	22611
828.855	22371
828.994	22074
829.134	22135
829.273	22215
829.412	22139
829.551	22013
829.69	22021
829.829	22150
829.968	22219
830.107	22249
830.246	22063
830.385	21911
830.524	21998
830.663	21926
830.802	21831
830.941	21739
831.08	21648
831.219	21720
831.357	21663
831.496	22006
831.635	21675
831.774	21557
831.913	21401
832.051	21401
832.19	21382
832.329	21462
832.467	21329
832.606	21192
832.744	21230
832.883	21447
833.022	21325
833.16	21344
833.299	21416
833.437	21336
833.576	21317
833.714	21447
833.852	21515
833.991	21332
834.129	21485
834.267	21386
834.406	21188
834.544	21355
834.682	21294
834.821	21211
834.959	21553
835.097	21249
835.235	21370
835.373	21370
835.511	21355
835.65	21275
835.788	21135
835.926	21055
836.064	21028
836.202	21093
836.34	21127
836.478	21131
836.615	21241
836.753	21214
836.891	21218
837.029	21256
837.167	21028
837.305	21074
837.443	21009
837.58	20914
837.718	21138
837.856	21081
837.993	21093
838.131	20963
838.269	20918
838.406	21032
838.544	20804
838.681	20724
838.819	20617
838.956	20457
839.094	20454
839.231	20549
839.369	20689
839.506	20849
839.643	20712
839.781	20518
839.918	20400
840.055	20492
840.193	20499
840.33	20362
840.467	20438
840.604	20488
840.742	20648
840.879	20374
841.016	20263
841.153	20263
841.29	20564
841.427	20404
841.564	20366
841.701	20381
841.838	20446
841.975	20286
842.112	20328
842.249	20176
842.385	20119
842.522	20313
842.659	20233
842.796	20058
842.933	20119
843.069	20069
843.206	20058
843.343	20271
843.479	20035
843.616	20138
843.752	20005
843.889	19906
844.025	19982
844.162	20016
844.298	19967
844.435	19814
844.571	19795
844.708	19936
844.844	20107
844.98	20020
845.117	20024
845.253	19746
845.389	19807
845.525	19734
845.661	19670
845.798	19696
845.934	19693
846.07	19681
846.206	19757
846.342	19780
846.478	19632
846.614	19487
846.75	19316
846.886	19381
847.022	19430
847.158	19369
847.294	19396
847.429	19495
847.565	19266
847.701	19582
847.837	19141
847.972	19080
848.108	19034
848.244	19053
848.379	18996
848.515	18867
848.65	18878
848.786	19000
848.921	18958
849.057	18894
849.192	18954
849.328	18970
849.463	18916
849.598	18837
849.734	18859
849.869	18814
850.004	18734
850.14	18669
850.275	18711
850.41	18536
850.545	18654
850.68	18700
850.815	18741
850.95	18707
851.085	18882
851.22	18707
851.355	18559
851.49	18730
851.625	18532
851.76	18635
851.895	18563
852.03	18601
852.165	18582
852.299	18734
852.434	18623
852.569	18734
852.703	18650
852.838	18696
852.973	18852
853.107	18795
853.242	18574
853.376	18513
853.511	18395
853.645	18536
853.78	18661
853.914	18540
854.048	18490
854.183	18464
854.317	18521
854.451	18734
854.585	18456
854.72	18479
854.854	18509
854.988	18452
855.122	18456
855.256	18357
855.39	18467
855.524	18620
855.658	18574
855.792	18563
855.926	18521
856.06	18509
856.194	18555
856.327	18559
856.461	18437
856.595	18422
856.729	18369
856.862	18475
856.996	18494
857.13	18517
857.263	18555
857.397	18490
857.53	18475
857.664	18490
857.797	18623
857.931	18658
858.064	18547
858.197	18669
858.331	18376
858.464	18441
858.597	18391
858.731	18448
858.864	18490
858.997	18460
859.13	18448
859.263	18517
859.396	18551
859.529	18395
859.662	18418
859.795	18448
859.928	18433
860.061	18589
860.194	18566
860.327	18422
860.46	18350
860.592	18426
860.725	18509
860.858	18612
860.99	18475
861.123	18323
861.256	18334
861.388	18456
861.521	19031
861.653	18258
861.786	18254
861.918	18300
862.05	18418
862.183	18471
862.315	18460
862.447	18627
862.58	18433
862.712	18319
862.844	18224
862.976	18323
863.108	18228
863.24	18658
863.372	18197
863.504	18083
863.636	18190
863.768	18213
863.9	18159
864.032	18163
864.164	18057
864.296	18171
864.428	18308
864.559	18296
864.691	18213
864.823	18136
864.954	18171
865.086	18213
865.217	18129
865.349	18007
865.48	18117
865.612	18034
865.743	18213
865.875	18148
866.006	18041
866.137	18072
866.269	18178
866.4	18015
866.531	17916
866.662	17973
866.793	17969
866.924	18022
867.055	18041
867.186	18041
867.317	17980
867.448	17946
867.579	17908
867.71	18003
867.841	17904
867.972	18053
868.103	17992
868.233	18076
868.364	17950
868.495	18182
868.625	18201
868.756	18319
868.886	18106
869.017	18235
869.147	18490
869.278	18429
869.408	18330
869.539	18266
869.669	18376
869.799	18319
869.929	18388
870.06	18300
870.19	18555
870.32	18494
870.45	18597
870.58	18639
870.71	18795
870.84	18814
870.97	18669
871.1	18555
871.23	18787
871.36	18897
871.489	18776
871.619	18787
871.749	18856
871.879	18867
872.008	18935
872.138	18909
872.267	18905
872.397	18722
872.526	18715
872.656	18749
872.785	18757
872.915	18913
873.044	18962
873.173	18825
873.303	18894
873.432	18878
873.561	18905
873.69	18935
873.819	18890
873.948	18970
874.077	18916
874.206	18810
874.335	18909
874.464	19084
874.593	19076
874.722	19053
874.851	19095
874.979	19266
875.108	19187
875.237	19179
875.365	19091
875.494	19145
875.623	19179
875.751	19133
875.88	19343
876.008	19206
876.136	19373
876.265	19662
876.393	19742
876.521	19563
876.65	19727
876.778	19647
876.906	19453
877.034	19453
877.162	19403
877.29	19480
877.418	19544
877.546	19495
877.674	19464
877.802	19651
877.93	19426
878.058	19430
878.185	19453
878.313	19540
878.441	19544
878.568	19483
878.696	19460
878.824	19696
878.951	19533
879.079	19700
879.206	19799
879.333	19712
879.461	19624
879.588	19666
879.715	19715
879.842	19822
879.97	19620
880.097	19263
880.224	19339
880.351	19438
880.478	19331
880.605	19335
880.732	19411
880.859	19597
880.986	19365
881.112	19324
881.239	19270
881.366	19137
881.493	19046
881.619	19046
881.746	19088
881.872	18993
881.999	18905
882.125	18935
882.252	19080
882.378	19088
882.505	19133
882.631	18935
882.757	18757
882.883	18871
883.01	18825
883.136	18669
883.262	18783
883.388	18745
883.514	18837
883.64	18681
883.766	18772
883.892	18536
884.018	18593
884.143	18817
884.269	18700
884.395	18528
884.52	18452
884.646	18547
884.772	18380
884.897	18353
885.023	18403
885.148	18494
885.274	18513
885.399	18540
885.524	18426
885.65	18456
885.775	18483
885.9	18403
886.025	18479
886.15	18441
886.275	18376
886.4	18270
886.525	18315
886.65	18350
886.775	18281
886.9	18517
887.025	18673
887.149	18391
887.274	18216
887.399	18091
887.523	18232
887.648	18072
887.773	18129
887.897	18296
888.021	18273
888.146	18129
888.27	18155
888.395	18357
888.519	18304
888.643	18285
888.767	18163
888.891	17996
889.015	18038
889.139	18095
889.263	17958
889.387	18125
889.511	18114
889.635	18117
889.759	18083
889.883	17931
890.006	17977
890.13	18140
890.254	17904
890.377	17939
890.501	17786
890.624	17832
890.748	17866
890.871	17714
890.995	17642
891.118	17554
891.241	17665
891.364	17608
891.488	17707
891.611	17535
891.734	17623
891.857	17729
891.98	17695
892.103	17589
892.226	17646
892.349	17608
892.471	17421
892.594	17474
892.717	17649
892.839	17562
892.962	17585
893.085	17672
893.207	17642
893.33	17467
893.452	17493
893.575	17497
893.697	17425
893.819	17627
893.941	17756
894.064	17665
894.186	17490
894.308	17547
894.43	17642
894.552	17699
894.674	17657
894.796	17493
894.918	17482
895.04	17596
895.161	17676
895.283	17726
895.405	17722
895.526	17627
895.648	17600
895.769	17566
895.891	17665
896.012	17691
896.134	17733
896.255	17741
896.376	17676
896.498	17547
896.619	17703
896.74	17665
896.861	17790
896.982	17946
897.103	18148
897.224	18022
897.345	17969
897.466	17961
897.587	17935
897.708	17992
897.828	18041
897.949	17824
898.07	17786
898.19	17764
898.311	17973
898.431	17859
898.552	17901
898.672	17984
898.792	17977
898.913	17897
899.033	17802
899.153	17592
899.273	17672
899.393	17596
899.513	17642
899.633	17600
899.753	17741
899.873	17581
899.993	17752
900.113	17653
900.232	17642
900.352	17570
900.472	17490
900.591	17421
900.711	17520
900.83	17349
900.95	17577
901.069	17535
901.189	17391
901.308	17227
901.427	17056
901.546	17185
901.665	17136
901.784	17128
901.904	16965
902.023	16957
902.141	16626
902.26	16759
902.379	16752
902.498	16611
902.617	16550
902.735	16641
902.854	16573
902.973	16512
903.091	16367
903.21	16455
903.328	16337
903.446	16211
903.565	16147
903.683	16139
903.801	16044
903.919	16021
904.038	16010
904.156	15991
904.274	16021
904.392	15903
904.51	15915
904.627	15972
904.745	15945
904.863	15991
904.981	15728
905.098	15507
905.216	15671
905.334	15515
905.451	15698
905.569	15603
905.686	15682
905.803	15542
905.921	15370
906.038	15496
906.155	15351
906.272	15359
906.389	15321
906.506	15066
906.623	15131
906.74	15272
906.857	15039
906.974	15161
907.091	15203
907.208	15329
907.324	15241
907.441	15024
907.557	14929
907.674	14807
907.79	14876
907.907	14880
908.023	14918
908.139	14937
908.256	14750
908.372	14712
908.488	14663
908.604	14678
908.72	14549
908.836	14606
908.952	14617
909.068	14636
909.184	14716
909.3	14617
909.415	14469
909.531	14552
909.647	14317
909.762	14317
909.878	14275
909.993	14210
910.108	14210
910.224	14286
910.339	14290
910.454	14142
910.57	14164
910.685	13902
910.8	14377
910.915	14267
911.03	14111
911.145	13963
911.259	13864
911.374	13902
911.489	13913
911.604	13807
911.718	13632
911.833	13605
911.947	13544
912.062	13426
912.176	13616
912.291	13750
912.405	13590
912.519	13856
912.633	13856
912.748	13681
912.862	13670
912.976	13537
913.09	13365
913.204	13426
913.318	13506
913.431	13662
913.545	13594
913.659	13571
913.772	13491
913.886	13430
914	13301
914.113	13407
914.226	13457
914.34	13415
914.453	13259
914.566	13316
914.68	13240
914.793	13171
914.906	13122
915.019	12966
915.132	12970
915.245	12989
915.358	12977
915.47	13008
915.583	13015
915.696	13091
915.809	13095
915.921	13190
916.034	12962
916.146	12875
916.259	12928
916.371	12966
916.483	12951
916.595	12844
916.708	12916
916.82	12913
916.932	12852
917.044	12817
917.156	12779
917.268	12711
917.38	12760
917.491	12688
917.603	12726
917.715	12837
917.826	12863
917.938	12745
918.049	12601
918.161	12662
918.272	12783
918.384	12840
918.495	12692
918.606	12597
918.717	12426
918.828	12650
918.939	12566
919.05	12540
919.161	12521
919.272	12304
919.383	12464
919.494	12494
919.604	12726
919.715	12464
919.826	12475
919.936	12540
920.047	12650
920.157	12536
920.267	12677
920.378	12563
920.488	12536
920.598	12707
920.708	12867
920.818	12662
920.928	12589
921.038	12867
921.148	12817
921.258	12509
921.368	12429
921.477	12338
921.587	12342
921.697	12163
921.806	12410
921.916	12175
922.025	12114
922.134	11996
922.244	11920
922.353	11996
922.462	11874
922.571	11764
922.68	11676
922.789	11646
922.898	11657
923.007	11558
923.116	11695
923.224	11672
923.333	11604
923.442	11581
923.55	11497
923.659	11524
923.767	11516
923.876	11387
923.984	11528
924.092	11318
924.201	11410
924.309	11425
924.417	11516
924.525	11398
924.633	11406
924.741	12304
924.849	11201
924.956	11311
925.064	11147
925.172	11128
925.279	11121
925.387	11166
925.494	11151
925.602	11235
925.709	11204
925.816	11006
925.924	11060
926.031	11223
926.138	11155
926.245	11155
926.352	10995
926.459	11174
926.566	11155
926.673	11041
926.779	10927
926.886	10942
926.993	10809
927.099	10771
927.206	10790
927.312	10755
927.419	10889
927.525	10733
927.631	10839
927.737	10710
927.843	10725
927.95	10584
928.056	10702
928.162	10679
928.267	10771
928.373	11296
928.479	10759
928.585	10489
928.69	10653
928.796	10649
928.901	10675
929.007	10447
929.112	10542
929.218	10451
929.323	10470
929.428	10386
929.533	10584
929.638	10280
929.743	10367
929.848	10455
929.953	10428
930.058	10299
930.163	10093
930.267	10147
930.372	10295
930.477	10063
930.581	10291
930.685	10181
930.79	10071
930.894	10074
930.998	10036
931.103	10101
931.207	9762
931.311	9736
931.415	9713
931.519	9447
931.623	9477
