Data from test_V78500241_3133.txt Node
Date: Fri Mar 25 14:55:31 CST 2022
User: usil
Spectrometer: V785-0024
Trigger mode: 0
Integration Time (sec): 4.000000E-1
Scans to average: 1
Nonlinearity correction enabled: false
Boxcar width: 0
Storing dark spectrum: false
XAxis mode: Wavelengths
Number of Pixels in Spectrum: 1024
>>>>>Begin Spectral Data<<<<<
801.071	22112
801.214	21918
801.356	21717
801.499	21625
801.641	21466
801.783	21302
801.926	21496
802.068	21370
802.211	21393
802.353	21176
802.496	21032
802.638	20864
802.78	20804
802.923	20804
803.065	20613
803.208	20629
803.35	20834
803.492	20899
803.635	20849
803.777	20659
803.919	20705
804.061	21039
804.204	20693
804.346	20686
804.488	20648
804.63	20727
804.773	20518
804.915	20758
805.057	20815
805.199	20621
805.341	20651
805.483	20804
805.626	20648
805.768	20636
805.91	20667
806.052	20640
806.194	20583
806.336	20769
806.478	20587
806.62	20484
806.762	20712
806.904	20857
807.046	21074
807.188	20952
807.33	21013
807.472	20929
807.614	20891
807.756	20861
807.898	20758
808.04	20689
808.182	20686
808.324	20667
808.465	20773
808.607	20872
808.749	20971
808.891	20994
809.033	21104
809.174	21028
809.316	21043
809.458	20998
809.6	20963
809.741	20998
809.883	20998
810.025	21298
810.166	21214
810.308	21089
810.45	21123
810.591	21043
810.733	20918
810.875	20758
811.016	20701
811.158	20727
811.299	20834
811.441	20899
811.582	20944
811.724	20807
811.865	20769
812.007	20785
812.148	20842
812.29	20689
812.431	20910
812.573	20994
812.714	21017
812.855	21203
812.997	21317
813.138	21519
813.279	21378
813.421	21157
813.562	21108
813.703	20979
813.845	20906
813.986	20674
814.127	20564
814.268	20389
814.41	20347
814.551	20271
814.692	20442
814.833	20290
814.974	20328
815.115	20343
815.256	20164
815.397	20183
815.539	20172
815.68	20001
815.821	19986
815.962	20039
816.103	20065
816.244	19909
816.385	19750
816.526	19826
816.666	19556
816.807	19525
816.948	19647
817.089	19590
817.23	19476
817.371	19411
817.512	19472
817.653	19403
817.793	19445
817.934	19422
818.075	19480
818.216	19548
818.356	19384
818.497	19400
818.638	19141
818.778	19133
818.919	19232
819.06	19145
819.2	19289
819.341	19403
819.481	19377
819.622	19449
819.762	19605
819.903	19556
820.043	19441
820.184	19480
820.324	19464
820.465	19548
820.605	19438
820.746	19453
820.886	19301
821.026	19339
821.167	19324
821.307	19499
821.447	19373
821.588	19236
821.728	19031
821.868	19027
822.008	18878
822.149	18863
822.289	18783
822.429	18623
822.569	18578
822.709	18525
822.849	18319
822.99	18311
823.13	18330
823.27	18213
823.41	18171
823.55	18007
823.69	18277
823.83	18144
823.97	18060
824.11	17920
824.25	17828
824.389	17908
824.529	17965
824.669	17923
824.809	18102
824.949	17912
825.089	17927
825.228	17855
825.368	17745
825.508	17646
825.648	17589
825.787	17779
825.927	17729
826.067	17596
826.206	17543
826.346	17657
826.485	17752
826.625	17684
826.765	17775
826.904	17687
827.044	17459
827.183	17425
827.323	17471
827.462	17383
827.601	17398
827.741	17277
827.88	17410
828.02	17326
828.159	17220
828.298	17254
828.437	17391
828.577	17193
828.716	17436
828.855	17341
828.994	17140
829.134	17109
829.273	17117
829.412	17029
829.551	17006
829.69	17033
829.829	17189
829.968	17231
830.107	17147
830.246	17189
830.385	17109
830.524	17056
830.663	16949
830.802	16809
830.941	16706
831.08	16763
831.219	16805
831.357	16828
831.496	16900
831.635	16679
831.774	16725
831.913	16504
832.051	16500
832.19	16538
832.329	16535
832.467	16360
832.606	16375
832.744	16344
832.883	16447
833.022	16367
833.16	16360
833.299	16493
833.437	16481
833.576	16470
833.714	16390
833.852	16432
833.991	16554
834.129	16558
834.267	16493
834.406	16382
834.544	16459
834.682	16470
834.821	16428
834.959	16611
835.097	16504
835.235	16478
835.373	16466
835.511	16455
835.65	16337
835.788	16466
835.926	16261
836.064	16215
836.202	16211
836.34	16367
836.478	16470
836.615	16341
836.753	16341
836.891	16371
837.029	16322
837.167	16394
837.305	16341
837.443	16253
837.58	16253
837.718	16348
837.856	16253
837.993	16093
838.131	16242
838.269	16116
838.406	16196
838.544	16055
838.681	15964
838.819	15934
838.956	15774
839.094	15728
839.231	15903
839.369	15892
839.506	16177
839.643	15998
839.781	15816
839.918	15838
840.055	15766
840.193	15880
840.33	15705
840.467	15759
840.604	15823
840.742	15949
840.879	15679
841.016	15751
841.153	15648
841.29	15865
841.427	15850
841.564	15888
841.701	15743
841.838	15644
841.975	15713
842.112	15705
842.249	15637
842.385	15564
842.522	15713
842.659	15584
842.796	15557
842.933	15564
843.069	15500
843.206	15485
843.343	15629
843.479	15557
843.616	15534
843.752	15298
843.889	15329
844.025	15526
844.162	15233
844.298	15469
844.435	15321
844.571	15313
844.708	15401
844.844	15435
844.98	15523
845.117	15420
845.253	15367
845.389	15188
845.525	15302
845.661	15237
845.798	15055
845.934	15173
846.07	15154
846.206	15180
846.342	15348
846.478	15184
846.614	15032
846.75	14876
846.886	14902
847.022	15039
847.158	14918
847.294	14906
847.429	14982
847.565	14941
847.701	15222
847.837	14670
847.972	14629
848.108	14815
848.244	14746
848.379	14663
848.515	14610
848.65	14461
848.786	14545
848.921	14632
849.057	14610
849.192	14648
849.328	14556
849.463	14495
849.598	14541
849.734	14450
849.869	14317
850.004	14396
850.14	14377
850.275	14294
850.41	14210
850.545	14180
850.68	14298
850.815	14385
850.95	14415
851.085	14583
851.22	14469
851.355	14347
851.49	14275
851.625	14275
851.76	14191
851.895	14191
852.03	14187
852.165	14317
852.299	14358
852.434	14457
852.569	14290
852.703	14301
852.838	14541
852.973	14480
853.107	14533
853.242	14328
853.376	14195
853.511	14126
853.645	14134
853.78	14267
853.914	14233
854.048	14172
854.183	14191
854.317	14218
854.451	14313
854.585	14199
854.72	14153
854.854	14149
854.988	13978
855.122	14187
855.256	14069
855.39	14100
855.524	14172
855.658	14176
855.792	14191
855.926	14240
856.06	14309
856.194	14347
856.327	14195
856.461	14134
856.595	14180
856.729	14164
856.862	14381
856.996	14282
857.13	14199
857.263	14309
857.397	14396
857.53	14313
857.664	14286
857.797	14267
857.931	14328
858.064	14210
858.197	14385
858.331	14161
858.464	14092
858.597	14031
858.731	14134
858.864	14206
858.997	14187
859.13	14199
859.263	14206
859.396	14408
859.529	14187
859.662	14180
859.795	14221
859.928	14172
860.061	14434
860.194	14347
860.327	14187
860.46	14221
860.592	14221
860.725	14419
860.858	14286
860.99	14142
861.123	14176
861.256	14168
861.388	14081
861.521	14845
861.653	14012
861.786	14016
861.918	14073
862.05	14103
862.183	14142
862.315	14157
862.447	14134
862.58	14126
862.712	13833
862.844	13883
862.976	14088
863.108	14012
863.24	14362
863.372	13936
863.504	13932
863.636	13963
863.768	13940
863.9	13970
864.032	13925
864.164	13940
864.296	13925
864.428	14100
864.559	14069
864.691	14039
864.823	13993
864.954	14035
865.086	13993
865.217	13974
865.349	13875
865.48	14008
865.612	13928
865.743	14008
865.875	14020
866.006	13864
866.137	13978
866.269	13959
866.4	14024
866.531	13917
866.662	13856
866.793	13879
866.924	13887
867.055	14027
867.186	13868
867.317	13909
867.448	13902
867.579	13887
867.71	13807
867.841	13852
867.972	14012
868.103	13986
868.233	13925
868.364	14008
868.495	14054
868.625	14138
868.756	14221
868.886	14081
869.017	14176
869.147	14309
869.278	14172
869.408	14191
869.539	14267
869.669	14343
869.799	14221
869.929	14328
870.06	14339
870.19	14530
870.32	14518
870.45	14476
870.58	14598
870.71	14602
870.84	14693
870.97	14560
871.1	14556
871.23	14838
871.36	14830
871.489	14716
871.619	14792
871.749	14864
871.879	14857
872.008	14910
872.138	14788
872.267	14773
872.397	14765
872.526	14678
872.656	14720
872.785	14617
872.915	14823
873.044	14842
873.173	14701
873.303	14883
873.432	14963
873.561	14918
873.69	14906
873.819	14861
873.948	14899
874.077	14887
874.206	14838
874.335	14872
874.464	15047
874.593	15169
874.722	15150
874.851	15154
874.979	15184
875.108	15195
875.237	15176
875.365	15055
875.494	15245
875.623	15252
875.751	15161
875.88	15256
876.008	15287
876.136	15397
876.265	15526
876.393	15739
876.521	15637
876.65	15606
876.778	15648
876.906	15473
877.034	15450
877.162	15523
877.29	15485
877.418	15625
877.546	15599
877.674	15572
877.802	15549
877.93	15553
878.058	15511
878.185	15564
878.313	15557
878.441	15610
878.568	15462
878.696	15481
878.824	15682
878.951	15656
879.079	15755
879.206	15934
879.333	15728
879.461	15663
879.588	15660
879.715	15690
879.842	15892
879.97	15686
880.097	15412
880.224	15542
880.351	15530
880.478	15405
880.605	15450
880.732	15329
880.859	15679
880.986	15447
881.112	15496
881.239	15363
881.366	15180
881.493	15165
881.619	15058
881.746	15146
881.872	15135
881.999	15093
882.125	15047
882.252	15222
882.378	15123
882.505	15214
882.631	15074
882.757	14872
882.883	14967
883.01	14853
883.136	14868
883.262	14872
883.388	14762
883.514	14925
883.64	14937
883.766	14864
883.892	14716
884.018	14781
884.143	14838
884.269	14933
884.395	14655
884.52	14659
884.646	14640
884.772	14533
884.897	14537
885.023	14693
885.148	14625
885.274	14697
885.399	14758
885.524	14594
885.65	14705
885.775	14651
885.9	14613
886.025	14678
886.15	14754
886.275	14590
886.4	14579
886.525	14549
886.65	14560
886.775	14488
886.9	14746
887.025	14960
887.149	14629
887.274	14511
887.399	14427
887.523	14446
887.648	14389
887.773	14431
887.897	14480
888.021	14484
888.146	14423
888.27	14564
888.395	14575
888.519	14537
888.643	14488
888.767	14427
888.891	14389
889.015	14275
889.139	14320
889.263	14248
889.387	14408
889.511	14514
889.635	14423
889.759	14377
889.883	14294
890.006	14427
890.13	14434
890.254	14275
890.377	14290
890.501	14119
890.624	14130
890.748	14187
890.871	14027
890.995	14035
891.118	14008
891.241	13959
891.364	14073
891.488	14084
891.611	13928
891.734	14020
891.857	13993
891.98	14088
892.103	14126
892.226	14126
892.349	13925
892.471	13875
892.594	14012
892.717	14054
892.839	13925
892.962	14001
893.085	14164
893.207	14020
893.33	13856
893.452	13986
893.575	14092
893.697	13997
893.819	14271
893.941	14149
894.064	14195
894.186	14012
894.308	13959
894.43	14107
894.552	14225
894.674	14183
894.796	13955
894.918	14100
895.04	13978
895.161	14065
895.283	14138
895.405	14084
895.526	14123
895.648	14103
895.769	14084
895.891	14210
896.012	14244
896.134	14142
896.255	14206
896.376	14161
896.498	14164
896.619	14138
896.74	14187
896.861	14237
896.982	14484
897.103	14708
897.224	14552
897.345	14590
897.466	14351
897.587	14492
897.708	14571
897.828	14537
897.949	14336
898.07	14332
898.19	14423
898.311	14655
898.431	14488
898.552	14454
898.672	14598
898.792	14583
898.913	14590
899.033	14507
899.153	14377
899.273	14301
899.393	14385
899.513	14404
899.633	14377
899.753	14404
899.873	14317
899.993	14457
900.113	14320
900.232	14465
900.352	14400
900.472	14400
900.591	14229
900.711	14320
900.83	14214
900.95	14362
901.069	14381
901.189	14225
901.308	13917
901.427	13875
901.546	13925
901.665	13970
901.784	13947
901.904	13849
902.023	13704
902.141	13518
902.26	13578
902.379	13647
902.498	13563
902.617	13445
902.735	13544
902.854	13533
902.973	13365
903.091	13251
903.21	13228
903.328	13217
903.446	13232
903.565	13042
903.683	13042
903.801	13080
903.919	13053
904.038	13118
904.156	12905
904.274	12856
904.392	12867
904.51	12844
904.627	12939
904.745	13065
904.863	13042
904.981	12627
905.098	12604
905.216	12551
905.334	12623
905.451	12620
905.569	12551
905.686	12646
905.803	12471
905.921	12403
906.038	12464
906.155	12490
906.272	12308
906.389	12384
906.506	12197
906.623	12140
906.74	12171
906.857	12064
906.974	12064
907.091	12232
907.208	12273
907.324	12243
907.441	12190
907.557	12011
907.674	11897
907.79	11939
907.907	11847
908.023	11935
908.139	12003
908.256	11866
908.372	11817
908.488	11904
908.604	11684
908.72	11676
908.836	11611
908.952	11638
909.068	11649
909.184	11775
909.3	11703
909.415	11722
909.531	11680
909.647	11425
909.762	11433
909.878	11383
909.993	11356
910.108	11512
910.224	11356
910.339	11414
910.454	11326
910.57	11349
910.685	11212
910.8	11471
910.915	11433
911.03	11353
911.145	11098
911.259	11159
911.374	11151
911.489	11113
911.604	11003
911.718	10953
911.833	10831
911.947	10809
912.062	10740
912.176	10889
912.291	10976
912.405	10889
912.519	11025
912.633	11052
912.748	11014
912.862	10984
912.976	10835
913.09	10668
913.204	10721
913.318	10839
913.431	10858
913.545	10858
913.659	10908
913.772	10908
913.886	10698
914	10596
914.113	10702
914.226	10790
914.34	10809
914.453	10660
914.566	10710
914.68	10668
914.793	10618
914.906	10504
915.019	10470
915.132	10348
915.245	10489
915.358	10341
915.47	10413
915.583	10489
915.696	10470
915.809	10611
915.921	10603
916.034	10390
916.146	10386
916.259	10478
916.371	10481
916.483	10451
916.595	10409
916.708	10367
916.82	10394
916.932	10379
917.044	10360
917.156	10382
917.268	10276
917.38	10322
917.491	10246
917.603	10344
917.715	10382
917.826	10382
917.938	10249
918.049	10166
918.161	10333
918.272	10386
918.384	10394
918.495	10291
918.606	10188
918.717	10124
918.828	10192
918.939	10276
919.05	10124
919.161	10173
919.272	9994
919.383	10025
919.494	10238
919.604	10432
919.715	10169
919.826	10055
919.936	10196
920.047	10204
920.157	10120
920.267	10478
920.378	10219
920.488	10150
920.598	10440
920.708	10523
920.818	10390
920.928	10322
921.038	10558
921.148	10489
921.258	10238
921.368	10093
921.477	10097
921.587	10063
921.697	9918
921.806	10078
921.916	9998
922.025	9793
922.134	9755
922.244	9743
922.353	9770
922.462	9675
922.571	9530
922.68	9500
922.789	9473
922.898	9492
923.007	9359
923.116	9507
923.224	9515
923.333	9473
923.442	9386
923.55	9336
923.659	9363
923.767	9359
923.876	9321
923.984	9367
924.092	9260
924.201	9351
924.309	9325
924.417	9386
924.525	9256
924.633	9325
924.741	10124
924.849	9127
924.956	9195
925.064	9009
925.172	9001
925.279	9039
925.387	9135
925.494	9081
925.602	9233
925.709	9207
925.816	9131
925.924	9070
926.031	9161
926.138	9119
926.245	9169
926.352	9005
926.459	9150
926.566	9123
926.673	9055
926.779	8975
926.886	9036
926.993	8807
927.099	8796
927.206	8796
927.312	8792
927.419	8872
927.525	8826
927.631	8910
927.737	8708
927.843	8701
927.95	8610
928.056	8613
928.162	8712
928.267	8754
928.373	9302
928.479	8876
928.585	8655
928.69	8693
928.796	8823
928.901	8621
929.007	8488
929.112	8697
929.218	8579
929.323	8522
929.428	8514
929.533	8594
929.638	8533
929.743	8533
929.848	8579
929.953	8526
930.058	8488
930.163	8279
930.267	8298
930.372	8408
930.477	8267
930.581	8564
930.685	8423
930.79	8233
930.894	8317
930.998	8183
931.103	8412
931.207	7970
931.311	7993
931.415	7894
931.519	7731
931.623	7792
