Data from test_V78500241_3033.txt Node
Date: Fri Mar 25 14:54:50 CST 2022
User: usil
Spectrometer: V785-0024
Trigger mode: 0
Integration Time (sec): 4.000000E-1
Scans to average: 1
Nonlinearity correction enabled: false
Boxcar width: 0
Storing dark spectrum: false
XAxis mode: Wavelengths
Number of Pixels in Spectrum: 1024
>>>>>Begin Spectral Data<<<<<
801.071	22063
801.214	22032
801.356	21808
801.499	21698
801.641	21534
801.783	21542
801.926	21561
802.068	21287
802.211	21332
802.353	21321
802.496	21005
802.638	20982
802.78	20876
802.923	20876
803.065	20651
803.208	20804
803.35	20880
803.492	20823
803.635	20921
803.777	20876
803.919	20857
804.061	21161
804.204	20788
804.346	20815
804.488	20598
804.63	20880
804.773	20625
804.915	20842
805.057	20883
805.199	20651
805.341	20781
805.483	20792
805.626	20796
805.768	20785
805.91	20743
806.052	20762
806.194	20625
806.336	20781
806.478	20743
806.62	20731
806.762	20834
806.904	20982
807.046	21119
807.188	21039
807.33	21112
807.472	21028
807.614	21013
807.756	20990
807.898	20902
808.04	20705
808.182	20743
808.324	20697
808.465	20811
808.607	20998
808.749	21138
808.891	21241
809.033	21336
809.174	21176
809.316	21058
809.458	20986
809.6	21074
809.741	21203
809.883	21218
810.025	21287
810.166	21233
810.308	21264
810.45	21268
810.591	21077
810.733	20986
810.875	20998
811.016	20868
811.158	20876
811.299	20948
811.441	21020
811.582	20994
811.724	20952
811.865	20845
812.007	20933
812.148	20796
812.29	20895
812.431	21051
812.573	21256
812.714	21192
812.855	21275
812.997	21504
813.138	21679
813.279	21401
813.421	21355
813.562	21348
813.703	21039
813.845	20990
813.986	20754
814.127	20617
814.268	20393
814.41	20374
814.551	20431
814.692	20499
814.833	20324
814.974	20461
815.115	20419
815.256	20233
815.397	20336
815.539	20183
815.68	20122
815.821	20107
815.962	20199
816.103	20183
816.244	20008
816.385	19917
816.526	19898
816.666	19689
816.807	19613
816.948	19537
817.089	19727
817.23	19552
817.371	19552
817.512	19506
817.653	19601
817.793	19518
817.934	19460
818.075	19651
818.216	19582
818.356	19449
818.497	19392
818.638	19225
818.778	19206
818.919	19228
819.06	19168
819.2	19350
819.341	19438
819.481	19472
819.622	19521
819.762	19715
819.903	19552
820.043	19537
820.184	19468
820.324	19533
820.465	19514
820.605	19415
820.746	19533
820.886	19346
821.026	19499
821.167	19472
821.307	19559
821.447	19438
821.588	19350
821.728	19171
821.868	19015
822.008	18924
822.149	18886
822.289	18928
822.429	18703
822.569	18616
822.709	18585
822.849	18441
822.99	18437
823.13	18384
823.27	18327
823.41	18243
823.55	18281
823.69	18224
823.83	18277
823.97	18041
824.11	17901
824.25	17996
824.389	17946
824.529	18087
824.669	17935
824.809	17996
824.949	18019
825.089	18011
825.228	17973
825.368	17729
825.508	17802
825.648	17843
825.787	17779
825.927	17786
826.067	17653
826.206	17748
826.346	17794
826.485	17779
826.625	17771
826.765	17855
826.904	17741
827.044	17436
827.183	17547
827.323	17337
827.462	17547
827.601	17486
827.741	17345
827.88	17376
828.02	17273
828.159	17391
828.298	17395
828.437	17581
828.577	17402
828.716	17623
828.855	17436
828.994	17128
829.134	17185
829.273	17273
829.412	17102
829.551	17185
829.69	17147
829.829	17193
829.968	17337
830.107	17254
830.246	17102
830.385	17140
830.524	17124
830.663	16919
830.802	16866
830.941	16774
831.08	16774
831.219	16915
831.357	16782
831.496	16942
831.635	16805
831.774	16767
831.913	16725
832.051	16622
832.19	16622
832.329	16516
832.467	16527
832.606	16424
832.744	16523
832.883	16436
833.022	16417
833.16	16459
833.299	16542
833.437	16592
833.576	16512
833.714	16577
833.852	16580
833.991	16607
834.129	16546
834.267	16618
834.406	16466
834.544	16603
834.682	16580
834.821	16569
834.959	16672
835.097	16356
835.235	16630
835.373	16611
835.511	16481
835.65	16516
835.788	16413
835.926	16295
836.064	16268
836.202	16284
836.34	16421
836.478	16523
836.615	16348
836.753	16379
836.891	16512
837.029	16535
837.167	16344
837.305	16287
837.443	16265
837.58	16192
837.718	16398
837.856	16306
837.993	16382
838.131	16322
838.269	16291
838.406	16246
838.544	16242
838.681	16021
838.819	16013
838.956	15774
839.094	15793
839.231	15899
839.369	15994
839.506	16211
839.643	16093
839.781	15800
839.918	15717
840.055	15861
840.193	15804
840.33	15808
840.467	15880
840.604	15873
840.742	16109
840.879	15698
841.016	15724
841.153	15694
841.29	15838
841.427	15899
841.564	15835
841.701	15876
841.838	15793
841.975	15732
842.112	15762
842.249	15644
842.385	15523
842.522	15762
842.659	15641
842.796	15561
842.933	15591
843.069	15431
843.206	15545
843.343	15629
843.479	15591
843.616	15603
843.752	15336
843.889	15393
844.025	15572
844.162	15428
844.298	15496
844.435	15340
844.571	15378
844.708	15443
844.844	15599
844.98	15496
845.117	15523
845.253	15340
845.389	15188
845.525	15359
845.661	15302
845.798	15180
845.934	15241
846.07	15161
846.206	15233
846.342	15355
846.478	15131
846.614	14986
846.75	14967
846.886	14956
847.022	15043
847.158	15039
847.294	14883
847.429	14990
847.565	14963
847.701	15173
847.837	14727
847.972	14636
848.108	14876
848.244	14773
848.379	14617
848.515	14545
848.65	14568
848.786	14522
848.921	14674
849.057	14648
849.192	14659
849.328	14621
849.463	14560
849.598	14503
849.734	14423
849.869	14400
850.004	14309
850.14	14396
850.275	14294
850.41	14244
850.545	14267
850.68	14336
850.815	14351
850.95	14336
851.085	14533
851.22	14351
851.355	14362
851.49	14278
851.625	14267
851.76	14298
851.895	14115
852.03	14187
852.165	14385
852.299	14355
852.434	14431
852.569	14393
852.703	14389
852.838	14385
852.973	14552
853.107	14434
853.242	14324
853.376	14157
853.511	14115
853.645	14115
853.78	14324
853.914	14225
854.048	14191
854.183	14145
854.317	14248
854.451	14339
854.585	14168
854.72	14187
854.854	14324
854.988	14103
855.122	14096
855.256	14077
855.39	14126
855.524	14214
855.658	14248
855.792	14187
855.926	14221
856.06	14343
856.194	14313
856.327	14233
856.461	14054
856.595	14096
856.729	14259
856.862	14286
856.996	14134
857.13	14259
857.263	14362
857.397	14282
857.53	14233
857.664	14320
857.797	14294
857.931	14225
858.064	14180
858.197	14423
858.331	14214
858.464	14123
858.597	14024
858.731	14218
858.864	14195
858.997	14225
859.13	14252
859.263	14202
859.396	14225
859.529	14149
859.662	14225
859.795	14123
859.928	14077
860.061	14290
860.194	14336
860.327	14233
860.46	14157
860.592	14275
860.725	14351
860.858	14294
860.99	14210
861.123	14153
861.256	14218
861.388	14149
861.521	14804
861.653	14043
861.786	13997
861.918	14088
862.05	14130
862.183	14119
862.315	14183
862.447	14187
862.58	14058
862.712	14077
862.844	13974
862.976	13963
863.108	14069
863.24	14514
863.372	13932
863.504	14020
863.636	13974
863.768	13963
863.9	14020
864.032	13887
864.164	13928
864.296	14043
864.428	14145
864.559	14069
864.691	14027
864.823	13902
864.954	13997
865.086	13970
865.217	13955
865.349	13890
865.48	13955
865.612	13890
865.743	14020
865.875	13864
866.006	13879
866.137	13921
866.269	14012
866.4	13921
866.531	13898
866.662	13849
866.793	13830
866.924	13978
867.055	13967
867.186	13967
867.317	13890
867.448	13860
867.579	13826
867.71	13845
867.841	13826
867.972	14001
868.103	13997
868.233	14054
868.364	14062
868.495	14088
868.625	14149
868.756	14309
868.886	14168
869.017	14145
869.147	14298
869.278	14389
869.408	14244
869.539	14176
869.669	14328
869.799	14298
869.929	14332
870.06	14240
870.19	14636
870.32	14446
870.45	14579
870.58	14594
870.71	14651
870.84	14746
870.97	14644
871.1	14575
871.23	14781
871.36	14800
871.489	14792
871.619	14754
871.749	14815
871.879	14819
872.008	14826
872.138	14796
872.267	14796
872.397	14712
872.526	14511
872.656	14594
872.785	14663
872.915	14857
873.044	14895
873.173	14872
873.303	14883
873.432	14785
873.561	14857
873.69	14891
873.819	14823
873.948	14819
874.077	14769
874.206	14762
874.335	14815
874.464	15077
874.593	15146
874.722	15039
874.851	15241
874.979	15249
875.108	15245
875.237	15169
875.365	15138
875.494	15123
875.623	15207
875.751	15123
875.88	15192
876.008	15412
876.136	15374
876.265	15530
876.393	15652
876.521	15739
876.65	15671
876.778	15576
876.906	15561
877.034	15557
877.162	15660
877.29	15477
877.418	15618
877.546	15523
877.674	15622
877.802	15534
877.93	15466
878.058	15545
878.185	15496
878.313	15469
878.441	15614
878.568	15317
878.696	15599
878.824	15663
878.951	15671
879.079	15743
879.206	15945
879.333	15762
879.461	15610
879.588	15682
879.715	15804
879.842	15816
879.97	15701
880.097	15435
880.224	15367
880.351	15481
880.478	15348
880.605	15344
880.732	15466
880.859	15644
880.986	15416
881.112	15599
881.239	15412
881.366	15222
881.493	15051
881.619	15165
881.746	15062
881.872	15100
881.999	15093
882.125	15024
882.252	15138
882.378	15097
882.505	15203
882.631	14921
882.757	14910
882.883	15001
883.01	14982
883.136	14864
883.262	14758
883.388	14819
883.514	15005
883.64	14990
883.766	14849
883.892	14724
884.018	14765
884.143	14804
884.269	14975
884.395	14648
884.52	14610
884.646	14606
884.772	14606
884.897	14556
885.023	14636
885.148	14663
885.274	14834
885.399	14739
885.524	14530
885.65	14621
885.775	14655
885.9	14587
886.025	14705
886.15	14651
886.275	14610
886.4	14602
886.525	14522
886.65	14507
886.775	14556
886.9	14636
887.025	14796
887.149	14663
887.274	14454
887.399	14457
887.523	14469
887.648	14415
887.773	14339
887.897	14457
888.021	14514
888.146	14351
888.27	14476
888.395	14575
888.519	14549
888.643	14556
888.767	14522
888.891	14301
889.015	14339
889.139	14358
889.263	14233
889.387	14324
889.511	14488
889.635	14457
889.759	14301
889.883	14358
890.006	14290
890.13	14423
890.254	14225
890.377	14271
890.501	14172
890.624	14062
890.748	14199
890.871	14008
890.995	14024
891.118	13887
891.241	13978
891.364	13928
891.488	14115
891.611	13989
891.734	14008
891.857	14050
891.98	13989
892.103	14024
892.226	14043
892.349	13986
892.471	13803
892.594	14027
892.717	13997
892.839	14031
892.962	13997
893.085	14142
893.207	13959
893.33	13887
893.452	13868
893.575	14073
893.697	13944
893.819	14202
893.941	14275
894.064	14138
894.186	13936
894.308	13986
894.43	14210
894.552	14294
894.674	14191
894.796	13997
894.918	14062
895.04	14123
895.161	14172
895.283	14088
895.405	14069
895.526	14077
895.648	14092
895.769	14221
895.891	14199
896.012	14195
896.134	14168
896.255	14172
896.376	14176
896.498	14237
896.619	14294
896.74	14187
896.861	14328
896.982	14480
897.103	14644
897.224	14545
897.345	14431
897.466	14385
897.587	14419
897.708	14480
897.828	14587
897.949	14450
898.07	14309
898.19	14442
898.311	14610
898.431	14461
898.552	14575
898.672	14648
898.792	14648
898.913	14533
899.033	14480
899.153	14415
899.273	14374
899.393	14393
899.513	14476
899.633	14419
899.753	14423
899.873	14370
899.993	14412
900.113	14332
900.232	14412
900.352	14469
900.472	14286
900.591	14210
900.711	14206
900.83	14092
900.95	14431
901.069	14313
901.189	14301
901.308	14058
901.427	13894
901.546	13986
901.665	13970
901.784	14046
901.904	13887
902.023	13738
902.141	13628
902.26	13571
902.379	13613
902.498	13487
902.617	13362
902.735	13544
902.854	13540
902.973	13460
903.091	13179
903.21	13282
903.328	13240
903.446	13080
903.565	13080
903.683	13080
903.801	12882
903.919	13046
904.038	13057
904.156	12882
904.274	12932
904.392	12882
904.51	12966
904.627	12901
904.745	12928
904.863	12951
904.981	12741
905.098	12677
905.216	12616
905.334	12601
905.451	12646
905.569	12559
905.686	12551
905.803	12540
905.921	12433
906.038	12464
906.155	12311
906.272	12330
906.389	12327
906.506	12205
906.623	12152
906.74	12243
906.857	12125
906.974	12068
907.091	12235
907.208	12270
907.324	12254
907.441	12190
907.557	12007
907.674	12038
907.79	11920
907.907	11988
908.023	11927
908.139	11946
908.256	11874
908.372	11821
908.488	11821
908.604	11760
908.72	11646
908.836	11699
908.952	11634
909.068	11729
909.184	11798
909.3	11680
909.415	11668
909.531	11779
909.647	11455
909.762	11402
909.878	11455
909.993	11391
910.108	11493
910.224	11364
910.339	11421
910.454	11383
910.57	11330
910.685	11261
910.8	11562
910.915	11532
911.03	11356
911.145	11155
911.259	11193
911.374	11140
911.489	11071
911.604	10984
911.718	10949
911.833	10919
911.947	10797
912.062	10698
912.176	10915
912.291	10904
912.405	10862
912.519	11064
912.633	11102
912.748	11018
912.862	10923
912.976	10744
913.09	10710
913.204	10740
913.318	10831
913.431	10946
913.545	10923
913.659	10847
913.772	10816
913.886	10725
914	10637
914.113	10736
914.226	10759
914.34	10816
914.453	10607
914.566	10778
914.68	10637
914.793	10637
914.906	10508
915.019	10459
915.132	10375
915.245	10459
915.358	10459
915.47	10409
915.583	10459
915.696	10466
915.809	10462
915.921	10599
916.034	10398
916.146	10375
916.259	10253
916.371	10485
916.483	10451
916.595	10382
916.708	10394
916.82	10428
916.932	10352
917.044	10398
917.156	10344
917.268	10261
917.38	10299
917.491	10223
917.603	10272
917.715	10341
917.826	10333
917.938	10261
918.049	10204
918.161	10265
918.272	10348
918.384	10371
918.495	10249
918.606	10158
918.717	10093
918.828	10105
918.939	10093
919.05	10078
919.161	10090
919.272	9915
919.383	9956
919.494	10204
919.604	10325
919.715	10131
919.826	10025
919.936	10143
920.047	10223
920.157	10162
920.267	10394
920.378	10188
920.488	10131
920.598	10303
920.708	10462
920.818	10432
920.928	10390
921.038	10542
921.148	10527
921.258	10177
921.368	10124
921.477	10071
921.587	10055
921.697	9934
921.806	10051
921.916	9926
922.025	9694
922.134	9709
922.244	9682
922.353	9762
922.462	9637
922.571	9595
922.68	9443
922.789	9412
922.898	9500
923.007	9401
923.116	9481
923.224	9462
923.333	9439
923.442	9374
923.55	9294
923.659	9348
923.767	9389
923.876	9249
923.984	9401
924.092	9241
924.201	9283
924.309	9325
924.417	9287
924.525	9249
924.633	9218
924.741	10192
924.849	9062
924.956	9321
925.064	9062
925.172	8975
925.279	9009
925.387	9081
925.494	9085
925.602	9253
925.709	9195
925.816	9013
925.924	9131
926.031	9138
926.138	9036
926.245	9142
926.352	9017
926.459	9161
926.566	9176
926.673	9085
926.779	8929
926.886	8994
926.993	8845
927.099	8762
927.206	8720
927.312	8823
927.419	8883
927.525	8853
927.631	8788
927.737	8754
927.843	8701
927.95	8590
928.056	8663
928.162	8712
928.267	8788
928.373	9298
928.479	8826
928.585	8461
928.69	8712
928.796	8762
928.901	8636
929.007	8431
929.112	8693
929.218	8560
929.323	8507
929.428	8518
929.533	8670
929.638	8514
929.743	8488
929.848	8533
929.953	8488
930.058	8442
930.163	8248
930.267	8355
930.372	8412
930.477	8343
930.581	8670
930.685	8366
930.79	8210
930.894	8298
930.998	8214
931.103	8362
931.207	8062
931.311	8024
931.415	7909
931.519	7658
931.623	7681
