Data from test_V78500241_1037.txt Node
Date: Fri Mar 25 14:40:56 CST 2022
User: usil
Spectrometer: V785-0024
Trigger mode: 0
Integration Time (sec): 4.000000E-1
Scans to average: 1
Nonlinearity correction enabled: false
Boxcar width: 0
Storing dark spectrum: false
XAxis mode: Wavelengths
Number of Pixels in Spectrum: 1024
>>>>>Begin Spectral Data<<<<<
801.071	22801
801.214	22752
801.356	22561
801.499	22459
801.641	22348
801.783	22150
801.926	22299
802.068	22226
802.211	22086
802.353	22006
802.496	21793
802.638	21675
802.78	21591
802.923	21641
803.065	21553
803.208	21599
803.35	21641
803.492	21698
803.635	21538
803.777	21519
803.919	21629
804.061	21987
804.204	21705
804.346	21614
804.488	21397
804.63	21458
804.773	21488
804.915	21553
805.057	21652
805.199	21534
805.341	21705
805.483	21679
805.626	21526
805.768	21408
805.91	21557
806.052	21663
806.194	21500
806.336	21713
806.478	21717
806.62	21534
806.762	21614
806.904	21739
807.046	21994
807.188	21987
807.33	21953
807.472	21972
807.614	21930
807.756	21979
807.898	21850
808.04	21941
808.182	22063
808.324	22036
808.465	22124
808.607	22588
808.749	22660
808.891	22854
809.033	22847
809.174	22793
809.316	22573
809.458	22402
809.6	22211
809.741	22310
809.883	22291
810.025	22356
810.166	22261
810.308	22314
810.45	22162
810.591	22135
810.733	21964
810.875	21975
811.016	21713
811.158	21759
811.299	21892
811.441	21941
811.582	21968
811.724	21778
811.865	21732
812.007	21648
812.148	21762
812.29	21793
812.431	21934
812.573	22112
812.714	22150
812.855	22253
812.997	22284
813.138	22466
813.279	22394
813.421	22272
813.562	22181
813.703	22093
813.845	22010
813.986	21538
814.127	21389
814.268	21412
814.41	21260
814.551	21256
814.692	21367
814.833	21249
814.974	21294
815.115	21256
815.256	21043
815.397	21055
815.539	21211
815.68	21043
815.821	20956
815.962	21146
816.103	21039
816.244	20960
816.385	20826
816.526	20781
816.666	20556
816.807	20461
816.948	20522
817.089	20670
817.23	20484
817.371	20530
817.512	20526
817.653	20404
817.793	20412
817.934	20412
818.075	20415
818.216	20533
818.356	20423
818.497	20313
818.638	20103
818.778	20191
818.919	20168
819.06	20214
819.2	20355
819.341	20305
819.481	20286
819.622	20465
819.762	20617
819.903	20606
820.043	20530
820.184	20446
820.324	20370
820.465	20355
820.605	20511
820.746	20377
820.886	20309
821.026	20484
821.167	20438
821.307	20480
821.447	20400
821.588	20256
821.728	20130
821.868	19955
822.008	19849
822.149	19852
822.289	19845
822.429	19552
822.569	19434
822.709	19449
822.849	19263
822.99	19354
823.13	19255
823.27	19225
823.41	19232
823.55	19015
823.69	18996
823.83	19103
823.97	19034
824.11	18867
824.25	18905
824.389	18901
824.529	18943
824.669	18913
824.809	19065
824.949	18973
825.089	18935
825.228	18909
825.368	18707
825.508	18745
825.648	18711
825.787	18627
825.927	18821
826.067	18639
826.206	18700
826.346	18635
826.485	18798
826.625	18700
826.765	18741
826.904	18726
827.044	18521
827.183	18410
827.323	18289
827.462	18494
827.601	18342
827.741	18300
827.88	18342
828.02	18182
828.159	18357
828.298	18384
828.437	18350
828.577	18262
828.716	18350
828.855	18251
828.994	18136
829.134	18144
829.273	18209
829.412	18068
829.551	18053
829.69	17973
829.829	18133
829.968	18205
830.107	18144
830.246	18163
830.385	17954
830.524	18053
830.663	17855
830.802	17893
830.941	17748
831.08	17813
831.219	17874
831.357	17737
831.496	17988
831.635	17748
831.774	17630
831.913	17638
832.051	17551
832.19	17539
832.329	17543
832.467	17490
832.606	17368
832.744	17387
832.883	17383
833.022	17395
833.16	17410
833.299	17615
833.437	17524
833.576	17490
833.714	17516
833.852	17478
833.991	17467
834.129	17623
834.267	17566
834.406	17562
834.544	17592
834.682	17512
834.821	17429
834.959	17722
835.097	17395
835.235	17611
835.373	17452
835.511	17486
835.65	17364
835.788	17299
835.926	17185
836.064	17121
836.202	17151
836.34	17436
836.478	17482
836.615	17383
836.753	17296
836.891	17425
837.029	17345
837.167	17273
837.305	17094
837.443	17208
837.58	17280
837.718	17265
837.856	17189
837.993	17235
838.131	17231
838.269	17208
838.406	17052
838.544	17006
838.681	16904
838.819	16862
838.956	16805
839.094	16778
839.231	16729
839.369	16911
839.506	17136
839.643	16987
839.781	16828
839.918	16729
840.055	16759
840.193	16847
840.33	16744
840.467	16786
840.604	16782
840.742	17014
840.879	16565
841.016	16717
841.153	16615
841.29	16797
841.427	16683
841.564	16752
841.701	16790
841.838	16835
841.975	16500
842.112	16637
842.249	16622
842.385	16500
842.522	16782
842.659	16531
842.796	16512
842.933	16538
843.069	16493
843.206	16455
843.343	16565
843.479	16599
843.616	16573
843.752	16287
843.889	16310
844.025	16554
844.162	16363
844.298	16531
844.435	16337
844.571	16215
844.708	16382
844.844	16447
844.98	16493
845.117	16421
845.253	16402
845.389	16303
845.525	16489
845.661	16653
845.798	16733
845.934	17025
846.07	16961
846.206	17090
846.342	16980
846.478	16596
846.614	16337
846.75	15994
846.886	15876
847.022	15975
847.158	15998
847.294	15903
847.429	15968
847.565	15808
847.701	16048
847.837	15701
847.972	15534
848.108	15660
848.244	15663
848.379	15485
848.515	15488
848.65	15382
848.786	15481
848.921	15549
849.057	15618
849.192	15580
849.328	15519
849.463	15488
849.598	15488
849.734	15351
849.869	15321
850.004	15214
850.14	15233
850.275	15249
850.41	15150
850.545	15097
850.68	15195
850.815	15218
850.95	15211
851.085	15534
851.22	15233
851.355	15272
851.49	15203
851.625	15218
851.76	15173
851.895	15127
852.03	15089
852.165	15165
852.299	15275
852.434	15355
852.569	15291
852.703	15180
852.838	15302
852.973	15389
853.107	15367
853.242	15230
853.376	15131
853.511	15024
853.645	15119
853.78	15252
853.914	15066
854.048	15051
854.183	15055
854.317	15028
854.451	15218
854.585	15039
854.72	15043
854.854	15176
854.988	14948
855.122	14918
855.256	14975
855.39	15070
855.524	15127
855.658	15142
855.792	15081
855.926	15157
856.06	15214
856.194	15226
856.327	15051
856.461	15142
856.595	15047
856.729	14990
856.862	15146
856.996	15074
857.13	15112
857.263	15214
857.397	15150
857.53	14941
857.664	15192
857.797	15192
857.931	15195
858.064	15100
858.197	15138
858.331	15131
858.464	15017
858.597	15009
858.731	15009
858.864	15074
858.997	15051
859.13	15028
859.263	15161
859.396	15230
859.529	15036
859.662	14979
859.795	15131
859.928	15157
860.061	15214
860.194	15157
860.327	15070
860.46	15154
860.592	15165
860.725	15272
860.858	15119
860.99	15066
861.123	15039
861.256	15081
861.388	14967
861.521	15728
861.653	14952
861.786	14967
861.918	14899
862.05	15013
862.183	15104
862.315	15036
862.447	15146
862.58	14975
862.712	14876
862.844	14773
862.976	14872
863.108	14872
863.24	15169
863.372	14773
863.504	14887
863.636	14807
863.768	14876
863.9	14804
864.032	14823
864.164	14807
864.296	14830
864.428	14933
864.559	14990
864.691	14971
864.823	14815
864.954	14891
865.086	14857
865.217	14918
865.349	14731
865.48	14849
865.612	14788
865.743	14921
865.875	14830
866.006	14720
866.137	14781
866.269	14807
866.4	14796
866.531	14796
866.662	14758
866.793	14788
866.924	14807
867.055	14811
867.186	14800
867.317	14720
867.448	14667
867.579	14678
867.71	14708
867.841	14594
867.972	14853
868.103	14849
868.233	14796
868.364	14796
868.495	14971
868.625	14967
868.756	15249
868.886	14948
869.017	15047
869.147	15176
869.278	15131
869.408	15028
869.539	15005
869.669	15127
869.799	15112
869.929	15169
870.06	15161
870.19	15393
870.32	15435
870.45	15462
870.58	15496
870.71	15568
870.84	15534
870.97	15401
871.1	15428
871.23	15713
871.36	15603
871.489	15545
871.619	15717
871.749	15656
871.879	15724
872.008	15698
872.138	15591
872.267	15762
872.397	15511
872.526	15412
872.656	15412
872.785	15435
872.915	15667
873.044	15686
873.173	15584
873.303	15599
873.432	15663
873.561	15751
873.69	15701
873.819	15747
873.948	15739
874.077	15679
874.206	15709
874.335	15667
874.464	15804
874.593	15968
874.722	15964
874.851	16139
874.979	15994
875.108	15994
875.237	15945
875.365	15911
875.494	15953
875.623	16032
875.751	16032
875.88	16021
876.008	16078
876.136	16249
876.265	16447
876.393	16546
876.521	16440
876.65	16500
876.778	16470
876.906	16421
877.034	16280
877.162	16447
877.29	16344
877.418	16394
877.546	16470
877.674	16474
877.802	16443
877.93	16504
878.058	16531
878.185	16371
878.313	16451
878.441	16569
878.568	16272
878.696	16478
878.824	16660
878.951	16664
879.079	16869
879.206	17045
879.333	16927
879.461	16923
879.588	16915
879.715	17083
879.842	17170
879.97	16889
880.097	16584
880.224	16341
880.351	16508
880.478	16459
880.605	16432
880.732	16500
880.859	16596
880.986	16512
881.112	16409
881.239	16246
881.366	16124
881.493	16101
881.619	15983
881.746	16090
881.872	16082
881.999	15994
882.125	15998
882.252	16120
882.378	15987
882.505	16158
882.631	15987
882.757	15953
882.883	15842
883.01	15827
883.136	15869
883.262	15793
883.388	15724
883.514	15907
883.64	15895
883.766	15884
883.892	15724
884.018	15599
884.143	15869
884.269	15911
884.395	15633
884.52	15473
884.646	15572
884.772	15485
884.897	15492
885.023	15454
885.148	15690
885.274	15675
885.399	15694
885.524	15511
885.65	15504
885.775	15515
885.9	15530
886.025	15709
886.15	15584
886.275	15504
886.4	15355
886.525	15454
886.65	15538
886.775	15473
886.9	15633
887.025	15743
887.149	15549
887.274	15340
887.399	15313
887.523	15249
887.648	15233
887.773	15313
887.897	15355
888.021	15348
888.146	15241
888.27	15355
888.395	15454
888.519	15469
888.643	15344
888.767	15325
888.891	15104
889.015	15188
889.139	15207
889.263	15214
889.387	15245
889.511	15340
889.635	15233
889.759	15074
889.883	15173
890.006	15173
890.13	15211
890.254	15062
890.377	15081
890.501	14937
890.624	14937
890.748	15062
890.871	14914
890.995	14743
891.118	14750
891.241	14830
891.364	14735
891.488	14918
891.611	14857
891.734	14876
891.857	14823
891.98	14899
892.103	14925
892.226	14857
892.349	14720
892.471	14731
892.594	14853
892.717	14800
892.839	14777
892.962	14838
893.085	14910
893.207	14716
893.33	14701
893.452	14754
893.575	14883
893.697	14769
893.819	14914
893.941	15020
894.064	14864
894.186	14769
894.308	14754
894.43	14929
894.552	15062
894.674	14925
894.796	14727
894.918	14686
895.04	14804
895.161	14941
895.283	14853
895.405	14804
895.526	14838
895.648	14781
895.769	14872
895.891	14944
896.012	15005
896.134	15017
896.255	14941
896.376	14845
896.498	14891
896.619	14948
896.74	14921
896.861	14971
896.982	15359
897.103	15378
897.224	15169
897.345	15180
897.466	15138
897.587	15097
897.708	15260
897.828	15245
897.949	15192
898.07	15047
898.19	15161
898.311	15313
898.431	15287
898.552	15294
898.672	15359
898.792	15340
898.913	15287
899.033	15108
899.153	15116
899.273	15138
899.393	15097
899.513	15169
899.633	15142
899.753	15097
899.873	15116
899.993	15195
900.113	15051
900.232	15199
900.352	15032
900.472	14937
900.591	14918
900.711	15089
900.83	14914
900.95	15100
901.069	15081
901.189	14895
901.308	14682
901.427	14556
901.546	14655
901.665	14750
901.784	14556
901.904	14514
902.023	14431
902.141	14237
902.26	14206
902.379	14389
902.498	14180
902.617	14039
902.735	14256
902.854	14248
902.973	14126
903.091	13955
903.21	13830
903.328	13921
903.446	13879
903.565	13807
903.683	13761
903.801	13674
903.919	13799
904.038	13704
904.156	13559
904.274	13616
904.392	13552
904.51	13472
904.627	13575
904.745	13613
904.863	13624
904.981	13301
905.098	13225
905.216	13343
905.334	13354
905.451	13251
905.569	13179
905.686	13259
905.803	13259
905.921	13084
906.038	13122
906.155	13088
906.272	12981
906.389	12939
906.506	12848
906.623	12817
906.74	12791
906.857	12696
906.974	12669
907.091	12909
907.208	13019
907.324	12810
907.441	12703
907.557	12597
907.674	12559
907.79	12471
907.907	12521
908.023	12570
908.139	12506
908.256	12585
908.372	12467
908.488	12460
908.604	12277
908.72	12319
908.836	12327
908.952	12311
909.068	12285
909.184	12483
909.3	12361
909.415	12338
909.531	12357
909.647	12106
909.762	12125
909.878	12034
909.993	12110
910.108	12068
910.224	12049
910.339	12015
910.454	11961
910.57	11973
910.685	11817
910.8	12136
910.915	12057
911.03	11901
911.145	11832
911.259	11745
911.374	11790
911.489	11722
911.604	11630
911.718	11535
911.833	11619
911.947	11402
912.062	11360
912.176	11455
912.291	11611
912.405	11573
912.519	11695
912.633	11756
912.748	11581
912.862	11543
912.976	11360
913.09	11261
913.204	11303
913.318	11318
913.431	11425
913.545	11455
913.659	11410
913.772	11433
913.886	11307
914	11197
914.113	11277
914.226	11383
914.34	11368
914.453	11246
914.566	11265
914.68	11162
914.793	11239
914.906	10999
915.019	10949
915.132	10946
915.245	10908
915.358	10987
915.47	10980
915.583	10968
915.696	10999
915.809	11132
915.921	11090
916.034	10965
916.146	10892
916.259	10881
916.371	11071
916.483	11071
916.595	10889
916.708	10942
916.82	10824
916.932	10885
917.044	10854
917.156	10896
917.268	10812
917.38	10812
917.491	10717
917.603	10828
917.715	10889
917.826	10915
917.938	10824
918.049	10702
918.161	10843
918.272	10858
918.384	10942
918.495	10854
918.606	10702
918.717	10577
918.828	10774
918.939	10611
919.05	10569
919.161	10649
919.272	10451
919.383	10558
919.494	10721
919.604	10839
919.715	10660
919.826	10607
919.936	10694
920.047	10771
920.157	10710
920.267	10919
920.378	10630
920.488	10607
920.598	10748
920.708	11121
920.818	10930
920.928	10850
921.038	11083
921.148	10911
921.258	10710
921.368	10584
921.477	10523
921.587	10462
921.697	10405
921.806	10500
921.916	10386
922.025	10356
922.134	10265
922.244	10162
922.353	10253
922.462	10173
922.571	10082
922.68	9941
922.789	9865
922.898	9941
923.007	9831
923.116	9854
923.224	9903
923.333	9934
923.442	9831
923.55	9793
923.659	9766
923.767	9888
923.876	9717
923.984	9778
924.092	9690
924.201	9781
924.309	9705
924.417	9762
924.525	9656
924.633	9759
924.741	10615
924.849	9530
924.956	9656
925.064	9492
925.172	9469
925.279	9545
925.387	9564
925.494	9523
925.602	9603
925.709	9568
925.816	9420
925.924	9553
926.031	9564
926.138	9504
926.245	9549
926.352	9496
926.459	9576
926.566	9656
926.673	9504
926.779	9431
926.886	9332
926.993	9294
927.099	9211
927.206	9093
927.312	9161
927.419	9317
927.525	9317
927.631	9268
927.737	9176
927.843	9112
927.95	8963
928.056	9119
928.162	9116
928.267	9237
928.373	9838
928.479	9176
928.585	9032
928.69	9047
928.796	9142
928.901	9017
929.007	8895
929.112	8967
929.218	8944
929.323	8883
929.428	8925
929.533	9127
929.638	8861
929.743	8914
929.848	8902
929.953	8906
930.058	8826
930.163	8708
930.267	8716
930.372	8826
930.477	8674
930.581	8906
930.685	8769
930.79	8625
930.894	8697
930.998	8606
931.103	8766
931.207	8389
931.311	8446
931.415	8370
931.519	8069
931.623	8153
