Data from test_V78500241_2338.txt Node
Date: Fri Mar 25 14:49:59 CST 2022
User: usil
Spectrometer: V785-0024
Trigger mode: 0
Integration Time (sec): 4.000000E-1
Scans to average: 1
Nonlinearity correction enabled: false
Boxcar width: 0
Storing dark spectrum: false
XAxis mode: Wavelengths
Number of Pixels in Spectrum: 1024
>>>>>Begin Spectral Data<<<<<
801.071	22090
801.214	22116
801.356	21774
801.499	21812
801.641	21519
801.783	21553
801.926	21496
802.068	21447
802.211	21405
802.353	21268
802.496	21093
802.638	21028
802.78	20918
802.923	20883
803.065	20880
803.208	20754
803.35	20834
803.492	20990
803.635	21032
803.777	20769
803.919	20857
804.061	21142
804.204	20868
804.346	20773
804.488	20781
804.63	20941
804.773	20724
804.915	20842
805.057	20853
805.199	20800
805.341	20777
805.483	21024
805.626	20872
805.768	20670
805.91	20724
806.052	20785
806.194	20731
806.336	20910
806.478	20899
806.62	20853
806.762	20826
806.904	21032
807.046	21169
807.188	21154
807.33	21058
807.472	21131
807.614	21169
807.756	20998
807.898	20952
808.04	20895
808.182	20941
808.324	20960
808.465	20914
808.607	21089
808.749	21207
808.891	21321
809.033	21321
809.174	21192
809.316	21173
809.458	21226
809.6	21081
809.741	21150
809.883	21184
810.025	21260
810.166	21351
810.308	21310
810.45	21226
810.591	21157
810.733	21055
810.875	20849
811.016	20921
811.158	20830
811.299	20937
811.441	21062
811.582	21142
811.724	20990
811.865	20876
812.007	20994
812.148	20918
812.29	20849
812.431	21169
812.573	21340
812.714	21348
812.855	21412
812.997	21519
813.138	21629
813.279	21458
813.421	21405
813.562	21378
813.703	21161
813.845	21051
813.986	20929
814.127	20682
814.268	20575
814.41	20511
814.551	20355
814.692	20442
814.833	20362
814.974	20431
815.115	20469
815.256	20278
815.397	20225
815.539	20320
815.68	20290
815.821	20088
815.962	20267
816.103	20301
816.244	20039
816.385	19982
816.526	19875
816.666	19742
816.807	19746
816.948	19639
817.089	19715
817.23	19757
817.371	19613
817.512	19605
817.653	19647
817.793	19571
817.934	19616
818.075	19552
818.216	19712
818.356	19624
818.497	19491
818.638	19206
818.778	19468
818.919	19244
819.06	19449
819.2	19472
819.341	19487
819.481	19460
819.622	19677
819.762	19830
819.903	19674
820.043	19666
820.184	19548
820.324	19628
820.465	19651
820.605	19647
820.746	19548
820.886	19510
821.026	19620
821.167	19544
821.307	19559
821.447	19411
821.588	19415
821.728	19259
821.868	19118
822.008	19027
822.149	19194
822.289	18890
822.429	18692
822.569	18563
822.709	18528
822.849	18448
822.99	18452
823.13	18475
823.27	18384
823.41	18281
823.55	18167
823.69	18228
823.83	18327
823.97	18251
824.11	18079
824.25	17965
824.389	18095
824.529	18087
824.669	18030
824.809	18087
824.949	18174
825.089	18114
825.228	18140
825.368	17874
825.508	17847
825.648	17771
825.787	17912
825.927	17855
826.067	17798
826.206	17767
826.346	17783
826.485	17855
826.625	17885
826.765	18007
826.904	17843
827.044	17592
827.183	17535
827.323	17509
827.462	17596
827.601	17490
827.741	17554
827.88	17467
828.02	17395
828.159	17592
828.298	17512
828.437	17558
828.577	17414
828.716	17627
828.855	17452
828.994	17284
829.134	17296
829.273	17337
829.412	17155
829.551	17200
829.69	17273
829.829	17273
829.968	17330
830.107	17398
830.246	17216
830.385	17189
830.524	17162
830.663	16999
830.802	16938
830.941	16923
831.08	16858
831.219	16965
831.357	16881
831.496	17151
831.635	16812
831.774	16771
831.913	16771
832.051	16615
832.19	16668
832.329	16717
832.467	16512
832.606	16508
832.744	16500
832.883	16565
833.022	16466
833.16	16489
833.299	16607
833.437	16546
833.576	16580
833.714	16637
833.852	16664
833.991	16656
834.129	16713
834.267	16664
834.406	16630
834.544	16672
834.682	16679
834.821	16561
834.959	16706
835.097	16721
835.235	16672
835.373	16698
835.511	16596
835.65	16626
835.788	16531
835.926	16386
836.064	16325
836.202	16341
836.34	16527
836.478	16615
836.615	16447
836.753	16409
836.891	16588
837.029	16573
837.167	16459
837.305	16470
837.443	16325
837.58	16341
837.718	16447
837.856	16424
837.993	16352
838.131	16379
838.269	16246
838.406	16386
838.544	16257
838.681	15960
838.819	16032
838.956	15865
839.094	15956
839.231	15907
839.369	16116
839.506	16299
839.643	16173
839.781	15979
839.918	15865
840.055	16090
840.193	15892
840.33	15911
840.467	15873
840.604	15876
840.742	16173
840.879	15831
841.016	15808
841.153	15827
841.29	16112
841.427	15975
841.564	15873
841.701	15926
841.838	15743
841.975	15857
842.112	15876
842.249	15663
842.385	15705
842.522	15865
842.659	15774
842.796	15682
842.933	15701
843.069	15709
843.206	15751
843.343	15846
843.479	15660
843.616	15724
843.752	15519
843.889	15466
844.025	15591
844.162	15473
844.298	15622
844.435	15348
844.571	15428
844.708	15500
844.844	15663
844.98	15660
845.117	15698
845.253	15378
845.389	15378
845.525	15435
845.661	15287
845.798	15211
845.934	15245
846.07	15249
846.206	15275
846.342	15363
846.478	15325
846.614	15058
846.75	14982
846.886	15135
847.022	15097
847.158	15077
847.294	15077
847.429	15039
847.565	14990
847.701	15233
847.837	14842
847.972	14686
848.108	14899
848.244	14960
848.379	14701
848.515	14716
848.65	14602
848.786	14629
848.921	14556
849.057	14746
849.192	14762
849.328	14670
849.463	14644
849.598	14610
849.734	14514
849.869	14583
850.004	14465
850.14	14511
850.275	14408
850.41	14317
850.545	14377
850.68	14396
850.815	14377
850.95	14343
851.085	14549
851.22	14476
851.355	14499
851.49	14332
851.625	14294
851.76	14336
851.895	14278
852.03	14278
852.165	14377
852.299	14415
852.434	14522
852.569	14419
852.703	14415
852.838	14427
852.973	14613
853.107	14514
853.242	14370
853.376	14256
853.511	14199
853.645	14210
853.78	14385
853.914	14240
854.048	14290
854.183	14336
854.317	14347
854.451	14454
854.585	14298
854.72	14256
854.854	14290
854.988	14240
855.122	14282
855.256	14111
855.39	14206
855.524	14400
855.658	14282
855.792	14393
855.926	14309
856.06	14328
856.194	14377
856.327	14305
856.461	14259
856.595	14206
856.729	14290
856.862	14415
856.996	14317
857.13	14366
857.263	14351
857.397	14309
857.53	14294
857.664	14374
857.797	14358
857.931	14450
858.064	14347
858.197	14454
858.331	14370
858.464	14248
858.597	14229
858.731	14256
858.864	14370
858.997	14221
859.13	14298
859.263	14309
859.396	14400
859.529	14244
859.662	14202
859.795	14218
859.928	14290
860.061	14526
860.194	14431
860.327	14389
860.46	14214
860.592	14358
860.725	14412
860.858	14309
860.99	14290
861.123	14206
861.256	14138
861.388	14317
861.521	14834
861.653	14290
861.786	14115
861.918	14176
862.05	14157
862.183	14248
862.315	14229
862.447	14328
862.58	14278
862.712	14096
862.844	14073
862.976	14069
863.108	14199
863.24	14431
863.372	13963
863.504	13967
863.636	14100
863.768	14107
863.9	14084
864.032	13921
864.164	14005
864.296	14069
864.428	14176
864.559	14157
864.691	14145
864.823	14100
864.954	14039
865.086	14046
865.217	14024
865.349	13894
865.48	13974
865.612	14062
865.743	14161
865.875	13970
866.006	14012
866.137	14027
866.269	14092
866.4	14065
866.531	14027
866.662	13868
866.793	14054
866.924	13974
867.055	13993
867.186	13940
867.317	13993
867.448	13974
867.579	14012
867.71	13963
867.841	14005
867.972	13928
868.103	14046
868.233	14077
868.364	14046
868.495	14134
868.625	14183
868.756	14419
868.886	14210
869.017	14282
869.147	14370
869.278	14503
869.408	14336
869.539	14218
869.669	14514
869.799	14370
869.929	14415
870.06	14317
870.19	14583
870.32	14507
870.45	14625
870.58	14686
870.71	14811
870.84	14792
870.97	14724
871.1	14667
871.23	14925
871.36	14872
871.489	14830
871.619	14842
871.749	14902
871.879	14925
872.008	15047
872.138	14872
872.267	14921
872.397	14701
872.526	14826
872.656	14689
872.785	14735
872.915	14880
873.044	15058
873.173	14960
873.303	14929
873.432	14929
873.561	14998
873.69	14944
873.819	14971
873.948	15020
874.077	14956
874.206	14933
874.335	14918
874.464	15032
874.593	15211
874.722	15161
874.851	15275
874.979	15249
875.108	15272
875.237	15211
875.365	15218
875.494	15176
875.623	15336
875.751	15249
875.88	15325
876.008	15405
876.136	15420
876.265	15709
876.393	15762
876.521	15717
876.65	15770
876.778	15701
876.906	15637
877.034	15698
877.162	15751
877.29	15652
877.418	15694
877.546	15709
877.674	15606
877.802	15663
877.93	15652
878.058	15561
878.185	15610
878.313	15610
878.441	15732
878.568	15454
878.696	15652
878.824	15747
878.951	15667
879.079	15842
879.206	15972
879.333	15899
879.461	15629
879.588	15705
879.715	15945
879.842	15895
879.97	15766
880.097	15458
880.224	15511
880.351	15481
880.478	15496
880.605	15549
880.732	15485
880.859	15652
880.986	15481
881.112	15625
881.239	15424
881.366	15294
881.493	15184
881.619	15070
881.746	15180
881.872	15150
881.999	15119
882.125	15047
882.252	15252
882.378	15161
882.505	15279
882.631	15123
882.757	14948
882.883	15055
883.01	14982
883.136	14800
883.262	14819
883.388	14842
883.514	14971
883.64	15085
883.766	15005
883.892	14792
884.018	14914
884.143	14986
884.269	14967
884.395	14739
884.52	14781
884.646	14674
884.772	14655
884.897	14617
885.023	14823
885.148	14857
885.274	14861
885.399	14708
885.524	14697
885.65	14807
885.775	14686
885.9	14667
886.025	14895
886.15	14758
886.275	14617
886.4	14575
886.525	14670
886.65	14610
886.775	14636
886.9	14765
887.025	14918
887.149	14617
887.274	14541
887.399	14442
887.523	14556
887.648	14484
887.773	14431
887.897	14583
888.021	14610
888.146	14434
888.27	14727
888.395	14686
888.519	14571
888.643	14568
888.767	14587
888.891	14450
889.015	14370
889.139	14457
889.263	14389
889.387	14484
889.511	14556
889.635	14442
889.759	14396
889.883	14328
890.006	14400
890.13	14492
890.254	14404
890.377	14400
890.501	14225
890.624	14199
890.748	14210
890.871	14168
890.995	14111
891.118	14062
891.241	14043
891.364	14103
891.488	14142
891.611	14092
891.734	14153
891.857	14145
891.98	14039
892.103	14168
892.226	14138
892.349	14031
892.471	13974
892.594	14012
892.717	14107
892.839	14050
892.962	14008
893.085	14126
893.207	14092
893.33	14016
893.452	14012
893.575	14225
893.697	14039
893.819	14233
893.941	14328
894.064	14248
894.186	14073
894.308	13974
894.43	14180
894.552	14324
894.674	14259
894.796	14058
894.918	14062
895.04	14031
895.161	14237
895.283	14172
895.405	14123
895.526	14252
895.648	14183
895.769	14240
895.891	14233
896.012	14229
896.134	14214
896.255	14290
896.376	14126
896.498	14195
896.619	14324
896.74	14298
896.861	14259
896.982	14629
897.103	14701
897.224	14583
897.345	14488
897.466	14313
897.587	14503
897.708	14689
897.828	14560
897.949	14552
898.07	14324
898.19	14568
898.311	14556
898.431	14537
898.552	14583
898.672	14781
898.792	14697
898.913	14655
899.033	14590
899.153	14514
899.273	14431
899.393	14442
899.513	14503
899.633	14385
899.753	14503
899.873	14537
899.993	14499
900.113	14446
900.232	14522
900.352	14530
900.472	14313
900.591	14256
900.711	14400
900.83	14328
900.95	14480
901.069	14442
901.189	14294
901.308	14050
901.427	13974
901.546	14043
901.665	14035
901.784	14126
901.904	13909
902.023	13811
902.141	13674
902.26	13613
902.379	13681
902.498	13575
902.617	13609
902.735	13548
902.854	13605
902.973	13506
903.091	13266
903.21	13339
903.328	13236
903.446	13232
903.565	13198
903.683	13183
903.801	13069
903.919	13187
904.038	13187
904.156	12966
904.274	13000
904.392	12905
904.51	12913
904.627	13034
904.745	12996
904.863	13034
904.981	12700
905.098	12646
905.216	12662
905.334	12730
905.451	12692
905.569	12490
905.686	12627
905.803	12646
905.921	12528
906.038	12635
906.155	12391
906.272	12426
906.389	12407
906.506	12296
906.623	12262
906.74	12205
906.857	12117
906.974	12171
907.091	12319
907.208	12308
907.324	12281
907.441	12144
907.557	11958
907.674	12076
907.79	11939
907.907	11954
908.023	11977
908.139	11969
908.256	11912
908.372	11965
908.488	11912
908.604	11874
908.72	11752
908.836	11771
908.952	11668
909.068	11775
909.184	11798
909.3	11729
909.415	11714
909.531	11733
909.647	11509
909.762	11630
909.878	11535
909.993	11532
910.108	11501
910.224	11444
910.339	11520
910.454	11512
910.57	11463
910.685	11284
910.8	11547
910.915	11592
911.03	11406
911.145	11261
911.259	11197
911.374	11140
911.489	11140
911.604	11083
911.718	10949
911.833	10930
911.947	10892
912.062	10725
912.176	10908
912.291	10934
912.405	10938
912.519	11235
912.633	11128
912.748	11109
912.862	10961
912.976	10850
913.09	10721
913.204	10801
913.318	10748
913.431	10862
913.545	10892
913.659	11018
913.772	10892
913.886	10733
914	10687
914.113	10843
914.226	10869
914.34	10809
914.453	10694
914.566	10771
914.68	10828
914.793	10679
914.906	10603
915.019	10558
915.132	10413
915.245	10424
915.358	10516
915.47	10538
915.583	10519
915.696	10504
915.809	10607
915.921	10599
916.034	10493
916.146	10459
916.259	10432
916.371	10466
916.483	10538
916.595	10394
916.708	10375
916.82	10508
916.932	10409
917.044	10402
917.156	10325
917.268	10181
917.38	10303
917.491	10299
917.603	10329
917.715	10402
917.826	10398
917.938	10337
918.049	10211
918.161	10344
918.272	10459
918.384	10417
918.495	10333
918.606	10200
918.717	10105
918.828	10276
918.939	10238
919.05	10181
919.161	10196
919.272	9998
919.383	10078
919.494	10230
919.604	10417
919.715	10230
919.826	10109
919.936	10147
920.047	10280
920.157	10234
920.267	10348
920.378	10185
920.488	10200
920.598	10459
920.708	10542
920.818	10363
920.928	10379
921.038	10531
921.148	10569
921.258	10280
921.368	10185
921.477	10040
921.587	10086
921.697	9857
921.806	10040
921.916	9895
922.025	9781
922.134	9663
922.244	9644
922.353	9804
922.462	9709
922.571	9629
922.68	9454
922.789	9466
922.898	9469
923.007	9439
923.116	9511
923.224	9393
923.333	9386
923.442	9306
923.55	9283
923.659	9374
923.767	9466
923.876	9359
923.984	9355
924.092	9283
924.201	9279
924.309	9302
924.417	9405
924.525	9233
924.633	9306
924.741	10059
924.849	9051
924.956	9298
925.064	9051
925.172	8986
925.279	9047
925.387	9195
925.494	9100
925.602	9298
925.709	9146
925.816	9108
925.924	9036
926.031	9188
926.138	9097
926.245	9180
926.352	9024
926.459	9123
926.566	9222
926.673	9085
926.779	8906
926.886	8982
926.993	8899
927.099	8834
927.206	8830
927.312	8769
927.419	8887
927.525	8796
927.631	8838
927.737	8785
927.843	8712
927.95	8663
928.056	8659
928.162	8727
928.267	8800
928.373	9351
928.479	8826
928.585	8667
928.69	8686
928.796	8758
928.901	8667
929.007	8549
929.112	8693
929.218	8640
929.323	8499
929.428	8556
929.533	8663
929.638	8457
929.743	8541
929.848	8556
929.953	8533
930.058	8434
930.163	8309
930.267	8332
930.372	8396
930.477	8351
930.581	8480
930.685	8358
930.79	8237
930.894	8328
930.998	8336
931.103	8400
931.207	8103
931.311	7997
931.415	7894
931.519	7769
931.623	7696
