Data from test_V78500241_682.txt Node
Date: Fri Mar 25 14:38:28 CST 2022
User: usil
Spectrometer: V785-0024
Trigger mode: 0
Integration Time (sec): 4.000000E-1
Scans to average: 1
Nonlinearity correction enabled: false
Boxcar width: 0
Storing dark spectrum: false
XAxis mode: Wavelengths
Number of Pixels in Spectrum: 1024
>>>>>Begin Spectral Data<<<<<
801.071	28200
801.214	27968
801.356	27652
801.499	27736
801.641	27629
801.783	27427
801.926	27332
802.068	27245
802.211	27321
802.353	27211
802.496	27058
802.638	27142
802.78	26986
802.923	26895
803.065	26887
803.208	26906
803.35	26880
803.492	27154
803.635	27157
803.777	27135
803.919	27188
804.061	27599
804.204	27211
804.346	27192
804.488	27233
804.63	27393
804.773	27279
804.915	27397
805.057	27416
805.199	27454
805.341	27534
805.483	27770
805.626	27694
805.768	27648
805.91	27956
806.052	28101
806.194	28017
806.336	28310
806.478	28333
806.62	28725
806.762	29014
806.904	29379
807.046	29897
807.188	30277
807.33	30597
807.472	31057
807.614	31791
807.756	32906
807.898	33884
808.04	35452
808.182	37377
808.324	40002
808.465	43320
808.607	46508
808.749	49369
808.891	51135
809.033	51230
809.174	49632
809.316	46839
809.458	43411
809.6	39838
809.741	37187
809.883	34816
810.025	33389
810.166	32111
810.308	31396
810.45	30681
810.591	30315
810.733	29805
810.875	29589
811.016	29022
811.158	28835
811.299	28790
811.441	28672
811.582	28489
811.724	28185
811.865	28120
812.007	28017
812.148	28162
812.29	27854
812.431	28002
812.573	28082
812.714	28059
812.855	28074
812.997	28128
813.138	28253
813.279	28219
813.421	27975
813.562	27934
813.703	27755
813.845	27568
813.986	27211
814.127	27058
814.268	26861
814.41	26902
814.551	26727
814.692	26880
814.833	26758
814.974	26545
815.115	26769
815.256	26549
815.397	26545
815.539	26579
815.68	26263
815.821	26096
815.962	26271
816.103	26252
816.244	26180
816.385	26050
816.526	26092
816.666	25845
816.807	25715
816.948	25731
817.089	25635
817.23	25708
817.371	25556
817.512	25586
817.653	25529
817.793	25449
817.934	25624
818.075	25430
818.216	25491
818.356	25556
818.497	25499
818.638	25148
818.778	25164
818.919	25236
819.06	25240
819.2	25384
819.341	25324
819.481	25460
819.622	25506
819.762	25552
819.903	25548
820.043	25369
820.184	25411
820.324	25430
820.465	25567
820.605	25335
820.746	25289
820.886	25099
821.026	25255
821.167	25228
821.307	25441
821.447	25198
821.588	25202
821.728	25050
821.868	24810
822.008	24642
822.149	24597
822.289	24513
822.429	24285
822.569	24266
822.709	24289
822.849	24125
822.99	24114
823.13	23939
823.27	24041
823.41	23916
823.55	23748
823.69	23843
823.83	23695
823.97	23619
824.11	23619
824.25	23653
824.389	23581
824.529	23680
824.669	23570
824.809	23805
824.949	23630
825.089	23661
825.228	23745
825.368	23562
825.508	23398
825.648	23337
825.787	23463
825.927	23459
826.067	23269
826.206	23258
826.346	23322
826.485	23410
826.625	23444
826.765	23417
826.904	23250
827.044	23079
827.183	23109
827.323	23079
827.462	23060
827.601	23060
827.741	23003
827.88	23041
828.02	23010
828.159	23029
828.298	23037
828.437	22946
828.577	22976
828.716	23170
828.855	23003
828.994	22691
829.134	22778
829.273	22778
829.412	22683
829.551	22672
829.69	22637
829.829	22702
829.968	22771
830.107	22694
830.246	22641
830.385	22687
830.524	22592
830.663	22527
830.802	22516
830.941	22234
831.08	22261
831.219	22462
831.357	22329
831.496	22592
831.635	22291
831.774	22371
831.913	22246
832.051	22097
832.19	22173
832.329	22207
832.467	22105
832.606	22204
832.744	22044
832.883	22219
833.022	22303
833.16	22325
833.299	22584
833.437	22577
833.576	22729
833.714	22908
833.852	23010
833.991	23231
834.129	23197
834.267	23402
834.406	23181
834.544	23159
834.682	23056
834.821	22961
834.959	22824
835.097	22573
835.235	22641
835.373	22474
835.511	22413
835.65	22276
835.788	22200
835.926	21979
836.064	21705
836.202	21831
836.34	21884
836.478	22006
836.615	21797
836.753	21804
836.891	21888
837.029	21861
837.167	21865
837.305	21743
837.443	21739
837.58	21713
837.718	21732
837.856	21572
837.993	21553
838.131	21717
838.269	21553
838.406	21534
838.544	21435
838.681	21279
838.819	21241
838.956	21142
839.094	20906
839.231	21047
839.369	21173
839.506	21439
839.643	21252
839.781	20986
839.918	20979
840.055	20982
840.193	20982
840.33	20933
840.467	21077
840.604	21093
840.742	21188
840.879	20868
841.016	20849
841.153	20914
841.29	21055
841.427	21043
841.564	21074
841.701	21009
841.838	20971
841.975	20895
842.112	20918
842.249	20906
842.385	20834
842.522	21070
842.659	20845
842.796	20815
842.933	20785
843.069	20720
843.206	20826
843.343	20876
843.479	21032
843.616	21009
843.752	20861
843.889	20906
844.025	21135
844.162	20861
844.298	21150
844.435	21245
844.571	21374
844.708	21804
844.844	22169
844.98	22740
845.117	23337
845.253	24216
845.389	26134
845.525	29764
845.661	35634
845.798	42810
845.934	47767
846.07	49708
846.206	48060
846.342	43320
846.478	36452
846.614	30525
846.75	26613
846.886	24365
847.022	22965
847.158	21983
847.294	21515
847.429	21169
847.565	20861
847.701	21032
847.837	20404
847.972	20157
848.108	20309
848.244	20233
848.379	19959
848.515	19883
848.65	19738
848.786	19814
848.921	19845
849.057	19712
849.192	19883
849.328	19894
849.463	19769
849.598	19704
849.734	19616
849.869	19510
850.004	19438
850.14	19495
850.275	19419
850.41	19240
850.545	19472
850.68	19483
850.815	19430
850.95	19369
851.085	19510
851.22	19476
851.355	19377
851.49	19422
851.625	19350
851.76	19438
851.895	19244
852.03	19320
852.165	19350
852.299	19472
852.434	19548
852.569	19445
852.703	19358
852.838	19491
852.973	19719
853.107	19578
853.242	19449
853.376	19400
853.511	19434
853.645	19460
853.78	19567
853.914	19559
854.048	19540
854.183	19594
854.317	19731
854.451	19685
854.585	19628
854.72	19620
854.854	19658
854.988	19514
855.122	19521
855.256	19327
855.39	19308
855.524	19563
855.658	19491
855.792	19365
855.926	19369
856.06	19400
856.194	19304
856.327	19244
856.461	19152
856.595	19168
856.729	19168
856.862	19320
856.996	19175
857.13	19133
857.263	19266
857.397	19289
857.53	19152
857.664	19266
857.797	19236
857.931	19198
858.064	19050
858.197	19103
858.331	19000
858.464	19027
858.597	18977
858.731	19050
858.864	19053
858.997	19118
859.13	18954
859.263	19046
859.396	19156
859.529	19031
859.662	18985
859.795	19000
859.928	19019
860.061	19221
860.194	19164
860.327	19031
860.46	18867
860.592	19160
860.725	19198
860.858	19042
860.99	19019
861.123	18867
861.256	18970
861.388	18977
861.521	19712
861.653	18935
861.786	18776
861.918	18817
862.05	18913
862.183	18947
862.315	18977
862.447	19080
862.58	18935
862.712	18623
862.844	18669
862.976	18798
863.108	18741
863.24	19076
863.372	18486
863.504	18642
863.636	18627
863.768	18700
863.9	18684
864.032	18506
864.164	18654
864.296	18627
864.428	18821
864.559	18700
864.691	18768
864.823	18673
864.954	18669
865.086	18486
865.217	18525
865.349	18467
865.48	18627
865.612	18604
865.743	18585
865.875	18627
866.006	18578
866.137	18612
866.269	18589
866.4	18585
866.531	18479
866.662	18498
866.793	18547
866.924	18521
867.055	18509
867.186	18597
867.317	18490
867.448	18414
867.579	18475
867.71	18498
867.841	18403
867.972	18612
868.103	18536
868.233	18509
868.364	18616
868.495	18608
868.625	18848
868.756	18875
868.886	18719
869.017	18867
869.147	18875
869.278	18890
869.408	18791
869.539	18795
869.669	18905
869.799	18741
869.929	18859
870.06	18909
870.19	19122
870.32	19103
870.45	19259
870.58	19259
870.71	19331
870.84	19358
870.97	19209
871.1	19209
871.23	19358
871.36	19521
871.489	19316
871.619	19415
871.749	19521
871.879	19499
872.008	19571
872.138	19632
872.267	19525
872.397	19384
872.526	19453
872.656	19445
872.785	19441
872.915	19696
873.044	19662
873.173	19765
873.303	19750
873.432	19795
873.561	19795
873.69	19909
873.819	19738
873.948	19788
874.077	19814
874.206	19883
874.335	19860
874.464	20027
874.593	20290
874.722	20187
874.851	20370
874.979	20408
875.108	20377
875.237	20301
875.365	20374
875.494	20419
875.623	20552
875.751	20423
875.88	20686
876.008	20712
876.136	20868
876.265	20899
876.393	21207
876.521	21294
876.65	21355
876.778	21264
876.906	21412
877.034	21287
877.162	21485
877.29	21477
877.418	21568
877.546	21797
877.674	21831
877.802	22032
877.93	21979
878.058	22215
878.185	22493
878.313	22683
878.441	23075
878.568	23261
878.696	23999
878.824	24787
878.951	25955
879.079	27469
879.206	29505
879.333	31666
879.461	33408
879.588	34512
879.715	34500
879.842	33747
879.97	31849
880.097	29455
880.224	28063
880.351	26674
880.478	25909
880.605	25232
880.732	24741
880.859	24840
880.986	24391
881.112	24433
881.239	24213
881.366	24003
881.493	23958
881.619	23965
881.746	23843
881.872	23931
881.999	23980
882.125	23901
882.252	24045
882.378	24110
882.505	24350
882.631	24182
882.757	23790
882.883	23942
883.01	23897
883.136	23992
883.262	23771
883.388	23942
883.514	23847
883.64	23958
883.766	23676
883.892	23665
884.018	23687
884.143	23760
884.269	23904
884.395	23726
884.52	23642
884.646	23646
884.772	23627
884.897	23657
885.023	23566
885.148	23600
885.274	23737
885.399	23649
885.524	23356
885.65	23299
885.775	23197
885.9	23052
886.025	23052
886.15	22717
886.275	22535
886.4	22291
886.525	22306
886.65	22177
886.775	21964
886.9	21960
887.025	22097
887.149	21709
887.274	21500
887.399	21386
887.523	21218
887.648	21146
887.773	21020
887.897	21024
888.021	20979
888.146	20693
888.27	20914
888.395	20826
888.519	20845
888.643	20693
888.767	20621
888.891	20396
889.015	20317
889.139	20362
889.263	20301
889.387	20286
889.511	20480
889.635	20168
889.759	20119
889.883	20172
890.006	20103
890.13	20172
890.254	19974
890.377	19909
890.501	19761
890.624	19689
890.748	19765
890.871	19582
890.995	19422
891.118	19468
891.241	19510
891.364	19419
891.488	19365
891.611	19259
891.734	19316
891.857	19297
891.98	19206
892.103	19251
892.226	19190
892.349	19145
892.471	18875
892.594	19034
892.717	19084
892.839	19057
892.962	19008
893.085	19027
893.207	18958
893.33	18760
893.452	18760
893.575	18905
893.697	18791
893.819	18920
893.941	19004
894.064	18943
894.186	18604
894.308	18597
894.43	18779
894.552	18913
894.674	18707
894.796	18566
894.918	18570
895.04	18506
895.161	18665
895.283	18601
895.405	18566
895.526	18555
895.648	18452
895.769	18540
895.891	18623
896.012	18627
896.134	18456
896.255	18551
896.376	18433
896.498	18456
896.619	18528
896.74	18437
896.861	18445
896.982	18703
897.103	18871
897.224	18658
897.345	18559
897.466	18692
897.587	18597
897.708	18768
897.828	18570
897.949	18547
898.07	18479
898.19	18479
898.311	18589
898.431	18536
898.552	18665
898.672	18760
898.792	18635
898.913	18673
899.033	18597
899.153	18361
899.273	18296
899.393	18266
899.513	18429
899.633	18201
899.753	18327
899.873	18308
899.993	18376
900.113	18209
900.232	18296
900.352	18304
900.472	18304
900.591	18194
900.711	18201
900.83	18057
900.95	18182
901.069	18243
901.189	18049
901.308	17745
901.427	17741
901.546	17695
901.665	17885
901.784	17752
901.904	17596
902.023	17421
902.141	17299
902.26	17239
902.379	17280
902.498	17159
902.617	16991
902.735	17231
902.854	17280
902.973	17098
903.091	16809
903.21	16927
903.328	16896
903.446	16706
903.565	16626
903.683	16569
903.801	16455
903.919	16497
904.038	16561
904.156	16455
904.274	16508
904.392	16348
904.51	16375
904.627	16299
904.745	16379
904.863	16265
904.981	16036
905.098	16032
905.216	16013
905.334	15972
905.451	15983
905.569	15934
905.686	15937
905.803	15972
905.921	15736
906.038	15895
906.155	15747
906.272	15686
906.389	15713
906.506	15534
906.623	15481
906.74	15523
906.857	15298
906.974	15367
907.091	15454
907.208	15671
907.324	15477
907.441	15393
907.557	15214
907.674	15184
907.79	15108
907.907	15173
908.023	15241
908.139	15211
908.256	15047
908.372	15066
908.488	15077
908.604	14864
908.72	14929
908.836	14910
908.952	14891
909.068	14971
909.184	14933
909.3	14876
909.415	14902
909.531	14861
909.647	14644
909.762	14560
909.878	14545
909.993	14743
910.108	14644
910.224	14564
910.339	14518
910.454	14549
910.57	14454
910.685	14343
910.8	14632
910.915	14617
911.03	14324
911.145	14298
911.259	14187
911.374	14267
911.489	14180
911.604	14172
911.718	14005
911.833	14039
911.947	13940
912.062	13883
912.176	13921
912.291	13959
912.405	13993
912.519	14115
912.633	14183
912.748	14043
912.862	13982
912.976	13963
913.09	13731
913.204	13807
913.318	13788
913.431	13906
913.545	13864
913.659	13928
913.772	13765
913.886	13750
914	13704
914.113	13753
914.226	13750
914.34	13814
914.453	13590
914.566	13704
914.68	13590
914.793	13556
914.906	13434
915.019	13354
915.132	13274
915.245	13365
915.358	13327
915.47	13400
915.583	13381
915.696	13403
915.809	13495
915.921	13457
916.034	13358
916.146	13392
916.259	13343
916.371	13350
916.483	13400
916.595	13388
916.708	13312
916.82	13316
916.932	13297
917.044	13297
917.156	13259
917.268	13221
917.38	13198
917.491	13190
917.603	13133
917.715	13103
917.826	13228
917.938	13027
918.049	13031
918.161	13061
918.272	13179
918.384	13118
918.495	13057
918.606	12817
918.717	12791
918.828	12848
918.939	12882
919.05	12817
919.161	12795
919.272	12734
919.383	12738
919.494	12901
919.604	13088
919.715	12760
919.826	12745
919.936	12745
920.047	12916
920.157	12810
920.267	12954
920.378	12772
920.488	12840
920.598	12939
920.708	13076
920.818	12943
920.928	12920
921.038	13149
921.148	13114
921.258	12734
921.368	12768
921.477	12620
921.587	12486
921.697	12494
921.806	12582
921.916	12445
922.025	12407
922.134	12205
922.244	12186
922.353	12315
922.462	12064
922.571	12045
922.68	11802
922.789	11843
922.898	11916
923.007	11832
923.116	11961
923.224	11866
923.333	11973
923.442	11790
923.55	11802
923.659	11809
923.767	11805
923.876	11642
923.984	11729
924.092	11608
924.201	11707
924.309	11634
924.417	11627
924.525	11562
924.633	11581
924.741	12540
924.849	11421
924.956	11627
925.064	11364
925.172	11360
925.279	11425
925.387	11509
925.494	11372
925.602	11520
925.709	11395
925.816	11277
925.924	11356
926.031	11379
926.138	11387
926.245	11417
926.352	11208
926.459	11429
926.566	11395
926.673	11273
926.779	11121
926.886	11201
926.993	11136
927.099	11033
927.206	10949
927.312	10904
927.419	10968
927.525	10987
927.631	11014
927.737	10938
927.843	10847
927.95	10805
928.056	10839
928.162	10915
928.267	10930
928.373	11414
928.479	10923
928.585	10717
928.69	10862
928.796	10961
928.901	10706
929.007	10569
929.112	10721
929.218	10706
929.323	10656
929.428	10599
929.533	10748
929.638	10592
929.743	10653
929.848	10618
929.953	10573
930.058	10538
930.163	10348
930.267	10432
930.372	10451
930.477	10325
930.581	10485
930.685	10500
930.79	10276
930.894	10257
930.998	10249
931.103	10310
931.207	10021
931.311	10006
931.415	9899
931.519	9603
931.623	9690
