Data from test_V78500241_1783.txt Node
Date: Fri Mar 25 14:46:07 CST 2022
User: usil
Spectrometer: V785-0024
Trigger mode: 0
Integration Time (sec): 4.000000E-1
Scans to average: 1
Nonlinearity correction enabled: false
Boxcar width: 0
Storing dark spectrum: false
XAxis mode: Wavelengths
Number of Pixels in Spectrum: 1024
>>>>>Begin Spectral Data<<<<<
801.071	22219
801.214	22082
801.356	21918
801.499	21755
801.641	21568
801.783	21405
801.926	21553
802.068	21439
802.211	21374
802.353	21332
802.496	21123
802.638	21112
802.78	21039
802.923	21039
803.065	20982
803.208	20929
803.35	20883
803.492	20929
803.635	20998
803.777	20902
803.919	20990
804.061	21180
804.204	20899
804.346	20769
804.488	20781
804.63	20853
804.773	20769
804.915	20746
805.057	20842
805.199	20853
805.341	20899
805.483	20933
805.626	20834
805.768	20667
805.91	20716
806.052	20937
806.194	20697
806.336	20830
806.478	20933
806.62	20716
806.762	20891
806.904	21077
807.046	21173
807.188	21116
807.33	21157
807.472	21310
807.614	20967
807.756	20963
807.898	20880
808.04	20853
808.182	20921
808.324	20826
808.465	20963
808.607	21131
808.749	21264
808.891	21367
809.033	21401
809.174	21317
809.316	21207
809.458	21218
809.6	21180
809.741	21245
809.883	21268
810.025	21523
810.166	21332
810.308	21298
810.45	21340
810.591	21310
810.733	21070
810.875	20975
811.016	20857
811.158	20868
811.299	20876
811.441	21108
811.582	21100
811.724	20979
811.865	20887
812.007	20963
812.148	20769
812.29	20906
812.431	21135
812.573	21283
812.714	21321
812.855	21447
812.997	21667
813.138	21671
813.279	21614
813.421	21447
813.562	21435
813.703	21275
813.845	21131
813.986	20686
814.127	20640
814.268	20587
814.41	20507
814.551	20549
814.692	20518
814.833	20469
814.974	20507
815.115	20514
815.256	20210
815.397	20423
815.539	20278
815.68	20271
815.821	20229
815.962	20263
816.103	20259
816.244	20035
816.385	19890
816.526	19917
816.666	19788
816.807	19761
816.948	19795
817.089	19731
817.23	19727
817.371	19647
817.512	19658
817.653	19609
817.793	19514
817.934	19681
818.075	19757
818.216	19674
818.356	19715
818.497	19502
818.638	19278
818.778	19388
818.919	19263
819.06	19407
819.2	19396
819.341	19521
819.481	19464
819.622	19639
819.762	19765
819.903	19769
820.043	19742
820.184	19613
820.324	19674
820.465	19685
820.605	19605
820.746	19605
820.886	19537
821.026	19605
821.167	19468
821.307	19651
821.447	19499
821.588	19426
821.728	19289
821.868	19175
822.008	19076
822.149	18970
822.289	19057
822.429	18768
822.569	18700
822.709	18658
822.849	18490
822.99	18540
823.13	18483
823.27	18376
823.41	18277
823.55	18311
823.69	18247
823.83	18361
823.97	18232
824.11	18148
824.25	18030
824.389	17999
824.529	18186
824.669	18125
824.809	18152
824.949	18129
825.089	18098
825.228	18148
825.368	17908
825.508	17874
825.648	17882
825.787	17889
825.927	17969
826.067	17866
826.206	17828
826.346	17863
826.485	17965
826.625	17741
826.765	17882
826.904	17809
827.044	17680
827.183	17562
827.323	17535
827.462	17585
827.601	17562
827.741	17478
827.88	17695
828.02	17493
828.159	17596
828.298	17505
828.437	17608
828.577	17482
828.716	17615
828.855	17532
828.994	17337
829.134	17318
829.273	17414
829.412	17337
829.551	17220
829.69	17383
829.829	17387
829.968	17452
830.107	17364
830.246	17326
830.385	17250
830.524	17204
830.663	17117
830.802	17045
830.941	16919
831.08	17003
831.219	16984
831.357	17067
831.496	17178
831.635	16965
831.774	16801
831.913	16869
832.051	16634
832.19	16729
832.329	16805
832.467	16622
832.606	16607
832.744	16565
832.883	16550
833.022	16656
833.16	16626
833.299	16687
833.437	16626
833.576	16679
833.714	16672
833.852	16702
833.991	16763
834.129	16812
834.267	16801
834.406	16702
834.544	16683
834.682	16664
834.821	16679
834.959	16930
835.097	16660
835.235	16797
835.373	16702
835.511	16710
835.65	16664
835.788	16466
835.926	16268
836.064	16363
836.202	16485
836.34	16569
836.478	16607
836.615	16580
836.753	16588
836.891	16691
837.029	16668
837.167	16516
837.305	16474
837.443	16489
837.58	16379
837.718	16630
837.856	16367
837.993	16382
838.131	16424
838.269	16443
838.406	16390
838.544	16272
838.681	16181
838.819	16147
838.956	15998
839.094	15991
839.231	16101
839.369	16135
839.506	16375
839.643	16261
839.781	16071
839.918	15934
840.055	16101
840.193	16017
840.33	15968
840.467	16021
840.604	16101
840.742	16196
840.879	15926
841.016	15937
841.153	15800
841.29	16090
841.427	16029
841.564	16036
841.701	16017
841.838	15956
841.975	15842
842.112	15934
842.249	15816
842.385	15747
842.522	15785
842.659	15793
842.796	15800
842.933	15823
843.069	15724
843.206	15671
843.343	15983
843.479	15739
843.616	15766
843.752	15542
843.889	15644
844.025	15743
844.162	15462
844.298	15690
844.435	15576
844.571	15511
844.708	15603
844.844	15603
844.98	15679
845.117	15644
845.253	15515
845.389	15477
845.525	15507
845.661	15431
845.798	15363
845.934	15458
846.07	15378
846.206	15443
846.342	15424
846.478	15408
846.614	15142
846.75	15146
846.886	15097
847.022	15199
847.158	15173
847.294	15142
847.429	15097
847.565	15055
847.701	15370
847.837	14967
847.972	14849
848.108	15058
848.244	15024
848.379	14739
848.515	14758
848.65	14686
848.786	14758
848.921	14708
849.057	14811
849.192	14868
849.328	14815
849.463	14785
849.598	14602
849.734	14731
849.869	14606
850.004	14636
850.14	14556
850.275	14495
850.41	14423
850.545	14495
850.68	14552
850.815	14473
850.95	14488
851.085	14629
851.22	14514
851.355	14492
851.49	14446
851.625	14446
851.76	14446
851.895	14415
852.03	14393
852.165	14469
852.299	14400
852.434	14625
852.569	14469
852.703	14533
852.838	14655
852.973	14739
853.107	14708
853.242	14488
853.376	14396
853.511	14355
853.645	14469
853.78	14495
853.914	14313
854.048	14347
854.183	14370
854.317	14393
854.451	14533
854.585	14400
854.72	14332
854.854	14389
854.988	14301
855.122	14282
855.256	14275
855.39	14328
855.524	14526
855.658	14351
855.792	14317
855.926	14370
856.06	14469
856.194	14454
856.327	14351
856.461	14457
856.595	14240
856.729	14244
856.862	14488
856.996	14339
857.13	14507
857.263	14568
857.397	14545
857.53	14488
857.664	14476
857.797	14457
857.931	14560
858.064	14434
858.197	14446
858.331	14393
858.464	14240
858.597	14298
858.731	14408
858.864	14328
858.997	14343
859.13	14370
859.263	14469
859.396	14495
859.529	14370
859.662	14271
859.795	14381
859.928	14366
860.061	14583
860.194	14610
860.327	14442
860.46	14351
860.592	14541
860.725	14545
860.858	14545
860.99	14404
861.123	14358
861.256	14336
861.388	14339
861.521	15066
861.653	14282
861.786	14252
861.918	14153
862.05	14366
862.183	14404
862.315	14324
862.447	14381
862.58	14309
862.712	14195
862.844	14077
862.976	14145
863.108	14248
863.24	14419
863.372	14126
863.504	14206
863.636	14069
863.768	14214
863.9	14134
864.032	14073
864.164	14126
864.296	14123
864.428	14328
864.559	14282
864.691	14168
864.823	14229
864.954	14153
865.086	14267
865.217	14161
865.349	14084
865.48	14240
865.612	14278
865.743	14286
865.875	14107
866.006	14100
866.137	14187
866.269	14058
866.4	14088
866.531	14035
866.662	14107
866.793	14115
866.924	14092
867.055	14134
867.186	14218
867.317	14103
867.448	14073
867.579	14088
867.71	14024
867.841	14073
867.972	14206
868.103	14031
868.233	14168
868.364	14103
868.495	14282
868.625	14290
868.756	14454
868.886	14221
869.017	14256
869.147	14473
869.278	14446
869.408	14518
869.539	14377
869.669	14431
869.799	14526
869.929	14488
870.06	14476
870.19	14708
870.32	14807
870.45	14655
870.58	14716
870.71	14868
870.84	14963
870.97	14758
871.1	14686
871.23	14944
871.36	14941
871.489	14861
871.619	14918
871.749	15036
871.879	15104
872.008	15062
872.138	14921
872.267	14960
872.397	14883
872.526	14773
872.656	14735
872.785	14864
872.915	14880
873.044	15089
873.173	14956
873.303	15043
873.432	15157
873.561	15165
873.69	14994
873.819	14994
873.948	15157
874.077	15005
874.206	14982
874.335	14963
874.464	15150
874.593	15230
874.722	15272
874.851	15370
874.979	15294
875.108	15332
875.237	15256
875.365	15260
875.494	15370
875.623	15386
875.751	15275
875.88	15355
876.008	15504
876.136	15504
876.265	15873
876.393	15903
876.521	15838
876.65	15846
876.778	15842
876.906	15770
877.034	15637
877.162	15717
877.29	15675
877.418	15747
877.546	15781
877.674	15857
877.802	15717
877.93	15797
878.058	15781
878.185	15694
878.313	15751
878.441	15865
878.568	15549
878.696	15701
878.824	15743
878.951	15930
879.079	16032
879.206	16101
879.333	15953
879.461	15789
879.588	15857
879.715	15968
879.842	16029
879.97	15842
880.097	15648
880.224	15496
880.351	15701
880.478	15625
880.605	15580
880.732	15633
880.859	15850
880.986	15606
881.112	15701
881.239	15466
881.366	15313
881.493	15237
881.619	15173
881.746	15222
881.872	15249
881.999	15211
882.125	15222
882.252	15336
882.378	15291
882.505	15469
882.631	15241
882.757	15089
882.883	15135
883.01	15081
883.136	15142
883.262	15001
883.388	15055
883.514	15135
883.64	15142
883.766	15097
883.892	14902
884.018	14880
884.143	15104
884.269	15123
884.395	14921
884.52	14788
884.646	14887
884.772	14663
884.897	14674
885.023	14750
885.148	14800
885.274	14967
885.399	14933
885.524	14762
885.65	14842
885.775	14788
885.9	14686
886.025	15039
886.15	14838
886.275	14758
886.4	14781
886.525	14872
886.65	14689
886.775	14731
886.9	14842
887.025	15013
887.149	14739
887.274	14617
887.399	14560
887.523	14533
887.648	14499
887.773	14625
887.897	14594
888.021	14651
888.146	14575
888.27	14765
888.395	14689
888.519	14659
888.643	14625
888.767	14731
888.891	14610
889.015	14389
889.139	14511
889.263	14533
889.387	14499
889.511	14663
889.635	14590
889.759	14457
889.883	14328
890.006	14514
890.13	14530
890.254	14419
890.377	14465
890.501	14317
890.624	14278
890.748	14339
890.871	14233
890.995	14161
891.118	14084
891.241	14168
891.364	14138
891.488	14309
891.611	14240
891.734	14199
891.857	14138
891.98	14225
892.103	14237
892.226	14210
892.349	14214
892.471	13986
892.594	14191
892.717	14180
892.839	14119
892.962	14214
893.085	14256
893.207	14290
893.33	13997
893.452	13967
893.575	14210
893.697	14145
893.819	14244
893.941	14438
894.064	14355
894.186	14172
894.308	14168
894.43	14309
894.552	14419
894.674	14389
894.796	14111
894.918	14142
895.04	14324
895.161	14271
895.283	14248
895.405	14180
895.526	14195
895.648	14324
895.769	14244
895.891	14294
896.012	14377
896.134	14400
896.255	14320
896.376	14362
896.498	14332
896.619	14377
896.74	14267
896.861	14415
896.982	14674
897.103	14807
897.224	14537
897.345	14621
897.466	14537
897.587	14537
897.708	14678
897.828	14697
897.949	14590
898.07	14575
898.19	14598
898.311	14727
898.431	14549
898.552	14644
898.672	14773
898.792	14743
898.913	14754
899.033	14674
899.153	14560
899.273	14457
899.393	14473
899.513	14484
899.633	14613
899.753	14499
899.873	14560
899.993	14556
900.113	14522
900.232	14590
900.352	14541
900.472	14499
900.591	14328
900.711	14419
900.83	14343
900.95	14495
901.069	14476
901.189	14377
901.308	14138
901.427	14107
901.546	14096
901.665	14111
901.784	14084
901.904	13967
902.023	13970
902.141	13715
902.26	13666
902.379	13647
902.498	13731
902.617	13693
902.735	13746
902.854	13651
902.973	13480
903.091	13301
903.21	13365
903.328	13388
903.446	13308
903.565	13206
903.683	13266
903.801	13137
903.919	13217
904.038	13255
904.156	13027
904.274	13069
904.392	12989
904.51	13004
904.627	13031
904.745	13034
904.863	13099
904.981	12848
905.098	12623
905.216	12776
905.334	12791
905.451	12817
905.569	12681
905.686	12711
905.803	12688
905.921	12627
906.038	12578
906.155	12616
906.272	12467
906.389	12483
906.506	12350
906.623	12330
906.74	12251
906.857	12194
906.974	12220
907.091	12376
907.208	12498
907.324	12327
907.441	12254
907.557	12076
907.674	12144
907.79	11992
907.907	12060
908.023	12106
908.139	12155
908.256	12057
908.372	11931
908.488	11939
908.604	11847
908.72	11832
908.836	11790
908.952	11805
909.068	11901
909.184	11973
909.3	11855
909.415	11885
909.531	11889
909.647	11543
909.762	11634
909.878	11589
909.993	11600
910.108	11596
910.224	11623
910.339	11619
910.454	11444
910.57	11505
910.685	11376
910.8	11684
910.915	11558
911.03	11509
911.145	11360
911.259	11288
911.374	11288
911.489	11216
911.604	11170
911.718	11079
911.833	11113
911.947	11003
912.062	10839
912.176	11010
912.291	11045
912.405	11067
912.519	11273
912.633	11227
912.748	11075
912.862	11060
912.976	10927
913.09	10858
913.204	10904
913.318	10965
913.431	10991
913.545	10946
913.659	11029
913.772	10949
913.886	10801
914	10763
914.113	10885
914.226	11010
914.34	10877
914.453	10687
914.566	10869
914.68	10710
914.793	10763
914.906	10535
915.019	10535
915.132	10535
915.245	10504
915.358	10607
915.47	10588
915.583	10634
915.696	10569
915.809	10656
915.921	10691
916.034	10443
916.146	10474
916.259	10527
916.371	10542
916.483	10573
916.595	10493
916.708	10478
916.82	10523
916.932	10527
917.044	10516
917.156	10508
917.268	10291
917.38	10379
917.491	10375
917.603	10409
917.715	10421
917.826	10497
917.938	10322
918.049	10215
918.161	10367
918.272	10478
918.384	10432
918.495	10337
918.606	10204
918.717	10215
918.828	10291
918.939	10310
919.05	10169
919.161	10227
919.272	10013
919.383	10150
919.494	10291
919.604	10417
919.715	10303
919.826	10200
919.936	10215
920.047	10421
920.157	10299
920.267	10447
920.378	10325
920.488	10265
920.598	10440
920.708	10626
920.818	10527
920.928	10436
921.038	10672
921.148	10603
921.258	10299
921.368	10249
921.477	10135
921.587	10074
921.697	10048
921.806	10101
921.916	9964
922.025	9846
922.134	9865
922.244	9778
922.353	9888
922.462	9724
922.571	9568
922.68	9523
922.789	9526
922.898	9553
923.007	9488
923.116	9572
923.224	9454
923.333	9488
923.442	9336
923.55	9351
923.659	9428
923.767	9485
923.876	9378
923.984	9416
924.092	9351
924.201	9408
924.309	9332
924.417	9439
924.525	9359
924.633	9397
924.741	10299
924.849	9207
924.956	9287
925.064	9195
925.172	9085
925.279	9112
925.387	9184
925.494	9199
925.602	9279
925.709	9279
925.816	9176
925.924	9169
926.031	9218
926.138	9195
926.245	9218
926.352	8994
926.459	9256
926.566	9302
926.673	9161
926.779	8960
926.886	9005
926.993	8971
927.099	8876
927.206	8887
927.312	8796
927.419	8887
927.525	8944
927.631	8906
927.737	8773
927.843	8781
927.95	8678
928.056	8716
928.162	8826
928.267	8914
928.373	9496
928.479	8872
928.585	8667
928.69	8796
928.796	8842
928.901	8785
929.007	8594
929.112	8697
929.218	8682
929.323	8625
929.428	8556
929.533	8678
929.638	8522
929.743	8583
929.848	8651
929.953	8503
930.058	8454
930.163	8358
930.267	8419
930.372	8526
930.477	8355
930.581	8613
930.685	8488
930.79	8294
930.894	8431
930.998	8282
931.103	8412
931.207	8161
931.311	8043
931.415	8005
931.519	7807
931.623	7753
