Data from test_V78500241_1845.txt Node
Date: Fri Mar 25 14:46:33 CST 2022
User: usil
Spectrometer: V785-0024
Trigger mode: 0
Integration Time (sec): 4.000000E-1
Scans to average: 1
Nonlinearity correction enabled: false
Boxcar width: 0
Storing dark spectrum: false
XAxis mode: Wavelengths
Number of Pixels in Spectrum: 1024
>>>>>Begin Spectral Data<<<<<
801.071	22223
801.214	21960
801.356	21694
801.499	21736
801.641	21450
801.783	21542
801.926	21606
802.068	21393
802.211	21443
802.353	21230
802.496	21032
802.638	20929
802.78	20963
802.923	20853
803.065	20682
803.208	20754
803.35	20762
803.492	21009
803.635	20960
803.777	20735
803.919	20956
804.061	21199
804.204	20975
804.346	20861
804.488	20655
804.63	20781
804.773	20697
804.915	20834
805.057	20948
805.199	20724
805.341	20902
805.483	20899
805.626	20902
805.768	20735
805.91	20781
806.052	20777
806.194	20606
806.336	20830
806.478	20842
806.62	20629
806.762	20750
806.904	20960
807.046	21199
807.188	21066
807.33	21039
807.472	21146
807.614	20967
807.756	21066
807.898	20811
808.04	20823
808.182	20891
808.324	20750
808.465	20910
808.607	21009
808.749	21028
808.891	21154
809.033	21268
809.174	21161
809.316	21123
809.458	21096
809.6	21070
809.741	21051
809.883	21226
810.025	21325
810.166	21272
810.308	21306
810.45	21214
810.591	21142
810.733	20979
810.875	20986
811.016	20746
811.158	20861
811.299	20960
811.441	21116
811.582	20971
811.724	20986
811.865	20804
812.007	20807
812.148	20872
812.29	20910
812.431	21093
812.573	21256
812.714	21226
812.855	21458
812.997	21488
813.138	21603
813.279	21610
813.421	21481
813.562	21329
813.703	21256
813.845	20990
813.986	20811
814.127	20552
814.268	20568
814.41	20621
814.551	20552
814.692	20476
814.833	20446
814.974	20434
815.115	20370
815.256	20176
815.397	20339
815.539	20259
815.68	20237
815.821	20229
815.962	20126
816.103	20077
816.244	20081
816.385	19925
816.526	19883
816.666	19677
816.807	19632
816.948	19639
817.089	19860
817.23	19518
817.371	19677
817.512	19590
817.653	19464
817.793	19510
817.934	19468
818.075	19639
818.216	19559
818.356	19445
818.497	19407
818.638	19304
818.778	19282
818.919	19358
819.06	19259
819.2	19266
819.341	19499
819.481	19422
819.622	19655
819.762	19932
819.903	19753
820.043	19597
820.184	19635
820.324	19563
820.465	19681
820.605	19537
820.746	19624
820.886	19422
821.026	19548
821.167	19514
821.307	19571
821.447	19453
821.588	19381
821.728	19259
821.868	19232
822.008	18973
822.149	19072
822.289	18947
822.429	18700
822.569	18589
822.709	18681
822.849	18414
822.99	18483
823.13	18414
823.27	18475
823.41	18327
823.55	18289
823.69	18292
823.83	18342
823.97	18334
824.11	18057
824.25	18049
824.389	18007
824.529	18148
824.669	18049
824.809	18034
824.949	18064
825.089	18087
825.228	17958
825.368	17874
825.508	17950
825.648	17923
825.787	17870
825.927	17855
826.067	17741
826.206	17851
826.346	17863
826.485	17866
826.625	17832
826.765	17847
826.904	17863
827.044	17566
827.183	17581
827.323	17516
827.462	17627
827.601	17391
827.741	17573
827.88	17570
828.02	17360
828.159	17387
828.298	17474
828.437	17573
828.577	17448
828.716	17623
828.855	17524
828.994	17311
829.134	17307
829.273	17372
829.412	17212
829.551	17162
829.69	17181
829.829	17307
829.968	17509
830.107	17284
830.246	17242
830.385	17250
830.524	17220
830.663	17045
830.802	16999
830.941	16938
831.08	16801
831.219	17010
831.357	17060
831.496	17136
831.635	16877
831.774	16755
831.913	16824
832.051	16691
832.19	16771
832.329	16759
832.467	16630
832.606	16504
832.744	16634
832.883	16542
833.022	16512
833.16	16672
833.299	16694
833.437	16702
833.576	16622
833.714	16672
833.852	16736
833.991	16687
834.129	16721
834.267	16717
834.406	16740
834.544	16774
834.682	16694
834.821	16592
834.959	16790
835.097	16569
835.235	16702
835.373	16637
835.511	16634
835.65	16542
835.788	16554
835.926	16474
836.064	16421
836.202	16379
836.34	16660
836.478	16668
836.615	16641
836.753	16542
836.891	16607
837.029	16565
837.167	16550
837.305	16565
837.443	16497
837.58	16413
837.718	16577
837.856	16459
837.993	16455
838.131	16409
838.269	16341
838.406	16249
838.544	16303
838.681	16169
838.819	16109
838.956	16029
839.094	15960
839.231	16002
839.369	16120
839.506	16455
839.643	16280
839.781	15987
839.918	15949
840.055	15979
840.193	15968
840.33	15911
840.467	15873
840.604	16044
840.742	16177
840.879	15991
841.016	15816
841.153	15945
841.29	15998
841.427	16044
841.564	16029
841.701	16036
841.838	15983
841.975	15869
842.112	15800
842.249	15930
842.385	15880
842.522	15869
842.659	15743
842.796	15835
842.933	15816
843.069	15770
843.206	15679
843.343	15842
843.479	15808
843.616	15743
843.752	15526
843.889	15591
844.025	15705
844.162	15504
844.298	15709
844.435	15466
844.571	15428
844.708	15606
844.844	15747
844.98	15747
845.117	15663
845.253	15526
845.389	15363
845.525	15564
845.661	15447
845.798	15325
845.934	15389
846.07	15325
846.206	15374
846.342	15466
846.478	15374
846.614	15184
846.75	15013
846.886	15047
847.022	15085
847.158	15173
847.294	15036
847.429	15085
847.565	14990
847.701	15329
847.837	14895
847.972	14914
848.108	14937
848.244	15009
848.379	14819
848.515	14610
848.65	14659
848.786	14743
848.921	14788
849.057	14720
849.192	14727
849.328	14815
849.463	14739
849.598	14746
849.734	14663
849.869	14617
850.004	14545
850.14	14549
850.275	14522
850.41	14442
850.545	14389
850.68	14454
850.815	14488
850.95	14518
851.085	14629
851.22	14632
851.355	14495
851.49	14503
851.625	14381
851.76	14533
851.895	14400
852.03	14377
852.165	14419
852.299	14492
852.434	14537
852.569	14484
852.703	14564
852.838	14469
852.973	14670
853.107	14629
853.242	14362
853.376	14423
853.511	14225
853.645	14294
853.78	14518
853.914	14446
854.048	14275
854.183	14271
854.317	14374
854.451	14526
854.585	14320
854.72	14366
854.854	14366
854.988	14244
855.122	14278
855.256	14195
855.39	14381
855.524	14381
855.658	14446
855.792	14450
855.926	14313
856.06	14461
856.194	14419
856.327	14355
856.461	14298
856.595	14339
856.729	14351
856.862	14469
856.996	14320
857.13	14400
857.263	14533
857.397	14457
857.53	14385
857.664	14438
857.797	14377
857.931	14415
858.064	14385
858.197	14412
858.331	14393
858.464	14446
858.597	14294
858.731	14252
858.864	14339
858.997	14305
859.13	14465
859.263	14385
859.396	14473
859.529	14305
859.662	14393
859.795	14301
859.928	14393
860.061	14644
860.194	14537
860.327	14381
860.46	14271
860.592	14400
860.725	14484
860.858	14469
860.99	14389
861.123	14294
861.256	14290
861.388	14377
861.521	14975
861.653	14259
861.786	14183
861.918	14214
862.05	14328
862.183	14180
862.315	14385
862.447	14385
862.58	14362
862.712	14229
862.844	14142
862.976	14134
863.108	14176
863.24	14507
863.372	14077
863.504	14134
863.636	14126
863.768	14218
863.9	14218
864.032	14065
864.164	14221
864.296	14214
864.428	14233
864.559	14153
864.691	14225
864.823	14183
864.954	14161
865.086	14130
865.217	14107
865.349	14130
865.48	14134
865.612	14058
865.743	14347
865.875	14123
866.006	14134
866.137	14081
866.269	14142
866.4	14081
866.531	14005
866.662	14180
866.793	14126
866.924	14153
867.055	14103
867.186	14073
867.317	14031
867.448	14008
867.579	14050
867.71	14084
867.841	14069
867.972	14081
868.103	14130
868.233	14134
868.364	14123
868.495	14199
868.625	14355
868.756	14495
868.886	14221
869.017	14355
869.147	14438
869.278	14549
869.408	14465
869.539	14415
869.669	14446
869.799	14412
869.929	14469
870.06	14473
870.19	14640
870.32	14678
870.45	14670
870.58	14773
870.71	14777
870.84	14785
870.97	14781
871.1	14788
871.23	14956
871.36	14906
871.489	14800
871.619	14891
871.749	14883
871.879	14986
872.008	15051
872.138	15024
872.267	14941
872.397	14880
872.526	14864
872.656	14815
872.785	14796
872.915	15032
873.044	15089
873.173	14902
873.303	15081
873.432	15085
873.561	15093
873.69	15020
873.819	15028
873.948	15127
874.077	14895
874.206	14975
874.335	15051
874.464	15146
874.593	15260
874.722	15226
874.851	15416
874.979	15443
875.108	15458
875.237	15226
875.365	15207
875.494	15332
875.623	15348
875.751	15214
875.88	15344
876.008	15500
876.136	15580
876.265	15667
876.393	15956
876.521	15846
876.65	15831
876.778	15781
876.906	15637
877.034	15713
877.162	15762
877.29	15686
877.418	15622
877.546	15778
877.674	15759
877.802	15808
877.93	15797
878.058	15690
878.185	15599
878.313	15701
878.441	15857
878.568	15568
878.696	15656
878.824	15781
878.951	15808
879.079	15880
879.206	16025
879.333	15972
879.461	15793
879.588	15747
879.715	16010
879.842	16071
879.97	15781
880.097	15538
880.224	15496
880.351	15580
880.478	15637
880.605	15553
880.732	15591
880.859	15785
880.986	15656
881.112	15648
881.239	15485
881.366	15310
881.493	15203
881.619	15154
881.746	15310
881.872	15332
881.999	15287
882.125	15169
882.252	15252
882.378	15249
882.505	15374
882.631	15218
882.757	15062
882.883	15180
883.01	15066
883.136	15028
883.262	14967
883.388	14960
883.514	15173
883.64	15161
883.766	14906
883.892	14956
884.018	14918
884.143	15070
884.269	15089
884.395	14864
884.52	14762
884.646	14861
884.772	14693
884.897	14708
885.023	14762
885.148	14804
885.274	14868
885.399	14861
885.524	14769
885.65	14731
885.775	14891
885.9	14811
886.025	14880
886.15	14845
886.275	14754
886.4	14735
886.525	14819
886.65	14693
886.775	14720
886.9	14800
887.025	14963
887.149	14762
887.274	14651
887.399	14488
887.523	14533
887.648	14541
887.773	14571
887.897	14594
888.021	14693
888.146	14606
888.27	14697
888.395	14659
888.519	14727
888.643	14636
888.767	14739
888.891	14503
889.015	14473
889.139	14499
889.263	14488
889.387	14541
889.511	14674
889.635	14648
889.759	14366
889.883	14465
890.006	14461
890.13	14541
890.254	14324
890.377	14343
890.501	14282
890.624	14195
890.748	14328
890.871	14191
890.995	14031
891.118	14027
891.241	14290
891.364	14115
891.488	14240
891.611	14107
891.734	14168
891.857	14259
891.98	14195
892.103	14358
892.226	14149
892.349	14195
892.471	14081
892.594	14164
892.717	14138
892.839	14206
892.962	14130
893.085	14240
893.207	14119
893.33	14142
893.452	14138
893.575	14294
893.697	14123
893.819	14214
893.941	14454
894.064	14244
894.186	14100
894.308	14062
894.43	14290
894.552	14370
894.674	14275
894.796	14088
894.918	14271
895.04	14191
895.161	14374
895.283	14389
895.405	14161
895.526	14396
895.648	14244
895.769	14317
895.891	14366
896.012	14454
896.134	14343
896.255	14278
896.376	14252
896.498	14442
896.619	14358
896.74	14294
896.861	14438
896.982	14689
897.103	14792
897.224	14602
897.345	14613
897.466	14587
897.587	14537
897.708	14788
897.828	14579
897.949	14568
898.07	14431
898.19	14556
898.311	14731
898.431	14613
898.552	14686
898.672	14792
898.792	14807
898.913	14552
899.033	14621
899.153	14507
899.273	14511
899.393	14427
899.513	14530
899.633	14514
899.753	14541
899.873	14492
899.993	14499
900.113	14514
900.232	14537
900.352	14511
900.472	14415
900.591	14328
900.711	14442
900.83	14324
900.95	14469
901.069	14530
901.189	14336
901.308	14073
901.427	14008
901.546	14024
901.665	14062
901.784	14046
901.904	14005
902.023	13845
902.141	13712
902.26	13655
902.379	13742
902.498	13662
902.617	13636
902.735	13597
902.854	13563
902.973	13655
903.091	13293
903.21	13388
903.328	13415
903.446	13335
903.565	13217
903.683	13228
903.801	13050
903.919	13202
904.038	13133
904.156	13084
904.274	13099
904.392	13061
904.51	12996
904.627	12947
904.745	13015
904.863	13088
904.981	12859
905.098	12787
905.216	12738
905.334	12726
905.451	12692
905.569	12620
905.686	12719
905.803	12852
905.921	12627
906.038	12513
906.155	12479
906.272	12384
906.389	12426
906.506	12353
906.623	12285
906.74	12357
906.857	12163
906.974	12194
907.091	12304
907.208	12441
907.324	12254
907.441	12175
907.557	12106
907.674	12045
907.79	11920
907.907	11996
908.023	12045
908.139	12064
908.256	12022
908.372	11920
908.488	11942
908.604	11821
908.72	11840
908.836	11805
908.952	11790
909.068	11748
909.184	11950
909.3	11824
909.415	11824
909.531	11817
909.647	11630
909.762	11596
909.878	11611
909.993	11608
910.108	11615
910.224	11505
910.339	11596
910.454	11581
910.57	11516
910.685	11337
910.8	11634
910.915	11570
911.03	11410
911.145	11261
911.259	11258
911.374	11322
911.489	11132
911.604	11162
911.718	10999
911.833	11102
911.947	10873
912.062	10854
912.176	11067
912.291	11060
912.405	11117
912.519	11162
912.633	11318
912.748	11071
912.862	10965
912.976	10896
913.09	10717
913.204	10847
913.318	10976
913.431	11003
913.545	10995
913.659	11006
913.772	10892
913.886	10831
914	10767
914.113	10911
914.226	10923
914.34	10858
914.453	10714
914.566	10900
914.68	10763
914.793	10778
914.906	10565
915.019	10580
915.132	10440
915.245	10523
915.358	10508
915.47	10596
915.583	10504
915.696	10592
915.809	10649
915.921	10634
916.034	10527
916.146	10443
916.259	10481
916.371	10554
916.483	10459
916.595	10398
916.708	10466
916.82	10462
916.932	10371
917.044	10390
917.156	10424
917.268	10409
917.38	10314
917.491	10356
917.603	10428
917.715	10432
917.826	10535
917.938	10318
918.049	10295
918.161	10341
918.272	10481
918.384	10470
918.495	10459
918.606	10181
918.717	10067
918.828	10268
918.939	10306
919.05	10143
919.161	10280
919.272	10044
919.383	10063
919.494	10265
919.604	10459
919.715	10284
919.826	10211
919.936	10227
920.047	10291
920.157	10287
920.267	10405
920.378	10299
920.488	10314
920.598	10432
920.708	10554
920.818	10436
920.928	10485
921.038	10603
921.148	10550
921.258	10249
921.368	10207
921.477	10105
921.587	10120
921.697	9972
921.806	10128
921.916	9941
922.025	9873
922.134	9740
922.244	9667
922.353	9861
922.462	9759
922.571	9614
922.68	9587
922.789	9504
922.898	9519
923.007	9507
923.116	9526
923.224	9477
923.333	9526
923.442	9435
923.55	9420
923.659	9412
923.767	9492
923.876	9401
923.984	9389
924.092	9317
924.201	9348
924.309	9420
924.417	9329
924.525	9287
924.633	9325
924.741	10276
924.849	9169
924.956	9310
925.064	9188
925.172	9051
925.279	9116
925.387	9131
925.494	9138
925.602	9260
925.709	9230
925.816	9138
925.924	9203
926.031	9245
926.138	9180
926.245	9161
926.352	9097
926.459	9192
926.566	9226
926.673	9176
926.779	9039
926.886	8933
926.993	8845
927.099	8891
927.206	8781
927.312	8849
927.419	8944
927.525	8914
927.631	8952
927.737	8781
927.843	8853
927.95	8667
928.056	8750
928.162	8697
928.267	8842
928.373	9306
928.479	8868
928.585	8602
928.69	8735
928.796	8800
928.901	8701
929.007	8644
929.112	8659
929.218	8606
929.323	8667
929.428	8583
929.533	8701
929.638	8526
929.743	8568
929.848	8587
929.953	8579
930.058	8537
930.163	8313
930.267	8358
930.372	8473
930.477	8286
930.581	8549
930.685	8412
930.79	8237
930.894	8347
930.998	8294
931.103	8484
931.207	8126
931.311	7974
931.415	7894
931.519	7811
931.623	7792
