Data from test_V78500241_986.txt Node
Date: Fri Mar 25 14:40:34 CST 2022
User: usil
Spectrometer: V785-0024
Trigger mode: 0
Integration Time (sec): 4.000000E-1
Scans to average: 1
Nonlinearity correction enabled: false
Boxcar width: 0
Storing dark spectrum: false
XAxis mode: Wavelengths
Number of Pixels in Spectrum: 1024
>>>>>Begin Spectral Data<<<<<
801.071	23273
801.214	23193
801.356	22858
801.499	22850
801.641	22656
801.783	22706
801.926	22721
802.068	22569
802.211	22459
802.353	22443
802.496	22135
802.638	22097
802.78	22002
802.923	22025
803.065	22036
803.208	21869
803.35	21968
803.492	21945
803.635	22067
803.777	21903
803.919	22032
804.061	22291
804.204	22112
804.346	21865
804.488	21892
804.63	21861
804.773	21895
804.915	21861
805.057	22105
805.199	21819
805.341	21994
805.483	21915
805.626	21979
805.768	21793
805.91	21827
806.052	22131
806.194	21861
806.336	22166
806.478	22048
806.62	22093
806.762	22074
806.904	22124
807.046	22535
807.188	22341
807.33	22367
807.472	22664
807.614	22413
807.756	22691
807.898	22664
808.04	22596
808.182	22672
808.324	22812
808.465	23060
808.607	23433
808.749	23726
808.891	23999
809.033	24007
809.174	23699
809.316	23433
809.458	23216
809.6	22942
809.741	22946
809.883	22873
810.025	22892
810.166	22847
810.308	22721
810.45	22603
810.591	22577
810.733	22329
810.875	22280
811.016	22257
811.158	22070
811.299	22348
811.441	22238
811.582	22329
811.724	22181
811.865	22051
812.007	22143
812.148	22192
812.29	22150
812.431	22253
812.573	22481
812.714	22615
812.855	22725
812.997	22698
813.138	22961
813.279	22812
813.421	22626
813.562	22527
813.703	22432
813.845	22337
813.986	22010
814.127	21781
814.268	21679
814.41	21759
814.551	21774
814.692	21667
814.833	21705
814.974	21698
815.115	21667
815.256	21511
815.397	21492
815.539	21538
815.68	21458
815.821	21401
815.962	21431
816.103	21374
816.244	21218
816.385	21066
816.526	21119
816.666	20937
816.807	20743
816.948	20944
817.089	20925
817.23	20663
817.371	20670
817.512	20849
817.653	20720
817.793	20819
817.934	20918
818.075	20785
818.216	20849
818.356	20746
818.497	20686
818.638	20415
818.778	20446
818.919	20461
819.06	20484
819.2	20606
819.341	20674
819.481	20678
819.622	20834
819.762	20960
819.903	20887
820.043	20876
820.184	20765
820.324	20834
820.465	20754
820.605	20720
820.746	20689
820.886	20530
821.026	20701
821.167	20762
821.307	20834
821.447	20632
821.588	20568
821.728	20457
821.868	20324
822.008	20172
822.149	20043
822.289	20157
822.429	19780
822.569	19879
822.709	19803
822.849	19609
822.99	19590
823.13	19590
823.27	19563
823.41	19438
823.55	19369
823.69	19434
823.83	19468
823.97	19392
824.11	19221
824.25	19255
824.389	19183
824.529	19278
824.669	19232
824.809	19335
824.949	19369
825.089	19358
825.228	19251
825.368	19023
825.508	19019
825.648	19057
825.787	19050
825.927	19004
826.067	19065
826.206	18890
826.346	19103
826.485	18962
826.625	19061
826.765	19145
826.904	19042
827.044	18768
827.183	18734
827.323	18616
827.462	18810
827.601	18665
827.741	18734
827.88	18650
828.02	18593
828.159	18582
828.298	18631
828.437	18760
828.577	18623
828.716	18829
828.855	18707
828.994	18456
829.134	18464
829.273	18528
829.412	18429
829.551	18327
829.69	18494
829.829	18547
829.968	18559
830.107	18429
830.246	18380
830.385	18414
830.524	18357
830.663	18277
830.802	18232
830.941	18133
831.08	17992
831.219	18102
831.357	18095
831.496	18334
831.635	18011
831.774	17988
831.913	17939
832.051	17836
832.19	17832
832.329	17912
832.467	17710
832.606	17691
832.744	17684
832.883	17745
833.022	17805
833.16	17794
833.299	17885
833.437	17779
833.576	17851
833.714	17817
833.852	17980
833.991	17824
834.129	17904
834.267	17901
834.406	17859
834.544	17950
834.682	17851
834.821	17786
834.959	17996
835.097	17798
835.235	17843
835.373	17859
835.511	17802
835.65	17714
835.788	17649
835.926	17566
836.064	17566
836.202	17497
836.34	17775
836.478	17722
836.615	17657
836.753	17775
836.891	17775
837.029	17695
837.167	17745
837.305	17665
837.443	17604
837.58	17467
837.718	17592
837.856	17543
837.993	17474
838.131	17532
838.269	17596
838.406	17417
838.544	17341
838.681	17166
838.819	17265
838.956	17037
839.094	17056
839.231	17094
839.369	17330
839.506	17516
839.643	17311
839.781	17071
839.918	17105
840.055	17151
840.193	17048
840.33	17086
840.467	17014
840.604	17109
840.742	17353
840.879	17033
841.016	16953
841.153	16961
841.29	17147
841.427	17060
841.564	17071
841.701	17083
841.838	16957
841.975	16968
842.112	16972
842.249	16908
842.385	16790
842.522	17064
842.659	16797
842.796	16774
842.933	16862
843.069	16805
843.206	16801
843.343	16862
843.479	16839
843.616	16771
843.752	16592
843.889	16622
844.025	16725
844.162	16546
844.298	16786
844.435	16668
844.571	16455
844.708	16740
844.844	16805
844.98	16915
845.117	16881
845.253	16824
845.389	16733
845.525	17022
845.661	17455
845.798	17543
845.934	18121
846.07	18228
846.206	18148
846.342	18034
846.478	17455
846.614	16927
846.75	16535
846.886	16257
847.022	16379
847.158	16268
847.294	16181
847.429	16234
847.565	16166
847.701	16424
847.837	16048
847.972	15884
848.108	15937
848.244	15880
848.379	15724
848.515	15724
848.65	15694
848.786	15838
848.921	15728
849.057	15812
849.192	15816
849.328	15755
849.463	15698
849.598	15755
849.734	15690
849.869	15641
850.004	15477
850.14	15469
850.275	15477
850.41	15344
850.545	15428
850.68	15488
850.815	15492
850.95	15428
851.085	15671
851.22	15511
851.355	15488
851.49	15473
851.625	15511
851.76	15367
851.895	15405
852.03	15408
852.165	15488
852.299	15538
852.434	15595
852.569	15599
852.703	15534
852.838	15614
852.973	15606
853.107	15599
853.242	15420
853.376	15325
853.511	15287
853.645	15355
853.78	15462
853.914	15420
854.048	15348
854.183	15370
854.317	15332
854.451	15481
854.585	15393
854.72	15287
854.854	15454
854.988	15298
855.122	15386
855.256	15195
855.39	15351
855.524	15401
855.658	15389
855.792	15439
855.926	15359
856.06	15321
856.194	15473
856.327	15332
856.461	15252
856.595	15291
856.729	15279
856.862	15401
856.996	15313
857.13	15473
857.263	15439
857.397	15530
857.53	15340
857.664	15386
857.797	15412
857.931	15549
858.064	15408
858.197	15496
858.331	15344
858.464	15359
858.597	15260
858.731	15325
858.864	15317
858.997	15283
859.13	15378
859.263	15275
859.396	15382
859.529	15340
859.662	15355
859.795	15260
859.928	15389
860.061	15477
860.194	15488
860.327	15378
860.46	15279
860.592	15439
860.725	15420
860.858	15469
860.99	15367
861.123	15329
861.256	15203
861.388	15264
861.521	15922
861.653	15226
861.786	15116
861.918	15260
862.05	15291
862.183	15317
862.315	15279
862.447	15252
862.58	15161
862.712	15077
862.844	15009
862.976	15108
863.108	15169
863.24	15515
863.372	14982
863.504	15077
863.636	15039
863.768	15127
863.9	15093
864.032	15089
864.164	15017
864.296	15051
864.428	15195
864.559	15317
864.691	15131
864.823	15070
864.954	15066
865.086	15127
865.217	15100
865.349	15077
865.48	15055
865.612	15043
865.743	15321
865.875	15104
866.006	15070
866.137	15119
866.269	15066
866.4	15081
866.531	15062
866.662	15020
866.793	15055
866.924	15077
867.055	15108
867.186	15047
867.317	14994
867.448	14895
867.579	15009
867.71	14956
867.841	14925
867.972	15036
868.103	14960
868.233	15051
868.364	15097
868.495	15131
868.625	15275
868.756	15370
868.886	15237
869.017	15275
869.147	15382
869.278	15439
869.408	15370
869.539	15287
869.669	15431
869.799	15317
869.929	15420
870.06	15325
870.19	15625
870.32	15526
870.45	15637
870.58	15701
870.71	15762
870.84	15778
870.97	15690
871.1	15622
871.23	15876
871.36	15937
871.489	15842
871.619	15922
871.749	15865
871.879	15926
872.008	15930
872.138	15911
872.267	15907
872.397	15850
872.526	15717
872.656	15732
872.785	15732
872.915	15895
873.044	15994
873.173	15831
873.303	15960
873.432	15983
873.561	16036
873.69	16032
873.819	15930
873.948	16101
874.077	15930
874.206	15922
874.335	16044
874.464	16112
874.593	16314
874.722	16177
874.851	16386
874.979	16341
875.108	16341
875.237	16177
875.365	16207
875.494	16246
875.623	16466
875.751	16185
875.88	16215
876.008	16409
876.136	16504
876.265	16771
876.393	16831
876.521	16816
876.65	16721
876.778	16744
876.906	16782
877.034	16691
877.162	16630
877.29	16668
877.418	16797
877.546	16721
877.674	16778
877.802	16736
877.93	16782
878.058	16664
878.185	16675
878.313	16698
878.441	16831
878.568	16599
878.696	16801
878.824	16892
878.951	16934
879.079	17246
879.206	17322
879.333	17512
879.461	17455
879.588	17596
879.715	17718
879.842	17703
879.97	17433
880.097	17090
880.224	16991
880.351	16987
880.478	16786
880.605	16790
880.732	16812
880.859	16923
880.986	16725
881.112	16801
881.239	16641
881.366	16451
881.493	16428
881.619	16459
881.746	16436
881.872	16497
881.999	16379
882.125	16242
882.252	16375
882.378	16424
882.505	16561
882.631	16306
882.757	16169
882.883	16234
883.01	16147
883.136	16166
883.262	16124
883.388	16063
883.514	16257
883.64	16325
883.766	16112
883.892	16029
884.018	16017
884.143	16185
884.269	16230
884.395	15987
884.52	15812
884.646	16002
884.772	15857
884.897	15797
885.023	15918
885.148	15869
885.274	15983
885.399	16029
885.524	15941
885.65	15880
885.775	15808
885.9	15880
886.025	15888
886.15	15873
886.275	15842
886.4	15770
886.525	15709
886.65	15819
886.775	15713
886.9	15888
887.025	16090
887.149	15755
887.274	15671
887.399	15561
887.523	15648
887.648	15492
887.773	15519
887.897	15618
888.021	15694
888.146	15584
888.27	15622
888.395	15739
888.519	15728
888.643	15679
888.767	15641
888.891	15363
889.015	15393
889.139	15439
889.263	15340
889.387	15424
889.511	15622
889.635	15622
889.759	15378
889.883	15401
890.006	15382
890.13	15416
890.254	15336
890.377	15268
890.501	15260
890.624	15340
890.748	15207
890.871	15047
890.995	14998
891.118	14895
891.241	15081
891.364	15013
891.488	15199
891.611	14994
891.734	15028
891.857	15165
891.98	14963
892.103	15176
892.226	15119
892.349	15058
892.471	14891
892.594	15009
892.717	15013
892.839	15058
892.962	15055
893.085	15024
893.207	15085
893.33	14956
893.452	14902
893.575	15214
893.697	14941
893.819	15211
893.941	15272
894.064	15150
894.186	14982
894.308	15005
894.43	15146
894.552	15268
894.674	15173
894.796	14994
894.918	15192
895.04	15085
895.161	15081
895.283	15093
895.405	15070
895.526	15123
895.648	15123
895.769	15093
895.891	15176
896.012	15161
896.134	15097
896.255	15097
896.376	15074
896.498	15135
896.619	15294
896.74	15123
896.861	15298
896.982	15492
897.103	15648
897.224	15523
897.345	15424
897.466	15332
897.587	15340
897.708	15576
897.828	15481
897.949	15443
898.07	15306
898.19	15389
898.311	15599
898.431	15408
898.552	15424
898.672	15587
898.792	15606
898.913	15580
899.033	15428
899.153	15370
899.273	15313
899.393	15279
899.513	15344
899.633	15412
899.753	15416
899.873	15329
899.993	15405
900.113	15294
900.232	15389
900.352	15279
900.472	15207
900.591	15188
900.711	15283
900.83	15180
900.95	15264
901.069	15344
901.189	15043
901.308	14967
901.427	14845
901.546	14845
901.665	14895
901.784	14982
901.904	14750
902.023	14720
902.141	14511
902.26	14526
902.379	14541
902.498	14454
902.617	14419
902.735	14370
902.854	14385
902.973	14412
903.091	14062
903.21	14149
903.328	14123
903.446	14096
903.565	13989
903.683	13963
903.801	13894
903.919	13993
904.038	13944
904.156	13746
904.274	13776
904.392	13696
904.51	13693
904.627	13826
904.745	13734
904.863	13860
904.981	13586
905.098	13407
905.216	13411
905.334	13495
905.451	13518
905.569	13396
905.686	13453
905.803	13449
905.921	13232
906.038	13403
906.155	13278
906.272	13160
906.389	13228
906.506	13027
906.623	13133
906.74	13133
906.857	12837
906.974	12920
907.091	13122
907.208	13164
907.324	13145
907.441	12985
907.557	12749
907.674	12700
907.79	12635
907.907	12669
908.023	12715
908.139	12757
908.256	12738
908.372	12658
908.488	12654
908.604	12494
908.72	12445
908.836	12517
908.952	12460
909.068	12460
909.184	12589
909.3	12479
909.415	12460
909.531	12475
909.647	12251
909.762	12262
909.878	12224
909.993	12220
910.108	12308
910.224	12220
910.339	12220
910.454	12125
910.57	11977
910.685	11980
910.8	12292
910.915	12254
911.03	12133
911.145	11885
911.259	11927
911.374	11920
911.489	11840
911.604	11832
911.718	11608
911.833	11710
911.947	11554
912.062	11436
912.176	11691
912.291	11623
912.405	11668
912.519	11855
912.633	11855
912.748	11733
912.862	11657
912.976	11539
913.09	11417
913.204	11467
913.318	11570
913.431	11684
913.545	11634
913.659	11634
913.772	11535
913.886	11448
914	11311
914.113	11474
914.226	11608
914.34	11402
914.453	11261
914.566	11387
914.68	11258
914.793	11322
914.906	11223
915.019	11121
915.132	11113
915.245	11109
915.358	11216
915.47	11162
915.583	11136
915.696	11212
915.809	11318
915.921	11189
916.034	11037
916.146	11090
916.259	11075
916.371	11231
916.483	11159
916.595	11117
916.708	11086
916.82	11109
916.932	11079
917.044	11124
917.156	11048
917.268	10889
917.38	10911
917.491	10869
917.603	10976
917.715	11018
917.826	11071
917.938	10934
918.049	10778
918.161	10965
918.272	11098
918.384	11025
918.495	10866
918.606	10793
918.717	10805
918.828	10847
918.939	10755
919.05	10767
919.161	10725
919.272	10577
919.383	10641
919.494	10869
919.604	11029
919.715	10896
919.826	10702
919.936	10771
920.047	10892
920.157	10820
920.267	11041
920.378	10835
920.488	10767
920.598	10991
920.708	11178
920.818	10946
920.928	11022
921.038	11162
921.148	11113
921.258	10809
921.368	10740
921.477	10630
921.587	10668
921.697	10489
921.806	10721
921.916	10497
922.025	10344
922.134	10371
922.244	10344
922.353	10303
922.462	10272
922.571	10116
922.68	10044
922.789	9991
922.898	10006
923.007	9941
923.116	9987
923.224	10071
923.333	10048
923.442	9968
923.55	9865
923.659	9850
923.767	9937
923.876	9922
923.984	9953
924.092	9857
924.201	9857
924.309	9895
924.417	9926
924.525	9797
924.633	9884
924.741	10812
924.849	9637
924.956	9781
925.064	9701
925.172	9663
925.279	9549
925.387	9618
925.494	9682
925.602	9755
925.709	9747
925.816	9561
925.924	9679
926.031	9671
926.138	9648
926.245	9736
926.352	9561
926.459	9732
926.566	9732
926.673	9606
926.779	9450
926.886	9492
926.993	9363
927.099	9378
927.206	9291
927.312	9241
927.419	9492
927.525	9344
927.631	9363
927.737	9268
927.843	9233
927.95	9070
928.056	9154
928.162	9226
928.267	9298
928.373	9789
928.479	9310
928.585	9093
928.69	9222
928.796	9249
928.901	9154
929.007	8963
929.112	9135
929.218	9062
929.323	9039
929.428	9104
929.533	9180
929.638	8998
929.743	8990
929.848	9043
929.953	8979
930.058	8986
930.163	8762
930.267	8788
930.372	8979
930.477	8705
930.581	8921
930.685	8899
930.79	8804
930.894	8750
930.998	8686
931.103	8937
931.207	8530
931.311	8446
931.415	8438
931.519	8237
931.623	8271
