Data from test_V78500241_3661.txt Node
Date: Fri Mar 25 14:59:12 CST 2022
User: usil
Spectrometer: V785-0024
Trigger mode: 0
Integration Time (sec): 4.000000E-1
Scans to average: 1
Nonlinearity correction enabled: false
Boxcar width: 0
Storing dark spectrum: false
XAxis mode: Wavelengths
Number of Pixels in Spectrum: 1024
>>>>>Begin Spectral Data<<<<<
801.071	21861
801.214	21804
801.356	21351
801.499	21519
801.641	21363
801.783	21211
801.926	21302
802.068	21199
802.211	21207
802.353	20963
802.496	20861
802.638	20769
802.78	20613
802.923	20609
803.065	20499
803.208	20568
803.35	20594
803.492	20648
803.635	20617
803.777	20606
803.919	20545
804.061	20838
804.204	20712
804.346	20503
804.488	20415
804.63	20617
804.773	20457
804.915	20526
805.057	20518
805.199	20446
805.341	20511
805.483	20537
805.626	20537
805.768	20503
805.91	20473
806.052	20492
806.194	20389
806.336	20606
806.478	20560
806.62	20332
806.762	20514
806.904	20758
807.046	20834
807.188	20849
807.33	20918
807.472	20902
807.614	20754
807.756	20689
807.898	20594
808.04	20442
808.182	20609
808.324	20518
808.465	20583
808.607	20804
808.749	20826
808.891	20872
809.033	21116
809.174	20944
809.316	20845
809.458	20948
809.6	20727
809.741	20891
809.883	20880
810.025	20998
810.166	21024
810.308	21024
810.45	20975
810.591	20842
810.733	20712
810.875	20644
811.016	20469
811.158	20396
811.299	20571
811.441	20781
811.582	20697
811.724	20659
811.865	20560
812.007	20594
812.148	20583
812.29	20617
812.431	20727
812.573	20906
812.714	20933
812.855	21123
812.997	21116
813.138	21348
813.279	21165
813.421	21100
813.562	20925
813.703	20857
813.845	20769
813.986	20454
814.127	20381
814.268	20286
814.41	20259
814.551	20054
814.692	20084
814.833	20024
814.974	20043
815.115	20096
815.256	19879
815.397	19932
815.539	20031
815.68	19925
815.821	19830
815.962	19803
816.103	19875
816.244	19696
816.385	19552
816.526	19514
816.666	19415
816.807	19274
816.948	19388
817.089	19365
817.23	19362
817.371	19198
817.512	19308
817.653	19206
817.793	19221
817.934	19247
818.075	19240
818.216	19259
818.356	19282
818.497	19023
818.638	18859
818.778	19015
818.919	18894
819.06	18901
819.2	19095
819.341	19160
819.481	19148
819.622	19327
819.762	19438
819.903	19327
820.043	19251
820.184	19263
820.324	19225
820.465	19270
820.605	19282
820.746	19129
820.886	19103
821.026	19312
821.167	19148
821.307	19312
821.447	19129
821.588	19038
821.728	18897
821.868	18814
822.008	18677
822.149	18570
822.289	18608
822.429	18555
822.569	18228
822.709	18273
822.849	18270
822.99	18129
823.13	18205
823.27	18072
823.41	18053
823.55	18030
823.69	17874
823.83	17961
823.97	17923
824.11	17786
824.25	17767
824.389	17684
824.529	17745
824.669	17764
824.809	17802
824.949	17855
825.089	17828
825.228	17748
825.368	17516
825.508	17471
825.648	17551
825.787	17467
825.927	17501
826.067	17425
826.206	17459
826.346	17547
826.485	17547
826.625	17592
826.765	17661
826.904	17490
827.044	17254
827.183	17341
827.323	17250
827.462	17265
827.601	17235
827.741	17147
827.88	17337
828.02	17140
828.159	17124
828.298	17277
828.437	17288
828.577	17151
828.716	17360
828.855	17147
828.994	17045
829.134	16984
829.273	16999
829.412	16968
829.551	16839
829.69	16923
829.829	17006
829.968	17102
830.107	17022
830.246	16984
830.385	17003
830.524	16824
830.663	16793
830.802	16721
830.941	16596
831.08	16535
831.219	16763
831.357	16622
831.496	16812
831.635	16592
831.774	16516
831.913	16428
832.051	16390
832.19	16348
832.329	16409
832.467	16337
832.606	16265
832.744	16287
832.883	16280
833.022	16223
833.16	16329
833.299	16341
833.437	16341
833.576	16398
833.714	16348
833.852	16398
833.991	16421
834.129	16447
834.267	16318
834.406	16314
834.544	16379
834.682	16421
834.821	16310
834.959	16466
835.097	16238
835.235	16485
835.373	16230
835.511	16470
835.65	16337
835.788	16234
835.926	16090
836.064	16109
836.202	16017
836.34	16306
836.478	16379
836.615	16226
836.753	16299
836.891	16303
837.029	16306
837.167	16135
837.305	16295
837.443	16261
837.58	16185
837.718	16067
837.856	16253
837.993	16109
838.131	16188
838.269	16059
838.406	16048
838.544	16086
838.681	15915
838.819	15827
838.956	15660
839.094	15682
839.231	15690
839.369	15838
839.506	16086
839.643	16021
839.781	15732
839.918	15652
840.055	15736
840.193	15739
840.33	15625
840.467	15682
840.604	15663
840.742	15903
840.879	15641
841.016	15660
841.153	15618
841.29	15793
841.427	15660
841.564	15686
841.701	15800
841.838	15682
841.975	15606
842.112	15736
842.249	15370
842.385	15321
842.522	15705
842.659	15564
842.796	15538
842.933	15526
843.069	15477
843.206	15355
843.343	15500
843.479	15553
843.616	15462
843.752	15249
843.889	15218
844.025	15401
844.162	15363
844.298	15435
844.435	15340
844.571	15116
844.708	15279
844.844	15462
844.98	15443
845.117	15389
845.253	15226
845.389	15176
845.525	15211
845.661	15142
845.798	15154
845.934	15123
846.07	15085
846.206	15150
846.342	15226
846.478	15074
846.614	14918
846.75	14819
846.886	14838
847.022	15028
847.158	14819
847.294	14899
847.429	14899
847.565	14777
847.701	15108
847.837	14610
847.972	14556
848.108	14693
848.244	14629
848.379	14465
848.515	14507
848.65	14442
848.786	14385
848.921	14434
849.057	14495
849.192	14495
849.328	14412
849.463	14434
849.598	14362
849.734	14389
849.869	14419
850.004	14195
850.14	14161
850.275	14286
850.41	14164
850.545	14195
850.68	14123
850.815	14229
850.95	14259
851.085	14370
851.22	14355
851.355	14233
851.49	14126
851.625	14161
851.76	14187
851.895	14161
852.03	14100
852.165	14259
852.299	14282
852.434	14275
852.569	14256
852.703	14195
852.838	14202
852.973	14328
853.107	14404
853.242	14107
853.376	14161
853.511	14027
853.645	14039
853.78	14328
853.914	14107
854.048	14062
854.183	14001
854.317	14096
854.451	14237
854.585	14039
854.72	14016
854.854	14161
854.988	13944
855.122	14088
855.256	13879
855.39	14001
855.524	14115
855.658	14126
855.792	14206
855.926	14092
856.06	14130
856.194	14225
856.327	14092
856.461	13997
856.595	14035
856.729	14077
856.862	14233
856.996	14229
857.13	14191
857.263	14176
857.397	14195
857.53	14111
857.664	14187
857.797	14206
857.931	14115
858.064	14119
858.197	14134
858.331	14301
858.464	14062
858.597	14001
858.731	13928
858.864	14123
858.997	14111
859.13	14218
859.263	14244
859.396	14123
859.529	14046
859.662	13978
859.795	14168
859.928	14115
860.061	14278
860.194	14286
860.327	14168
860.46	14084
860.592	14130
860.725	14130
860.858	14225
860.99	14107
861.123	14065
861.256	13989
861.388	14039
861.521	14678
861.653	14123
861.786	13898
861.918	13967
862.05	13967
862.183	14001
862.315	14096
862.447	14123
862.58	14031
862.712	13826
862.844	13788
862.976	13989
863.108	13932
863.24	14233
863.372	13845
863.504	13879
863.636	13807
863.768	13970
863.9	13978
864.032	13837
864.164	13818
864.296	13868
864.428	14008
864.559	13936
864.691	13997
864.823	13921
864.954	13936
865.086	13993
865.217	13890
865.349	13780
865.48	13833
865.612	13909
865.743	13993
865.875	13883
866.006	13852
866.137	13902
866.269	13856
866.4	13845
866.531	13826
866.662	13769
866.793	13788
866.924	13803
867.055	13807
867.186	13826
867.317	13826
867.448	13788
867.579	13772
867.71	13795
867.841	13902
867.972	13879
868.103	13849
868.233	13856
868.364	13837
868.495	13883
868.625	14103
868.756	14172
868.886	14062
869.017	14088
869.147	14164
869.278	14286
869.408	14142
869.539	14233
869.669	14214
869.799	14191
869.929	14305
870.06	14256
870.19	14381
870.32	14454
870.45	14457
870.58	14537
870.71	14697
870.84	14560
870.97	14450
871.1	14507
871.23	14720
871.36	14602
871.489	14689
871.619	14663
871.749	14788
871.879	14765
872.008	14773
872.138	14792
872.267	14708
872.397	14560
872.526	14663
872.656	14571
872.785	14526
872.915	14811
873.044	14777
873.173	14743
873.303	14731
873.432	14735
873.561	14769
873.69	14811
873.819	14792
873.948	14853
874.077	14807
874.206	14807
874.335	14823
874.464	14914
874.593	15112
874.722	15017
874.851	15161
874.979	15135
875.108	15131
875.237	14994
875.365	15020
875.494	15123
875.623	15222
875.751	15142
875.88	15093
876.008	15241
876.136	15428
876.265	15469
876.393	15633
876.521	15580
876.65	15587
876.778	15458
876.906	15523
877.034	15389
877.162	15389
877.29	15363
877.418	15561
877.546	15477
877.674	15519
877.802	15580
877.93	15538
878.058	15405
878.185	15348
878.313	15466
878.441	15519
878.568	15351
878.696	15466
878.824	15500
878.951	15511
879.079	15641
879.206	15762
879.333	15584
879.461	15496
879.588	15530
879.715	15682
879.842	15812
879.97	15568
880.097	15408
880.224	15272
880.351	15397
880.478	15405
880.605	15268
880.732	15275
880.859	15591
880.986	15370
881.112	15496
881.239	15317
881.366	15214
881.493	15058
881.619	14952
881.746	15032
881.872	14994
881.999	14994
882.125	14941
882.252	15146
882.378	15074
882.505	15150
882.631	14994
882.757	14777
882.883	14857
883.01	14842
883.136	14853
883.262	14765
883.388	14746
883.514	14868
883.64	14864
883.766	14773
883.892	14629
884.018	14724
884.143	14880
884.269	14834
884.395	14606
884.52	14499
884.646	14617
884.772	14457
884.897	14537
885.023	14465
885.148	14705
885.274	14731
885.399	14655
885.524	14484
885.65	14571
885.775	14556
885.9	14560
886.025	14667
886.15	14564
886.275	14503
886.4	14419
886.525	14488
886.65	14568
886.775	14484
886.9	14773
887.025	14853
887.149	14484
887.274	14465
887.399	14336
887.523	14294
887.648	14309
887.773	14271
887.897	14446
888.021	14530
888.146	14320
888.27	14465
888.395	14469
888.519	14419
888.643	14533
888.767	14431
888.891	14248
889.015	14267
889.139	14233
889.263	14294
889.387	14434
889.511	14434
889.635	14336
889.759	14214
889.883	14275
890.006	14275
890.13	14374
890.254	14145
890.377	14320
890.501	14065
890.624	13982
890.748	14103
890.871	13974
890.995	13875
891.118	13814
891.241	13963
891.364	13909
891.488	14065
891.611	13940
891.734	13963
891.857	13974
891.98	13925
892.103	14016
892.226	13940
892.349	13909
892.471	13799
892.594	13898
892.717	13955
892.839	13932
892.962	13974
893.085	13974
893.207	13883
893.33	13837
893.452	13784
893.575	13989
893.697	13936
893.819	14210
893.941	14107
894.064	14161
894.186	13947
894.308	13947
894.43	14084
894.552	14161
894.674	14058
894.796	13837
894.918	13978
895.04	14027
895.161	14164
895.283	14088
895.405	13955
895.526	14054
895.648	14020
895.769	14058
895.891	14103
896.012	14164
896.134	14206
896.255	14145
896.376	14119
896.498	14119
896.619	14298
896.74	14157
896.861	14157
896.982	14473
897.103	14556
897.224	14461
897.345	14374
897.466	14282
897.587	14415
897.708	14533
897.828	14438
897.949	14408
898.07	14275
898.19	14328
898.311	14602
898.431	14358
898.552	14469
898.672	14583
898.792	14480
898.913	14465
899.033	14457
899.153	14351
899.273	14298
899.393	14305
899.513	14317
899.633	14298
899.753	14377
899.873	14298
899.993	14454
900.113	14347
900.232	14339
900.352	14343
900.472	14199
900.591	14092
900.711	14225
900.83	14145
900.95	14320
901.069	14252
901.189	14069
901.308	13841
901.427	13887
901.546	13894
901.665	13902
901.784	13871
901.904	13753
902.023	13681
902.141	13533
902.26	13422
902.379	13525
902.498	13460
902.617	13396
902.735	13392
902.854	13460
902.973	13377
903.091	13213
903.21	13129
903.328	13091
903.446	13072
903.565	13050
903.683	12989
903.801	12947
903.919	13072
904.038	13015
904.156	12875
904.274	12814
904.392	12745
904.51	12753
904.627	12707
904.745	12837
904.863	12840
904.981	12646
905.098	12509
905.216	12559
905.334	12506
905.451	12536
905.569	12486
905.686	12547
905.803	12566
905.921	12285
906.038	12494
906.155	12323
906.272	12243
906.389	12251
906.506	12182
906.623	12106
906.74	12190
906.857	11950
906.974	12026
907.091	12247
907.208	12205
907.324	12117
907.441	12038
907.557	11946
907.674	11832
907.79	11847
907.907	11836
908.023	11783
908.139	11870
908.256	11786
908.372	11809
908.488	11752
908.604	11642
908.72	11596
908.836	11619
908.952	11596
909.068	11657
909.184	11703
909.3	11657
909.415	11627
909.531	11634
909.647	11353
909.762	11429
909.878	11349
909.993	11444
910.108	11383
910.224	11334
910.339	11471
910.454	11322
910.57	11166
910.685	11254
910.8	11566
910.915	11414
911.03	11334
911.145	11109
911.259	11147
911.374	11155
911.489	11041
911.604	10980
911.718	10908
911.833	10900
911.947	10698
912.062	10771
912.176	10896
912.291	10881
912.405	10915
912.519	11086
912.633	11045
912.748	10934
912.862	10934
912.976	10771
913.09	10637
913.204	10691
913.318	10771
913.431	10854
913.545	10919
913.659	10915
913.772	10774
913.886	10710
914	10637
914.113	10729
914.226	10820
914.34	10717
914.453	10599
914.566	10645
914.68	10645
914.793	10577
914.906	10394
915.019	10394
915.132	10360
915.245	10360
915.358	10371
915.47	10303
915.583	10493
915.696	10424
915.809	10535
915.921	10531
916.034	10303
916.146	10306
916.259	10306
916.371	10382
916.483	10360
916.595	10291
916.708	10344
916.82	10303
916.932	10318
917.044	10318
917.156	10249
917.268	10154
917.38	10185
917.491	10223
917.603	10204
917.715	10280
917.826	10329
917.938	10223
918.049	10158
918.161	10162
918.272	10318
918.384	10424
918.495	10249
918.606	10090
918.717	10002
918.828	10048
918.939	10188
919.05	10032
919.161	10124
919.272	9892
919.383	9922
919.494	10242
919.604	10402
919.715	10116
919.826	10071
919.936	10116
920.047	10200
920.157	10181
920.267	10306
920.378	10135
920.488	10124
920.598	10268
920.708	10443
920.818	10344
920.928	10295
921.038	10500
921.148	10424
921.258	10207
921.368	10109
921.477	10017
921.587	10078
921.697	9899
921.806	10029
921.916	9854
922.025	9781
922.134	9625
922.244	9633
922.353	9694
922.462	9523
922.571	9526
922.68	9348
922.789	9370
922.898	9420
923.007	9256
923.116	9458
923.224	9408
923.333	9355
923.442	9302
923.55	9226
923.659	9291
923.767	9313
923.876	9192
923.984	9294
924.092	9199
924.201	9279
924.309	9173
924.417	9165
924.525	9123
924.633	9161
924.741	10017
924.849	9028
924.956	9154
925.064	9039
925.172	8963
925.279	8982
925.387	9024
925.494	8956
925.602	9146
925.709	9058
925.816	8937
925.924	9013
926.031	9142
926.138	9123
926.245	9127
926.352	8929
926.459	9066
926.566	9161
926.673	8979
926.779	8887
926.886	8929
926.993	8804
927.099	8735
927.206	8724
927.312	8705
927.419	8735
927.525	8804
927.631	8769
927.737	8727
927.843	8568
927.95	8469
928.056	8617
928.162	8693
928.267	8667
928.373	9157
928.479	8758
928.585	8454
928.69	8636
928.796	8655
928.901	8571
929.007	8427
929.112	8632
929.218	8530
929.323	8408
929.428	8495
929.533	8610
929.638	8412
929.743	8442
929.848	8507
929.953	8442
930.058	8339
930.163	8176
930.267	8298
930.372	8332
930.477	8168
930.581	8469
930.685	8362
930.79	8176
930.894	8256
930.998	8164
931.103	8294
931.207	7944
931.311	7909
931.415	7860
931.519	7689
931.623	7696
