Data from test_V78500241_1305.txt Node
Date: Fri Mar 25 14:42:48 CST 2022
User: usil
Spectrometer: V785-0024
Trigger mode: 0
Integration Time (sec): 4.000000E-1
Scans to average: 1
Nonlinearity correction enabled: false
Boxcar width: 0
Storing dark spectrum: false
XAxis mode: Wavelengths
Number of Pixels in Spectrum: 1024
>>>>>Begin Spectral Data<<<<<
801.071	22512
801.214	22341
801.356	22017
801.499	21994
801.641	21823
801.783	21759
801.926	21804
802.068	21713
802.211	21705
802.353	21511
802.496	21237
802.638	21302
802.78	21100
802.923	21199
803.065	21100
803.208	21032
803.35	21039
803.492	21104
803.635	21108
803.777	20967
803.919	21093
804.061	21408
804.204	21279
804.346	20994
804.488	20952
804.63	21036
804.773	20895
804.915	21123
805.057	21081
805.199	21024
805.341	21017
805.483	21119
805.626	21081
805.768	20982
805.91	21009
806.052	20986
806.194	20975
806.336	21142
806.478	20960
806.62	20887
806.762	21096
806.904	21340
807.046	21481
807.188	21469
807.33	21306
807.472	21424
807.614	21306
807.756	21252
807.898	21112
808.04	21062
808.182	21283
808.324	21127
808.465	21214
808.607	21481
808.749	21572
808.891	21690
809.033	21831
809.174	21622
809.316	21443
809.458	21599
809.6	21473
809.741	21477
809.883	21622
810.025	21690
810.166	21542
810.308	21629
810.45	21473
810.591	21454
810.733	21272
810.875	21199
811.016	21116
811.158	21119
811.299	21370
811.441	21268
811.582	21344
811.724	21264
811.865	21214
812.007	21135
812.148	21112
812.29	21287
812.431	21329
812.573	21568
812.714	21519
812.855	21709
812.997	21762
813.138	22010
813.279	21728
813.421	21755
813.562	21595
813.703	21424
813.845	21298
813.986	21074
814.127	20979
814.268	20777
814.41	20811
814.551	20773
814.692	20765
814.833	20705
814.974	20636
815.115	20708
815.256	20507
815.397	20609
815.539	20469
815.68	20484
815.821	20415
815.962	20568
816.103	20431
816.244	20256
816.385	20237
816.526	20183
816.666	20073
816.807	19955
816.948	19906
817.089	19986
817.23	19921
817.371	20024
817.512	19833
817.653	19807
817.793	19879
817.934	20005
818.075	19906
818.216	19871
818.356	19822
818.497	19814
818.638	19677
818.778	19567
818.919	19578
819.06	19632
819.2	19757
819.341	19719
819.481	19780
819.622	19982
819.762	20111
819.903	20058
820.043	20005
820.184	19917
820.324	19951
820.465	19928
820.605	19970
820.746	19856
820.886	19734
821.026	19852
821.167	19898
821.307	19898
821.447	19814
821.588	19571
821.728	19495
821.868	19453
822.008	19384
822.149	19164
822.289	19213
822.429	18977
822.569	19042
822.709	19057
822.849	18878
822.99	18730
823.13	18566
823.27	18688
823.41	18585
823.55	18498
823.69	18532
823.83	18582
823.97	18448
824.11	18319
824.25	18456
824.389	18277
824.529	18323
824.669	18380
824.809	18464
824.949	18486
825.089	18452
825.228	18441
825.368	18125
825.508	18289
825.648	18254
825.787	18277
825.927	18133
826.067	18178
826.206	18114
826.346	18136
826.485	18216
826.625	18159
826.765	18216
826.904	18216
827.044	18045
827.183	17889
827.323	17824
827.462	17996
827.601	17779
827.741	17764
827.88	17923
828.02	17733
828.159	17813
828.298	17897
828.437	17885
828.577	17809
828.716	17870
828.855	17661
828.994	17558
829.134	17604
829.273	17646
829.412	17520
829.551	17478
829.69	17646
829.829	17615
829.968	17577
830.107	17608
830.246	17592
830.385	17463
830.524	17463
830.663	17395
830.802	17322
830.941	17303
831.08	17155
831.219	17212
831.357	17349
831.496	17414
831.635	17197
831.774	17071
831.913	17185
832.051	16972
832.19	17006
832.329	16987
832.467	16965
832.606	16820
832.744	16911
832.883	16858
833.022	16919
833.16	16957
833.299	17014
833.437	16934
833.576	17010
833.714	17018
833.852	16919
833.991	16934
834.129	17083
834.267	16995
834.406	16877
834.544	17029
834.682	16968
834.821	17025
834.959	17277
835.097	16881
835.235	17056
835.373	16980
835.511	17003
835.65	16885
835.788	16911
835.926	16744
836.064	16675
836.202	16759
836.34	16946
836.478	16949
836.615	16854
836.753	16862
836.891	16961
837.029	16881
837.167	16812
837.305	16774
837.443	16755
837.58	16729
837.718	16774
837.856	16706
837.993	16694
838.131	16687
838.269	16615
838.406	16675
838.544	16660
838.681	16402
838.819	16497
838.956	16257
839.094	16188
839.231	16363
839.369	16436
839.506	16607
839.643	16542
839.781	16299
839.918	16135
840.055	16379
840.193	16265
840.33	16253
840.467	16295
840.604	16398
840.742	16535
840.879	16169
841.016	16196
841.153	16238
841.29	16421
841.427	16280
841.564	16246
841.701	16356
841.838	16325
841.975	16181
842.112	16249
842.249	16185
842.385	16135
842.522	16246
842.659	16105
842.796	16097
842.933	16112
843.069	16048
843.206	16032
843.343	16226
843.479	16185
843.616	16017
843.752	15804
843.889	15903
844.025	15953
844.162	15861
844.298	15968
844.435	15857
844.571	15789
844.708	15972
844.844	16120
844.98	16051
845.117	16082
845.253	15857
845.389	15823
845.525	15846
845.661	15835
845.798	15804
845.934	15937
846.07	15804
846.206	15945
846.342	15994
846.478	15766
846.614	15614
846.75	15462
846.886	15454
847.022	15454
847.158	15454
847.294	15481
847.429	15389
847.565	15428
847.701	15663
847.837	15176
847.972	15135
848.108	15165
848.244	15226
848.379	15089
848.515	15070
848.65	15024
848.786	15055
848.921	15157
849.057	14948
849.192	15169
849.328	15028
849.463	15135
849.598	14982
849.734	14979
849.869	14891
850.004	14933
850.14	14853
850.275	14819
850.41	14804
850.545	14800
850.68	14758
850.815	14834
850.95	14746
851.085	14979
851.22	14933
851.355	14887
851.49	14746
851.625	14731
851.76	14746
851.895	14739
852.03	14731
852.165	14712
852.299	14830
852.434	14929
852.569	14830
852.703	14838
852.838	14925
852.973	14986
853.107	14982
853.242	14830
853.376	14769
853.511	14590
853.645	14568
853.78	14716
853.914	14746
854.048	14720
854.183	14716
854.317	14670
854.451	14895
854.585	14610
854.72	14632
854.854	14754
854.988	14598
855.122	14667
855.256	14537
855.39	14571
855.524	14689
855.658	14682
855.792	14625
855.926	14746
856.06	14724
856.194	14735
856.327	14743
856.461	14606
856.595	14552
856.729	14670
856.862	14765
856.996	14697
857.13	14674
857.263	14857
857.397	14807
857.53	14678
857.664	14743
857.797	14705
857.931	14815
858.064	14686
858.197	14811
858.331	14678
858.464	14617
858.597	14560
858.731	14636
858.864	14682
858.997	14625
859.13	14807
859.263	14667
859.396	14754
859.529	14648
859.662	14602
859.795	14625
859.928	14708
860.061	14849
860.194	14762
860.327	14708
860.46	14617
860.592	14823
860.725	14845
860.858	14788
860.99	14693
861.123	14552
861.256	14636
861.388	14629
861.521	15454
861.653	14495
861.786	14492
861.918	14526
862.05	14617
862.183	14579
862.315	14667
862.447	14727
862.58	14636
862.712	14427
862.844	14427
862.976	14484
863.108	14526
863.24	14883
863.372	14400
863.504	14503
863.636	14343
863.768	14438
863.9	14415
864.032	14351
864.164	14408
864.296	14396
864.428	14556
864.559	14594
864.691	14590
864.823	14503
864.954	14526
865.086	14568
865.217	14400
865.349	14374
865.48	14431
865.612	14412
865.743	14587
865.875	14457
866.006	14374
866.137	14461
866.269	14415
866.4	14381
866.531	14461
866.662	14389
866.793	14377
866.924	14457
867.055	14396
867.186	14393
867.317	14339
867.448	14294
867.579	14324
867.71	14362
867.841	14358
867.972	14492
868.103	14408
868.233	14484
868.364	14473
868.495	14484
868.625	14667
868.756	14716
868.886	14564
869.017	14606
869.147	14788
869.278	14746
869.408	14765
869.539	14659
869.669	14689
869.799	14659
869.929	14872
870.06	14769
870.19	14979
870.32	14902
870.45	14982
870.58	15192
870.71	15176
870.84	15154
870.97	15119
871.1	15020
871.23	15195
871.36	15386
871.489	15123
871.619	15195
871.749	15249
871.879	15252
872.008	15317
872.138	15264
872.267	15275
872.397	15104
872.526	15074
872.656	15093
872.785	15256
872.915	15233
873.044	15397
873.173	15291
873.303	15439
873.432	15382
873.561	15370
873.69	15294
873.819	15272
873.948	15435
874.077	15401
874.206	15294
874.335	15367
874.464	15530
874.593	15591
874.722	15572
874.851	15618
874.979	15743
875.108	15618
875.237	15534
875.365	15496
875.494	15614
875.623	15633
875.751	15534
875.88	15679
876.008	15778
876.136	15755
876.265	15956
876.393	16116
876.521	16192
876.65	16067
876.778	16044
876.906	15953
877.034	16025
877.162	16040
877.29	15964
877.418	16067
877.546	16105
877.674	15983
877.802	16040
877.93	16055
878.058	16032
878.185	15865
878.313	15945
878.441	15979
878.568	15850
878.696	16082
878.824	16074
878.951	16188
879.079	16322
879.206	16428
879.333	16280
879.461	16223
879.588	16226
879.715	16375
879.842	16402
879.97	16116
880.097	16006
880.224	15876
880.351	15930
880.478	15937
880.605	15876
880.732	15865
880.859	16154
880.986	15968
881.112	15949
881.239	15842
881.366	15637
881.493	15682
881.619	15481
881.746	15542
881.872	15603
881.999	15496
882.125	15450
882.252	15622
882.378	15610
882.505	15656
882.631	15644
882.757	15435
882.883	15408
883.01	15355
883.136	15321
883.262	15184
883.388	15241
883.514	15344
883.64	15401
883.766	15355
883.892	15249
884.018	15275
884.143	15401
884.269	15439
884.395	15123
884.52	15173
884.646	15062
884.772	14956
884.897	15028
885.023	15058
885.148	15138
885.274	15241
885.399	15138
885.524	14994
885.65	15089
885.775	15074
885.9	14975
886.025	15176
886.15	15138
886.275	15081
886.4	14944
886.525	15089
886.65	14952
886.775	14937
886.9	15074
887.025	15268
887.149	15093
887.274	14872
887.399	14891
887.523	14830
887.648	14727
887.773	14758
887.897	14986
888.021	14960
888.146	14899
888.27	15017
888.395	15009
888.519	14998
888.643	14963
888.767	14963
888.891	14857
889.015	14667
889.139	14834
889.263	14731
889.387	14804
889.511	14994
889.635	14899
889.759	14697
889.883	14804
890.006	14727
890.13	14804
890.254	14594
890.377	14670
890.501	14575
890.624	14488
890.748	14579
890.871	14461
890.995	14438
891.118	14313
891.241	14473
891.364	14480
891.488	14518
891.611	14446
891.734	14358
891.857	14457
891.98	14526
892.103	14446
892.226	14541
892.349	14419
892.471	14206
892.594	14377
892.717	14454
892.839	14404
892.962	14427
893.085	14499
893.207	14362
893.33	14381
893.452	14396
893.575	14526
893.697	14446
893.819	14621
893.941	14629
894.064	14606
894.186	14408
894.308	14355
894.43	14579
894.552	14602
894.674	14522
894.796	14339
894.918	14431
895.04	14404
895.161	14499
895.283	14541
895.405	14434
895.526	14632
895.648	14518
895.769	14613
895.891	14465
896.012	14522
896.134	14632
896.255	14640
896.376	14541
896.498	14533
896.619	14651
896.74	14575
896.861	14598
896.982	14944
897.103	15085
897.224	14857
897.345	14849
897.466	14823
897.587	14883
897.708	14971
897.828	14880
897.949	14811
898.07	14670
898.19	14845
898.311	14994
898.431	14960
898.552	14876
898.672	15043
898.792	14952
898.913	14963
899.033	14975
899.153	14765
899.273	14708
899.393	14708
899.513	14773
899.633	14815
899.753	14891
899.873	14792
899.993	14731
900.113	14731
900.232	14792
900.352	14727
900.472	14727
900.591	14598
900.711	14629
900.83	14632
900.95	14705
901.069	14815
901.189	14552
901.308	14328
901.427	14263
901.546	14237
901.665	14358
901.784	14278
901.904	14100
902.023	13963
902.141	13936
902.26	13860
902.379	13951
902.498	13849
902.617	13769
902.735	13925
902.854	13845
902.973	13818
903.091	13586
903.21	13597
903.328	13605
903.446	13548
903.565	13407
903.683	13506
903.801	13312
903.919	13400
904.038	13392
904.156	13297
904.274	13358
904.392	13285
904.51	13263
904.627	13240
904.745	13369
904.863	13225
904.981	13000
905.098	12947
905.216	12890
905.334	12962
905.451	12924
905.569	12837
905.686	12993
905.803	12985
905.921	12768
906.038	12810
906.155	12768
906.272	12677
906.389	12665
906.506	12555
906.623	12452
906.74	12433
906.857	12273
906.974	12448
907.091	12616
907.208	12597
907.324	12582
907.441	12437
907.557	12277
907.674	12235
907.79	12194
907.907	12270
908.023	12228
908.139	12266
908.256	12243
908.372	12182
908.488	12220
908.604	12079
908.72	12045
908.836	12060
908.952	11942
909.068	11992
909.184	12087
909.3	11942
909.415	12095
909.531	12015
909.647	11771
909.762	11817
909.878	11779
909.993	11794
910.108	11726
910.224	11680
910.339	11847
910.454	11691
910.57	11623
910.685	11535
910.8	11775
910.915	11790
911.03	11688
911.145	11528
911.259	11440
911.374	11524
911.489	11433
911.604	11364
911.718	11265
911.833	11181
911.947	11124
912.062	11113
912.176	11220
912.291	11246
912.405	11197
912.519	11501
912.633	11448
912.748	11273
912.862	11239
912.976	11083
913.09	11037
913.204	11033
913.318	11102
913.431	11189
913.545	11322
913.659	11277
913.772	11105
913.886	11037
914	10965
914.113	11075
914.226	11193
914.34	11143
914.453	10923
914.566	11094
914.68	10938
914.793	10889
914.906	10767
915.019	10752
915.132	10660
915.245	10679
915.358	10729
915.47	10733
915.583	10869
915.696	10759
915.809	10877
915.921	10938
916.034	10725
916.146	10729
916.259	10615
916.371	10729
916.483	10767
916.595	10698
916.708	10649
916.82	10717
916.932	10706
917.044	10660
917.156	10634
917.268	10554
917.38	10679
917.491	10573
917.603	10618
917.715	10679
917.826	10729
917.938	10554
918.049	10493
918.161	10603
918.272	10774
918.384	10729
918.495	10603
918.606	10508
918.717	10390
918.828	10622
918.939	10500
919.05	10382
919.161	10451
919.272	10280
919.383	10242
919.494	10466
919.604	10637
919.715	10485
919.826	10379
919.936	10390
920.047	10580
920.157	10428
920.267	10615
920.378	10440
920.488	10508
920.598	10702
920.708	10714
920.818	10558
920.928	10649
921.038	10782
921.148	10824
921.258	10459
921.368	10489
921.477	10333
921.587	10257
921.697	10230
921.806	10352
921.916	10257
922.025	10029
922.134	9994
922.244	9903
922.353	10059
922.462	9960
922.571	9846
922.68	9709
922.789	9622
922.898	9682
923.007	9717
923.116	9804
923.224	9774
923.333	9660
923.442	9648
923.55	9530
923.659	9572
923.767	9667
923.876	9561
923.984	9709
924.092	9584
924.201	9633
924.309	9618
924.417	9564
924.525	9504
924.633	9538
924.741	10325
924.849	9336
924.956	9500
925.064	9355
925.172	9211
925.279	9351
925.387	9321
925.494	9420
925.602	9500
925.709	9370
925.816	9332
925.924	9317
926.031	9382
926.138	9348
926.245	9420
926.352	9306
926.459	9351
926.566	9447
926.673	9226
926.779	9157
926.886	9161
926.993	9085
927.099	9032
927.206	8971
927.312	9036
927.419	9028
927.525	9017
927.631	9070
927.737	8941
927.843	8990
927.95	8811
928.056	8929
928.162	8891
928.267	8975
928.373	9534
928.479	9032
928.585	8766
928.69	8937
928.796	8944
928.901	8891
929.007	8697
929.112	8773
929.218	8811
929.323	8781
929.428	8724
929.533	8857
929.638	8735
929.743	8746
929.848	8781
929.953	8773
930.058	8682
930.163	8530
930.267	8598
930.372	8651
930.477	8473
930.581	8667
930.685	8545
930.79	8446
930.894	8446
930.998	8389
931.103	8606
931.207	8237
931.311	8233
931.415	8130
931.519	7951
931.623	7978
