Data from test_V78500241_2464.txt Node
Date: Fri Mar 25 14:50:52 CST 2022
User: usil
Spectrometer: V785-0024
Trigger mode: 0
Integration Time (sec): 4.000000E-1
Scans to average: 1
Nonlinearity correction enabled: false
Boxcar width: 0
Storing dark spectrum: false
XAxis mode: Wavelengths
Number of Pixels in Spectrum: 1024
>>>>>Begin Spectral Data<<<<<
801.071	22086
801.214	22036
801.356	21762
801.499	21743
801.641	21583
801.783	21462
801.926	21538
802.068	21412
802.211	21344
802.353	21268
802.496	21089
802.638	20944
802.78	20876
802.923	20777
803.065	20739
803.208	20720
803.35	20979
803.492	20925
803.635	20925
803.777	20781
803.919	20845
804.061	21093
804.204	20872
804.346	20796
804.488	20674
804.63	20727
804.773	20693
804.915	20796
805.057	20785
805.199	20667
805.341	20746
805.483	20925
805.626	20724
805.768	20807
805.91	20697
806.052	20750
806.194	20636
806.336	20845
806.478	20682
806.62	20724
806.762	20845
806.904	20960
807.046	21135
807.188	21032
807.33	21150
807.472	21135
807.614	20842
807.756	20975
807.898	20796
808.04	20746
808.182	20826
808.324	20902
808.465	20910
808.607	21017
808.749	21135
808.891	21272
809.033	21306
809.174	21283
809.316	20998
809.458	21165
809.6	21093
809.741	21203
809.883	21096
810.025	21256
810.166	21207
810.308	21348
810.45	21135
810.591	21096
810.733	21001
810.875	20876
811.016	20788
811.158	20743
811.299	20967
811.441	20918
811.582	20895
811.724	20864
811.865	20845
812.007	20785
812.148	20842
812.29	20956
812.431	21154
812.573	21275
812.714	21306
812.855	21230
812.997	21481
813.138	21709
813.279	21534
813.421	21348
813.562	21222
813.703	21093
813.845	20998
813.986	20788
814.127	20579
814.268	20488
814.41	20404
814.551	20408
814.692	20442
814.833	20362
814.974	20339
815.115	20473
815.256	20138
815.397	20195
815.539	20229
815.68	20134
815.821	20168
815.962	20081
816.103	20016
816.244	19970
816.385	19947
816.526	19803
816.666	19769
816.807	19620
816.948	19601
817.089	19597
817.23	19480
817.371	19552
817.512	19525
817.653	19419
817.793	19540
817.934	19502
818.075	19556
818.216	19499
818.356	19487
818.497	19331
818.638	19183
818.778	19156
818.919	19270
819.06	19270
819.2	19362
819.341	19407
819.481	19384
819.622	19491
819.762	19696
819.903	19681
820.043	19575
820.184	19590
820.324	19407
820.465	19616
820.605	19502
820.746	19533
820.886	19400
821.026	19521
821.167	19426
821.307	19597
821.447	19453
821.588	19396
821.728	19194
821.868	19061
822.008	18840
822.149	18993
822.289	18932
822.429	18738
822.569	18654
822.709	18566
822.849	18403
822.99	18437
823.13	18342
823.27	18399
823.41	18254
823.55	18224
823.69	18277
823.83	18171
823.97	18159
824.11	18030
824.25	17935
824.389	18060
824.529	18003
824.669	17923
824.809	18087
824.949	18026
825.089	18038
825.228	17988
825.368	17824
825.508	17741
825.648	17741
825.787	17794
825.927	17889
826.067	17786
826.206	17794
826.346	17748
826.485	17699
826.625	17729
826.765	17939
826.904	17794
827.044	17585
827.183	17482
827.323	17436
827.462	17482
827.601	17467
827.741	17467
827.88	17528
828.02	17368
828.159	17414
828.298	17512
828.437	17512
828.577	17455
828.716	17577
828.855	17429
828.994	17132
829.134	17254
829.273	17360
829.412	17147
829.551	17018
829.69	17261
829.829	17231
829.968	17292
830.107	17208
830.246	17277
830.385	17094
830.524	17064
830.663	16942
830.802	16889
830.941	16778
831.08	16740
831.219	16889
831.357	16942
831.496	17102
831.635	16850
831.774	16790
831.913	16740
832.051	16558
832.19	16641
832.329	16565
832.467	16527
832.606	16558
832.744	16577
832.883	16569
833.022	16542
833.16	16542
833.299	16523
833.437	16546
833.576	16565
833.714	16550
833.852	16573
833.991	16596
834.129	16603
834.267	16599
834.406	16607
834.544	16546
834.682	16687
834.821	16607
834.959	16683
835.097	16546
835.235	16752
835.373	16580
835.511	16554
835.65	16481
835.788	16470
835.926	16390
836.064	16268
836.202	16242
836.34	16516
836.478	16554
836.615	16394
836.753	16493
836.891	16542
837.029	16519
837.167	16485
837.305	16367
837.443	16371
837.58	16268
837.718	16470
837.856	16318
837.993	16238
838.131	16344
838.269	16276
838.406	16265
838.544	16314
838.681	16097
838.819	15956
838.956	15819
839.094	15911
839.231	15964
839.369	15968
839.506	16291
839.643	16135
839.781	15865
839.918	15873
840.055	15930
840.193	15930
840.33	15869
840.467	15808
840.604	15953
840.742	16188
840.879	15736
841.016	15755
841.153	15819
841.29	16040
841.427	15869
841.564	15895
841.701	15911
841.838	15846
841.975	15873
842.112	15854
842.249	15728
842.385	15736
842.522	15934
842.659	15759
842.796	15610
842.933	15610
843.069	15652
843.206	15530
843.343	15713
843.479	15618
843.616	15610
843.752	15351
843.889	15492
844.025	15545
844.162	15363
844.298	15481
844.435	15523
844.571	15504
844.708	15538
844.844	15667
844.98	15591
845.117	15660
845.253	15408
845.389	15420
845.525	15351
845.661	15359
845.798	15275
845.934	15218
846.07	15154
846.206	15268
846.342	15397
846.478	15226
846.614	15058
846.75	14979
846.886	15001
847.022	15066
847.158	15020
847.294	15093
847.429	15036
847.565	14994
847.701	15260
847.837	14788
847.972	14785
848.108	14906
848.244	14883
848.379	14762
848.515	14621
848.65	14522
848.786	14625
848.921	14648
849.057	14644
849.192	14644
849.328	14632
849.463	14625
849.598	14636
849.734	14518
849.869	14484
850.004	14431
850.14	14552
850.275	14396
850.41	14332
850.545	14393
850.68	14389
850.815	14366
850.95	14381
851.085	14594
851.22	14503
851.355	14415
851.49	14351
851.625	14400
851.76	14351
851.895	14183
852.03	14309
852.165	14362
852.299	14431
852.434	14488
852.569	14450
852.703	14393
852.838	14454
852.973	14530
853.107	14514
853.242	14301
853.376	14263
853.511	14183
853.645	14332
853.78	14343
853.914	14267
854.048	14225
854.183	14176
854.317	14301
854.451	14450
854.585	14256
854.72	14161
854.854	14286
854.988	14233
855.122	14202
855.256	14138
855.39	14142
855.524	14355
855.658	14313
855.792	14328
855.926	14324
856.06	14210
856.194	14404
856.327	14309
856.461	14225
856.595	14214
856.729	14309
856.862	14324
856.996	14309
857.13	14320
857.263	14332
857.397	14377
857.53	14214
857.664	14332
857.797	14313
857.931	14408
858.064	14263
858.197	14317
858.331	14305
858.464	14282
858.597	14149
858.731	14309
858.864	14301
858.997	14176
859.13	14339
859.263	14358
859.396	14309
859.529	14332
859.662	14157
859.795	14218
859.928	14282
860.061	14374
860.194	14358
860.327	14275
860.46	14183
860.592	14393
860.725	14404
860.858	14328
860.99	14252
861.123	14180
861.256	14240
861.388	14339
861.521	14800
861.653	14092
861.786	14054
861.918	14161
862.05	14252
862.183	14240
862.315	14290
862.447	14320
862.58	14157
862.712	13974
862.844	13997
862.976	14077
863.108	14092
863.24	14301
863.372	13993
863.504	14031
863.636	14043
863.768	14084
863.9	13959
864.032	13970
864.164	14005
864.296	14046
864.428	14100
864.559	14130
864.691	14043
864.823	14126
864.954	14107
865.086	14077
865.217	14039
865.349	13944
865.48	14016
865.612	14123
865.743	14183
865.875	14024
866.006	14065
866.137	14065
866.269	13982
866.4	13944
866.531	14062
866.662	13913
866.793	14008
866.924	14065
867.055	13951
867.186	14077
867.317	13860
867.448	13883
867.579	13993
867.71	13963
867.841	13959
867.972	14005
868.103	14027
868.233	14054
868.364	14012
868.495	14191
868.625	14172
868.756	14229
868.886	14161
869.017	14218
869.147	14343
869.278	14362
869.408	14248
869.539	14237
869.669	14358
869.799	14366
869.929	14415
870.06	14377
870.19	14686
870.32	14655
870.45	14579
870.58	14701
870.71	14853
870.84	14765
870.97	14621
871.1	14667
871.23	14765
871.36	14880
871.489	14811
871.619	14834
871.749	14849
871.879	14906
872.008	14975
872.138	14902
872.267	14948
872.397	14746
872.526	14739
872.656	14716
872.785	14765
872.915	15013
873.044	14960
873.173	14861
873.303	14872
873.432	15074
873.561	14994
873.69	14861
873.819	14941
873.948	15017
874.077	14982
874.206	14842
874.335	14914
874.464	15085
874.593	15154
874.722	15150
874.851	15283
874.979	15268
875.108	15272
875.237	15256
875.365	15173
875.494	15135
875.623	15264
875.751	15142
875.88	15222
876.008	15382
876.136	15462
876.265	15618
876.393	15671
876.521	15705
876.65	15720
876.778	15698
876.906	15625
877.034	15622
877.162	15629
877.29	15675
877.418	15610
877.546	15606
877.674	15561
877.802	15660
877.93	15675
878.058	15610
878.185	15507
878.313	15606
878.441	15641
878.568	15458
878.696	15713
878.824	15675
878.951	15739
879.079	15846
879.206	15907
879.333	15770
879.461	15739
879.588	15827
879.715	15899
879.842	15911
879.97	15705
880.097	15492
880.224	15523
880.351	15519
880.478	15526
880.605	15450
880.732	15435
880.859	15857
880.986	15523
881.112	15538
881.239	15511
881.366	15363
881.493	15313
881.619	15100
881.746	15203
881.872	15203
881.999	15108
882.125	15154
882.252	15188
882.378	15157
882.505	15329
882.631	15081
882.757	14979
882.883	15017
883.01	14986
883.136	14914
883.262	14800
883.388	14906
883.514	14979
883.64	15013
883.766	15036
883.892	14823
884.018	14864
884.143	14853
884.269	15028
884.395	14746
884.52	14678
884.646	14583
884.772	14579
884.897	14568
885.023	14697
885.148	14811
885.274	14880
885.399	14689
885.524	14644
885.65	14651
885.775	14731
885.9	14724
886.025	14845
886.15	14712
886.275	14613
886.4	14590
886.525	14727
886.65	14632
886.775	14629
886.9	14785
887.025	14963
887.149	14781
887.274	14522
887.399	14488
887.523	14461
887.648	14328
887.773	14415
887.897	14594
888.021	14644
888.146	14522
888.27	14587
888.395	14655
888.519	14583
888.643	14648
888.767	14583
888.891	14522
889.015	14366
889.139	14347
889.263	14404
889.387	14457
889.511	14571
889.635	14427
889.759	14358
889.883	14305
890.006	14393
890.13	14514
890.254	14320
890.377	14317
890.501	14202
890.624	14199
890.748	14271
890.871	14149
890.995	14084
891.118	13921
891.241	14103
891.364	14084
891.488	14199
891.611	14088
891.734	14077
891.857	14153
891.98	14084
892.103	14149
892.226	14027
892.349	14031
892.471	13955
892.594	14123
892.717	14142
892.839	14069
892.962	14176
893.085	14145
893.207	14119
893.33	13909
893.452	14031
893.575	14107
893.697	14149
893.819	14206
893.941	14278
894.064	14138
894.186	14050
894.308	14046
894.43	14218
894.552	14317
894.674	14161
894.796	14039
894.918	14107
895.04	14138
895.161	14256
895.283	14168
895.405	14107
895.526	14164
895.648	14096
895.769	14229
895.891	14221
896.012	14328
896.134	14214
896.255	14305
896.376	14225
896.498	14168
896.619	14366
896.74	14240
896.861	14275
896.982	14629
897.103	14701
897.224	14526
897.345	14465
897.466	14461
897.587	14621
897.708	14613
897.828	14522
897.949	14488
898.07	14438
898.19	14583
898.311	14644
898.431	14492
898.552	14556
898.672	14670
898.792	14655
898.913	14659
899.033	14530
899.153	14465
899.273	14358
899.393	14427
899.513	14454
899.633	14427
899.753	14358
899.873	14324
899.993	14480
900.113	14438
900.232	14488
900.352	14446
900.472	14366
900.591	14271
900.711	14317
900.83	14259
900.95	14370
901.069	14495
901.189	14275
901.308	14100
901.427	14058
901.546	13890
901.665	14096
901.784	14050
901.904	13925
902.023	13822
902.141	13613
902.26	13590
902.379	13613
902.498	13658
902.617	13533
902.735	13616
902.854	13586
902.973	13457
903.091	13358
903.21	13354
903.328	13289
903.446	13209
903.565	13202
903.683	13091
903.801	13065
903.919	13095
904.038	13137
904.156	13031
904.274	13069
904.392	12905
904.51	12973
904.627	12932
904.745	12970
904.863	12954
904.981	12783
905.098	12650
905.216	12604
905.334	12707
905.451	12623
905.569	12673
905.686	12601
905.803	12631
905.921	12494
906.038	12585
906.155	12483
906.272	12365
906.389	12357
906.506	12228
906.623	12216
906.74	12235
906.857	12098
906.974	12186
907.091	12369
907.208	12357
907.324	12251
907.441	12232
907.557	11939
907.674	11939
907.79	11942
907.907	11927
908.023	11946
908.139	11946
908.256	11969
908.372	11889
908.488	11904
908.604	11775
908.72	11756
908.836	11760
908.952	11775
909.068	11756
909.184	11832
909.3	11729
909.415	11790
909.531	11790
909.647	11467
909.762	11528
909.878	11562
909.993	11535
910.108	11558
910.224	11410
910.339	11478
910.454	11356
910.57	11379
910.685	11334
910.8	11497
910.915	11509
911.03	11486
911.145	11197
911.259	11242
911.374	11204
911.489	11140
911.604	11048
911.718	10953
911.833	10965
911.947	10866
912.062	10873
912.176	11014
912.291	10961
912.405	10980
912.519	11109
912.633	11212
912.748	10984
912.862	10927
912.976	10759
913.09	10774
913.204	10782
913.318	10843
913.431	10949
913.545	10835
913.659	10949
913.772	10839
913.886	10774
914	10660
914.113	10801
914.226	10850
914.34	10790
914.453	10615
914.566	10835
914.68	10675
914.793	10706
914.906	10485
915.019	10409
915.132	10363
915.245	10348
915.358	10443
915.47	10519
915.583	10489
915.696	10447
915.809	10558
915.921	10645
916.034	10481
916.146	10417
916.259	10447
916.371	10611
916.483	10512
916.595	10409
916.708	10344
916.82	10447
916.932	10363
917.044	10360
917.156	10287
917.268	10341
917.38	10348
917.491	10276
917.603	10329
917.715	10325
917.826	10363
917.938	10238
918.049	10120
918.161	10318
918.272	10413
918.384	10363
918.495	10352
918.606	10234
918.717	10173
918.828	10169
918.939	10177
919.05	10071
919.161	10162
919.272	9945
919.383	10048
919.494	10234
919.604	10402
919.715	10116
919.826	10074
919.936	10112
920.047	10265
920.157	10139
920.267	10390
920.378	10257
920.488	10219
920.598	10436
920.708	10558
920.818	10325
920.928	10417
921.038	10580
921.148	10569
921.258	10261
921.368	10109
921.477	10025
921.587	10135
921.697	9922
921.806	10082
921.916	9979
922.025	9789
922.134	9724
922.244	9705
922.353	9827
922.462	9637
922.571	9584
922.68	9496
922.789	9492
922.898	9496
923.007	9458
923.116	9576
923.224	9488
923.333	9416
923.442	9351
923.55	9344
923.659	9378
923.767	9416
923.876	9283
923.984	9370
924.092	9237
924.201	9340
924.309	9329
924.417	9389
924.525	9291
924.633	9245
924.741	10044
924.849	9043
924.956	9336
925.064	9093
925.172	9017
925.279	9089
925.387	9150
925.494	9093
925.602	9283
925.709	9165
925.816	9032
925.924	9077
926.031	9192
926.138	9142
926.245	9119
926.352	9089
926.459	9142
926.566	9203
926.673	9020
926.779	9001
926.886	8967
926.993	8861
927.099	8819
927.206	8826
927.312	8796
927.419	8887
927.525	8880
927.631	8876
927.737	8724
927.843	8766
927.95	8629
928.056	8712
928.162	8693
928.267	8697
928.373	9321
928.479	8876
928.585	8530
928.69	8648
928.796	8796
928.901	8632
929.007	8446
929.112	8632
929.218	8621
929.323	8549
929.428	8541
929.533	8667
929.638	8552
929.743	8522
929.848	8598
929.953	8629
930.058	8446
930.163	8282
930.267	8301
930.372	8495
930.477	8210
930.581	8507
930.685	8389
930.79	8271
930.894	8309
930.998	8279
931.103	8385
931.207	8016
931.311	8001
931.415	7913
931.519	7811
931.623	7750
