Data from test_V78500241_461.txt Node
Date: Fri Mar 25 14:36:55 CST 2022
User: usil
Spectrometer: V785-0024
Trigger mode: 0
Integration Time (sec): 4.000000E-1
Scans to average: 1
Nonlinearity correction enabled: false
Boxcar width: 0
Storing dark spectrum: false
XAxis mode: Wavelengths
Number of Pixels in Spectrum: 1024
>>>>>Begin Spectral Data<<<<<
801.071	26480
801.214	26309
801.356	26240
801.499	26256
801.641	25959
801.783	25879
801.926	25970
802.068	25894
802.211	25871
802.353	25871
802.496	25544
802.638	25670
802.78	25464
802.923	25457
803.065	25255
803.208	25453
803.35	25438
803.492	25533
803.635	25655
803.777	25483
803.919	25415
804.061	25811
804.204	25578
804.346	25472
804.488	25495
804.63	25457
804.773	25213
804.915	25381
805.057	25563
805.199	25529
805.341	25616
805.483	25525
805.626	25540
805.768	25499
805.91	25407
806.052	25491
806.194	25327
806.336	25681
806.478	25445
806.62	25506
806.762	25563
806.904	25746
807.046	26050
807.188	25860
807.33	25944
807.472	25917
807.614	25742
807.756	25871
807.898	25814
808.04	25655
808.182	25620
808.324	25643
808.465	25559
808.607	25822
808.749	25986
808.891	25986
809.033	26145
809.174	26119
809.316	26130
809.458	25993
809.6	25849
809.741	25936
809.883	26031
810.025	26153
810.166	26202
810.308	26149
810.45	26115
810.591	26092
810.733	25871
810.875	25841
811.016	25807
811.158	25818
811.299	25864
811.441	26020
811.582	25890
811.724	25753
811.865	25803
812.007	25791
812.148	25765
812.29	25947
812.431	25871
812.573	26084
812.714	26168
812.855	26415
812.997	26290
813.138	26537
813.279	26537
813.421	26237
813.562	26221
813.703	26115
813.845	25963
813.986	25635
814.127	25544
814.268	25251
814.41	25430
814.551	25293
814.692	25567
814.833	25270
814.974	25137
815.115	25278
815.256	25278
815.397	25209
815.539	25122
815.68	25122
815.821	25175
815.962	25145
816.103	24951
816.244	25069
816.385	24913
816.526	24890
816.666	24646
816.807	24521
816.948	24635
817.089	24661
817.23	24570
817.371	24532
817.512	24330
817.653	24403
817.793	24399
817.934	24475
818.075	24448
818.216	24376
818.356	24452
818.497	24323
818.638	24136
818.778	24110
818.919	24220
819.06	24273
819.2	24376
819.341	24300
819.481	24426
819.622	24460
819.762	24703
819.903	24646
820.043	24608
820.184	24509
820.324	24589
820.465	24517
820.605	24441
820.746	24509
820.886	24441
821.026	24418
821.167	24407
821.307	24601
821.447	24296
821.588	24216
821.728	24174
821.868	23999
822.008	23756
822.149	23779
822.289	23779
822.429	23497
822.569	23490
822.709	23547
822.849	23391
822.99	23284
823.13	23239
823.27	23231
823.41	23200
823.55	23075
823.69	23060
823.83	23083
823.97	23143
824.11	22881
824.25	22858
824.389	22923
824.529	22885
824.669	22809
824.809	23018
824.949	23010
825.089	22873
825.228	22790
825.368	22736
825.508	22759
825.648	22660
825.787	22744
825.927	22717
826.067	22710
826.206	22641
826.346	22615
826.485	22683
826.625	22767
826.765	22881
826.904	22698
827.044	22535
827.183	22337
827.323	22238
827.462	22421
827.601	22428
827.741	22238
827.88	22504
828.02	22154
828.159	22287
828.298	22398
828.437	22303
828.577	22280
828.716	22363
828.855	22158
828.994	22055
829.134	21949
829.273	22055
829.412	22093
829.551	21972
829.69	21975
829.829	21979
829.968	22105
830.107	22143
830.246	21937
830.385	21918
830.524	21964
830.663	21827
830.802	21759
830.941	21675
831.08	21576
831.219	21747
831.357	21667
831.496	21751
831.635	21633
831.774	21526
831.913	21488
832.051	21534
832.19	21355
832.329	21504
832.467	21226
832.606	21211
832.744	21249
832.883	21199
833.022	21199
833.16	21203
833.299	21306
833.437	21150
833.576	21176
833.714	21203
833.852	21332
833.991	21252
834.129	21355
834.267	21275
834.406	21249
834.544	21332
834.682	21329
834.821	21294
834.959	21386
835.097	21298
835.235	21260
835.373	21287
835.511	21275
835.65	20990
835.788	20902
835.926	20960
836.064	20918
836.202	20963
836.34	21218
836.478	21241
836.615	21039
836.753	21017
836.891	21131
837.029	21161
837.167	20918
837.305	21062
837.443	20914
837.58	21039
837.718	21085
837.856	20906
837.993	20956
838.131	20887
838.269	20815
838.406	20929
838.544	20804
838.681	20712
838.819	20625
838.956	20461
839.094	20400
839.231	20454
839.369	20549
839.506	20773
839.643	20587
839.781	20480
839.918	20385
840.055	20412
840.193	20339
840.33	20374
840.467	20419
840.604	20404
840.742	20648
840.879	20206
841.016	20229
841.153	20183
841.29	20522
841.427	20301
841.564	20278
841.701	20324
841.838	20164
841.975	20221
842.112	20298
842.249	20077
842.385	20046
842.522	20336
842.659	20214
842.796	20077
842.933	20020
843.069	20058
843.206	19993
843.343	20092
843.479	20145
843.616	19997
843.752	19811
843.889	19788
844.025	19917
844.162	19742
844.298	19868
844.435	19811
844.571	19685
844.708	19830
844.844	19887
844.98	19887
845.117	19826
845.253	19799
845.389	19635
845.525	19788
845.661	19719
845.798	19655
845.934	19696
846.07	19491
846.206	19597
846.342	19693
846.478	19578
846.614	19400
846.75	19316
846.886	19263
847.022	19369
847.158	19320
847.294	19232
847.429	19304
847.565	19160
847.701	19514
847.837	19091
847.972	18897
848.108	19000
848.244	19061
848.379	18954
848.515	18833
848.65	18837
848.786	18894
848.921	18738
849.057	19053
849.192	18852
849.328	18768
849.463	18916
849.598	18654
849.734	18760
849.869	18635
850.004	18681
850.14	18650
850.275	18585
850.41	18437
850.545	18498
850.68	18570
850.815	18540
850.95	18498
851.085	18684
851.22	18597
851.355	18479
851.49	18585
851.625	18585
851.76	18525
851.895	18498
852.03	18475
852.165	18475
852.299	18563
852.434	18601
852.569	18673
852.703	18635
852.838	18593
852.973	18719
853.107	18635
853.242	18597
853.376	18330
853.511	18247
853.645	18403
853.78	18532
853.914	18452
854.048	18407
854.183	18391
854.317	18342
854.451	18532
854.585	18369
854.72	18346
854.854	18475
854.988	18273
855.122	18395
855.256	18258
855.39	18376
855.524	18460
855.658	18422
855.792	18315
855.926	18391
856.06	18410
856.194	18483
856.327	18285
856.461	18380
856.595	18281
856.729	18262
856.862	18437
856.996	18410
857.13	18464
857.263	18460
857.397	18407
857.53	18372
857.664	18445
857.797	18380
857.931	18388
858.064	18365
858.197	18555
858.331	18308
858.464	18232
858.597	18117
858.731	18384
858.864	18266
858.997	18285
859.13	18281
859.263	18380
859.396	18380
859.529	18266
859.662	18304
859.795	18311
859.928	18285
860.061	18426
860.194	18353
860.327	18216
860.46	18395
860.592	18509
860.725	18445
860.858	18502
860.99	18262
861.123	18300
861.256	18235
861.388	18254
861.521	18985
861.653	18178
861.786	18102
861.918	18110
862.05	18235
862.183	18372
862.315	18399
862.447	18376
862.58	18334
862.712	18258
862.844	18114
862.976	18186
863.108	18190
863.24	18445
863.372	17882
863.504	18064
863.636	18007
863.768	18159
863.9	18022
864.032	17897
864.164	17904
864.296	17992
864.428	18083
864.559	18095
864.691	18049
864.823	18178
864.954	18136
865.086	18079
865.217	18068
865.349	17950
865.48	17870
865.612	17999
865.743	18106
865.875	17935
866.006	17920
866.137	17882
866.269	17965
866.4	17961
866.531	17882
866.662	17885
866.793	17893
866.924	17889
867.055	17863
867.186	18007
867.317	17889
867.448	17756
867.579	17916
867.71	17847
867.841	17885
867.972	17988
868.103	18003
868.233	17996
868.364	17916
868.495	17878
868.625	18076
868.756	18224
868.886	18057
869.017	18091
869.147	18254
869.278	18289
869.408	18186
869.539	18167
869.669	18258
869.799	18174
869.929	18239
870.06	18228
870.19	18517
870.32	18334
870.45	18502
870.58	18422
870.71	18711
870.84	18612
870.97	18540
871.1	18445
871.23	18719
871.36	18669
871.489	18635
871.619	18760
871.749	18715
871.879	18802
872.008	18783
872.138	18760
872.267	18696
872.397	18665
872.526	18521
872.656	18589
872.785	18642
872.915	18886
873.044	18844
873.173	18745
873.303	18677
873.432	18722
873.561	18871
873.69	18707
873.819	18776
873.948	18852
874.077	18768
874.206	18749
874.335	18802
874.464	18890
874.593	19103
874.722	19004
874.851	19053
874.979	19088
875.108	19137
875.237	18985
875.365	18947
875.494	19061
875.623	19145
875.751	18947
875.88	19057
876.008	19171
876.136	19225
876.265	19430
876.393	19597
876.521	19483
876.65	19506
876.778	19392
876.906	19343
877.034	19384
877.162	19403
877.29	19400
877.418	19540
877.546	19453
877.674	19445
877.802	19453
877.93	19472
878.058	19289
878.185	19331
878.313	19335
878.441	19430
878.568	19251
878.696	19381
878.824	19499
878.951	19460
879.079	19639
879.206	19830
879.333	19548
879.461	19396
879.588	19658
879.715	19540
879.842	19769
879.97	19563
880.097	19228
880.224	19240
880.351	19312
880.478	19430
880.605	19259
880.732	19259
880.859	19563
880.986	19206
881.112	19270
881.239	19209
881.366	19118
881.493	19042
881.619	18958
881.746	19069
881.872	18783
881.999	18856
882.125	18856
882.252	18993
882.378	18806
882.505	18913
882.631	18863
882.757	18722
882.883	18753
883.01	18749
883.136	18688
883.262	18551
883.388	18544
883.514	18719
883.64	18715
883.766	18658
883.892	18353
884.018	18483
884.143	18711
884.269	18719
884.395	18448
884.52	18167
884.646	18353
884.772	18220
884.897	18224
885.023	18270
885.148	18589
885.274	18441
885.399	18422
885.524	18353
885.65	18350
885.775	18388
885.9	18372
886.025	18388
886.15	18311
886.275	18315
886.4	18106
886.525	18243
886.65	18171
886.775	18148
886.9	18281
887.025	18551
887.149	18197
887.274	18159
887.399	18079
887.523	18034
887.648	18015
887.773	18019
887.897	18220
888.021	18121
888.146	18045
888.27	18201
888.395	18174
888.519	18152
888.643	18159
888.767	18277
888.891	17935
889.015	17897
889.139	17889
889.263	17946
889.387	17927
889.511	18171
889.635	18015
889.759	17817
889.883	17882
890.006	17923
890.13	18003
890.254	17901
890.377	17836
890.501	17855
890.624	17672
890.748	17718
890.871	17668
890.995	17524
891.118	17493
891.241	17493
891.364	17452
891.488	17558
891.611	17505
891.734	17581
891.857	17642
891.98	17482
892.103	17592
892.226	17482
892.349	17463
892.471	17330
892.594	17532
892.717	17463
892.839	17387
892.962	17539
893.085	17558
893.207	17596
893.33	17398
893.452	17402
893.575	17535
893.697	17459
893.819	17539
893.941	17672
894.064	17497
894.186	17444
894.308	17433
894.43	17471
894.552	17623
894.674	17528
894.796	17387
894.918	17395
895.04	17337
895.161	17532
895.283	17630
895.405	17353
895.526	17391
895.648	17505
895.769	17638
895.891	17516
896.012	17592
896.134	17592
896.255	17573
896.376	17452
896.498	17573
896.619	17661
896.74	17528
896.861	17707
896.982	17927
897.103	18079
897.224	17843
897.345	17863
897.466	17809
897.587	17623
897.708	17931
897.828	17809
897.949	17790
898.07	17653
898.19	17805
898.311	17847
898.431	17809
898.552	17775
898.672	17847
898.792	17775
898.913	17832
899.033	17771
899.153	17623
899.273	17452
899.393	17589
899.513	17615
899.633	17562
899.753	17535
899.873	17486
899.993	17687
900.113	17440
900.232	17596
900.352	17615
900.472	17436
900.591	17353
900.711	17337
900.83	17330
900.95	17532
901.069	17528
901.189	17360
901.308	17121
901.427	17151
901.546	16976
901.665	17010
901.784	17052
901.904	16892
902.023	16790
902.141	16599
902.26	16569
902.379	16687
902.498	16523
902.617	16474
902.735	16599
902.854	16504
902.973	16474
903.091	16291
903.21	16200
903.328	16219
903.446	16135
903.565	16124
903.683	16147
903.801	16025
903.919	16040
904.038	16067
904.156	15903
904.274	15994
904.392	15884
904.51	15930
904.627	15755
904.745	15918
904.863	15926
904.981	15633
905.098	15523
905.216	15473
905.334	15564
905.451	15507
905.569	15473
905.686	15584
905.803	15591
905.921	15359
906.038	15389
906.155	15370
906.272	15184
906.389	15211
906.506	15017
906.623	15077
906.74	15074
906.857	14986
906.974	14952
907.091	15146
907.208	15135
907.324	15100
907.441	15039
907.557	14849
907.674	14899
907.79	14674
907.907	14773
908.023	14773
908.139	14834
908.256	14727
908.372	14636
908.488	14629
908.604	14473
908.72	14457
908.836	14450
908.952	14419
909.068	14434
909.184	14625
909.3	14518
909.415	14473
909.531	14469
909.647	14180
909.762	14229
909.878	14191
909.993	14225
910.108	14183
910.224	14244
910.339	14214
910.454	14092
910.57	14096
910.685	13959
910.8	14218
910.915	14221
911.03	13997
911.145	13902
911.259	13837
911.374	13864
911.489	13826
911.604	13727
911.718	13700
911.833	13586
911.947	13457
912.062	13449
912.176	13609
912.291	13521
912.405	13609
912.519	13696
912.633	13723
912.748	13578
912.862	13518
912.976	13449
913.09	13354
913.204	13293
913.318	13422
913.431	13605
913.545	13464
913.659	13556
913.772	13464
913.886	13278
914	13320
914.113	13362
914.226	13358
914.34	13327
914.453	13156
914.566	13381
914.68	13149
914.793	13164
914.906	12977
915.019	12935
915.132	12871
915.245	12924
915.358	12973
915.47	12970
915.583	12878
915.696	12977
915.809	13050
915.921	13038
916.034	12970
916.146	12878
916.259	12753
916.371	12943
916.483	12954
916.595	12814
916.708	12852
916.82	12848
916.932	12783
917.044	12681
917.156	12745
917.268	12635
917.38	12669
917.491	12620
917.603	12620
917.715	12707
917.826	12760
917.938	12677
918.049	12536
918.161	12639
918.272	12703
918.384	12734
918.495	12578
918.606	12551
918.717	12441
918.828	12441
918.939	12528
919.05	12334
919.161	12433
919.272	12289
919.383	12319
919.494	12467
919.604	12601
919.715	12475
919.826	12323
919.936	12467
920.047	12471
920.157	12483
920.267	12662
920.378	12445
920.488	12410
920.598	12620
920.708	12692
920.818	12601
920.928	12525
921.038	12798
921.148	12719
921.258	12376
921.368	12281
921.477	12281
921.587	12197
921.697	12178
921.806	12194
921.916	12076
922.025	12049
922.134	11863
922.244	11802
922.353	11893
922.462	11790
922.571	11733
922.68	11547
922.789	11562
922.898	11604
923.007	11467
923.116	11532
923.224	11516
923.333	11570
923.442	11395
923.55	11436
923.659	11398
923.767	11334
923.876	11353
923.984	11417
924.092	11269
924.201	11368
924.309	11311
924.417	11376
924.525	11277
924.633	11265
924.741	12220
924.849	11083
924.956	11273
925.064	11109
925.172	11033
925.279	11079
925.387	11121
925.494	11064
925.602	11239
925.709	11178
925.816	10957
925.924	11052
926.031	11132
926.138	11041
926.245	11060
926.352	10942
926.459	11201
926.566	11140
926.673	11003
926.779	10972
926.886	10858
926.993	10740
927.099	10683
927.206	10679
927.312	10675
927.419	10763
927.525	10687
927.631	10687
927.737	10554
927.843	10531
927.95	10462
928.056	10519
928.162	10607
928.267	10603
928.373	11166
928.479	10607
928.585	10390
928.69	10542
928.796	10577
928.901	10421
929.007	10322
929.112	10428
929.218	10371
929.323	10322
929.428	10299
929.533	10519
929.638	10303
929.743	10211
929.848	10379
929.953	10192
930.058	10185
930.163	10093
930.267	10078
930.372	10147
930.477	10040
930.581	10284
930.685	10036
930.79	9956
930.894	9994
930.998	9854
931.103	10055
931.207	9698
931.311	9705
931.415	9584
931.519	9340
931.623	9336
