Data from test_V78500241_1976.txt Node
Date: Fri Mar 25 14:47:28 CST 2022
User: usil
Spectrometer: V785-0024
Trigger mode: 0
Integration Time (sec): 4.000000E-1
Scans to average: 1
Nonlinearity correction enabled: false
Boxcar width: 0
Storing dark spectrum: false
XAxis mode: Wavelengths
Number of Pixels in Spectrum: 1024
>>>>>Begin Spectral Data<<<<<
801.071	22086
801.214	21945
801.356	21663
801.499	21625
801.641	21534
801.783	21382
801.926	21344
802.068	21431
802.211	21272
802.353	21230
802.496	21127
802.638	21055
802.78	20994
802.923	20743
803.065	20705
803.208	20769
803.35	20785
803.492	20876
803.635	20979
803.777	20739
803.919	20914
804.061	21116
804.204	20807
804.346	20655
804.488	20689
804.63	20842
804.773	20636
804.915	20708
805.057	20750
805.199	20701
805.341	20769
805.483	20807
805.626	20838
805.768	20625
805.91	20697
806.052	20823
806.194	20640
806.336	20910
806.478	20769
806.62	20686
806.762	20796
806.904	20872
807.046	21169
807.188	21138
807.33	21036
807.472	21009
807.614	21009
807.756	20910
807.898	20792
808.04	20636
808.182	20849
808.324	20838
808.465	20891
808.607	20982
808.749	21043
808.891	21218
809.033	21260
809.174	21142
809.316	21138
809.458	21058
809.6	20990
809.741	21211
809.883	21131
810.025	21249
810.166	21252
810.308	21329
810.45	21207
810.591	21028
810.733	20941
810.875	20933
811.016	20727
811.158	20754
811.299	20883
811.441	21017
811.582	20971
811.724	20849
811.865	20899
812.007	20800
812.148	20811
812.29	20921
812.431	20971
812.573	21131
812.714	21317
812.855	21294
812.997	21405
813.138	21549
813.279	21458
813.421	21348
813.562	21249
813.703	21142
813.845	20998
813.986	20765
814.127	20537
814.268	20537
814.41	20480
814.551	20408
814.692	20450
814.833	20374
814.974	20358
815.115	20355
815.256	20218
815.397	20267
815.539	20362
815.68	20218
815.821	20134
815.962	20180
816.103	20073
816.244	20031
816.385	19849
816.526	19894
816.666	19662
816.807	19537
816.948	19643
817.089	19655
817.23	19655
817.371	19476
817.512	19529
817.653	19502
817.793	19529
817.934	19491
818.075	19548
818.216	19525
818.356	19582
818.497	19354
818.638	19209
818.778	19175
818.919	19244
819.06	19236
819.2	19270
819.341	19365
819.481	19453
819.622	19571
819.762	19723
819.903	19677
820.043	19616
820.184	19529
820.324	19559
820.465	19666
820.605	19563
820.746	19575
820.886	19274
821.026	19438
821.167	19460
821.307	19582
821.447	19403
821.588	19384
821.728	19240
821.868	19080
822.008	18905
822.149	18943
822.289	18928
822.429	18684
822.569	18703
822.709	18604
822.849	18471
822.99	18486
823.13	18369
823.27	18330
823.41	18289
823.55	18201
823.69	18254
823.83	18258
823.97	18167
824.11	17961
824.25	17779
824.389	17999
824.529	18095
824.669	17939
824.809	17999
824.949	18030
825.089	18076
825.228	18117
825.368	17824
825.508	17893
825.648	17874
825.787	17832
825.927	17893
826.067	17790
826.206	17680
826.346	17882
826.485	17889
826.625	17764
826.765	17882
826.904	17813
827.044	17581
827.183	17490
827.323	17406
827.462	17577
827.601	17581
827.741	17444
827.88	17547
828.02	17372
828.159	17334
828.298	17425
828.437	17577
828.577	17406
828.716	17570
828.855	17356
828.994	17200
829.134	17208
829.273	17318
829.412	17189
829.551	17220
829.69	17204
829.829	17349
829.968	17368
830.107	17299
830.246	17136
830.385	17227
830.524	17178
830.663	17052
830.802	16984
830.941	16843
831.08	16736
831.219	16850
831.357	16900
831.496	17037
831.635	16915
831.774	16755
831.913	16759
832.051	16645
832.19	16736
832.329	16618
832.467	16516
832.606	16519
832.744	16519
832.883	16569
833.022	16546
833.16	16516
833.299	16527
833.437	16504
833.576	16672
833.714	16550
833.852	16683
833.991	16694
834.129	16653
834.267	16596
834.406	16573
834.544	16641
834.682	16596
834.821	16649
834.959	16790
835.097	16603
835.235	16679
835.373	16713
835.511	16561
835.65	16596
835.788	16455
835.926	16421
836.064	16284
836.202	16432
836.34	16512
836.478	16637
836.615	16466
836.753	16497
836.891	16508
837.029	16546
837.167	16474
837.305	16363
837.443	16356
837.58	16382
837.718	16500
837.856	16577
837.993	16329
838.131	16402
838.269	16356
838.406	16352
838.544	16337
838.681	16105
838.819	16032
838.956	15888
839.094	15991
839.231	15922
839.369	16101
839.506	16226
839.643	16242
839.781	15968
839.918	15964
840.055	15991
840.193	15838
840.33	15926
840.467	15880
840.604	15975
840.742	16246
840.879	15800
841.016	15895
841.153	15876
841.29	16044
841.427	16013
841.564	16021
841.701	15983
841.838	15964
841.975	15869
842.112	15785
842.249	15797
842.385	15622
842.522	15903
842.659	15816
842.796	15736
842.933	15755
843.069	15701
843.206	15587
843.343	15831
843.479	15690
843.616	15739
843.752	15564
843.889	15526
844.025	15720
844.162	15428
844.298	15637
844.435	15488
844.571	15416
844.708	15610
844.844	15641
844.98	15629
845.117	15614
845.253	15473
845.389	15348
845.525	15374
845.661	15473
845.798	15359
845.934	15294
846.07	15294
846.206	15325
846.342	15340
846.478	15260
846.614	15180
846.75	15081
846.886	15100
847.022	15203
847.158	15123
847.294	15100
847.429	15108
847.565	15039
847.701	15374
847.837	14937
847.972	14948
848.108	14941
848.244	14914
848.379	14739
848.515	14655
848.65	14727
848.786	14629
848.921	14746
849.057	14792
849.192	14750
849.328	14724
849.463	14651
849.598	14705
849.734	14602
849.869	14533
850.004	14583
850.14	14461
850.275	14434
850.41	14423
850.545	14431
850.68	14396
850.815	14511
850.95	14476
851.085	14640
851.22	14632
851.355	14537
851.49	14381
851.625	14347
851.76	14328
851.895	14320
852.03	14347
852.165	14507
852.299	14469
852.434	14556
852.569	14495
852.703	14533
852.838	14587
852.973	14587
853.107	14670
853.242	14454
853.376	14355
853.511	14233
853.645	14313
853.78	14362
853.914	14450
854.048	14244
854.183	14320
854.317	14286
854.451	14473
854.585	14301
854.72	14328
854.854	14362
854.988	14153
855.122	14298
855.256	14065
855.39	14294
855.524	14415
855.658	14282
855.792	14336
855.926	14385
856.06	14366
856.194	14469
856.327	14294
856.461	14309
856.595	14301
856.729	14389
856.862	14400
856.996	14309
857.13	14415
857.263	14473
857.397	14450
857.53	14419
857.664	14389
857.797	14431
857.931	14434
858.064	14446
858.197	14446
858.331	14320
858.464	14313
858.597	14237
858.731	14339
858.864	14259
858.997	14294
859.13	14324
859.263	14317
859.396	14374
859.529	14309
859.662	14320
859.795	14294
859.928	14339
860.061	14427
860.194	14480
860.327	14355
860.46	14339
860.592	14442
860.725	14488
860.858	14476
860.99	14431
861.123	14240
861.256	14229
861.388	14389
861.521	14963
861.653	14290
861.786	14115
861.918	14180
862.05	14237
862.183	14206
862.315	14358
862.447	14381
862.58	14267
862.712	13982
862.844	14065
862.976	14077
863.108	14157
863.24	14381
863.372	13978
863.504	14153
863.636	14180
863.768	14046
863.9	14191
864.032	14126
864.164	14107
864.296	14138
864.428	14138
864.559	14126
864.691	14202
864.823	14237
864.954	14103
865.086	14168
865.217	14065
865.349	14054
865.48	14043
865.612	14024
865.743	14233
865.875	14024
866.006	14069
866.137	14103
866.269	14134
866.4	14107
866.531	14031
866.662	14103
866.793	14092
866.924	14069
867.055	14088
867.186	14043
867.317	14130
867.448	14001
867.579	14024
867.71	13997
867.841	13982
867.972	14088
868.103	14138
868.233	14100
868.364	14050
868.495	14157
868.625	14317
868.756	14393
868.886	14218
869.017	14366
869.147	14492
869.278	14404
869.408	14362
869.539	14355
869.669	14446
869.799	14362
869.929	14442
870.06	14381
870.19	14678
870.32	14621
870.45	14648
870.58	14773
870.71	14845
870.84	14853
870.97	14663
871.1	14693
871.23	14845
871.36	14921
871.489	14788
871.619	14861
871.749	14971
871.879	14963
872.008	15039
872.138	14975
872.267	14880
872.397	14838
872.526	14731
872.656	14693
872.785	14826
872.915	14963
873.044	15058
873.173	14990
873.303	15009
873.432	15020
873.561	15081
873.69	15047
873.819	14944
873.948	15020
874.077	14925
874.206	14929
874.335	15081
874.464	15039
874.593	15287
874.722	15131
874.851	15416
874.979	15428
875.108	15389
875.237	15214
875.365	15203
875.494	15287
875.623	15351
875.751	15218
875.88	15313
876.008	15428
876.136	15534
876.265	15648
876.393	15869
876.521	15895
876.65	15842
876.778	15854
876.906	15606
877.034	15720
877.162	15713
877.29	15698
877.418	15728
877.546	15671
877.674	15713
877.802	15770
877.93	15690
878.058	15637
878.185	15625
878.313	15732
878.441	15743
878.568	15485
878.696	15595
878.824	15736
878.951	15823
879.079	15960
879.206	15934
879.333	15861
879.461	15717
879.588	15789
879.715	15895
879.842	16051
879.97	15778
880.097	15549
880.224	15500
880.351	15549
880.478	15587
880.605	15519
880.732	15500
880.859	15709
880.986	15698
881.112	15473
881.239	15439
881.366	15359
881.493	15283
881.619	15256
881.746	15275
881.872	15188
881.999	15218
882.125	15287
882.252	15389
882.378	15310
882.505	15359
882.631	15055
882.757	15043
882.883	15036
883.01	15066
883.136	14979
883.262	14876
883.388	14887
883.514	15066
883.64	15085
883.766	14998
883.892	14845
884.018	14906
884.143	15017
884.269	15203
884.395	14705
884.52	14716
884.646	14773
884.772	14667
884.897	14625
885.023	14868
885.148	14819
885.274	14849
885.399	14834
885.524	14804
885.65	14785
885.775	14834
885.9	14674
886.025	14918
886.15	14857
886.275	14674
886.4	14602
886.525	14678
886.65	14617
886.775	14617
886.9	14864
887.025	15058
887.149	14834
887.274	14598
887.399	14492
887.523	14530
887.648	14446
887.773	14461
887.897	14636
888.021	14727
888.146	14438
888.27	14754
888.395	14670
888.519	14629
888.643	14602
888.767	14674
888.891	14541
889.015	14415
889.139	14454
889.263	14377
889.387	14495
889.511	14552
889.635	14590
889.759	14358
889.883	14343
890.006	14431
890.13	14556
890.254	14385
890.377	14423
890.501	14252
890.624	14256
890.748	14290
890.871	14187
890.995	14084
891.118	14111
891.241	14088
891.364	14183
891.488	14233
891.611	14183
891.734	14218
891.857	14218
891.98	14077
892.103	14202
892.226	14206
892.349	14199
892.471	13963
892.594	14050
892.717	14119
892.839	14092
892.962	14123
893.085	14199
893.207	14065
893.33	14058
893.452	13993
893.575	14225
893.697	14073
893.819	14343
893.941	14389
894.064	14271
894.186	14001
894.308	14107
894.43	14351
894.552	14465
894.674	14332
894.796	14130
894.918	14202
895.04	14229
895.161	14263
895.283	14240
895.405	14123
895.526	14221
895.648	14320
895.769	14248
895.891	14240
896.012	14298
896.134	14351
896.255	14267
896.376	14263
896.498	14347
896.619	14305
896.74	14332
896.861	14305
896.982	14689
897.103	14743
897.224	14613
897.345	14545
897.466	14438
897.587	14606
897.708	14556
897.828	14617
897.949	14484
898.07	14404
898.19	14465
898.311	14674
898.431	14629
898.552	14765
898.672	14762
898.792	14807
898.913	14689
899.033	14549
899.153	14469
899.273	14385
899.393	14476
899.513	14537
899.633	14473
899.753	14514
899.873	14503
899.993	14556
900.113	14450
900.232	14556
900.352	14522
900.472	14469
900.591	14389
900.711	14362
900.83	14434
900.95	14473
901.069	14446
901.189	14313
901.308	14035
901.427	13982
901.546	14035
901.665	14069
901.784	14062
901.904	13894
902.023	13803
902.141	13548
902.26	13662
902.379	13655
902.498	13601
902.617	13590
902.735	13594
902.854	13666
902.973	13567
903.091	13388
903.21	13324
903.328	13297
903.446	13263
903.565	13285
903.683	13171
903.801	13099
903.919	13129
904.038	13099
904.156	12943
904.274	13141
904.392	12878
904.51	12954
904.627	12996
904.745	13072
904.863	13107
904.981	12795
905.098	12749
905.216	12646
905.334	12722
905.451	12764
905.569	12608
905.686	12768
905.803	12738
905.921	12506
906.038	12574
906.155	12540
906.272	12422
906.389	12410
906.506	12327
906.623	12304
906.74	12254
906.857	12148
906.974	12224
907.091	12251
907.208	12441
907.324	12342
907.441	12235
907.557	12026
907.674	11950
907.79	11992
907.907	11961
908.023	11977
908.139	12045
908.256	12003
908.372	11954
908.488	11885
908.604	11855
908.72	11707
908.836	11798
908.952	11802
909.068	11729
909.184	11855
909.3	11695
909.415	11870
909.531	11775
909.647	11543
909.762	11509
909.878	11493
909.993	11516
910.108	11490
910.224	11512
910.339	11577
910.454	11406
910.57	11429
910.685	11436
910.8	11619
910.915	11558
911.03	11436
911.145	11242
911.259	11265
911.374	11250
911.489	11132
911.604	11151
911.718	11056
911.833	11003
911.947	10881
912.062	10854
912.176	11006
912.291	11121
912.405	10980
912.519	11261
912.633	11201
912.748	11151
912.862	11041
912.976	10850
913.09	10729
913.204	10843
913.318	10930
913.431	10965
913.545	10999
913.659	10987
913.772	10953
913.886	10866
914	10687
914.113	10881
914.226	10904
914.34	10923
914.453	10767
914.566	10896
914.68	10740
914.793	10740
914.906	10550
915.019	10443
915.132	10443
915.245	10500
915.358	10584
915.47	10489
915.583	10580
915.696	10584
915.809	10672
915.921	10733
916.034	10481
916.146	10504
916.259	10440
916.371	10592
916.483	10535
916.595	10489
916.708	10413
916.82	10455
916.932	10451
917.044	10402
917.156	10375
917.268	10306
917.38	10382
917.491	10348
917.603	10424
917.715	10424
917.826	10535
917.938	10341
918.049	10219
918.161	10360
918.272	10535
918.384	10489
918.495	10367
918.606	10291
918.717	10246
918.828	10177
918.939	10344
919.05	10116
919.161	10169
919.272	10071
919.383	9991
919.494	10337
919.604	10417
919.715	10196
919.826	10147
919.936	10268
920.047	10314
920.157	10196
920.267	10478
920.378	10310
920.488	10207
920.598	10375
920.708	10580
920.818	10417
920.928	10470
921.038	10584
921.148	10569
921.258	10310
921.368	10227
921.477	10090
921.587	10055
921.697	9979
921.806	10109
921.916	9979
922.025	9831
922.134	9770
922.244	9732
922.353	9915
922.462	9679
922.571	9599
922.68	9507
922.789	9454
922.898	9564
923.007	9481
923.116	9485
923.224	9492
923.333	9500
923.442	9374
923.55	9401
923.659	9374
923.767	9450
923.876	9363
923.984	9439
924.092	9283
924.201	9367
924.309	9374
924.417	9389
924.525	9264
924.633	9325
924.741	10268
924.849	9112
924.956	9272
925.064	9161
925.172	9108
925.279	9127
925.387	9188
925.494	9157
925.602	9230
925.709	9195
925.816	9108
925.924	9123
926.031	9237
926.138	9116
926.245	9233
926.352	9020
926.459	9195
926.566	9245
926.673	9032
926.779	9013
926.886	8998
926.993	8842
927.099	8883
927.206	8811
927.312	8769
927.419	8891
927.525	8902
927.631	8971
927.737	8785
927.843	8735
927.95	8625
928.056	8743
928.162	8750
928.267	8823
928.373	9450
928.479	8804
928.585	8575
928.69	8750
928.796	8754
928.901	8667
929.007	8610
929.112	8648
929.218	8625
929.323	8621
929.428	8511
929.533	8636
929.638	8476
929.743	8571
929.848	8545
929.953	8579
930.058	8484
930.163	8301
930.267	8355
930.372	8423
930.477	8294
930.581	8530
930.685	8438
930.79	8286
930.894	8301
930.998	8282
931.103	8423
931.207	8088
931.311	8035
931.415	7894
931.519	7784
931.623	7776
