Data from test_V78500241_3489.txt Node
Date: Fri Mar 25 14:58:00 CST 2022
User: usil
Spectrometer: V785-0024
Trigger mode: 0
Integration Time (sec): 4.000000E-1
Scans to average: 1
Nonlinearity correction enabled: false
Boxcar width: 0
Storing dark spectrum: false
XAxis mode: Wavelengths
Number of Pixels in Spectrum: 1024
>>>>>Begin Spectral Data<<<<<
801.071	21907
801.214	21895
801.356	21545
801.499	21485
801.641	21515
801.783	21230
801.926	21344
802.068	21230
802.211	21260
802.353	21123
802.496	20929
802.638	20845
802.78	20712
802.923	20678
803.065	20537
803.208	20522
803.35	20594
803.492	20568
803.635	20716
803.777	20564
803.919	20750
804.061	20990
804.204	20697
804.346	20530
804.488	20526
804.63	20549
804.773	20358
804.915	20556
805.057	20667
805.199	20484
805.341	20606
805.483	20568
805.626	20644
805.768	20434
805.91	20514
806.052	20454
806.194	20476
806.336	20640
806.478	20495
806.62	20495
806.762	20476
806.904	20667
807.046	20967
807.188	20929
807.33	20796
807.472	20887
807.614	20826
807.756	20750
807.898	20720
808.04	20602
808.182	20629
808.324	20564
808.465	20609
808.607	20785
808.749	20823
808.891	20937
809.033	21013
809.174	20834
809.316	20921
809.458	20788
809.6	20785
809.741	20979
809.883	20921
810.025	21077
810.166	21058
810.308	21013
810.45	21013
810.591	20906
810.733	20743
810.875	20583
811.016	20590
811.158	20602
811.299	20693
811.441	20792
811.582	20857
811.724	20579
811.865	20651
812.007	20613
812.148	20594
812.29	20556
812.431	20815
812.573	20887
812.714	21032
812.855	21135
812.997	21230
813.138	21272
813.279	21275
813.421	21207
813.562	20956
813.703	20815
813.845	20735
813.986	20537
814.127	20381
814.268	20347
814.41	20134
814.551	20206
814.692	20107
814.833	20180
814.974	20092
815.115	20161
815.256	20058
815.397	19997
815.539	20001
815.68	19944
815.821	19906
815.962	19845
816.103	19890
816.244	19791
816.385	19662
816.526	19761
816.666	19521
816.807	19422
816.948	19453
817.089	19388
817.23	19312
817.371	19274
817.512	19365
817.653	19244
817.793	19145
817.934	19346
818.075	19209
818.216	19343
818.356	19228
818.497	19080
818.638	18871
818.778	19057
818.919	19080
819.06	19072
819.2	19126
819.341	19168
819.481	19171
819.622	19419
819.762	19597
819.903	19464
820.043	19274
820.184	19263
820.324	19343
820.465	19419
820.605	19320
820.746	19274
820.886	19194
821.026	19316
821.167	19289
821.307	19354
821.447	19259
821.588	19103
821.728	18909
821.868	18806
822.008	18722
822.149	18745
822.289	18604
822.429	18441
822.569	18426
822.709	18376
822.849	18209
822.99	18285
823.13	18117
823.27	18216
823.41	17992
823.55	17916
823.69	17939
823.83	18072
823.97	17973
824.11	17828
824.25	17745
824.389	17779
824.529	17855
824.669	17707
824.809	17882
824.949	17813
825.089	17802
825.228	17840
825.368	17554
825.508	17623
825.648	17554
825.787	17684
825.927	17634
826.067	17535
826.206	17512
826.346	17463
826.485	17581
826.625	17589
826.765	17604
826.904	17516
827.044	17311
827.183	17315
827.323	17311
827.462	17318
827.601	17185
827.741	17181
827.88	17288
828.02	17193
828.159	17296
828.298	17189
828.437	17360
828.577	17254
828.716	17425
828.855	17223
828.994	16892
829.134	17033
829.273	17048
829.412	16972
829.551	16896
829.69	16953
829.829	16995
829.968	17029
830.107	17109
830.246	17048
830.385	16938
830.524	16858
830.663	16816
830.802	16755
830.941	16626
831.08	16626
831.219	16717
831.357	16660
831.496	16850
831.635	16653
831.774	16500
831.913	16550
832.051	16382
832.19	16360
832.329	16409
832.467	16306
832.606	16318
832.744	16337
832.883	16333
833.022	16375
833.16	16306
833.299	16424
833.437	16257
833.576	16253
833.714	16394
833.852	16421
833.991	16421
834.129	16500
834.267	16489
834.406	16360
834.544	16295
834.682	16459
834.821	16337
834.959	16504
835.097	16386
835.235	16535
835.373	16348
835.511	16489
835.65	16303
835.788	16344
835.926	16257
836.064	16143
836.202	16048
836.34	16402
836.478	16443
836.615	16276
836.753	16360
836.891	16234
837.029	16375
837.167	16299
837.305	16204
837.443	16173
837.58	16162
837.718	16268
837.856	16265
837.993	16105
838.131	16139
838.269	16177
838.406	16192
838.544	16105
838.681	15888
838.819	15865
838.956	15800
839.094	15739
839.231	15747
839.369	15903
839.506	16105
839.643	15972
839.781	15800
839.918	15656
840.055	15808
840.193	15774
840.33	15701
840.467	15720
840.604	15751
840.742	16071
840.879	15587
841.016	15690
841.153	15625
841.29	15800
841.427	15755
841.564	15808
841.701	15789
841.838	15823
841.975	15663
842.112	15599
842.249	15603
842.385	15576
842.522	15819
842.659	15576
842.796	15542
842.933	15500
843.069	15500
843.206	15473
843.343	15576
843.479	15614
843.616	15572
843.752	15336
843.889	15332
844.025	15545
844.162	15344
844.298	15428
844.435	15310
844.571	15344
844.708	15378
844.844	15443
844.98	15462
845.117	15504
845.253	15264
845.389	15150
845.525	15249
845.661	15188
845.798	15028
845.934	15176
846.07	15043
846.206	15211
846.342	15294
846.478	15020
846.614	14963
846.75	14849
846.886	14777
847.022	14982
847.158	14880
847.294	14845
847.429	15009
847.565	14849
847.701	15116
847.837	14697
847.972	14636
848.108	14659
848.244	14613
848.379	14549
848.515	14484
848.65	14374
848.786	14423
848.921	14427
849.057	14556
849.192	14556
849.328	14533
849.463	14457
849.598	14415
849.734	14404
849.869	14347
850.004	14305
850.14	14343
850.275	14278
850.41	14221
850.545	14202
850.68	14252
850.815	14324
850.95	14275
851.085	14389
851.22	14332
851.355	14252
851.49	14218
851.625	14275
851.76	14256
851.895	14149
852.03	14092
852.165	14218
852.299	14332
852.434	14415
852.569	14237
852.703	14347
852.838	14339
852.973	14408
853.107	14339
853.242	14199
853.376	14077
853.511	14115
853.645	14134
853.78	14259
853.914	14115
854.048	14100
854.183	14012
854.317	14202
854.451	14313
854.585	14046
854.72	14069
854.854	14199
854.988	14035
855.122	14039
855.256	13989
855.39	14214
855.524	14199
855.658	14123
855.792	14100
855.926	14233
856.06	14149
856.194	14214
856.327	14164
856.461	14119
856.595	14168
856.729	14111
856.862	14263
856.996	14119
857.13	14210
857.263	14282
857.397	14278
857.53	14157
857.664	14191
857.797	14176
857.931	14237
858.064	14218
858.197	14290
858.331	14134
858.464	14145
858.597	14008
858.731	14073
858.864	14119
858.997	14058
859.13	14183
859.263	14145
859.396	14164
859.529	14050
859.662	14100
859.795	14103
859.928	14183
860.061	14206
860.194	14305
860.327	14199
860.46	14107
860.592	14244
860.725	14252
860.858	14343
860.99	14157
861.123	14134
861.256	14111
861.388	14164
861.521	14910
861.653	14065
861.786	13909
861.918	14054
862.05	14111
862.183	14145
862.315	14088
862.447	14157
862.58	14103
862.712	13936
862.844	13978
862.976	13902
863.108	13944
863.24	14438
863.372	13772
863.504	13932
863.636	13898
863.768	13989
863.9	13982
864.032	13795
864.164	13936
864.296	13871
864.428	14050
864.559	14020
864.691	14031
864.823	14027
864.954	13906
865.086	13997
865.217	13890
865.349	13894
865.48	13864
865.612	13894
865.743	14084
865.875	13894
866.006	13852
866.137	13845
866.269	13928
866.4	13837
866.531	13776
866.662	13799
866.793	13807
866.924	13841
867.055	13879
867.186	13986
867.317	13822
867.448	13811
867.579	13818
867.71	13795
867.841	13791
867.972	13776
868.103	13852
868.233	13856
868.364	13871
868.495	13932
868.625	14142
868.756	14229
868.886	14069
869.017	14111
869.147	14324
869.278	14294
869.408	14199
869.539	14130
869.669	14199
869.799	14278
869.929	14271
870.06	14237
870.19	14457
870.32	14473
870.45	14575
870.58	14530
870.71	14720
870.84	14617
870.97	14594
871.1	14552
871.23	14697
871.36	14743
871.489	14735
871.619	14655
871.749	14823
871.879	14781
872.008	14895
872.138	14689
872.267	14640
872.397	14678
872.526	14648
872.656	14629
872.785	14579
872.915	14811
873.044	14887
873.173	14842
873.303	14769
873.432	14842
873.561	14906
873.69	14781
873.819	14819
873.948	14864
874.077	14667
874.206	14701
874.335	14796
874.464	14925
874.593	15066
874.722	14967
874.851	15161
874.979	15165
875.108	15119
875.237	15062
875.365	15043
875.494	15043
875.623	15176
875.751	15173
875.88	15211
876.008	15378
876.136	15370
876.265	15595
876.393	15724
876.521	15587
876.65	15610
876.778	15481
876.906	15420
877.034	15462
877.162	15549
877.29	15485
877.418	15561
877.546	15477
877.674	15492
877.802	15473
877.93	15534
878.058	15481
878.185	15435
878.313	15458
878.441	15591
878.568	15363
878.696	15485
878.824	15557
878.951	15564
879.079	15789
879.206	15854
879.333	15705
879.461	15618
879.588	15667
879.715	15660
879.842	15819
879.97	15675
880.097	15351
880.224	15450
880.351	15363
880.478	15458
880.605	15340
880.732	15348
880.859	15584
880.986	15469
881.112	15382
881.239	15241
881.366	15161
881.493	15051
881.619	15135
881.746	15032
881.872	15070
881.999	15127
882.125	14986
882.252	15127
882.378	15024
882.505	15192
882.631	15051
882.757	14925
882.883	14937
883.01	14914
883.136	14823
883.262	14746
883.388	14697
883.514	14956
883.64	14845
883.766	14804
883.892	14811
884.018	14743
884.143	14864
884.269	14849
884.395	14602
884.52	14571
884.646	14587
884.772	14511
884.897	14400
885.023	14568
885.148	14773
885.274	14765
885.399	14785
885.524	14590
885.65	14537
885.775	14610
885.9	14575
886.025	14583
886.15	14720
886.275	14473
886.4	14537
886.525	14602
886.65	14476
886.775	14469
886.9	14720
887.025	14754
887.149	14511
887.274	14442
887.399	14427
887.523	14408
887.648	14385
887.773	14248
887.897	14598
888.021	14480
888.146	14374
888.27	14526
888.395	14537
888.519	14587
888.643	14488
888.767	14492
888.891	14454
889.015	14317
889.139	14328
889.263	14396
889.387	14355
889.511	14499
889.635	14408
889.759	14290
889.883	14305
890.006	14355
890.13	14450
890.254	14225
890.377	14202
890.501	14119
890.624	14081
890.748	14157
890.871	14024
890.995	14035
891.118	13940
891.241	14005
891.364	14050
891.488	14180
891.611	14043
891.734	14119
891.857	14039
891.98	14081
892.103	14077
892.226	14008
892.349	13970
892.471	13852
892.594	14088
892.717	13982
892.839	14084
892.962	13989
893.085	14084
893.207	14005
893.33	13906
893.452	13883
893.575	14088
893.697	14008
893.819	14168
893.941	14218
894.064	14134
894.186	14016
894.308	13894
894.43	14187
894.552	14225
894.674	14157
894.796	14005
894.918	14069
895.04	13959
895.161	14180
895.283	14149
895.405	14134
895.526	14126
895.648	14077
895.769	14172
895.891	14199
896.012	14282
896.134	14252
896.255	14187
896.376	14149
896.498	14214
896.619	14161
896.74	14229
896.861	14248
896.982	14556
897.103	14701
897.224	14495
897.345	14457
897.466	14370
897.587	14438
897.708	14514
897.828	14415
897.949	14484
898.07	14362
898.19	14415
898.311	14575
898.431	14450
898.552	14518
898.672	14629
898.792	14667
898.913	14533
899.033	14476
899.153	14313
899.273	14298
899.393	14290
899.513	14484
899.633	14351
899.753	14362
899.873	14400
899.993	14434
900.113	14446
900.232	14355
900.352	14362
900.472	14286
900.591	14103
900.711	14275
900.83	14199
900.95	14294
901.069	14309
901.189	14088
901.308	14005
901.427	13925
901.546	13989
901.665	13974
901.784	13944
901.904	13883
902.023	13871
902.141	13556
902.26	13453
902.379	13559
902.498	13476
902.617	13392
902.735	13510
902.854	13453
902.973	13426
903.091	13206
903.21	13209
903.328	13206
903.446	13141
903.565	13042
903.683	13057
903.801	13031
903.919	13069
904.038	13038
904.156	12890
904.274	12970
904.392	12909
904.51	12913
904.627	12798
904.745	12840
904.863	13000
904.981	12692
905.098	12570
905.216	12585
905.334	12662
905.451	12601
905.569	12585
905.686	12623
905.803	12635
905.921	12376
906.038	12475
906.155	12410
906.272	12350
906.389	12395
906.506	12232
906.623	12254
906.74	12201
906.857	12026
906.974	12064
907.091	12201
907.208	12361
907.324	12216
907.441	12079
907.557	11908
907.674	11870
907.79	11885
907.907	11958
908.023	11931
908.139	11942
908.256	11923
908.372	11843
908.488	11832
908.604	11779
908.72	11703
908.836	11748
908.952	11630
909.068	11726
909.184	11836
909.3	11638
909.415	11714
909.531	11726
909.647	11532
909.762	11436
909.878	11455
909.993	11505
910.108	11501
910.224	11334
910.339	11417
910.454	11349
910.57	11292
910.685	11284
910.8	11657
910.915	11433
911.03	11356
911.145	11162
911.259	11071
911.374	11151
911.489	11117
911.604	11018
911.718	10908
911.833	10972
911.947	10786
912.062	10790
912.176	10824
912.291	10889
912.405	10949
912.519	11162
912.633	11003
912.748	10976
912.862	10938
912.976	10831
913.09	10687
913.204	10736
913.318	10831
913.431	10904
913.545	10930
913.659	10904
913.772	10812
913.886	10691
914	10683
914.113	10744
914.226	10771
914.34	10778
914.453	10584
914.566	10809
914.68	10656
914.793	10675
914.906	10417
915.019	10455
915.132	10413
915.245	10417
915.358	10443
915.47	10489
915.583	10421
915.696	10417
915.809	10584
915.921	10519
916.034	10417
916.146	10421
916.259	10417
916.371	10455
916.483	10413
916.595	10348
916.708	10405
916.82	10348
916.932	10253
917.044	10325
917.156	10295
917.268	10230
917.38	10246
917.491	10204
917.603	10341
917.715	10390
917.826	10360
917.938	10268
918.049	10139
918.161	10261
918.272	10402
918.384	10424
918.495	10291
918.606	10147
918.717	10048
918.828	10181
918.939	10238
919.05	10074
919.161	10067
919.272	9903
919.383	9945
919.494	10204
919.604	10390
919.715	10166
919.826	10074
919.936	10086
920.047	10249
920.157	10158
920.267	10421
920.378	10185
920.488	10177
920.598	10356
920.708	10478
920.818	10360
920.928	10314
921.038	10577
921.148	10493
921.258	10192
921.368	10086
921.477	10044
921.587	10044
921.697	9888
921.806	10025
921.916	9915
922.025	9793
922.134	9751
922.244	9671
922.353	9800
922.462	9641
922.571	9599
922.68	9542
922.789	9485
922.898	9420
923.007	9416
923.116	9458
923.224	9439
923.333	9416
923.442	9230
923.55	9325
923.659	9367
923.767	9279
923.876	9253
923.984	9424
924.092	9108
924.201	9306
924.309	9260
924.417	9275
924.525	9237
924.633	9165
924.741	10082
924.849	9077
924.956	9222
925.064	9131
925.172	9009
925.279	9017
925.387	9100
925.494	9028
925.602	9195
925.709	9176
925.816	9017
925.924	9085
926.031	9150
926.138	9108
926.245	9112
926.352	8975
926.459	9146
926.566	9230
926.673	8994
926.779	8986
926.886	8941
926.993	8811
927.099	8727
927.206	8807
927.312	8712
927.419	8819
927.525	8811
927.631	8902
927.737	8735
927.843	8716
927.95	8594
928.056	8727
928.162	8686
928.267	8735
928.373	9351
928.479	8796
928.585	8564
928.69	8686
928.796	8716
928.901	8590
929.007	8450
929.112	8598
929.218	8598
929.323	8511
929.428	8476
929.533	8640
929.638	8442
929.743	8434
929.848	8465
929.953	8507
930.058	8476
930.163	8317
930.267	8313
930.372	8400
930.477	8214
930.581	8450
930.685	8362
930.79	8240
930.894	8202
930.998	8191
931.103	8366
931.207	7967
931.311	7940
931.415	7898
931.519	7700
931.623	7708
