Data from test_V78500241_1660.txt Node
Date: Fri Mar 25 14:45:16 CST 2022
User: usil
Spectrometer: V785-0024
Trigger mode: 0
Integration Time (sec): 4.000000E-1
Scans to average: 1
Nonlinearity correction enabled: false
Boxcar width: 0
Storing dark spectrum: false
XAxis mode: Wavelengths
Number of Pixels in Spectrum: 1024
>>>>>Begin Spectral Data<<<<<
801.071	22192
801.214	22192
801.356	21911
801.499	21713
801.641	21641
801.783	21614
801.926	21728
802.068	21682
802.211	21462
802.353	21367
802.496	21241
802.638	21028
802.78	21036
802.923	21020
803.065	20933
803.208	20971
803.35	20914
803.492	21119
803.635	21138
803.777	20971
803.919	21093
804.061	21386
804.204	21051
804.346	21009
804.488	20918
804.63	21043
804.773	20967
804.915	20861
805.057	20994
805.199	20990
805.341	21024
805.483	21154
805.626	20971
805.768	20845
805.91	20990
806.052	20956
806.194	20819
806.336	21074
806.478	21104
806.62	20872
806.762	20956
806.904	21146
807.046	21450
807.188	21291
807.33	21336
807.472	21302
807.614	21218
807.756	21176
807.898	21036
808.04	21032
808.182	20910
808.324	21116
808.465	21051
808.607	21207
808.749	21386
808.891	21447
809.033	21526
809.174	21477
809.316	21272
809.458	21359
809.6	21351
809.741	21439
809.883	21450
810.025	21663
810.166	21481
810.308	21397
810.45	21458
810.591	21313
810.733	21332
810.875	21089
811.016	21047
811.158	20963
811.299	21058
811.441	21218
811.582	21230
811.724	21203
811.865	21066
812.007	21028
812.148	21199
812.29	21047
812.431	21260
812.573	21401
812.714	21481
812.855	21663
812.997	21572
813.138	21720
813.279	21610
813.421	21595
813.562	21530
813.703	21161
813.845	21256
813.986	20921
814.127	20724
814.268	20667
814.41	20640
814.551	20754
814.692	20670
814.833	20503
814.974	20545
815.115	20632
815.256	20434
815.397	20511
815.539	20636
815.68	20336
815.821	20278
815.962	20320
816.103	20374
816.244	20244
816.385	20145
816.526	20161
816.666	19955
816.807	19685
816.948	19967
817.089	19947
817.23	19852
817.371	19715
817.512	19780
817.653	19704
817.793	19791
817.934	19772
818.075	19925
818.216	19731
818.356	19662
818.497	19597
818.638	19495
818.778	19396
818.919	19449
819.06	19514
819.2	19563
819.341	19613
819.481	19624
819.622	19837
819.762	19860
819.903	19917
820.043	19852
820.184	19693
820.324	19681
820.465	19807
820.605	19807
820.746	19624
820.886	19582
821.026	19761
821.167	19670
821.307	19742
821.447	19776
821.588	19605
821.728	19457
821.868	19365
822.008	19061
822.149	19164
822.289	19069
822.429	18947
822.569	18863
822.709	18886
822.849	18715
822.99	18646
823.13	18627
823.27	18544
823.41	18445
823.55	18376
823.69	18467
823.83	18407
823.97	18319
824.11	18243
824.25	18281
824.389	18285
824.529	18327
824.669	18194
824.809	18296
824.949	18277
825.089	18350
825.228	18148
825.368	18125
825.508	18144
825.648	18030
825.787	18098
825.927	18064
826.067	17965
826.206	17878
826.346	18049
826.485	17885
826.625	17904
826.765	18049
826.904	18068
827.044	17707
827.183	17760
827.323	17695
827.462	17726
827.601	17760
827.741	17676
827.88	17714
828.02	17570
828.159	17592
828.298	17756
828.437	17748
828.577	17649
828.716	17847
828.855	17687
828.994	17482
829.134	17433
829.273	17467
829.412	17353
829.551	17383
829.69	17444
829.829	17490
829.968	17482
830.107	17410
830.246	17436
830.385	17509
830.524	17421
830.663	17200
830.802	17197
830.941	17071
831.08	16965
831.219	17105
831.357	17029
831.496	17254
831.635	17029
831.774	16923
831.913	16927
832.051	16908
832.19	16797
832.329	16854
832.467	16664
832.606	16725
832.744	16721
832.883	16843
833.022	16786
833.16	16706
833.299	16778
833.437	16721
833.576	16801
833.714	16831
833.852	16828
833.991	16786
834.129	16873
834.267	16866
834.406	16812
834.544	16691
834.682	16733
834.821	16725
834.959	16892
835.097	16778
835.235	16835
835.373	16736
835.511	16790
835.65	16645
835.788	16694
835.926	16596
836.064	16512
836.202	16584
836.34	16744
836.478	16694
836.615	16664
836.753	16672
836.891	16839
837.029	16660
837.167	16668
837.305	16626
837.443	16489
837.58	16485
837.718	16580
837.856	16531
837.993	16440
838.131	16588
838.269	16436
838.406	16485
838.544	16402
838.681	16204
838.819	16166
838.956	16051
839.094	16120
839.231	16112
839.369	16223
839.506	16356
839.643	16348
839.781	16169
839.918	16086
840.055	16093
840.193	16006
840.33	16082
840.467	16101
840.604	16128
840.742	16287
840.879	16002
841.016	15949
841.153	15983
841.29	16215
841.427	16188
841.564	16044
841.701	16169
841.838	15994
841.975	16013
842.112	15979
842.249	15934
842.385	15835
842.522	16055
842.659	15861
842.796	15831
842.933	15785
843.069	15865
843.206	15888
843.343	15987
843.479	15953
843.616	15895
843.752	15610
843.889	15671
844.025	15762
844.162	15519
844.298	15812
844.435	15633
844.571	15637
844.708	15644
844.844	15808
844.98	15724
845.117	15873
845.253	15644
845.389	15519
845.525	15587
845.661	15652
845.798	15485
845.934	15393
846.07	15485
846.206	15466
846.342	15545
846.478	15477
846.614	15294
846.75	15089
846.886	15169
847.022	15344
847.158	15321
847.294	15195
847.429	15097
847.565	15180
847.701	15454
847.837	14971
847.972	14842
848.108	14979
848.244	15085
848.379	14864
848.515	14819
848.65	14777
848.786	14800
848.921	14868
849.057	14967
849.192	14921
849.328	14880
849.463	14853
849.598	14773
849.734	14792
849.869	14697
850.004	14648
850.14	14667
850.275	14610
850.41	14537
850.545	14533
850.68	14629
850.815	14610
850.95	14579
851.085	14682
851.22	14651
851.355	14625
851.49	14598
851.625	14473
851.76	14549
851.895	14488
852.03	14396
852.165	14651
852.299	14560
852.434	14765
852.569	14625
852.703	14655
852.838	14781
852.973	14716
853.107	14731
853.242	14606
853.376	14499
853.511	14385
853.645	14393
853.78	14583
853.914	14488
854.048	14415
854.183	14537
854.317	14511
854.451	14708
854.585	14473
854.72	14408
854.854	14507
854.988	14358
855.122	14522
855.256	14389
855.39	14454
855.524	14484
855.658	14469
855.792	14606
855.926	14476
856.06	14518
856.194	14545
856.327	14450
856.461	14419
856.595	14396
856.729	14434
856.862	14594
856.996	14495
857.13	14469
857.263	14560
857.397	14518
857.53	14412
857.664	14503
857.797	14503
857.931	14610
858.064	14480
858.197	14636
858.331	14568
858.464	14465
858.597	14396
858.731	14450
858.864	14537
858.997	14347
859.13	14526
859.263	14480
859.396	14518
859.529	14450
859.662	14400
859.795	14465
859.928	14454
860.061	14659
860.194	14549
860.327	14556
860.46	14541
860.592	14602
860.725	14587
860.858	14552
860.99	14339
861.123	14366
861.256	14396
861.388	14438
861.521	14982
861.653	14332
861.786	14351
861.918	14381
862.05	14317
862.183	14431
862.315	14385
862.447	14377
862.58	14476
862.712	14164
862.844	14195
862.976	14305
863.108	14252
863.24	14689
863.372	14081
863.504	14259
863.636	14214
863.768	14256
863.9	14313
864.032	14145
864.164	14187
864.296	14351
864.428	14446
864.559	14263
864.691	14263
864.823	14278
864.954	14256
865.086	14256
865.217	14183
865.349	14088
865.48	14244
865.612	14221
865.743	14400
865.875	14267
866.006	14271
866.137	14263
866.269	14252
866.4	14161
866.531	14237
866.662	14153
866.793	14237
866.924	14123
867.055	14202
867.186	14252
867.317	14240
867.448	14153
867.579	14191
867.71	14134
867.841	14168
867.972	14157
868.103	14221
868.233	14267
868.364	14199
868.495	14248
868.625	14370
868.756	14549
868.886	14355
869.017	14434
869.147	14655
869.278	14484
869.408	14484
869.539	14438
869.669	14541
869.799	14518
869.929	14621
870.06	14598
870.19	14754
870.32	14788
870.45	14826
870.58	14853
870.71	14864
870.84	14906
870.97	14769
871.1	14876
871.23	15100
871.36	14929
871.489	14967
871.619	14998
871.749	15074
871.879	15039
872.008	15157
872.138	15066
872.267	15009
872.397	14933
872.526	14811
872.656	14823
872.785	14868
872.915	15047
873.044	15055
873.173	14925
873.303	15100
873.432	15176
873.561	15169
873.69	15062
873.819	15207
873.948	15161
874.077	15055
874.206	15077
874.335	15127
874.464	15298
874.593	15348
874.722	15317
874.851	15389
874.979	15496
875.108	15443
875.237	15283
875.365	15325
875.494	15302
875.623	15530
875.751	15359
875.88	15420
876.008	15496
876.136	15751
876.265	15926
876.393	15922
876.521	15838
876.65	15949
876.778	15968
876.906	15835
877.034	15842
877.162	15762
877.29	15865
877.418	15789
877.546	15778
877.674	15812
877.802	15903
877.93	15774
878.058	15728
878.185	15686
878.313	15827
878.441	15816
878.568	15717
878.696	15797
878.824	15899
878.951	15873
879.079	16013
879.206	16181
879.333	16071
879.461	15926
879.588	15922
879.715	16150
879.842	16093
879.97	15854
880.097	15724
880.224	15671
880.351	15709
880.478	15686
880.605	15679
880.732	15770
880.859	15949
880.986	15595
881.112	15701
881.239	15587
881.366	15477
881.493	15462
881.619	15359
881.746	15332
881.872	15359
881.999	15332
882.125	15298
882.252	15370
882.378	15302
882.505	15443
882.631	15272
882.757	15184
882.883	15359
883.01	15066
883.136	15070
883.262	15047
883.388	15058
883.514	15268
883.64	15241
883.766	15066
883.892	14963
884.018	15055
884.143	15062
884.269	15321
884.395	14910
884.52	14826
884.646	14925
884.772	14902
884.897	14804
885.023	14910
885.148	14967
885.274	15051
885.399	14914
885.524	14823
885.65	14815
885.775	14967
885.9	14849
886.025	14891
886.15	14921
886.275	14883
886.4	14686
886.525	14762
886.65	14682
886.775	14701
886.9	14868
887.025	15047
887.149	14811
887.274	14678
887.399	14724
887.523	14716
887.648	14568
887.773	14606
887.897	14754
888.021	14716
888.146	14743
888.27	14773
888.395	14838
888.519	14655
888.643	14708
888.767	14716
888.891	14560
889.015	14511
889.139	14511
889.263	14488
889.387	14708
889.511	14693
889.635	14621
889.759	14503
889.883	14454
890.006	14606
890.13	14644
890.254	14469
890.377	14415
890.501	14404
890.624	14408
890.748	14370
890.871	14267
890.995	14206
891.118	14065
891.241	14199
891.364	14225
891.488	14412
891.611	14195
891.734	14278
891.857	14229
891.98	14248
892.103	14263
892.226	14252
892.349	14172
892.471	14031
892.594	14290
892.717	14282
892.839	14202
892.962	14263
893.085	14309
893.207	14263
893.33	14103
893.452	14161
893.575	14336
893.697	14301
893.819	14347
893.941	14461
894.064	14351
894.186	14176
894.308	14202
894.43	14332
894.552	14431
894.674	14377
894.796	14149
894.918	14248
895.04	14214
895.161	14385
895.283	14351
895.405	14252
895.526	14351
895.648	14294
895.769	14362
895.891	14484
896.012	14396
896.134	14423
896.255	14454
896.376	14332
896.498	14442
896.619	14465
896.74	14415
896.861	14476
896.982	14655
897.103	14823
897.224	14686
897.345	14511
897.466	14556
897.587	14625
897.708	14735
897.828	14804
897.949	14651
898.07	14541
898.19	14670
898.311	14815
898.431	14727
898.552	14762
898.672	14868
898.792	14800
898.913	14758
899.033	14762
899.153	14552
899.273	14541
899.393	14530
899.513	14621
899.633	14644
899.753	14613
899.873	14583
899.993	14598
900.113	14621
900.232	14686
900.352	14507
900.472	14541
900.591	14423
900.711	14541
900.83	14480
900.95	14579
901.069	14590
901.189	14324
901.308	14206
901.427	14096
901.546	14271
901.665	14153
901.784	14168
901.904	14069
902.023	13932
902.141	13799
902.26	13693
902.379	13811
902.498	13616
902.617	13700
902.735	13693
902.854	13712
902.973	13685
903.091	13480
903.21	13358
903.328	13384
903.446	13400
903.565	13308
903.683	13377
903.801	13190
903.919	13209
904.038	13156
904.156	13076
904.274	13225
904.392	13019
904.51	13038
904.627	12996
904.745	13099
904.863	13168
904.981	12973
905.098	12814
905.216	12798
905.334	12840
905.451	12840
905.569	12700
905.686	12795
905.803	12768
905.921	12574
906.038	12696
906.155	12604
906.272	12445
906.389	12490
906.506	12365
906.623	12391
906.74	12388
906.857	12232
906.974	12266
907.091	12471
907.208	12475
907.324	12460
907.441	12296
907.557	12167
907.674	12102
907.79	12064
907.907	12152
908.023	12129
908.139	12098
908.256	12045
908.372	12148
908.488	11996
908.604	11920
908.72	11824
908.836	11904
908.952	11855
909.068	11855
909.184	12106
909.3	11885
909.415	11889
909.531	11912
909.647	11703
909.762	11668
909.878	11611
909.993	11665
910.108	11668
910.224	11642
910.339	11657
910.454	11520
910.57	11554
910.685	11467
910.8	11745
910.915	11653
911.03	11459
911.145	11299
911.259	11337
911.374	11372
911.489	11284
911.604	11227
911.718	11220
911.833	11105
911.947	11075
912.062	10980
912.176	11090
912.291	11067
912.405	11052
912.519	11296
912.633	11307
912.748	11140
912.862	11151
912.976	10904
913.09	10915
913.204	10923
913.318	11010
913.431	11071
913.545	11117
913.659	11075
913.772	10995
913.886	10847
914	10793
914.113	10930
914.226	11025
914.34	10911
914.453	10820
914.566	10980
914.68	10790
914.793	10881
914.906	10580
915.019	10554
915.132	10599
915.245	10626
915.358	10603
915.47	10569
915.583	10599
915.696	10702
915.809	10664
915.921	10759
916.034	10607
916.146	10493
916.259	10508
916.371	10607
916.483	10527
916.595	10478
916.708	10596
916.82	10516
916.932	10504
917.044	10596
917.156	10519
917.268	10337
917.38	10356
917.491	10390
917.603	10352
917.715	10531
917.826	10421
917.938	10440
918.049	10310
918.161	10474
918.272	10527
918.384	10493
918.495	10440
918.606	10303
918.717	10280
918.828	10424
918.939	10268
919.05	10192
919.161	10249
919.272	10067
919.383	10078
919.494	10322
919.604	10546
919.715	10341
919.826	10280
919.936	10318
920.047	10409
920.157	10325
920.267	10485
920.378	10341
920.488	10371
920.598	10535
920.708	10603
920.818	10485
920.928	10447
921.038	10687
921.148	10748
921.258	10424
921.368	10265
921.477	10272
921.587	10192
921.697	10025
921.806	10177
921.916	9991
922.025	9861
922.134	9934
922.244	9831
922.353	9876
922.462	9789
922.571	9698
922.68	9526
922.789	9526
922.898	9557
923.007	9545
923.116	9568
923.224	9542
923.333	9576
923.442	9519
923.55	9454
923.659	9500
923.767	9591
923.876	9492
923.984	9629
924.092	9344
924.201	9405
924.309	9340
924.417	9428
924.525	9393
924.633	9420
924.741	10112
924.849	9203
924.956	9359
925.064	9176
925.172	9123
925.279	9135
925.387	9157
925.494	9222
925.602	9340
925.709	9386
925.816	9104
925.924	9245
926.031	9325
926.138	9195
926.245	9260
926.352	9108
926.459	9279
926.566	9298
926.673	9135
926.779	9089
926.886	9043
926.993	8925
927.099	8925
927.206	8899
927.312	8868
927.419	8925
927.525	8944
927.631	8971
927.737	8849
927.843	8872
927.95	8724
928.056	8796
928.162	8849
928.267	8941
928.373	9397
928.479	8952
928.585	8678
928.69	8792
928.796	8830
928.901	8785
929.007	8610
929.112	8739
929.218	8697
929.323	8625
929.428	8632
929.533	8796
929.638	8530
929.743	8583
929.848	8648
929.953	8571
930.058	8514
930.163	8431
930.267	8404
930.372	8606
930.477	8324
930.581	8587
930.685	8495
930.79	8305
930.894	8404
930.998	8339
931.103	8469
931.207	8138
931.311	8081
931.415	8016
931.519	7822
931.623	7868
