Data from test_V78500241_1764.txt Node
Date: Fri Mar 25 14:45:59 CST 2022
User: usil
Spectrometer: V785-0024
Trigger mode: 0
Integration Time (sec): 4.000000E-1
Scans to average: 1
Nonlinearity correction enabled: false
Boxcar width: 0
Storing dark spectrum: false
XAxis mode: Wavelengths
Number of Pixels in Spectrum: 1024
>>>>>Begin Spectral Data<<<<<
801.071	22284
801.214	22135
801.356	21907
801.499	21694
801.641	21561
801.783	21564
801.926	21545
802.068	21492
802.211	21534
802.353	21321
802.496	21119
802.638	21112
802.78	21013
802.923	20902
803.065	20838
803.208	20914
803.35	20906
803.492	21047
803.635	21062
803.777	20864
803.919	21024
804.061	21233
804.204	21043
804.346	20899
804.488	20830
804.63	21009
804.773	20804
804.915	20876
805.057	20979
805.199	20842
805.341	20880
805.483	20861
805.626	20998
805.768	20872
805.91	20975
806.052	20826
806.194	20785
806.336	20994
806.478	20842
806.62	20781
806.762	20910
806.904	21081
807.046	21161
807.188	21135
807.33	21112
807.472	21230
807.614	21241
807.756	21055
807.898	20998
808.04	20937
808.182	20819
808.324	20948
808.465	21013
808.607	21104
808.749	21188
808.891	21340
809.033	21317
809.174	21306
809.316	21180
809.458	21272
809.6	21275
809.741	21237
809.883	21275
810.025	21412
810.166	21447
810.308	21332
810.45	21310
810.591	21374
810.733	21112
810.875	20986
811.016	20948
811.158	20834
811.299	20994
811.441	21085
811.582	21131
811.724	20990
811.865	20914
812.007	21085
812.148	20941
812.29	20982
812.431	21138
812.573	21325
812.714	21405
812.855	21443
812.997	21534
813.138	21690
813.279	21568
813.421	21420
813.562	21424
813.703	21184
813.845	21138
813.986	20883
814.127	20678
814.268	20609
814.41	20469
814.551	20484
814.692	20590
814.833	20469
814.974	20450
815.115	20465
815.256	20385
815.397	20301
815.539	20389
815.68	20298
815.821	20176
815.962	20305
816.103	20248
816.244	20199
816.385	19970
816.526	19871
816.666	19913
816.807	19742
816.948	19643
817.089	19841
817.23	19666
817.371	19624
817.512	19594
817.653	19750
817.793	19738
817.934	19639
818.075	19719
818.216	19700
818.356	19704
818.497	19495
818.638	19320
818.778	19316
818.919	19312
819.06	19449
819.2	19476
819.341	19582
819.481	19552
819.622	19674
819.762	19917
819.903	19765
820.043	19818
820.184	19704
820.324	19647
820.465	19765
820.605	19784
820.746	19681
820.886	19620
821.026	19696
821.167	19632
821.307	19704
821.447	19533
821.588	19457
821.728	19396
821.868	19217
822.008	19103
822.149	19080
822.289	19015
822.429	18837
822.569	18673
822.709	18696
822.849	18684
822.99	18528
823.13	18410
823.27	18547
823.41	18395
823.55	18311
823.69	18330
823.83	18251
823.97	18315
824.11	18133
824.25	18205
824.389	18095
824.529	18239
824.669	18140
824.809	18247
824.949	18140
825.089	18194
825.228	18144
825.368	17973
825.508	17817
825.648	17878
825.787	17878
825.927	18015
826.067	17908
826.206	17901
826.346	17874
826.485	17920
826.625	17904
826.765	17950
826.904	17889
827.044	17657
827.183	17600
827.323	17581
827.462	17566
827.601	17604
827.741	17623
827.88	17703
828.02	17448
828.159	17619
828.298	17551
828.437	17707
828.577	17566
828.716	17699
828.855	17596
828.994	17383
829.134	17299
829.273	17364
829.412	17303
829.551	17178
829.69	17421
829.829	17326
829.968	17459
830.107	17448
830.246	17315
830.385	17288
830.524	17208
830.663	17239
830.802	17143
830.941	16949
831.08	17037
831.219	17006
831.357	17052
831.496	17162
831.635	17048
831.774	16877
831.913	16828
832.051	16733
832.19	16664
832.329	16854
832.467	16710
832.606	16607
832.744	16626
832.883	16592
833.022	16577
833.16	16675
833.299	16710
833.437	16717
833.576	16706
833.714	16660
833.852	16691
833.991	16771
834.129	16782
834.267	16558
834.406	16626
834.544	16717
834.682	16706
834.821	16744
834.959	16763
835.097	16634
835.235	16805
835.373	16706
835.511	16767
835.65	16592
835.788	16653
835.926	16500
836.064	16375
836.202	16474
836.34	16634
836.478	16672
836.615	16649
836.753	16561
836.891	16611
837.029	16550
837.167	16584
837.305	16542
837.443	16519
837.58	16554
837.718	16474
837.856	16485
837.993	16493
838.131	16447
838.269	16360
838.406	16409
838.544	16371
838.681	16215
838.819	16124
838.956	16029
839.094	16086
839.231	16029
839.369	16139
839.506	16344
839.643	16253
839.781	15979
839.918	15953
840.055	16147
840.193	16017
840.33	15987
840.467	16040
840.604	16158
840.742	16284
840.879	15907
841.016	15869
841.153	15953
841.29	16051
841.427	16010
841.564	15968
841.701	16093
841.838	16067
841.975	15846
842.112	15926
842.249	15804
842.385	15789
842.522	16017
842.659	15812
842.796	15717
842.933	15770
843.069	15686
843.206	15831
843.343	15861
843.479	15808
843.616	15823
843.752	15644
843.889	15580
844.025	15675
844.162	15591
844.298	15671
844.435	15534
844.571	15507
844.708	15682
844.844	15759
844.98	15793
845.117	15713
845.253	15519
845.389	15443
845.525	15534
845.661	15507
845.798	15363
845.934	15469
846.07	15370
846.206	15477
846.342	15610
846.478	15416
846.614	15218
846.75	15180
846.886	15123
847.022	15169
847.158	15119
847.294	15188
847.429	15214
847.565	15127
847.701	15329
847.837	14887
847.972	14876
848.108	15001
848.244	14975
848.379	14845
848.515	14689
848.65	14762
848.786	14762
848.921	14861
849.057	14861
849.192	14914
849.328	14811
849.463	14762
849.598	14758
849.734	14708
849.869	14727
850.004	14655
850.14	14670
850.275	14625
850.41	14484
850.545	14480
850.68	14423
850.815	14526
850.95	14530
851.085	14693
851.22	14667
851.355	14526
851.49	14400
851.625	14484
851.76	14583
851.895	14317
852.03	14385
852.165	14469
852.299	14610
852.434	14602
852.569	14560
852.703	14606
852.838	14568
852.973	14686
853.107	14659
853.242	14473
853.376	14347
853.511	14275
853.645	14473
853.78	14556
853.914	14358
854.048	14324
854.183	14282
854.317	14362
854.451	14522
854.585	14423
854.72	14324
854.854	14454
854.988	14355
855.122	14457
855.256	14271
855.39	14324
855.524	14454
855.658	14556
855.792	14385
855.926	14511
856.06	14457
856.194	14484
856.327	14370
856.461	14347
856.595	14339
856.729	14332
856.862	14514
856.996	14423
857.13	14488
857.263	14533
857.397	14545
857.53	14377
857.664	14495
857.797	14492
857.931	14530
858.064	14374
858.197	14476
858.331	14370
858.464	14355
858.597	14328
858.731	14355
858.864	14393
858.997	14355
859.13	14370
859.263	14377
859.396	14518
859.529	14336
859.662	14355
859.795	14328
859.928	14343
860.061	14549
860.194	14503
860.327	14473
860.46	14355
860.592	14556
860.725	14556
860.858	14476
860.99	14461
861.123	14381
861.256	14320
861.388	14476
861.521	15142
861.653	14317
861.786	14233
861.918	14332
862.05	14199
862.183	14290
862.315	14358
862.447	14389
862.58	14313
862.712	14134
862.844	14187
862.976	14267
863.108	14252
863.24	14537
863.372	14130
863.504	14164
863.636	14088
863.768	14237
863.9	14161
864.032	14123
864.164	14096
864.296	14172
864.428	14328
864.559	14324
864.691	14339
864.823	14229
864.954	14218
865.086	14119
865.217	14176
865.349	14001
865.48	14145
865.612	14126
865.743	14301
865.875	14240
866.006	14176
866.137	14172
866.269	14119
866.4	14134
866.531	14119
866.662	14119
866.793	14199
866.924	14100
867.055	14202
867.186	14145
867.317	14161
867.448	14084
867.579	14195
867.71	14058
867.841	14115
867.972	14119
868.103	14092
868.233	14237
868.364	14195
868.495	14256
868.625	14358
868.756	14305
868.886	14396
869.017	14400
869.147	14507
869.278	14473
869.408	14450
869.539	14404
869.669	14412
869.799	14476
869.929	14602
870.06	14556
870.19	14777
870.32	14697
870.45	14765
870.58	14788
870.71	14906
870.84	15047
870.97	14785
871.1	14754
871.23	15039
871.36	14967
871.489	14925
871.619	14918
871.749	14937
871.879	15032
872.008	15184
872.138	15036
872.267	14990
872.397	14868
872.526	14876
872.656	14868
872.785	14823
872.915	15066
873.044	15173
873.173	15097
873.303	15051
873.432	15165
873.561	15214
873.69	14986
873.819	15055
873.948	15192
874.077	15150
874.206	15051
874.335	15017
874.464	15241
874.593	15401
874.722	15313
874.851	15450
874.979	15428
875.108	15401
875.237	15291
875.365	15256
875.494	15393
875.623	15405
875.751	15439
875.88	15488
876.008	15534
876.136	15595
876.265	15747
876.393	15903
876.521	15785
876.65	15892
876.778	15823
876.906	15648
877.034	15713
877.162	15770
877.29	15736
877.418	15736
877.546	15770
877.674	15850
877.802	15842
877.93	15778
878.058	15728
878.185	15812
878.313	15720
878.441	15819
878.568	15667
878.696	15663
878.824	15876
878.951	15827
879.079	16021
879.206	16025
879.333	15899
879.461	15903
879.588	15903
879.715	16029
879.842	16116
879.97	15930
880.097	15625
880.224	15561
880.351	15724
880.478	15785
880.605	15637
880.732	15633
880.859	15873
880.986	15705
881.112	15656
881.239	15549
881.366	15435
881.493	15359
881.619	15363
881.746	15264
881.872	15127
881.999	15230
882.125	15260
882.252	15329
882.378	15340
882.505	15386
882.631	15313
882.757	15138
882.883	15199
883.01	15104
883.136	15127
883.262	15001
883.388	14906
883.514	15138
883.64	15157
883.766	15066
883.892	14902
884.018	14880
884.143	15146
884.269	15173
884.395	14868
884.52	14800
884.646	14746
884.772	14640
884.897	14765
885.023	14785
885.148	14823
885.274	15009
885.399	15055
885.524	14845
885.65	14792
885.775	14864
885.9	14769
886.025	14918
886.15	14887
886.275	14705
886.4	14743
886.525	14777
886.65	14819
886.775	14708
886.9	14967
887.025	15024
887.149	14727
887.274	14682
887.399	14613
887.523	14522
887.648	14575
887.773	14583
887.897	14693
888.021	14632
888.146	14625
888.27	14697
888.395	14746
888.519	14674
888.643	14686
888.767	14746
888.891	14446
889.015	14446
889.139	14530
889.263	14495
889.387	14556
889.511	14686
889.635	14560
889.759	14358
889.883	14503
890.006	14549
890.13	14667
890.254	14396
890.377	14450
890.501	14324
890.624	14221
890.748	14419
890.871	14263
890.995	14077
891.118	14096
891.241	14187
891.364	14298
891.488	14351
891.611	14202
891.734	14233
891.857	14328
891.98	14301
892.103	14320
892.226	14336
892.349	14202
892.471	14103
892.594	14134
892.717	14164
892.839	14233
892.962	14172
893.085	14298
893.207	14199
893.33	14077
893.452	14027
893.575	14286
893.697	14157
893.819	14351
893.941	14389
894.064	14396
894.186	14210
894.308	14111
894.43	14282
894.552	14419
894.674	14324
894.796	14153
894.918	14240
895.04	14221
895.161	14423
895.283	14339
895.405	14126
895.526	14358
895.648	14313
895.769	14347
895.891	14370
896.012	14347
896.134	14305
896.255	14336
896.376	14400
896.498	14396
896.619	14427
896.74	14434
896.861	14419
896.982	14686
897.103	14830
897.224	14708
897.345	14598
897.466	14613
897.587	14556
897.708	14712
897.828	14632
897.949	14640
898.07	14457
898.19	14621
898.311	14823
898.431	14743
898.552	14731
898.672	14739
898.792	14842
898.913	14758
899.033	14610
899.153	14480
899.273	14473
899.393	14530
899.513	14549
899.633	14533
899.753	14571
899.873	14549
899.993	14590
900.113	14495
900.232	14579
900.352	14583
900.472	14431
900.591	14320
900.711	14461
900.83	14415
900.95	14469
901.069	14610
901.189	14366
901.308	14218
901.427	14073
901.546	14100
901.665	14119
901.784	14084
901.904	13982
902.023	13894
902.141	13670
902.26	13662
902.379	13734
902.498	13609
902.617	13480
902.735	13700
902.854	13753
902.973	13639
903.091	13407
903.21	13392
903.328	13384
903.446	13301
903.565	13304
903.683	13369
903.801	13171
903.919	13179
904.038	13202
904.156	13046
904.274	13107
904.392	13019
904.51	13015
904.627	13069
904.745	13126
904.863	13046
904.981	12844
905.098	12817
905.216	12798
905.334	12829
905.451	12791
905.569	12715
905.686	12783
905.803	12753
905.921	12589
906.038	12692
906.155	12566
906.272	12498
906.389	12540
906.506	12251
906.623	12262
906.74	12285
906.857	12167
906.974	12281
907.091	12376
907.208	12494
907.324	12338
907.441	12308
907.557	12091
907.674	12053
907.79	11969
907.907	11996
908.023	12117
908.139	12003
908.256	12076
908.372	11992
908.488	11942
908.604	11836
908.72	11920
908.836	11874
908.952	11847
909.068	11878
909.184	11870
909.3	11840
909.415	11817
909.531	11836
909.647	11745
909.762	11558
909.878	11585
909.993	11726
910.108	11695
910.224	11630
910.339	11577
910.454	11478
910.57	11524
910.685	11421
910.8	11703
910.915	11646
911.03	11509
911.145	11254
911.259	11246
911.374	11303
911.489	11280
911.604	11250
911.718	11071
911.833	11006
911.947	10930
912.062	10873
912.176	10991
912.291	11029
912.405	10999
912.519	11147
912.633	11296
912.748	11064
912.862	11109
912.976	10889
913.09	10831
913.204	10919
913.318	10980
913.431	11056
913.545	11018
913.659	11056
913.772	10877
913.886	10847
914	10801
914.113	10976
914.226	10927
914.34	10961
914.453	10782
914.566	10843
914.68	10786
914.793	10668
914.906	10542
915.019	10542
915.132	10462
915.245	10554
915.358	10596
915.47	10527
915.583	10596
915.696	10618
915.809	10698
915.921	10774
916.034	10565
916.146	10523
916.259	10447
916.371	10603
916.483	10554
916.595	10474
916.708	10474
916.82	10512
916.932	10440
917.044	10546
917.156	10459
917.268	10352
917.38	10398
917.491	10344
917.603	10341
917.715	10478
917.826	10413
917.938	10474
918.049	10253
918.161	10421
918.272	10508
918.384	10481
918.495	10352
918.606	10310
918.717	10230
918.828	10284
918.939	10295
919.05	10207
919.161	10238
919.272	10086
919.383	10105
919.494	10405
919.604	10569
919.715	10261
919.826	10169
919.936	10185
920.047	10360
920.157	10382
920.267	10535
920.378	10284
920.488	10276
920.598	10500
920.708	10634
920.818	10478
920.928	10500
921.038	10615
921.148	10577
921.258	10341
921.368	10253
921.477	10185
921.587	10040
921.697	10063
921.806	10211
921.916	9991
922.025	9873
922.134	9857
922.244	9838
922.353	9861
922.462	9686
922.571	9690
922.68	9564
922.789	9492
922.898	9572
923.007	9515
923.116	9591
923.224	9500
923.333	9488
923.442	9393
923.55	9397
923.659	9401
923.767	9568
923.876	9405
923.984	9488
924.092	9382
924.201	9408
924.309	9431
924.417	9397
924.525	9374
924.633	9363
924.741	10265
924.849	9131
924.956	9363
925.064	9165
925.172	9058
925.279	9150
925.387	9112
925.494	9176
925.602	9233
925.709	9272
925.816	9108
925.924	9154
926.031	9241
926.138	9207
926.245	9249
926.352	9020
926.459	9256
926.566	9344
926.673	9150
926.779	9047
926.886	8975
926.993	8948
927.099	8941
927.206	8823
927.312	8914
927.419	8937
927.525	8868
927.631	8944
927.737	8800
927.843	8743
927.95	8686
928.056	8750
928.162	8834
928.267	8910
928.373	9447
928.479	8902
928.585	8579
928.69	8766
928.796	8826
928.901	8712
929.007	8598
929.112	8693
929.218	8689
929.323	8598
929.428	8613
929.533	8712
929.638	8514
929.743	8526
929.848	8610
929.953	8590
930.058	8507
930.163	8385
930.267	8381
930.372	8587
930.477	8358
930.581	8537
930.685	8476
930.79	8332
930.894	8328
930.998	8309
931.103	8355
931.207	8123
931.311	8046
931.415	8027
931.519	7811
931.623	7776
