Data from test_V78500241_3173.txt Node
Date: Fri Mar 25 14:55:48 CST 2022
User: usil
Spectrometer: V785-0024
Trigger mode: 0
Integration Time (sec): 4.000000E-1
Scans to average: 1
Nonlinearity correction enabled: false
Boxcar width: 0
Storing dark spectrum: false
XAxis mode: Wavelengths
Number of Pixels in Spectrum: 1024
>>>>>Begin Spectral Data<<<<<
801.071	22036
801.214	21975
801.356	21705
801.499	21553
801.641	21443
801.783	21416
801.926	21405
802.068	21256
802.211	21241
802.353	21252
802.496	21077
802.638	20971
802.78	20853
802.923	20746
803.065	20724
803.208	20724
803.35	20796
803.492	20845
803.635	20876
803.777	20762
803.919	20743
804.061	21100
804.204	20849
804.346	20640
804.488	20568
804.63	20899
804.773	20526
804.915	20655
805.057	20674
805.199	20625
805.341	20777
805.483	20765
805.626	20731
805.768	20556
805.91	20720
806.052	20758
806.194	20552
806.336	20750
806.478	20640
806.62	20549
806.762	20644
806.904	20849
807.046	21047
807.188	21039
807.33	21024
807.472	20971
807.614	20899
807.756	20864
807.898	20769
808.04	20708
808.182	20617
808.324	20769
808.465	20697
808.607	20990
808.749	21096
808.891	21028
809.033	21116
809.174	21024
809.316	20937
809.458	21028
809.6	21047
809.741	21081
809.883	21047
810.025	21226
810.166	21256
810.308	21047
810.45	21146
810.591	21112
810.733	20826
810.875	20815
811.016	20739
811.158	20659
811.299	20727
811.441	20853
811.582	20941
811.724	20819
811.865	20708
812.007	20724
812.148	20762
812.29	20762
812.431	20880
812.573	21066
812.714	21188
812.855	21252
812.997	21458
813.138	21500
813.279	21351
813.421	21237
813.562	21249
813.703	20929
813.845	20925
813.986	20598
814.127	20434
814.268	20370
814.41	20343
814.551	20298
814.692	20488
814.833	20259
814.974	20282
815.115	20343
815.256	20122
815.397	20149
815.539	20271
815.68	20005
815.821	20024
815.962	20054
816.103	20031
816.244	19871
816.385	19841
816.526	19860
816.666	19658
816.807	19480
816.948	19605
817.089	19666
817.23	19518
817.371	19438
817.512	19365
817.653	19495
817.793	19327
817.934	19506
818.075	19464
818.216	19460
818.356	19293
818.497	19236
818.638	19110
818.778	19137
818.919	19179
819.06	19175
819.2	19266
819.341	19362
819.481	19407
819.622	19552
819.762	19597
819.903	19601
820.043	19514
820.184	19430
820.324	19540
820.465	19525
820.605	19434
820.746	19495
820.886	19244
821.026	19445
821.167	19331
821.307	19449
821.447	19384
821.588	19312
821.728	19103
821.868	19061
822.008	18829
822.149	18798
822.289	18844
822.429	18532
822.569	18585
822.709	18467
822.849	18304
822.99	18304
823.13	18350
823.27	18304
823.41	18201
823.55	18171
823.69	18235
823.83	18224
823.97	18095
824.11	17954
824.25	17958
824.389	17961
824.529	18057
824.669	17969
824.809	18019
824.949	18098
825.089	18011
825.228	17901
825.368	17737
825.508	17649
825.648	17676
825.787	17726
825.927	17714
826.067	17684
826.206	17668
826.346	17756
826.485	17665
826.625	17634
826.765	17828
826.904	17710
827.044	17478
827.183	17505
827.323	17368
827.462	17509
827.601	17368
827.741	17398
827.88	17406
828.02	17322
828.159	17391
828.298	17448
828.437	17406
828.577	17372
828.716	17539
828.855	17379
828.994	17200
829.134	17071
829.273	17170
829.412	17185
829.551	17010
829.69	17113
829.829	17128
829.968	17189
830.107	17223
830.246	17261
830.385	17098
830.524	17075
830.663	17083
830.802	16873
830.941	16797
831.08	16733
831.219	16828
831.357	16854
831.496	17086
831.635	16683
831.774	16599
831.913	16653
832.051	16542
832.19	16508
832.329	16516
832.467	16405
832.606	16424
832.744	16481
832.883	16447
833.022	16481
833.16	16417
833.299	16500
833.437	16451
833.576	16424
833.714	16527
833.852	16474
833.991	16474
834.129	16554
834.267	16603
834.406	16527
834.544	16592
834.682	16519
834.821	16443
834.959	16645
835.097	16497
835.235	16535
835.373	16485
835.511	16561
835.65	16363
835.788	16409
835.926	16185
836.064	16246
836.202	16230
836.34	16527
836.478	16504
836.615	16382
836.753	16363
836.891	16527
837.029	16386
837.167	16360
837.305	16265
837.443	16333
837.58	16284
837.718	16268
837.856	16310
837.993	16211
838.131	16291
838.269	16219
838.406	16299
838.544	16128
838.681	16032
838.819	15964
838.956	15831
839.094	15701
839.231	15838
839.369	16025
839.506	16185
839.643	16044
839.781	15835
839.918	15778
840.055	15903
840.193	15819
840.33	15823
840.467	15808
840.604	15800
840.742	16097
840.879	15652
841.016	15778
841.153	15701
841.29	15869
841.427	15831
841.564	15911
841.701	15854
841.838	15789
841.975	15781
842.112	15743
842.249	15584
842.385	15660
842.522	15800
842.659	15633
842.796	15618
842.933	15694
843.069	15545
843.206	15584
843.343	15698
843.479	15629
843.616	15606
843.752	15408
843.889	15374
844.025	15496
844.162	15412
844.298	15439
844.435	15329
844.571	15325
844.708	15447
844.844	15523
844.98	15488
845.117	15485
845.253	15279
845.389	15287
845.525	15249
845.661	15279
845.798	15138
845.934	15256
846.07	15165
846.206	15165
846.342	15359
846.478	15203
846.614	14994
846.75	14937
846.886	14899
847.022	14979
847.158	15001
847.294	14952
847.429	14979
847.565	15077
847.701	15188
847.837	14785
847.972	14632
848.108	14800
848.244	14651
848.379	14552
848.515	14636
848.65	14469
848.786	14541
848.921	14492
849.057	14640
849.192	14648
849.328	14636
849.463	14617
849.598	14511
849.734	14495
849.869	14419
850.004	14404
850.14	14381
850.275	14294
850.41	14267
850.545	14301
850.68	14214
850.815	14328
850.95	14355
851.085	14454
851.22	14370
851.355	14294
851.49	14362
851.625	14282
851.76	14298
851.895	14229
852.03	14183
852.165	14377
852.299	14309
852.434	14396
852.569	14286
852.703	14358
852.838	14400
852.973	14427
853.107	14450
853.242	14298
853.376	14142
853.511	14062
853.645	14130
853.78	14358
853.914	14256
854.048	14183
854.183	14103
854.317	14263
854.451	14339
854.585	14271
854.72	14111
854.854	14225
854.988	14145
855.122	14145
855.256	14031
855.39	14195
855.524	14328
855.658	14237
855.792	14301
855.926	14195
856.06	14221
856.194	14347
856.327	14142
856.461	14157
856.595	14206
856.729	14176
856.862	14244
856.996	14214
857.13	14313
857.263	14244
857.397	14267
857.53	14248
857.664	14256
857.797	14317
857.931	14278
858.064	14214
858.197	14313
858.331	14130
858.464	14073
858.597	14107
858.731	14229
858.864	14290
858.997	14149
859.13	14161
859.263	14271
859.396	14336
859.529	14161
859.662	14195
859.795	14202
859.928	14225
860.061	14362
860.194	14396
860.327	14278
860.46	14187
860.592	14294
860.725	14294
860.858	14347
860.99	14119
861.123	14153
861.256	14161
861.388	14206
861.521	14910
861.653	14054
861.786	14050
861.918	14100
862.05	14001
862.183	14134
862.315	14096
862.447	14248
862.58	14172
862.712	14084
862.844	13868
862.976	14024
863.108	14084
863.24	14294
863.372	13978
863.504	14035
863.636	14008
863.768	14020
863.9	14081
864.032	13902
864.164	13852
864.296	14024
864.428	14092
864.559	14077
864.691	14039
864.823	14005
864.954	13963
865.086	14088
865.217	14039
865.349	13856
865.48	13928
865.612	14035
865.743	14073
865.875	14024
866.006	13913
866.137	13978
866.269	13944
866.4	13932
866.531	13970
866.662	13906
866.793	13978
866.924	13951
867.055	13982
867.186	13967
867.317	13898
867.448	13799
867.579	13868
867.71	13894
867.841	13913
867.972	14008
868.103	14027
868.233	13955
868.364	14008
868.495	14084
868.625	14187
868.756	14256
868.886	14103
869.017	14149
869.147	14336
869.278	14309
869.408	14240
869.539	14187
869.669	14305
869.799	14202
869.929	14309
870.06	14336
870.19	14522
870.32	14480
870.45	14522
870.58	14632
870.71	14735
870.84	14678
870.97	14564
871.1	14571
871.23	14769
871.36	14800
871.489	14708
871.619	14868
871.749	14815
871.879	14792
872.008	14925
872.138	14758
872.267	14864
872.397	14629
872.526	14571
872.656	14587
872.785	14655
872.915	14792
873.044	14944
873.173	14830
873.303	14845
873.432	14918
873.561	14891
873.69	14838
873.819	14807
873.948	14937
874.077	14876
874.206	14861
874.335	14899
874.464	15032
874.593	15127
874.722	15062
874.851	15294
874.979	15180
875.108	15241
875.237	15119
875.365	15043
875.494	15138
875.623	15230
875.751	15180
875.88	15249
876.008	15382
876.136	15397
876.265	15591
876.393	15694
876.521	15705
876.65	15656
876.778	15625
876.906	15599
877.034	15515
877.162	15523
877.29	15549
877.418	15618
877.546	15591
877.674	15542
877.802	15603
877.93	15576
878.058	15534
878.185	15561
878.313	15488
878.441	15679
878.568	15412
878.696	15557
878.824	15477
878.951	15690
879.079	15797
879.206	15785
879.333	15720
879.461	15595
879.588	15633
879.715	15865
879.842	15865
879.97	15698
880.097	15466
880.224	15378
880.351	15496
880.478	15435
880.605	15431
880.732	15397
880.859	15633
880.986	15462
881.112	15488
881.239	15256
881.366	15173
881.493	15199
881.619	15058
881.746	15058
881.872	15119
881.999	15051
882.125	15161
882.252	15188
882.378	15058
882.505	15260
882.631	15017
882.757	14883
882.883	15036
883.01	14906
883.136	14891
883.262	14743
883.388	14754
883.514	14960
883.64	14956
883.766	14788
883.892	14724
884.018	14785
884.143	14956
884.269	14956
884.395	14625
884.52	14549
884.646	14629
884.772	14629
884.897	14480
885.023	14587
885.148	14693
885.274	14724
885.399	14750
885.524	14689
885.65	14552
885.775	14705
885.9	14632
886.025	14739
886.15	14659
886.275	14549
886.4	14545
886.525	14610
886.65	14568
886.775	14549
886.9	14792
887.025	14864
887.149	14632
887.274	14526
887.399	14473
887.523	14389
887.648	14366
887.773	14305
887.897	14556
888.021	14530
888.146	14389
888.27	14564
888.395	14530
888.519	14511
888.643	14427
888.767	14507
888.891	14396
889.015	14358
889.139	14381
889.263	14358
889.387	14415
889.511	14450
889.635	14396
889.759	14305
889.883	14339
890.006	14358
890.13	14461
890.254	14218
890.377	14286
890.501	14130
890.624	14084
890.748	14164
890.871	14126
890.995	13955
891.118	13997
891.241	14027
891.364	13970
891.488	14069
891.611	14046
891.734	13959
891.857	14115
891.98	14024
892.103	14077
892.226	14050
892.349	13944
892.471	13860
892.594	13944
892.717	14065
892.839	14020
892.962	14039
893.085	14081
893.207	13902
893.33	13928
893.452	13898
893.575	14081
893.697	13959
893.819	14149
893.941	14278
894.064	14256
894.186	13978
894.308	14031
894.43	14054
894.552	14206
894.674	14084
894.796	14035
894.918	14012
895.04	14073
895.161	14259
895.283	14221
895.405	14035
895.526	14145
895.648	14115
895.769	14164
895.891	14180
896.012	14320
896.134	14278
896.255	14161
896.376	14107
896.498	14183
896.619	14187
896.74	14317
896.861	14427
896.982	14583
897.103	14708
897.224	14492
897.345	14362
897.466	14336
897.587	14492
897.708	14495
897.828	14564
897.949	14495
898.07	14313
898.19	14404
898.311	14632
898.431	14461
898.552	14648
898.672	14590
898.792	14701
898.913	14537
899.033	14469
899.153	14301
899.273	14328
899.393	14374
899.513	14431
899.633	14408
899.753	14389
899.873	14362
899.993	14484
900.113	14476
900.232	14465
900.352	14400
900.472	14370
900.591	14237
900.711	14221
900.83	14305
900.95	14298
901.069	14290
901.189	14202
901.308	13989
901.427	13936
901.546	13894
901.665	14012
901.784	13967
901.904	13807
902.023	13765
902.141	13476
902.26	13533
902.379	13575
902.498	13537
902.617	13419
902.735	13544
902.854	13552
902.973	13426
903.091	13259
903.21	13164
903.328	13232
903.446	13114
903.565	13088
903.683	13129
903.801	13000
903.919	13095
904.038	13038
904.156	12924
904.274	13000
904.392	12856
904.51	12852
904.627	12840
904.745	12966
904.863	12897
904.981	12719
905.098	12654
905.216	12574
905.334	12604
905.451	12597
905.569	12578
905.686	12650
905.803	12601
905.921	12410
906.038	12566
906.155	12426
906.272	12296
906.389	12311
906.506	12213
906.623	12194
906.74	12155
906.857	12053
906.974	12064
907.091	12254
907.208	12266
907.324	12228
907.441	12045
907.557	11885
907.674	11908
907.79	11882
907.907	11931
908.023	11969
908.139	11946
908.256	11935
908.372	11824
908.488	11805
908.604	11726
908.72	11680
908.836	11684
908.952	11718
909.068	11665
909.184	11863
909.3	11710
909.415	11741
909.531	11729
909.647	11490
909.762	11421
909.878	11417
909.993	11459
910.108	11406
910.224	11452
910.339	11414
910.454	11280
910.57	11345
910.685	11345
910.8	11543
910.915	11482
911.03	11307
911.145	11261
911.259	11178
911.374	11159
911.489	11216
911.604	11003
911.718	11045
911.833	10934
911.947	10839
912.062	10721
912.176	10885
912.291	10968
912.405	10904
912.519	11094
912.633	11105
912.748	10934
912.862	10892
912.976	10809
913.09	10679
913.204	10763
913.318	10816
913.431	10831
913.545	10828
913.659	10835
913.772	10843
913.886	10710
914	10717
914.113	10793
914.226	10790
914.34	10717
914.453	10649
914.566	10797
914.68	10561
914.793	10637
914.906	10527
915.019	10409
915.132	10424
915.245	10356
915.358	10352
915.47	10451
915.583	10409
915.696	10466
915.809	10584
915.921	10592
916.034	10375
916.146	10402
916.259	10299
916.371	10421
916.483	10417
916.595	10333
916.708	10382
916.82	10348
916.932	10314
917.044	10337
917.156	10329
917.268	10230
917.38	10253
917.491	10227
917.603	10287
917.715	10299
917.826	10333
917.938	10276
918.049	10143
918.161	10238
918.272	10409
918.384	10341
918.495	10253
918.606	10067
918.717	9975
918.828	10188
918.939	10128
919.05	10078
919.161	10116
919.272	9972
919.383	10006
919.494	10169
919.604	10299
919.715	10162
919.826	10105
919.936	10143
920.047	10265
920.157	10131
920.267	10398
920.378	10215
920.488	10207
920.598	10295
920.708	10455
920.818	10337
920.928	10329
921.038	10531
921.148	10413
921.258	10154
921.368	10120
921.477	9979
921.587	9972
921.697	9937
921.806	10025
921.916	9880
922.025	9774
922.134	9667
922.244	9713
922.353	9766
922.462	9732
922.571	9515
922.68	9443
922.789	9401
922.898	9416
923.007	9401
923.116	9435
923.224	9431
923.333	9405
923.442	9344
923.55	9275
923.659	9302
923.767	9306
923.876	9298
923.984	9416
924.092	9188
924.201	9199
924.309	9283
924.417	9279
924.525	9260
924.633	9253
924.741	10154
924.849	9020
924.956	9119
925.064	9097
925.172	8948
925.279	9047
925.387	9020
925.494	9032
925.602	9249
925.709	9169
925.816	8998
925.924	9066
926.031	9154
926.138	9013
926.245	9097
926.352	8990
926.459	9112
926.566	9135
926.673	9005
926.779	8960
926.886	8979
926.993	8769
927.099	8781
927.206	8773
927.312	8708
927.419	8868
927.525	8883
927.631	8815
927.737	8708
927.843	8648
927.95	8530
928.056	8705
928.162	8632
928.267	8792
928.373	9287
928.479	8788
928.585	8537
928.69	8705
928.796	8659
928.901	8545
929.007	8480
929.112	8636
929.218	8545
929.323	8526
929.428	8541
929.533	8564
929.638	8442
929.743	8499
929.848	8434
929.953	8457
930.058	8423
930.163	8286
930.267	8229
930.372	8438
930.477	8229
930.581	8503
930.685	8339
930.79	8256
930.894	8195
930.998	8149
931.103	8343
931.207	8024
931.311	7864
931.415	7913
931.519	7746
931.623	7780
