Data from test_V78500241_2147.txt Node
Date: Fri Mar 25 14:48:39 CST 2022
User: usil
Spectrometer: V785-0024
Trigger mode: 0
Integration Time (sec): 4.000000E-1
Scans to average: 1
Nonlinearity correction enabled: false
Boxcar width: 0
Storing dark spectrum: false
XAxis mode: Wavelengths
Number of Pixels in Spectrum: 1024
>>>>>Begin Spectral Data<<<<<
801.071	22158
801.214	22101
801.356	21766
801.499	21644
801.641	21660
801.783	21511
801.926	21538
802.068	21458
802.211	21428
802.353	21405
802.496	21104
802.638	21119
802.78	20994
802.923	20891
803.065	20933
803.208	20769
803.35	20914
803.492	20990
803.635	21066
803.777	20864
803.919	20899
804.061	21264
804.204	20990
804.346	20868
804.488	20777
804.63	20845
804.773	20788
804.915	20800
805.057	20895
805.199	20880
805.341	20982
805.483	20994
805.626	21013
805.768	20727
805.91	20895
806.052	20819
806.194	20697
806.336	20990
806.478	20811
806.62	20861
806.762	20899
806.904	21028
807.046	21310
807.188	21165
807.33	21108
807.472	21176
807.614	21096
807.756	21036
807.898	20925
808.04	20800
808.182	20933
808.324	20982
808.465	20944
808.607	21211
808.749	21184
808.891	21325
809.033	21108
809.174	21325
809.316	21138
809.458	21039
809.6	21180
809.741	21222
809.883	21275
810.025	21382
810.166	21431
810.308	21256
810.45	21249
810.591	21264
810.733	21074
810.875	20956
811.016	20876
811.158	20834
811.299	21005
811.441	21070
811.582	20963
811.724	21013
811.865	20910
812.007	20952
812.148	21001
812.29	20986
812.431	21146
812.573	21283
812.714	21291
812.855	21523
812.997	21564
813.138	21663
813.279	21500
813.421	21526
813.562	21382
813.703	21298
813.845	21009
813.986	20902
814.127	20613
814.268	20636
814.41	20503
814.551	20617
814.692	20651
814.833	20412
814.974	20412
815.115	20545
815.256	20366
815.397	20377
815.539	20370
815.68	20252
815.821	20096
815.962	20187
816.103	20202
816.244	20180
816.385	20027
816.526	19868
816.666	19742
816.807	19753
816.948	19662
817.089	19791
817.23	19685
817.371	19556
817.512	19700
817.653	19594
817.793	19651
817.934	19689
818.075	19582
818.216	19620
818.356	19586
818.497	19430
818.638	19266
818.778	19327
818.919	19415
819.06	19415
819.2	19457
819.341	19495
819.481	19445
819.622	19613
819.762	19822
819.903	19750
820.043	19727
820.184	19628
820.324	19670
820.465	19635
820.605	19578
820.746	19571
820.886	19518
821.026	19586
821.167	19510
821.307	19696
821.447	19567
821.588	19396
821.728	19415
821.868	19308
822.008	19000
822.149	19187
822.289	18928
822.429	18764
822.569	18612
822.709	18779
822.849	18601
822.99	18574
823.13	18369
823.27	18410
823.41	18388
823.55	18361
823.69	18346
823.83	18342
823.97	18319
824.11	18064
824.25	18045
824.389	18087
824.529	18190
824.669	18140
824.809	18224
824.949	18171
825.089	18098
825.228	18133
825.368	17798
825.508	17912
825.648	17927
825.787	18106
825.927	17939
826.067	17828
826.206	17882
826.346	17908
826.485	17973
826.625	17859
826.765	17965
826.904	17893
827.044	17729
827.183	17573
827.323	17570
827.462	17657
827.601	17665
827.741	17532
827.88	17581
828.02	17535
828.159	17467
828.298	17535
828.437	17604
828.577	17501
828.716	17680
828.855	17547
828.994	17406
829.134	17425
829.273	17372
829.412	17296
829.551	17246
829.69	17356
829.829	17353
829.968	17391
830.107	17452
830.246	17368
830.385	17159
830.524	17250
830.663	17155
830.802	17045
830.941	16896
831.08	16919
831.219	17014
831.357	16968
831.496	17151
831.635	16938
831.774	16885
831.913	16748
832.051	16637
832.19	16763
832.329	16835
832.467	16702
832.606	16596
832.744	16622
832.883	16599
833.022	16584
833.16	16622
833.299	16691
833.437	16755
833.576	16740
833.714	16816
833.852	16622
833.991	16702
834.129	16824
834.267	16812
834.406	16683
834.544	16672
834.682	16710
834.821	16584
834.959	16824
835.097	16683
835.235	16592
835.373	16717
835.511	16721
835.65	16607
835.788	16577
835.926	16462
836.064	16375
836.202	16348
836.34	16649
836.478	16641
836.615	16618
836.753	16489
836.891	16672
837.029	16622
837.167	16645
837.305	16470
837.443	16538
837.58	16428
837.718	16489
837.856	16508
837.993	16443
838.131	16466
838.269	16287
838.406	16481
838.544	16371
838.681	16234
838.819	16188
838.956	15960
839.094	15941
839.231	16074
839.369	16124
839.506	16474
839.643	16325
839.781	16078
839.918	15968
840.055	16078
840.193	15960
840.33	15934
840.467	15903
840.604	15987
840.742	16295
840.879	15915
841.016	15937
841.153	15926
841.29	16051
841.427	16055
841.564	16013
841.701	16040
841.838	15846
841.975	15968
842.112	15861
842.249	15816
842.385	15827
842.522	16032
842.659	15789
842.796	15736
842.933	15789
843.069	15717
843.206	15751
843.343	15937
843.479	15762
843.616	15812
843.752	15656
843.889	15606
844.025	15720
844.162	15625
844.298	15553
844.435	15618
844.571	15523
844.708	15591
844.844	15698
844.98	15774
845.117	15675
845.253	15644
845.389	15435
845.525	15561
845.661	15481
845.798	15317
845.934	15507
846.07	15332
846.206	15397
846.342	15515
846.478	15294
846.614	15241
846.75	15089
846.886	15093
847.022	15249
847.158	15150
847.294	15188
847.429	15157
847.565	15077
847.701	15252
847.837	14834
847.972	14796
848.108	14994
848.244	14933
848.379	14773
848.515	14663
848.65	14746
848.786	14739
848.921	14735
849.057	14823
849.192	14868
849.328	14792
849.463	14663
849.598	14724
849.734	14697
849.869	14644
850.004	14610
850.14	14568
850.275	14579
850.41	14408
850.545	14396
850.68	14454
850.815	14518
850.95	14480
851.085	14693
851.22	14640
851.355	14705
851.49	14549
851.625	14412
851.76	14400
851.895	14476
852.03	14301
852.165	14511
852.299	14488
852.434	14636
852.569	14530
852.703	14446
852.838	14503
852.973	14674
853.107	14670
853.242	14469
853.376	14419
853.511	14210
853.645	14271
853.78	14564
853.914	14366
854.048	14343
854.183	14336
854.317	14347
854.451	14495
854.585	14347
854.72	14332
854.854	14419
854.988	14309
855.122	14389
855.256	14218
855.39	14347
855.524	14385
855.658	14404
855.792	14355
855.926	14400
856.06	14530
856.194	14442
856.327	14434
856.461	14278
856.595	14431
856.729	14442
856.862	14434
856.996	14385
857.13	14434
857.263	14450
857.397	14511
857.53	14499
857.664	14393
857.797	14377
857.931	14541
858.064	14431
858.197	14465
858.331	14320
858.464	14290
858.597	14233
858.731	14377
858.864	14317
858.997	14282
859.13	14434
859.263	14404
859.396	14400
859.529	14343
859.662	14256
859.795	14332
859.928	14324
860.061	14549
860.194	14511
860.327	14408
860.46	14343
860.592	14419
860.725	14492
860.858	14492
860.99	14385
861.123	14263
861.256	14282
861.388	14362
861.521	15081
861.653	14259
861.786	14240
861.918	14183
862.05	14263
862.183	14328
862.315	14320
862.447	14400
862.58	14256
862.712	14210
862.844	14008
862.976	14263
863.108	14214
863.24	14583
863.372	14024
863.504	14225
863.636	14130
863.768	14157
863.9	14145
864.032	14069
864.164	14062
864.296	14115
864.428	14164
864.559	14259
864.691	14248
864.823	14142
864.954	14218
865.086	14286
865.217	14103
865.349	14058
865.48	14199
865.612	14115
865.743	14347
865.875	14252
866.006	14145
866.137	14145
866.269	14149
866.4	14092
866.531	14199
866.662	14103
866.793	14187
866.924	14130
867.055	14233
867.186	14035
867.317	14050
867.448	14054
867.579	14088
867.71	13967
867.841	14161
867.972	14183
868.103	14058
868.233	14221
868.364	14202
868.495	14202
868.625	14320
868.756	14370
868.886	14317
869.017	14404
869.147	14556
869.278	14526
869.408	14415
869.539	14370
869.669	14358
869.799	14400
869.929	14549
870.06	14442
870.19	14644
870.32	14648
870.45	14727
870.58	14777
870.71	14998
870.84	14925
870.97	14800
871.1	14727
871.23	14990
871.36	15024
871.489	14883
871.619	14883
871.749	14944
871.879	14899
872.008	15039
872.138	15024
872.267	15074
872.397	14872
872.526	14777
872.656	14785
872.785	14807
872.915	15036
873.044	15055
873.173	15020
873.303	15074
873.432	15070
873.561	15070
873.69	15062
873.819	15104
873.948	15150
874.077	15058
874.206	14967
874.335	14960
874.464	15199
874.593	15245
874.722	15268
874.851	15462
874.979	15397
875.108	15420
875.237	15336
875.365	15321
875.494	15249
875.623	15477
875.751	15260
875.88	15408
876.008	15561
876.136	15572
876.265	15846
876.393	15899
876.521	15793
876.65	15926
876.778	15778
876.906	15732
877.034	15671
877.162	15667
877.29	15671
877.418	15743
877.546	15713
877.674	15797
877.802	15762
877.93	15762
878.058	15713
878.185	15690
878.313	15781
878.441	15667
878.568	15675
878.696	15709
878.824	15778
878.951	15907
879.079	15895
879.206	16059
879.333	15880
879.461	15884
879.588	15876
879.715	16029
879.842	16082
879.97	15869
880.097	15622
880.224	15564
880.351	15660
880.478	15656
880.605	15488
880.732	15709
880.859	15747
880.986	15701
881.112	15705
881.239	15530
881.366	15393
881.493	15351
881.619	15317
881.746	15321
881.872	15214
881.999	15283
882.125	15233
882.252	15283
882.378	15321
882.505	15481
882.631	15233
882.757	15009
882.883	15203
883.01	15066
883.136	15032
883.262	14952
883.388	15032
883.514	15195
883.64	15051
883.766	14967
883.892	14838
884.018	14990
884.143	15005
884.269	15192
884.395	14815
884.52	14796
884.646	14777
884.772	14731
884.897	14727
885.023	14811
885.148	14948
885.274	14902
885.399	14906
885.524	14716
885.65	14811
885.775	14716
885.9	14765
886.025	14918
886.15	14876
886.275	14648
886.4	14682
886.525	14800
886.65	14659
886.775	14743
886.9	14895
887.025	14944
887.149	14819
887.274	14640
887.399	14678
887.523	14556
887.648	14568
887.773	14484
887.897	14758
888.021	14731
888.146	14575
888.27	14682
888.395	14777
888.519	14735
888.643	14602
888.767	14712
888.891	14522
889.015	14507
889.139	14514
889.263	14419
889.387	14564
889.511	14636
889.635	14606
889.759	14480
889.883	14461
890.006	14476
890.13	14674
890.254	14438
890.377	14419
890.501	14294
890.624	14298
890.748	14343
890.871	14218
890.995	14138
891.118	14016
891.241	14176
891.364	14218
891.488	14240
891.611	14115
891.734	14187
891.857	14278
891.98	14092
892.103	14282
892.226	14210
892.349	14111
892.471	14012
892.594	14176
892.717	14172
892.839	14050
892.962	14084
893.085	14199
893.207	14176
893.33	14035
893.452	14119
893.575	14286
893.697	14107
893.819	14347
893.941	14412
894.064	14324
894.186	14183
894.308	14180
894.43	14328
894.552	14374
894.674	14210
894.796	14229
894.918	14263
895.04	14142
895.161	14351
895.283	14282
895.405	14172
895.526	14259
895.648	14324
895.769	14248
895.891	14351
896.012	14336
896.134	14385
896.255	14313
896.376	14267
896.498	14332
896.619	14366
896.74	14374
896.861	14320
896.982	14739
897.103	14857
897.224	14556
897.345	14610
897.466	14461
897.587	14564
897.708	14724
897.828	14648
897.949	14594
898.07	14537
898.19	14625
898.311	14819
898.431	14724
898.552	14697
898.672	14880
898.792	14701
898.913	14712
899.033	14640
899.153	14514
899.273	14488
899.393	14495
899.513	14613
899.633	14427
899.753	14556
899.873	14617
899.993	14526
900.113	14575
900.232	14533
900.352	14495
900.472	14450
900.591	14419
900.711	14404
900.83	14351
900.95	14393
901.069	14488
901.189	14393
901.308	14157
901.427	14065
901.546	14111
901.665	14111
901.784	14123
901.904	14062
902.023	13902
902.141	13807
902.26	13734
902.379	13803
902.498	13677
902.617	13647
902.735	13613
902.854	13628
902.973	13609
903.091	13400
903.21	13411
903.328	13362
903.446	13266
903.565	13152
903.683	13156
903.801	13129
903.919	13187
904.038	13236
904.156	13038
904.274	13141
904.392	13031
904.51	12981
904.627	12947
904.745	13061
904.863	13114
904.981	12882
905.098	12757
905.216	12791
905.334	12715
905.451	12673
905.569	12646
905.686	12798
905.803	12726
905.921	12597
906.038	12753
906.155	12582
906.272	12464
906.389	12486
906.506	12426
906.623	12304
906.74	12296
906.857	12216
906.974	12258
907.091	12403
907.208	12502
907.324	12399
907.441	12239
907.557	12095
907.674	12171
907.79	12026
907.907	11969
908.023	12068
908.139	12034
908.256	12034
908.372	11920
908.488	11946
908.604	11847
908.72	11828
908.836	11775
908.952	11824
909.068	11863
909.184	11935
909.3	11836
909.415	11878
909.531	11870
909.647	11573
909.762	11596
909.878	11615
909.993	11585
910.108	11486
910.224	11543
910.339	11543
910.454	11509
910.57	11474
910.685	11402
910.8	11581
910.915	11577
911.03	11391
911.145	11315
911.259	11315
911.374	11254
911.489	11250
911.604	11151
911.718	11079
911.833	11067
911.947	10946
912.062	10892
912.176	11033
912.291	11006
912.405	11006
912.519	11269
912.633	11250
912.748	11113
912.862	11094
912.976	10942
913.09	10748
913.204	10850
913.318	10850
913.431	10995
913.545	11010
913.659	11006
913.772	10904
913.886	10900
914	10736
914.113	10900
914.226	10927
914.34	10858
914.453	10744
914.566	10873
914.68	10748
914.793	10736
914.906	10649
915.019	10535
915.132	10470
915.245	10519
915.358	10554
915.47	10546
915.583	10546
915.696	10546
915.809	10672
915.921	10672
916.034	10470
916.146	10451
916.259	10516
916.371	10603
916.483	10580
916.595	10531
916.708	10474
916.82	10455
916.932	10462
917.044	10470
917.156	10447
917.268	10394
917.38	10398
917.491	10363
917.603	10432
917.715	10470
917.826	10432
917.938	10382
918.049	10295
918.161	10367
918.272	10531
918.384	10489
918.495	10413
918.606	10242
918.717	10124
918.828	10306
918.939	10272
919.05	10177
919.161	10253
919.272	10044
919.383	10204
919.494	10276
919.604	10504
919.715	10287
919.826	10169
919.936	10227
920.047	10284
920.157	10344
920.267	10527
920.378	10306
920.488	10276
920.598	10497
920.708	10584
920.818	10409
920.928	10375
921.038	10668
921.148	10622
921.258	10299
921.368	10230
921.477	10162
921.587	10097
921.697	10029
921.806	10109
921.916	9983
922.025	9812
922.134	9831
922.244	9793
922.353	9800
922.462	9660
922.571	9694
922.68	9561
922.789	9496
922.898	9511
923.007	9488
923.116	9622
923.224	9485
923.333	9538
923.442	9405
923.55	9325
923.659	9412
923.767	9496
923.876	9450
923.984	9435
924.092	9298
924.201	9367
924.309	9374
924.417	9458
924.525	9363
924.633	9325
924.741	10093
924.849	9222
924.956	9344
925.064	9138
925.172	9112
925.279	9150
925.387	9184
925.494	9165
925.602	9416
925.709	9214
925.816	9108
925.924	9184
926.031	9245
926.138	9241
926.245	9245
926.352	9112
926.459	9226
926.566	9226
926.673	9154
926.779	9020
926.886	8994
926.993	8979
927.099	8887
927.206	8861
927.312	8944
927.419	8967
927.525	8941
927.631	8899
927.737	8842
927.843	8830
927.95	8663
928.056	8811
928.162	8712
928.267	8842
928.373	9317
928.479	8895
928.585	8667
928.69	8823
928.796	8834
928.901	8701
929.007	8549
929.112	8674
929.218	8739
929.323	8667
929.428	8594
929.533	8701
929.638	8541
929.743	8579
929.848	8655
929.953	8552
930.058	8511
930.163	8400
930.267	8389
930.372	8495
930.477	8343
930.581	8541
930.685	8408
930.79	8252
930.894	8328
930.998	8267
931.103	8438
931.207	8046
931.311	8039
931.415	7993
931.519	7795
931.623	7765
