Data from test_V78500241_1630.txt Node
Date: Fri Mar 25 14:45:03 CST 2022
User: usil
Spectrometer: V785-0024
Trigger mode: 0
Integration Time (sec): 4.000000E-1
Scans to average: 1
Nonlinearity correction enabled: false
Boxcar width: 0
Storing dark spectrum: false
XAxis mode: Wavelengths
Number of Pixels in Spectrum: 1024
>>>>>Begin Spectral Data<<<<<
801.071	22322
801.214	22223
801.356	22036
801.499	21759
801.641	21656
801.783	21625
801.926	21720
802.068	21641
802.211	21568
802.353	21466
802.496	21264
802.638	21226
802.78	21157
802.923	21131
803.065	21036
803.208	20891
803.35	20967
803.492	21047
803.635	21154
803.777	20876
803.919	21100
804.061	21382
804.204	21108
804.346	21066
804.488	20960
804.63	20979
804.773	20914
804.915	20918
805.057	21070
805.199	20998
805.341	20967
805.483	21028
805.626	21039
805.768	20823
805.91	21013
806.052	20826
806.194	20887
806.336	21096
806.478	21017
806.62	20937
806.762	20994
806.904	21119
807.046	21363
807.188	21370
807.33	21291
807.472	21382
807.614	21291
807.756	21447
807.898	21176
808.04	21066
808.182	21081
808.324	21203
808.465	21138
808.607	21386
808.749	21504
808.891	21500
809.033	21660
809.174	21492
809.316	21393
809.458	21488
809.6	21272
809.741	21473
809.883	21424
810.025	21599
810.166	21523
810.308	21462
810.45	21481
810.591	21359
810.733	21279
810.875	21256
811.016	21104
811.158	21081
811.299	21161
811.441	21230
811.582	21245
811.724	21161
811.865	21112
812.007	21085
812.148	21138
812.29	21233
812.431	21302
812.573	21534
812.714	21549
812.855	21633
812.997	21614
813.138	21869
813.279	21800
813.421	21644
813.562	21580
813.703	21382
813.845	21283
813.986	21070
814.127	20895
814.268	20773
814.41	20807
814.551	20613
814.692	20716
814.833	20522
814.974	20640
815.115	20568
815.256	20518
815.397	20571
815.539	20598
815.68	20336
815.821	20415
815.962	20423
816.103	20446
816.244	20278
816.385	20214
816.526	20073
816.666	20031
816.807	19837
816.948	19963
817.089	19909
817.23	19906
817.371	19769
817.512	19693
817.653	19856
817.793	19689
817.934	19883
818.075	19856
818.216	19784
818.356	19727
818.497	19727
818.638	19597
818.778	19441
818.919	19499
819.06	19533
819.2	19674
819.341	19666
819.481	19727
819.622	19887
819.762	20027
819.903	19890
820.043	19826
820.184	19845
820.324	19822
820.465	19940
820.605	19750
820.746	19955
820.886	19674
821.026	19731
821.167	19582
821.307	19715
821.447	19769
821.588	19620
821.728	19480
821.868	19339
822.008	19289
822.149	19251
822.289	19213
822.429	19027
822.569	19031
822.709	18939
822.849	18654
822.99	18730
823.13	18692
823.27	18700
823.41	18460
823.55	18456
823.69	18467
823.83	18429
823.97	18471
824.11	18178
824.25	18254
824.389	18319
824.529	18399
824.669	18251
824.809	18342
824.949	18471
825.089	18342
825.228	18273
825.368	18144
825.508	18144
825.648	18167
825.787	18194
825.927	18125
826.067	18015
826.206	18015
826.346	18060
826.485	17992
826.625	18091
826.765	18110
826.904	18076
827.044	17836
827.183	17813
827.323	17672
827.462	17821
827.601	17733
827.741	17630
827.88	17813
828.02	17615
828.159	17687
828.298	17752
828.437	17840
828.577	17691
828.716	17832
828.855	17737
828.994	17482
829.134	17516
829.273	17585
829.412	17398
829.551	17490
829.69	17467
829.829	17543
829.968	17539
830.107	17585
830.246	17376
830.385	17528
830.524	17417
830.663	17292
830.802	17155
830.941	17155
831.08	17117
831.219	17231
831.357	17181
831.496	17372
831.635	17025
831.774	17045
831.913	16968
832.051	16896
832.19	16881
832.329	16908
832.467	16797
832.606	16634
832.744	16790
832.883	16790
833.022	16683
833.16	16752
833.299	16824
833.437	16744
833.576	16927
833.714	16828
833.852	16900
833.991	16850
834.129	16854
834.267	16987
834.406	16843
834.544	16816
834.682	16873
834.821	16824
834.959	16877
835.097	16752
835.235	16896
835.373	16877
835.511	16858
835.65	16752
835.788	16698
835.926	16622
836.064	16500
836.202	16588
836.34	16801
836.478	16782
836.615	16767
836.753	16660
836.891	16691
837.029	16755
837.167	16710
837.305	16637
837.443	16607
837.58	16519
837.718	16683
837.856	16603
837.993	16565
838.131	16637
838.269	16523
838.406	16538
838.544	16497
838.681	16398
838.819	16257
838.956	16181
839.094	16078
839.231	16268
839.369	16367
839.506	16577
839.643	16409
839.781	16188
839.918	16147
840.055	16112
840.193	16192
840.33	16101
840.467	16105
840.604	16219
840.742	16386
840.879	15994
841.016	16006
841.153	15964
841.29	16261
841.427	16131
841.564	16219
841.701	16128
841.838	16112
841.975	16105
842.112	16025
842.249	16032
842.385	15876
842.522	16188
842.659	15949
842.796	15846
842.933	15922
843.069	15873
843.206	15724
843.343	15994
843.479	15911
843.616	15911
843.752	15694
843.889	15759
844.025	15949
844.162	15717
844.298	15865
844.435	15698
844.571	15606
844.708	15679
844.844	15808
844.98	15831
845.117	15800
845.253	15671
845.389	15587
845.525	15686
845.661	15633
845.798	15549
845.934	15705
846.07	15580
846.206	15629
846.342	15698
846.478	15504
846.614	15256
846.75	15214
846.886	15313
847.022	15329
847.158	15275
847.294	15321
847.429	15287
847.565	15336
847.701	15447
847.837	14979
847.972	14948
848.108	15058
848.244	15108
848.379	14941
848.515	14811
848.65	14785
848.786	14754
848.921	14777
849.057	14998
849.192	14925
849.328	14918
849.463	14906
849.598	14883
849.734	14769
849.869	14731
850.004	14659
850.14	14629
850.275	14552
850.41	14613
850.545	14564
850.68	14587
850.815	14686
850.95	14575
851.085	14777
851.22	14754
851.355	14583
851.49	14598
851.625	14549
851.76	14556
851.895	14667
852.03	14552
852.165	14617
852.299	14587
852.434	14724
852.569	14693
852.703	14579
852.838	14758
852.973	14758
853.107	14739
853.242	14530
853.376	14484
853.511	14343
853.645	14530
853.78	14644
853.914	14457
854.048	14423
854.183	14442
854.317	14343
854.451	14670
854.585	14408
854.72	14393
854.854	14522
854.988	14442
855.122	14583
855.256	14328
855.39	14571
855.524	14583
855.658	14556
855.792	14552
855.926	14560
856.06	14629
856.194	14621
856.327	14511
856.461	14419
856.595	14450
856.729	14423
856.862	14594
856.996	14552
857.13	14629
857.263	14552
857.397	14495
857.53	14659
857.664	14507
857.797	14583
857.931	14560
858.064	14564
858.197	14507
858.331	14484
858.464	14431
858.597	14404
858.731	14495
858.864	14450
858.997	14499
859.13	14514
859.263	14587
859.396	14590
859.529	14537
859.662	14454
859.795	14423
859.928	14457
860.061	14625
860.194	14754
860.327	14541
860.46	14526
860.592	14556
860.725	14663
860.858	14560
860.99	14434
861.123	14442
861.256	14480
861.388	14492
861.521	15306
861.653	14374
861.786	14343
861.918	14320
862.05	14377
862.183	14480
862.315	14473
862.447	14511
862.58	14415
862.712	14313
862.844	14164
862.976	14328
863.108	14275
863.24	14773
863.372	14183
863.504	14218
863.636	14244
863.768	14278
863.9	14259
864.032	14157
864.164	14237
864.296	14256
864.428	14298
864.559	14370
864.691	14309
864.823	14370
864.954	14389
865.086	14275
865.217	14256
865.349	14195
865.48	14240
865.612	14286
865.743	14328
865.875	14355
866.006	14259
866.137	14164
866.269	14244
866.4	14233
866.531	14271
866.662	14180
866.793	14263
866.924	14221
867.055	14320
867.186	14278
867.317	14278
867.448	14103
867.579	14180
867.71	14138
867.841	14157
867.972	14214
868.103	14138
868.233	14278
868.364	14225
868.495	14328
868.625	14450
868.756	14590
868.886	14454
869.017	14476
869.147	14629
869.278	14648
869.408	14389
869.539	14503
869.669	14606
869.799	14507
869.929	14659
870.06	14663
870.19	14731
870.32	14705
870.45	14853
870.58	14944
870.71	14941
870.84	15043
870.97	14918
871.1	14849
871.23	15066
871.36	15077
871.489	14971
871.619	15009
871.749	15188
871.879	15146
872.008	15268
872.138	15100
872.267	15085
872.397	14876
872.526	14834
872.656	14826
872.785	14944
872.915	15062
873.044	15310
873.173	15199
873.303	15211
873.432	15146
873.561	15211
873.69	15222
873.819	15097
873.948	15192
874.077	15214
874.206	15195
874.335	15138
874.464	15260
874.593	15416
874.722	15336
874.851	15431
874.979	15469
875.108	15477
875.237	15397
875.365	15340
875.494	15435
875.623	15557
875.751	15340
875.88	15401
876.008	15606
876.136	15686
876.265	15842
876.393	16002
876.521	15903
876.65	15937
876.778	15827
876.906	15770
877.034	15785
877.162	15850
877.29	15728
877.418	15789
877.546	15873
877.674	15857
877.802	15816
877.93	15884
878.058	15743
878.185	15709
878.313	15854
878.441	15899
878.568	15610
878.696	15709
878.824	15861
878.951	15998
879.079	16105
879.206	16082
879.333	16120
879.461	16002
879.588	15922
879.715	16082
879.842	16139
879.97	15983
880.097	15819
880.224	15656
880.351	15728
880.478	15770
880.605	15694
880.732	15637
880.859	16002
880.986	15663
881.112	15857
881.239	15663
881.366	15469
881.493	15473
881.619	15313
881.746	15359
881.872	15351
881.999	15302
882.125	15382
882.252	15435
882.378	15428
882.505	15587
882.631	15294
882.757	15272
882.883	15291
883.01	15291
883.136	15058
883.262	15089
883.388	15051
883.514	15256
883.64	15218
883.766	15119
883.892	14979
884.018	15169
884.143	15252
884.269	15325
884.395	15001
884.52	14921
884.646	14887
884.772	14811
884.897	14864
885.023	14883
885.148	15043
885.274	15066
885.399	15032
885.524	14895
885.65	14910
885.775	14967
885.9	14960
886.025	15089
886.15	14994
886.275	14918
886.4	14849
886.525	14857
886.65	14788
886.775	14777
886.9	15077
887.025	15142
887.149	14838
887.274	14876
887.399	14674
887.523	14735
887.648	14739
887.773	14632
887.897	14792
888.021	14724
888.146	14689
888.27	14785
888.395	14902
888.519	14724
888.643	14781
888.767	14720
888.891	14739
889.015	14594
889.139	14674
889.263	14606
889.387	14823
889.511	14800
889.635	14716
889.759	14579
889.883	14621
890.006	14621
890.13	14720
890.254	14518
890.377	14568
890.501	14377
890.624	14431
890.748	14339
890.871	14294
890.995	14214
891.118	14187
891.241	14202
891.364	14313
891.488	14347
891.611	14202
891.734	14267
891.857	14309
891.98	14229
892.103	14446
892.226	14317
892.349	14286
892.471	14119
892.594	14298
892.717	14256
892.839	14233
892.962	14267
893.085	14290
893.207	14336
893.33	14142
893.452	14229
893.575	14290
893.697	14396
893.819	14408
893.941	14400
894.064	14476
894.186	14271
894.308	14263
894.43	14408
894.552	14484
894.674	14476
894.796	14271
894.918	14282
895.04	14343
895.161	14366
895.283	14454
895.405	14305
895.526	14423
895.648	14343
895.769	14358
895.891	14461
896.012	14423
896.134	14442
896.255	14404
896.376	14514
896.498	14415
896.619	14526
896.74	14461
896.861	14499
896.982	14743
897.103	14891
897.224	14739
897.345	14705
897.466	14613
897.587	14743
897.708	14758
897.828	14765
897.949	14716
898.07	14598
898.19	14712
898.311	14864
898.431	14746
898.552	14823
898.672	14785
898.792	14864
898.913	14758
899.033	14807
899.153	14670
899.273	14533
899.393	14674
899.513	14670
899.633	14731
899.753	14746
899.873	14659
899.993	14762
900.113	14602
900.232	14712
900.352	14644
900.472	14518
900.591	14476
900.711	14583
900.83	14541
900.95	14644
901.069	14697
901.189	14465
901.308	14259
901.427	14195
901.546	14210
901.665	14149
901.784	14259
901.904	13997
902.023	13955
902.141	13890
902.26	13826
902.379	13841
902.498	13791
902.617	13746
902.735	13830
902.854	13811
902.973	13700
903.091	13495
903.21	13533
903.328	13563
903.446	13499
903.565	13263
903.683	13263
903.801	13217
903.919	13339
904.038	13331
904.156	13160
904.274	13263
904.392	13095
904.51	13091
904.627	13179
904.745	13175
904.863	13110
904.981	12996
905.098	12795
905.216	12848
905.334	12795
905.451	12894
905.569	12810
905.686	12825
905.803	12802
905.921	12688
906.038	12760
906.155	12677
906.272	12506
906.389	12604
906.506	12426
906.623	12426
906.74	12403
906.857	12334
906.974	12281
907.091	12486
907.208	12551
907.324	12521
907.441	12323
907.557	12224
907.674	12114
907.79	12072
907.907	12110
908.023	12197
908.139	12216
908.256	12091
908.372	12114
908.488	11996
908.604	11836
908.72	11832
908.836	11935
908.952	11939
909.068	12003
909.184	12030
909.3	11961
909.415	11961
909.531	11885
909.647	11676
909.762	11695
909.878	11714
909.993	11619
910.108	11699
910.224	11646
910.339	11695
910.454	11535
910.57	11608
910.685	11459
910.8	11729
910.915	11680
911.03	11608
911.145	11402
911.259	11398
911.374	11421
911.489	11341
911.604	11261
911.718	11155
911.833	11117
911.947	10980
912.062	10991
912.176	11121
912.291	11159
912.405	11132
912.519	11250
912.633	11307
912.748	11208
912.862	11155
912.976	11037
913.09	10885
913.204	10934
913.318	11045
913.431	11159
913.545	11060
913.659	11147
913.772	11003
913.886	10995
914	10869
914.113	10938
914.226	11048
914.34	11018
914.453	10755
914.566	10961
914.68	10873
914.793	10755
914.906	10710
915.019	10656
915.132	10516
915.245	10618
915.358	10694
915.47	10656
915.583	10603
915.696	10645
915.809	10771
915.921	10774
916.034	10622
916.146	10626
916.259	10527
916.371	10706
916.483	10664
916.595	10519
916.708	10523
916.82	10554
916.932	10565
917.044	10542
917.156	10443
917.268	10440
917.38	10493
917.491	10421
917.603	10565
917.715	10561
917.826	10584
917.938	10455
918.049	10318
918.161	10409
918.272	10569
918.384	10618
918.495	10462
918.606	10276
918.717	10268
918.828	10382
918.939	10314
919.05	10230
919.161	10306
919.272	10169
919.383	10242
919.494	10421
919.604	10512
919.715	10337
919.826	10280
919.936	10295
920.047	10402
920.157	10382
920.267	10580
920.378	10367
920.488	10360
920.598	10565
920.708	10653
920.818	10584
920.928	10523
921.038	10767
921.148	10675
921.258	10352
921.368	10299
921.477	10242
921.587	10139
921.697	10116
921.806	10185
921.916	10071
922.025	9892
922.134	9865
922.244	9823
922.353	9937
922.462	9793
922.571	9755
922.68	9701
922.789	9709
922.898	9660
923.007	9568
923.116	9679
923.224	9538
923.333	9530
923.442	9530
923.55	9439
923.659	9496
923.767	9492
923.876	9462
923.984	9542
924.092	9439
924.201	9370
924.309	9447
924.417	9481
924.525	9424
924.633	9439
924.741	10162
924.849	9294
924.956	9382
925.064	9222
925.172	9146
925.279	9184
925.387	9317
925.494	9195
925.602	9306
925.709	9367
925.816	9119
925.924	9214
926.031	9370
926.138	9260
926.245	9260
926.352	9157
926.459	9264
926.566	9329
926.673	9123
926.779	9093
926.886	9055
926.993	9032
927.099	8941
927.206	8887
927.312	8845
927.419	9017
927.525	8994
927.631	8998
927.737	8857
927.843	8857
927.95	8724
928.056	8834
928.162	8834
928.267	8876
928.373	9412
928.479	8918
928.585	8731
928.69	8849
928.796	8823
928.901	8826
929.007	8530
929.112	8743
929.218	8750
929.323	8689
929.428	8667
929.533	8762
929.638	8533
929.743	8640
929.848	8632
929.953	8636
930.058	8602
930.163	8408
930.267	8495
930.372	8564
930.477	8419
930.581	8693
930.685	8503
930.79	8355
930.894	8358
930.998	8343
931.103	8419
931.207	8176
931.311	8134
931.415	8100
931.519	7917
931.623	7906
