Data from test_V78500241_1243.txt Node
Date: Fri Mar 25 14:42:22 CST 2022
User: usil
Spectrometer: V785-0024
Trigger mode: 0
Integration Time (sec): 4.000000E-1
Scans to average: 1
Nonlinearity correction enabled: false
Boxcar width: 0
Storing dark spectrum: false
XAxis mode: Wavelengths
Number of Pixels in Spectrum: 1024
>>>>>Begin Spectral Data<<<<<
801.071	22436
801.214	22284
801.356	21994
801.499	21861
801.641	21679
801.783	21652
801.926	21759
802.068	21660
802.211	21648
802.353	21500
802.496	21348
802.638	21268
802.78	21241
802.923	21127
803.065	21096
803.208	21020
803.35	20975
803.492	21184
803.635	21355
803.777	21077
803.919	21173
804.061	21408
804.204	21108
804.346	20979
804.488	20941
804.63	21058
804.773	20971
804.915	21058
805.057	21184
805.199	21074
805.341	21001
805.483	21138
805.626	21055
805.768	20982
805.91	21024
806.052	20979
806.194	20880
806.336	21131
806.478	20872
806.62	21077
806.762	20944
806.904	21249
807.046	21458
807.188	21256
807.33	21397
807.472	21450
807.614	21340
807.756	21245
807.898	21131
808.04	21100
808.182	21161
808.324	21138
808.465	21287
808.607	21336
808.749	21485
808.891	21405
809.033	21679
809.174	21553
809.316	21443
809.458	21454
809.6	21523
809.741	21393
809.883	21496
810.025	21553
810.166	21675
810.308	21701
810.45	21500
810.591	21348
810.733	21302
810.875	21207
811.016	21116
811.158	21154
811.299	21332
811.441	21359
811.582	21268
811.724	21195
811.865	21154
812.007	21275
812.148	21199
812.29	21237
812.431	21336
812.573	21473
812.714	21473
812.855	21641
812.997	21698
813.138	21930
813.279	21747
813.421	21633
813.562	21637
813.703	21443
813.845	21359
813.986	20998
814.127	20876
814.268	20689
814.41	20853
814.551	20670
814.692	20826
814.833	20769
814.974	20621
815.115	20651
815.256	20556
815.397	20587
815.539	20541
815.68	20514
815.821	20339
815.962	20549
816.103	20370
816.244	20332
816.385	20164
816.526	20187
816.666	20142
816.807	19921
816.948	20031
817.089	20020
817.23	19864
817.371	19875
817.512	19868
817.653	19959
817.793	19860
817.934	19940
818.075	19833
818.216	19791
818.356	19860
818.497	19750
818.638	19521
818.778	19647
818.919	19537
819.06	19662
819.2	19639
819.341	19769
819.481	19632
819.622	19818
819.762	19921
819.903	19856
820.043	19830
820.184	19841
820.324	19917
820.465	19928
820.605	19963
820.746	19830
820.886	19765
821.026	19833
821.167	19894
821.307	19826
821.447	19753
821.588	19681
821.728	19521
821.868	19468
822.008	19297
822.149	19346
822.289	19289
822.429	18916
822.569	18928
822.709	19042
822.849	18814
822.99	18684
823.13	18642
823.27	18715
823.41	18578
823.55	18494
823.69	18555
823.83	18665
823.97	18414
824.11	18281
824.25	18361
824.389	18350
824.529	18365
824.669	18448
824.809	18506
824.949	18448
825.089	18422
825.228	18384
825.368	18163
825.508	18205
825.648	18163
825.787	18140
825.927	18251
826.067	18129
826.206	18022
826.346	18209
826.485	18076
826.625	18155
826.765	18163
826.904	18121
827.044	17882
827.183	17912
827.323	17786
827.462	17809
827.601	17798
827.741	17722
827.88	17840
828.02	17634
828.159	17767
828.298	17851
828.437	17988
828.577	17710
828.716	17980
828.855	17859
828.994	17516
829.134	17558
829.273	17615
829.412	17570
829.551	17497
829.69	17490
829.829	17596
829.968	17764
830.107	17642
830.246	17699
830.385	17524
830.524	17539
830.663	17410
830.802	17345
830.941	17246
831.08	17155
831.219	17250
831.357	17280
831.496	17478
831.635	17147
831.774	17083
831.913	17193
832.051	17045
832.19	17045
832.329	16995
832.467	17025
832.606	16873
832.744	16892
832.883	16869
833.022	16866
833.16	16889
833.299	16873
833.437	16927
833.576	16847
833.714	17029
833.852	16953
833.991	17003
834.129	17079
834.267	17052
834.406	16968
834.544	17079
834.682	17086
834.821	16968
834.959	17140
835.097	16908
835.235	17121
835.373	16987
835.511	17029
835.65	16820
835.788	16824
835.926	16725
836.064	16755
836.202	16649
836.34	16942
836.478	16938
836.615	16809
836.753	16873
836.891	16957
837.029	16976
837.167	16866
837.305	16828
837.443	16778
837.58	16744
837.718	16790
837.856	16744
837.993	16683
838.131	16759
838.269	16592
838.406	16565
838.544	16577
838.681	16352
838.819	16299
838.956	16306
839.094	16219
839.231	16257
839.369	16436
839.506	16706
839.643	16382
839.781	16295
839.918	16204
840.055	16261
840.193	16356
840.33	16337
840.467	16242
840.604	16382
840.742	16546
840.879	16154
841.016	16284
841.153	16200
841.29	16325
841.427	16363
841.564	16409
841.701	16200
841.838	16215
841.975	16158
842.112	16226
842.249	16166
842.385	16021
842.522	16162
842.659	16120
842.796	16017
842.933	16124
843.069	15945
843.206	16025
843.343	16139
843.479	16143
843.616	16093
843.752	15869
843.889	15930
844.025	16006
844.162	15846
844.298	15934
844.435	15880
844.571	15766
844.708	15823
844.844	16013
844.98	16196
845.117	16029
845.253	15785
845.389	15759
845.525	15808
845.661	15892
845.798	15717
845.934	15842
846.07	15656
846.206	15838
846.342	15831
846.478	15743
846.614	15534
846.75	15405
846.886	15450
847.022	15568
847.158	15435
847.294	15443
847.429	15416
847.565	15393
847.701	15591
847.837	15161
847.972	15188
848.108	15264
848.244	15222
848.379	15089
848.515	14925
848.65	15039
848.786	14982
848.921	15077
849.057	15188
849.192	15180
849.328	15074
849.463	15203
849.598	15062
849.734	15043
849.869	14952
850.004	14838
850.14	14891
850.275	14762
850.41	14815
850.545	14674
850.68	14811
850.815	14716
850.95	14765
851.085	14956
851.22	14861
851.355	14861
851.49	14804
851.625	14724
851.76	14792
851.895	14682
852.03	14735
852.165	14788
852.299	14834
852.434	14944
852.569	14796
852.703	14750
852.838	14902
852.973	14914
853.107	14921
853.242	14765
853.376	14708
853.511	14518
853.645	14632
853.78	14739
853.914	14674
854.048	14632
854.183	14598
854.317	14636
854.451	14807
854.585	14621
854.72	14701
854.854	14613
854.988	14610
855.122	14667
855.256	14579
855.39	14667
855.524	14720
855.658	14667
855.792	14743
855.926	14697
856.06	14636
856.194	14765
856.327	14629
856.461	14625
856.595	14587
856.729	14602
856.862	14750
856.996	14686
857.13	14765
857.263	14796
857.397	14792
857.53	14644
857.664	14720
857.797	14807
857.931	14750
858.064	14743
858.197	14838
858.331	14568
858.464	14640
858.597	14625
858.731	14606
858.864	14613
858.997	14651
859.13	14579
859.263	14735
859.396	14724
859.529	14636
859.662	14663
859.795	14587
859.928	14804
860.061	14674
860.194	14819
860.327	14796
860.46	14541
860.592	14781
860.725	14788
860.858	14804
860.99	14667
861.123	14533
861.256	14511
861.388	14663
861.521	15336
861.653	14427
861.786	14495
861.918	14549
862.05	14552
862.183	14617
862.315	14598
862.447	14735
862.58	14571
862.712	14423
862.844	14404
862.976	14545
863.108	14324
863.24	14910
863.372	14419
863.504	14442
863.636	14514
863.768	14450
863.9	14442
864.032	14362
864.164	14301
864.296	14434
864.428	14564
864.559	14549
864.691	14465
864.823	14549
864.954	14507
865.086	14404
865.217	14332
865.349	14412
865.48	14400
865.612	14454
865.743	14503
865.875	14457
866.006	14332
866.137	14427
866.269	14339
866.4	14442
866.531	14366
866.662	14286
866.793	14404
866.924	14298
867.055	14484
867.186	14377
867.317	14442
867.448	14229
867.579	14351
867.71	14377
867.841	14259
867.972	14404
868.103	14393
868.233	14366
868.364	14301
868.495	14522
868.625	14678
868.756	14735
868.886	14541
869.017	14667
869.147	14689
869.278	14697
869.408	14720
869.539	14735
869.669	14769
869.799	14613
869.929	14746
870.06	14754
870.19	14921
870.32	14952
870.45	15047
870.58	15100
870.71	15222
870.84	15180
870.97	14967
871.1	15085
871.23	15283
871.36	15249
871.489	15146
871.619	15142
871.749	15195
871.879	15294
872.008	15435
872.138	15241
872.267	15294
872.397	15081
872.526	15119
872.656	15005
872.785	15062
872.915	15363
873.044	15431
873.173	15325
873.303	15302
873.432	15359
873.561	15321
873.69	15291
873.819	15249
873.948	15424
874.077	15306
874.206	15321
874.335	15382
874.464	15481
874.593	15679
874.722	15542
874.851	15644
874.979	15652
875.108	15572
875.237	15534
875.365	15515
875.494	15622
875.623	15759
875.751	15641
875.88	15690
876.008	15766
876.136	15724
876.265	15991
876.393	16238
876.521	16059
876.65	16158
876.778	15975
876.906	15968
877.034	15994
877.162	16029
877.29	15922
877.418	16025
877.546	15945
877.674	16101
877.802	16048
877.93	16048
878.058	15998
878.185	15846
878.313	16013
878.441	16048
878.568	15831
878.696	16006
878.824	16048
878.951	16097
879.079	16169
879.206	16375
879.333	16246
879.461	16124
879.588	16200
879.715	16352
879.842	16398
879.97	16128
880.097	15972
880.224	15884
880.351	15930
880.478	15934
880.605	15865
880.732	15800
880.859	16101
880.986	15911
881.112	15869
881.239	15846
881.366	15701
881.493	15606
881.619	15515
881.746	15515
881.872	15564
881.999	15496
882.125	15595
882.252	15564
882.378	15606
882.505	15686
882.631	15443
882.757	15359
882.883	15370
883.01	15408
883.136	15294
883.262	15283
883.388	15157
883.514	15355
883.64	15420
883.766	15355
883.892	15161
884.018	15252
884.143	15264
884.269	15466
884.395	15081
884.52	15062
884.646	15058
884.772	14979
884.897	14960
885.023	15104
885.148	15252
885.274	15188
885.399	15195
885.524	15051
885.65	15005
885.775	15005
885.9	15077
886.025	15184
886.15	15112
886.275	14971
886.4	14876
886.525	15036
886.65	14986
886.775	14975
886.9	15165
887.025	15325
887.149	15123
887.274	14906
887.399	14918
887.523	14823
887.648	14788
887.773	14716
887.897	14990
888.021	14986
888.146	14891
888.27	14960
888.395	15001
888.519	14960
888.643	14929
888.767	14967
888.891	14853
889.015	14804
889.139	14807
889.263	14667
889.387	14861
889.511	14963
889.635	14876
889.759	14705
889.883	14724
890.006	14750
890.13	14975
890.254	14651
890.377	14571
890.501	14564
890.624	14518
890.748	14571
890.871	14438
890.995	14393
891.118	14240
891.241	14252
891.364	14400
891.488	14549
891.611	14450
891.734	14469
891.857	14473
891.98	14434
892.103	14480
892.226	14488
892.349	14450
892.471	14282
892.594	14339
892.717	14480
892.839	14450
892.962	14328
893.085	14492
893.207	14374
893.33	14282
893.452	14385
893.575	14480
893.697	14446
893.819	14533
893.941	14632
894.064	14560
894.186	14408
894.308	14309
894.43	14518
894.552	14617
894.674	14564
894.796	14450
894.918	14454
895.04	14446
895.161	14495
895.283	14564
895.405	14381
895.526	14533
895.648	14446
895.769	14473
895.891	14625
896.012	14613
896.134	14613
896.255	14545
896.376	14598
896.498	14522
896.619	14587
896.74	14613
896.861	14670
896.982	14925
897.103	15062
897.224	14864
897.345	14796
897.466	14796
897.587	14788
897.708	15043
897.828	14880
897.949	14758
898.07	14731
898.19	14823
898.311	15036
898.431	14788
898.552	14902
898.672	15055
898.792	15039
898.913	14998
899.033	14807
899.153	14739
899.273	14724
899.393	14693
899.513	14929
899.633	14712
899.753	14781
899.873	14777
899.993	14941
900.113	14811
900.232	14781
900.352	14777
900.472	14655
900.591	14625
900.711	14655
900.83	14594
900.95	14701
901.069	14758
901.189	14530
901.308	14408
901.427	14355
901.546	14244
901.665	14290
901.784	14305
901.904	14191
902.023	14111
902.141	13906
902.26	13921
902.379	13955
902.498	13822
902.617	13826
902.735	13928
902.854	13864
902.973	13803
903.091	13651
903.21	13544
903.328	13506
903.446	13548
903.565	13411
903.683	13362
903.801	13320
903.919	13396
904.038	13388
904.156	13194
904.274	13270
904.392	13289
904.51	13187
904.627	13225
904.745	13274
904.863	13168
904.981	13004
905.098	12920
905.216	12913
905.334	12916
905.451	12939
905.569	12951
905.686	12985
905.803	12954
905.921	12715
906.038	12890
906.155	12764
906.272	12570
906.389	12665
906.506	12559
906.623	12460
906.74	12452
906.857	12346
906.974	12525
907.091	12585
907.208	12665
907.324	12593
907.441	12369
907.557	12281
907.674	12239
907.79	12228
907.907	12258
908.023	12251
908.139	12258
908.256	12262
908.372	12125
908.488	12129
908.604	12117
908.72	12072
908.836	12057
908.952	11927
909.068	12011
909.184	12057
909.3	12095
909.415	12098
909.531	12114
909.647	11756
909.762	11699
909.878	11847
909.993	11859
910.108	11726
910.224	11790
910.339	11809
910.454	11619
910.57	11608
910.685	11589
910.8	11870
910.915	11668
911.03	11699
911.145	11509
911.259	11482
911.374	11482
911.489	11376
911.604	11364
911.718	11273
911.833	11250
911.947	11201
912.062	11128
912.176	11212
912.291	11231
912.405	11212
912.519	11410
912.633	11455
912.748	11239
912.862	11246
912.976	11045
913.09	11006
913.204	10980
913.318	11071
913.431	11201
913.545	11193
913.659	11239
913.772	11136
913.886	11014
914	10938
914.113	11025
914.226	11105
914.34	11086
914.453	10850
914.566	11060
914.68	10995
914.793	10900
914.906	10854
915.019	10740
915.132	10599
915.245	10752
915.358	10771
915.47	10714
915.583	10744
915.696	10828
915.809	10790
915.921	10877
916.034	10812
916.146	10649
916.259	10664
916.371	10767
916.483	10702
916.595	10714
916.708	10679
916.82	10710
916.932	10565
917.044	10626
917.156	10538
917.268	10500
917.38	10512
917.491	10538
917.603	10478
917.715	10599
917.826	10687
917.938	10542
918.049	10333
918.161	10561
918.272	10656
918.384	10660
918.495	10607
918.606	10379
918.717	10337
918.828	10432
918.939	10462
919.05	10329
919.161	10341
919.272	10200
919.383	10280
919.494	10500
919.604	10599
919.715	10462
919.826	10348
919.936	10386
920.047	10504
920.157	10497
920.267	10577
920.378	10462
920.488	10440
920.598	10618
920.708	10782
920.818	10626
920.928	10691
921.038	10744
921.148	10786
921.258	10421
921.368	10382
921.477	10268
921.587	10223
921.697	10227
921.806	10333
921.916	10181
922.025	9975
922.134	10002
922.244	9975
922.353	9991
922.462	9846
922.571	9838
922.68	9648
922.789	9667
922.898	9740
923.007	9557
923.116	9709
923.224	9663
923.333	9679
923.442	9652
923.55	9644
923.659	9591
923.767	9686
923.876	9580
923.984	9656
924.092	9481
924.201	9526
924.309	9584
924.417	9542
924.525	9473
924.633	9572
924.741	10253
924.849	9332
924.956	9477
925.064	9378
925.172	9329
925.279	9272
925.387	9428
925.494	9359
925.602	9458
925.709	9462
925.816	9348
925.924	9378
926.031	9435
926.138	9412
926.245	9405
926.352	9245
926.459	9412
926.566	9447
926.673	9351
926.779	9195
926.886	9233
926.993	9074
927.099	9085
927.206	9055
927.312	9024
927.419	9058
927.525	9081
927.631	9150
927.737	8967
927.843	8975
927.95	8918
928.056	9024
928.162	8975
928.267	9017
928.373	9557
928.479	9051
928.585	8800
928.69	8986
928.796	9005
928.901	8883
929.007	8792
929.112	8952
929.218	8830
929.323	8845
929.428	8727
929.533	8811
929.638	8708
929.743	8769
929.848	8781
929.953	8758
930.058	8659
930.163	8522
930.267	8537
930.372	8708
930.477	8484
930.581	8716
930.685	8648
930.79	8450
930.894	8488
930.998	8488
931.103	8598
931.207	8259
931.311	8202
931.415	8100
931.519	8027
931.623	7932
