Data from test_V78500241_3249.txt Node
Date: Fri Mar 25 14:56:20 CST 2022
User: usil
Spectrometer: V785-0024
Trigger mode: 0
Integration Time (sec): 4.000000E-1
Scans to average: 1
Nonlinearity correction enabled: false
Boxcar width: 0
Storing dark spectrum: false
XAxis mode: Wavelengths
Number of Pixels in Spectrum: 1024
>>>>>Begin Spectral Data<<<<<
801.071	22025
801.214	21968
801.356	21633
801.499	21500
801.641	21416
801.783	21355
801.926	21294
802.068	21321
802.211	21268
802.353	21150
802.496	20868
802.638	20944
802.78	20872
802.923	20686
803.065	20583
803.208	20686
803.35	20705
803.492	20777
803.635	20819
803.777	20724
803.919	20678
804.061	21058
804.204	20705
804.346	20655
804.488	20537
804.63	20537
804.773	20564
804.915	20590
805.057	20735
805.199	20469
805.341	20609
805.483	20796
805.626	20750
805.768	20473
805.91	20686
806.052	20590
806.194	20613
806.336	20644
806.478	20632
806.62	20564
806.762	20606
806.904	20746
807.046	20990
807.188	20853
807.33	20883
807.472	20857
807.614	20845
807.756	20861
807.898	20823
808.04	20724
808.182	20632
808.324	20655
808.465	20609
808.607	20811
808.749	20918
808.891	21146
809.033	21146
809.174	21024
809.316	20944
809.458	20853
809.6	20891
809.741	20948
809.883	21055
810.025	21100
810.166	21100
810.308	20986
810.45	20971
810.591	20857
810.733	20830
810.875	20739
811.016	20701
811.158	20716
811.299	20682
811.441	20861
811.582	20746
811.724	20651
811.865	20594
812.007	20708
812.148	20609
812.29	20731
812.431	20921
812.573	20979
812.714	21070
812.855	21192
812.997	21245
813.138	21481
813.279	21370
813.421	21203
813.562	21195
813.703	21032
813.845	20735
813.986	20587
814.127	20450
814.268	20210
814.41	20294
814.551	20130
814.692	20298
814.833	20240
814.974	20180
815.115	20225
815.256	20043
815.397	19997
815.539	20058
815.68	20043
815.821	20005
815.962	19849
816.103	19978
816.244	19879
816.385	19765
816.526	19795
816.666	19639
816.807	19388
816.948	19464
817.089	19582
817.23	19445
817.371	19255
817.512	19411
817.653	19358
817.793	19285
817.934	19362
818.075	19434
818.216	19381
818.356	19346
818.497	19194
818.638	19038
818.778	19164
818.919	18993
819.06	19152
819.2	19145
819.341	19228
819.481	19179
819.622	19400
819.762	19510
819.903	19601
820.043	19373
820.184	19396
820.324	19339
820.465	19343
820.605	19289
820.746	19301
820.886	19187
821.026	19324
821.167	19312
821.307	19343
821.447	19251
821.588	19164
821.728	19019
821.868	18913
822.008	18757
822.149	18760
822.289	18692
822.429	18369
822.569	18460
822.709	18479
822.849	18254
822.99	18243
823.13	18262
823.27	18178
823.41	18064
823.55	18045
823.69	18205
823.83	18106
823.97	18034
824.11	17836
824.25	17935
824.389	17802
824.529	17843
824.669	17756
824.809	17920
824.949	17897
825.089	17855
825.228	17893
825.368	17657
825.508	17684
825.648	17592
825.787	17691
825.927	17745
826.067	17600
826.206	17577
826.346	17684
826.485	17634
826.625	17596
826.765	17798
826.904	17714
827.044	17376
827.183	17360
827.323	17220
827.462	17440
827.601	17341
827.741	17334
827.88	17433
828.02	17235
828.159	17288
828.298	17341
828.437	17414
828.577	17216
828.716	17349
828.855	17341
828.994	17056
829.134	17162
829.273	17140
829.412	17086
829.551	17041
829.69	17029
829.829	17113
829.968	17311
830.107	17223
830.246	17174
830.385	17140
830.524	17014
830.663	16896
830.802	16850
830.941	16790
831.08	16725
831.219	16790
831.357	16816
831.496	16892
831.635	16649
831.774	16596
831.913	16664
832.051	16656
832.19	16588
832.329	16626
832.467	16497
832.606	16455
832.744	16432
832.883	16356
833.022	16318
833.16	16462
833.299	16478
833.437	16386
833.576	16516
833.714	16489
833.852	16535
833.991	16561
834.129	16504
834.267	16531
834.406	16504
834.544	16558
834.682	16504
834.821	16421
834.959	16580
835.097	16424
835.235	16523
835.373	16489
835.511	16440
835.65	16371
835.788	16261
835.926	16238
836.064	16086
836.202	16200
836.34	16409
836.478	16402
836.615	16356
836.753	16413
836.891	16348
837.029	16474
837.167	16352
837.305	16329
837.443	16249
837.58	16234
837.718	16329
837.856	16211
837.993	16207
838.131	16257
838.269	16097
838.406	16124
838.544	16128
838.681	15922
838.819	15983
838.956	15793
839.094	15854
839.231	15907
839.369	15926
839.506	16238
839.643	15945
839.781	15785
839.918	15743
840.055	15838
840.193	15797
840.33	15770
840.467	15694
840.604	15869
840.742	15968
840.879	15698
841.016	15679
841.153	15629
841.29	15869
841.427	15880
841.564	15892
841.701	15816
841.838	15778
841.975	15705
842.112	15739
842.249	15667
842.385	15545
842.522	15869
842.659	15545
842.796	15622
842.933	15629
843.069	15466
843.206	15576
843.343	15743
843.479	15515
843.616	15633
843.752	15412
843.889	15439
844.025	15564
844.162	15367
844.298	15545
844.435	15355
844.571	15291
844.708	15469
844.844	15519
844.98	15644
845.117	15454
845.253	15386
845.389	15287
845.525	15207
845.661	15264
845.798	15313
845.934	15184
846.07	15127
846.206	15188
846.342	15313
846.478	15100
846.614	14933
846.75	14918
846.886	14925
847.022	15055
847.158	14948
847.294	14902
847.429	15020
847.565	14933
847.701	15192
847.837	14724
847.972	14670
848.108	14792
848.244	14811
848.379	14583
848.515	14533
848.65	14469
848.786	14480
848.921	14533
849.057	14670
849.192	14613
849.328	14533
849.463	14594
849.598	14415
849.734	14408
849.869	14393
850.004	14381
850.14	14328
850.275	14328
850.41	14233
850.545	14366
850.68	14248
850.815	14298
850.95	14286
851.085	14507
851.22	14355
851.355	14389
851.49	14286
851.625	14309
851.76	14210
851.895	14218
852.03	14164
852.165	14237
852.299	14267
852.434	14404
852.569	14332
852.703	14336
852.838	14374
852.973	14454
853.107	14450
853.242	14355
853.376	14180
853.511	14130
853.645	14206
853.78	14294
853.914	14214
854.048	14164
854.183	14183
854.317	14244
854.451	14358
854.585	14191
854.72	14221
854.854	14290
854.988	14119
855.122	14092
855.256	14050
855.39	14187
855.524	14271
855.658	14290
855.792	14229
855.926	14218
856.06	14187
856.194	14404
856.327	14168
856.461	14092
856.595	14195
856.729	14176
856.862	14324
856.996	14202
857.13	14282
857.263	14362
857.397	14351
857.53	14092
857.664	14267
857.797	14301
857.931	14237
858.064	14164
858.197	14248
858.331	14134
858.464	14214
858.597	14024
858.731	14183
858.864	14149
858.997	14225
859.13	14237
859.263	14157
859.396	14278
859.529	14119
859.662	14119
859.795	14168
859.928	14244
860.061	14309
860.194	14301
860.327	14267
860.46	14088
860.592	14263
860.725	14362
860.858	14225
860.99	14180
861.123	14096
861.256	14153
861.388	14195
861.521	14982
861.653	14123
861.786	13963
861.918	14035
862.05	14092
862.183	14145
862.315	14138
862.447	14111
862.58	14077
862.712	13860
862.844	13913
862.976	14035
863.108	13989
863.24	14328
863.372	13822
863.504	13940
863.636	13982
863.768	14043
863.9	13959
864.032	13909
864.164	13883
864.296	14012
864.428	14077
864.559	14031
864.691	14012
864.823	14001
864.954	14027
865.086	14005
865.217	13841
865.349	13883
865.48	13928
865.612	13898
865.743	14058
865.875	13963
866.006	13883
866.137	13974
866.269	13993
866.4	13970
866.531	13887
866.662	13947
866.793	13845
866.924	13947
867.055	13963
867.186	14001
867.317	13894
867.448	13807
867.579	13830
867.71	13883
867.841	13852
867.972	13993
868.103	13951
868.233	13989
868.364	14035
868.495	13974
868.625	14111
868.756	14298
868.886	14126
869.017	14176
869.147	14275
869.278	14377
869.408	14199
869.539	14107
869.669	14244
869.799	14172
869.929	14393
870.06	14244
870.19	14541
870.32	14492
870.45	14514
870.58	14613
870.71	14743
870.84	14686
870.97	14549
871.1	14587
871.23	14815
871.36	14765
871.489	14640
871.619	14796
871.749	14758
871.879	14811
872.008	15017
872.138	14754
872.267	14758
872.397	14667
872.526	14613
872.656	14621
872.785	14621
872.915	14762
873.044	14849
873.173	14804
873.303	14872
873.432	14990
873.561	14960
873.69	14910
873.819	14735
873.948	14906
874.077	14849
874.206	14811
874.335	14826
874.464	15070
874.593	15146
874.722	15047
874.851	15173
874.979	15241
875.108	15256
875.237	15093
875.365	15127
875.494	15157
875.623	15077
875.751	15150
875.88	15256
876.008	15313
876.136	15401
876.265	15568
876.393	15743
876.521	15743
876.65	15595
876.778	15656
876.906	15492
877.034	15405
877.162	15542
877.29	15511
877.418	15523
877.546	15595
877.674	15496
877.802	15641
877.93	15610
878.058	15591
878.185	15469
878.313	15564
878.441	15587
878.568	15526
878.696	15519
878.824	15793
878.951	15625
879.079	15793
879.206	15888
879.333	15709
879.461	15504
879.588	15679
879.715	15781
879.842	15842
879.97	15648
880.097	15424
880.224	15397
880.351	15519
880.478	15378
880.605	15439
880.732	15344
880.859	15656
880.986	15466
881.112	15553
881.239	15317
881.366	15317
881.493	15135
881.619	15097
881.746	15169
881.872	15165
881.999	15112
882.125	15058
882.252	15062
882.378	15097
882.505	15252
882.631	15100
882.757	14979
882.883	14963
883.01	14849
883.136	14762
883.262	14834
883.388	14708
883.514	14906
883.64	14982
883.766	14838
883.892	14720
884.018	14701
884.143	14914
884.269	15001
884.395	14667
884.52	14610
884.646	14682
884.772	14549
884.897	14533
885.023	14613
885.148	14769
885.274	14686
885.399	14708
885.524	14663
885.65	14640
885.775	14625
885.9	14575
886.025	14667
886.15	14712
886.275	14606
886.4	14552
886.525	14552
886.65	14549
886.775	14655
886.9	14686
887.025	14796
887.149	14583
887.274	14499
887.399	14442
887.523	14465
887.648	14400
887.773	14381
887.897	14503
888.021	14465
888.146	14374
888.27	14552
888.395	14598
888.519	14495
888.643	14423
888.767	14442
888.891	14324
889.015	14381
889.139	14393
889.263	14237
889.387	14419
889.511	14473
889.635	14427
889.759	14259
889.883	14252
890.006	14271
890.13	14503
890.254	14370
890.377	14248
890.501	14088
890.624	14092
890.748	14115
890.871	14065
890.995	14001
891.118	13898
891.241	13967
891.364	13944
891.488	14214
891.611	14008
891.734	13970
891.857	14073
891.98	14100
892.103	14119
892.226	14062
892.349	14008
892.471	13906
892.594	13974
892.717	14039
892.839	13921
892.962	13997
893.085	13989
893.207	13993
893.33	13871
893.452	13955
893.575	14088
893.697	13951
893.819	14206
893.941	14263
894.064	14103
894.186	13963
894.308	13913
894.43	14183
894.552	14218
894.674	14134
894.796	14016
894.918	14027
895.04	14065
895.161	14244
895.283	14092
895.405	13989
895.526	14187
895.648	14103
895.769	14138
895.891	14138
896.012	14161
896.134	14252
896.255	14172
896.376	14145
896.498	14161
896.619	14317
896.74	14233
896.861	14221
896.982	14492
897.103	14750
897.224	14484
897.345	14377
897.466	14427
897.587	14381
897.708	14583
897.828	14530
897.949	14473
898.07	14313
898.19	14400
898.311	14640
898.431	14347
898.552	14549
898.672	14644
898.792	14640
898.913	14575
899.033	14450
899.153	14377
899.273	14408
899.393	14351
899.513	14503
899.633	14381
899.753	14484
899.873	14309
899.993	14396
900.113	14434
900.232	14377
900.352	14339
900.472	14278
900.591	14206
900.711	14233
900.83	14199
900.95	14309
901.069	14240
901.189	14218
901.308	13913
901.427	13887
901.546	14035
901.665	13841
901.784	13928
901.904	13856
902.023	13704
902.141	13594
902.26	13476
902.379	13616
902.498	13495
902.617	13502
902.735	13594
902.854	13464
902.973	13426
903.091	13221
903.21	13236
903.328	13179
903.446	13046
903.565	13050
903.683	13053
903.801	12985
903.919	12989
904.038	13103
904.156	12954
904.274	12958
904.392	12829
904.51	12867
904.627	12840
904.745	12932
904.863	12954
904.981	12662
905.098	12597
905.216	12570
905.334	12623
905.451	12650
905.569	12547
905.686	12631
905.803	12566
905.921	12319
906.038	12464
906.155	12418
906.272	12365
906.389	12311
906.506	12171
906.623	12209
906.74	12155
906.857	12106
906.974	12072
907.091	12171
907.208	12258
907.324	12205
907.441	12038
907.557	11999
907.674	11920
907.79	11855
907.907	11923
908.023	11870
908.139	11912
908.256	11878
908.372	11840
908.488	11805
908.604	11684
908.72	11707
908.836	11733
908.952	11657
909.068	11668
909.184	11809
909.3	11676
909.415	11691
909.531	11718
909.647	11478
909.762	11524
909.878	11376
909.993	11429
910.108	11436
910.224	11368
910.339	11444
910.454	11292
910.57	11277
910.685	11178
910.8	11524
910.915	11417
911.03	11315
911.145	11143
911.259	11147
911.374	11166
911.489	11094
911.604	11029
911.718	10892
911.833	10904
911.947	10812
912.062	10820
912.176	10908
912.291	10946
912.405	10877
912.519	11098
912.633	11090
912.748	10908
912.862	10885
912.976	10782
913.09	10668
913.204	10767
913.318	10763
913.431	10881
913.545	10869
913.659	10911
913.772	10774
913.886	10691
914	10626
914.113	10809
914.226	10778
914.34	10717
914.453	10683
914.566	10698
914.68	10611
914.793	10729
914.906	10470
915.019	10375
915.132	10371
915.245	10318
915.358	10363
915.47	10508
915.583	10428
915.696	10443
915.809	10615
915.921	10516
916.034	10421
916.146	10402
916.259	10333
916.371	10466
916.483	10379
916.595	10356
916.708	10367
916.82	10367
916.932	10310
917.044	10280
917.156	10295
917.268	10227
917.38	10272
917.491	10227
917.603	10242
917.715	10356
917.826	10363
917.938	10223
918.049	10158
918.161	10253
918.272	10405
918.384	10375
918.495	10215
918.606	10150
918.717	10139
918.828	10082
918.939	10097
919.05	10013
919.161	10093
919.272	9941
919.383	10032
919.494	10200
919.604	10306
919.715	10177
919.826	10086
919.936	10131
920.047	10230
920.157	10143
920.267	10405
920.378	10253
920.488	10067
920.598	10287
920.708	10523
920.818	10360
920.928	10329
921.038	10550
921.148	10466
921.258	10200
921.368	10067
921.477	10036
921.587	9987
921.697	9865
921.806	10086
921.916	9911
922.025	9740
922.134	9679
922.244	9652
922.353	9698
922.462	9652
922.571	9538
922.68	9401
922.789	9462
922.898	9443
923.007	9340
923.116	9519
923.224	9405
923.333	9355
923.442	9336
923.55	9291
923.659	9298
923.767	9332
923.876	9260
923.984	9355
924.092	9199
924.201	9230
924.309	9340
924.417	9222
924.525	9195
924.633	9218
924.741	10169
924.849	9062
924.956	9195
925.064	9066
925.172	8967
925.279	9047
925.387	9135
925.494	9077
925.602	9192
925.709	9100
925.816	8937
925.924	9058
926.031	9184
926.138	9089
926.245	9097
926.352	8994
926.459	9123
926.566	9180
926.673	9047
926.779	8971
926.886	8918
926.993	8777
927.099	8834
927.206	8720
927.312	8724
927.419	8754
927.525	8819
927.631	8826
927.737	8686
927.843	8689
927.95	8625
928.056	8640
928.162	8674
928.267	8731
928.373	9302
928.479	8781
928.585	8488
928.69	8617
928.796	8769
928.901	8511
929.007	8404
929.112	8621
929.218	8549
929.323	8507
929.428	8526
929.533	8556
929.638	8385
929.743	8503
929.848	8518
929.953	8465
930.058	8446
930.163	8309
930.267	8290
930.372	8381
930.477	8237
930.581	8480
930.685	8336
930.79	8180
930.894	8168
930.998	8161
931.103	8309
931.207	7989
931.311	7993
931.415	7890
931.519	7769
931.623	7700
