Data from test_V78500241_2805.txt Node
Date: Fri Mar 25 14:53:14 CST 2022
User: usil
Spectrometer: V785-0024
Trigger mode: 0
Integration Time (sec): 4.000000E-1
Scans to average: 1
Nonlinearity correction enabled: false
Boxcar width: 0
Storing dark spectrum: false
XAxis mode: Wavelengths
Number of Pixels in Spectrum: 1024
>>>>>Begin Spectral Data<<<<<
801.071	22109
801.214	21880
801.356	21637
801.499	21595
801.641	21428
801.783	21473
801.926	21393
802.068	21428
802.211	21211
802.353	21173
802.496	21013
802.638	20960
802.78	20708
802.923	20651
803.065	20792
803.208	20701
803.35	20693
803.492	20902
803.635	20842
803.777	20701
803.919	20872
804.061	20990
804.204	20785
804.346	20644
804.488	20689
804.63	20731
804.773	20606
804.915	20720
805.057	20632
805.199	20609
805.341	20693
805.483	20777
805.626	20678
805.768	20598
805.91	20587
806.052	20670
806.194	20590
806.336	20830
806.478	20499
806.62	20556
806.762	20777
806.904	20777
807.046	20982
807.188	20872
807.33	20876
807.472	21093
807.614	21009
807.756	20883
807.898	20845
808.04	20609
808.182	20765
808.324	20754
808.465	20872
808.607	20937
808.749	20994
808.891	21154
809.033	21317
809.174	21157
809.316	21055
809.458	20963
809.6	21062
809.741	21085
809.883	21032
810.025	21150
810.166	21135
810.308	21142
810.45	21135
810.591	21020
810.733	20868
810.875	20796
811.016	20663
811.158	20556
811.299	20754
811.441	20853
811.582	20895
811.724	20693
811.865	20777
812.007	20743
812.148	20705
812.29	20754
812.431	20937
812.573	21039
812.714	21192
812.855	21169
812.997	21306
813.138	21450
813.279	21370
813.421	21336
813.562	21275
813.703	20887
813.845	20948
813.986	20716
814.127	20492
814.268	20507
814.41	20355
814.551	20457
814.692	20355
814.833	20191
814.974	20218
815.115	20282
815.256	20119
815.397	20077
815.539	20142
815.68	20065
815.821	20031
815.962	20046
816.103	20084
816.244	19970
816.385	19750
816.526	19753
816.666	19662
816.807	19609
816.948	19620
817.089	19658
817.23	19575
817.371	19460
817.512	19388
817.653	19457
817.793	19548
817.934	19377
818.075	19491
818.216	19502
818.356	19365
818.497	19304
818.638	19137
818.778	19202
818.919	19168
819.06	19156
819.2	19236
819.341	19266
819.481	19327
819.622	19567
819.762	19738
819.903	19586
820.043	19502
820.184	19483
820.324	19472
820.465	19521
820.605	19278
820.746	19358
820.886	19282
821.026	19354
821.167	19415
821.307	19480
821.447	19327
821.588	19251
821.728	19095
821.868	18996
822.008	18825
822.149	18920
822.289	18814
822.429	18627
822.569	18566
822.709	18604
822.849	18270
822.99	18395
823.13	18391
823.27	18171
823.41	18266
823.55	18015
823.69	18053
823.83	18140
823.97	18030
824.11	17927
824.25	17977
824.389	18072
824.529	17931
824.669	17920
824.809	17973
824.949	17843
825.089	17996
825.228	17901
825.368	17729
825.508	17684
825.648	17680
825.787	17737
825.927	17760
826.067	17707
826.206	17657
826.346	17813
826.485	17630
826.625	17691
826.765	17851
826.904	17737
827.044	17402
827.183	17524
827.323	17414
827.462	17497
827.601	17486
827.741	17330
827.88	17318
828.02	17288
828.159	17368
828.298	17345
828.437	17490
828.577	17376
828.716	17448
828.855	17315
828.994	17064
829.134	17014
829.273	17140
829.412	17140
829.551	17162
829.69	17185
829.829	17239
829.968	17170
830.107	17212
830.246	17155
830.385	17090
830.524	17075
830.663	16869
830.802	16908
830.941	16771
831.08	16748
831.219	16755
831.357	16793
831.496	16991
831.635	16767
831.774	16752
831.913	16637
832.051	16558
832.19	16546
832.329	16577
832.467	16478
832.606	16405
832.744	16409
832.883	16451
833.022	16344
833.16	16542
833.299	16459
833.437	16443
833.576	16428
833.714	16493
833.852	16478
833.991	16478
834.129	16500
834.267	16641
834.406	16497
834.544	16519
834.682	16523
834.821	16459
834.959	16713
835.097	16390
835.235	16573
835.373	16565
835.511	16508
835.65	16390
835.788	16462
835.926	16261
836.064	16234
836.202	16276
836.34	16344
836.478	16603
836.615	16409
836.753	16375
836.891	16527
837.029	16421
837.167	16363
837.305	16382
837.443	16337
837.58	16234
837.718	16360
837.856	16367
837.993	16303
838.131	16204
838.269	16204
838.406	16268
838.544	16078
838.681	16032
838.819	16010
838.956	15899
839.094	15846
839.231	15873
839.369	16051
839.506	16257
839.643	16101
839.781	15838
839.918	15793
840.055	15770
840.193	15781
840.33	15793
840.467	15876
840.604	15922
840.742	16021
840.879	15766
841.016	15800
841.153	15720
841.29	15960
841.427	15854
841.564	15846
841.701	15819
841.838	15800
841.975	15747
842.112	15797
842.249	15648
842.385	15549
842.522	15800
842.659	15656
842.796	15599
842.933	15622
843.069	15622
843.206	15553
843.343	15724
843.479	15622
843.616	15690
843.752	15336
843.889	15408
844.025	15580
844.162	15401
844.298	15534
844.435	15359
844.571	15344
844.708	15454
844.844	15526
844.98	15515
845.117	15458
845.253	15275
845.389	15287
845.525	15355
845.661	15252
845.798	15252
845.934	15382
846.07	15127
846.206	15241
846.342	15310
846.478	15131
846.614	14876
846.75	14925
846.886	14914
847.022	15081
847.158	14982
847.294	14941
847.429	15058
847.565	14956
847.701	15203
847.837	14739
847.972	14697
848.108	14876
848.244	14800
848.379	14724
848.515	14533
848.65	14651
848.786	14575
848.921	14667
849.057	14663
849.192	14606
849.328	14598
849.463	14636
849.598	14613
849.734	14469
849.869	14465
850.004	14221
850.14	14389
850.275	14389
850.41	14298
850.545	14370
850.68	14328
850.815	14415
850.95	14256
851.085	14590
851.22	14396
851.355	14347
851.49	14298
851.625	14309
851.76	14328
851.895	14149
852.03	14176
852.165	14290
852.299	14465
852.434	14404
852.569	14370
852.703	14324
852.838	14457
852.973	14438
853.107	14560
853.242	14309
853.376	14221
853.511	14130
853.645	14214
853.78	14385
853.914	14157
854.048	14221
854.183	14229
854.317	14164
854.451	14412
854.585	14149
854.72	14180
854.854	14244
854.988	14134
855.122	14187
855.256	14092
855.39	14191
855.524	14320
855.658	14237
855.792	14267
855.926	14172
856.06	14259
856.194	14339
856.327	14271
856.461	14103
856.595	14172
856.729	14180
856.862	14324
856.996	14218
857.13	14252
857.263	14328
857.397	14351
857.53	14153
857.664	14332
857.797	14343
857.931	14278
858.064	14256
858.197	14332
858.331	14183
858.464	14191
858.597	14103
858.731	14214
858.864	14206
858.997	14180
859.13	14225
859.263	14191
859.396	14275
859.529	14142
859.662	14259
859.795	14210
859.928	14229
860.061	14343
860.194	14415
860.327	14180
860.46	14256
860.592	14427
860.725	14408
860.858	14400
860.99	14157
861.123	14168
861.256	14142
861.388	14180
861.521	14819
861.653	14069
861.786	14058
861.918	14123
862.05	14180
862.183	14077
862.315	14145
862.447	14237
862.58	14130
862.712	13974
862.844	13947
862.976	14027
863.108	14043
863.24	14396
863.372	13982
863.504	13902
863.636	13947
863.768	14077
863.9	14043
864.032	13890
864.164	13986
864.296	13955
864.428	14138
864.559	14126
864.691	14043
864.823	14164
864.954	13982
865.086	13951
865.217	13947
865.349	13989
865.48	13978
865.612	14073
865.743	14145
865.875	13845
866.006	13955
866.137	14027
866.269	13947
866.4	13963
866.531	13959
866.662	13906
866.793	13894
866.924	13963
867.055	13986
867.186	13978
867.317	13970
867.448	13925
867.579	13986
867.71	13784
867.841	13894
867.972	13940
868.103	14012
868.233	13944
868.364	13951
868.495	14088
868.625	14195
868.756	14343
868.886	14115
869.017	14278
869.147	14305
869.278	14442
869.408	14176
869.539	14221
869.669	14332
869.799	14286
869.929	14347
870.06	14301
870.19	14503
870.32	14590
870.45	14503
870.58	14640
870.71	14758
870.84	14834
870.97	14636
871.1	14590
871.23	14819
871.36	14834
871.489	14651
871.619	14743
871.749	14849
871.879	14937
872.008	14975
872.138	14914
872.267	14807
872.397	14686
872.526	14670
872.656	14632
872.785	14632
872.915	14857
873.044	14925
873.173	14902
873.303	14880
873.432	14910
873.561	14876
873.69	14891
873.819	14868
873.948	14963
874.077	14937
874.206	14880
874.335	14845
874.464	14979
874.593	15089
874.722	15097
874.851	15199
874.979	15302
875.108	15237
875.237	15199
875.365	15146
875.494	15199
875.623	15283
875.751	15218
875.88	15378
876.008	15416
876.136	15428
876.265	15572
876.393	15861
876.521	15751
876.65	15648
876.778	15568
876.906	15625
877.034	15564
877.162	15610
877.29	15523
877.418	15637
877.546	15610
877.674	15629
877.802	15641
877.93	15584
878.058	15542
878.185	15515
878.313	15614
878.441	15656
878.568	15405
878.696	15431
878.824	15568
878.951	15770
879.079	15663
879.206	15888
879.333	15755
879.461	15701
879.588	15720
879.715	15747
879.842	15926
879.97	15713
880.097	15443
880.224	15428
880.351	15428
880.478	15428
880.605	15408
880.732	15450
880.859	15720
880.986	15351
881.112	15500
881.239	15294
881.366	15287
881.493	15165
881.619	15100
881.746	15127
881.872	15097
881.999	15123
882.125	14975
882.252	15169
882.378	15214
882.505	15294
882.631	15093
882.757	14986
882.883	14967
883.01	14899
883.136	14838
883.262	14864
883.388	14807
883.514	15009
883.64	14979
883.766	14899
883.892	14792
884.018	14750
884.143	14937
884.269	15089
884.395	14739
884.52	14537
884.646	14629
884.772	14651
884.897	14480
885.023	14579
885.148	14739
885.274	14625
885.399	14750
885.524	14606
885.65	14686
885.775	14674
885.9	14617
886.025	14739
886.15	14689
886.275	14629
886.4	14457
886.525	14552
886.65	14568
886.775	14537
886.9	14880
887.025	14834
887.149	14644
887.274	14480
887.399	14434
887.523	14385
887.648	14393
887.773	14370
887.897	14473
888.021	14549
888.146	14396
888.27	14503
888.395	14579
888.519	14571
888.643	14579
888.767	14533
888.891	14393
889.015	14343
889.139	14419
889.263	14305
889.387	14431
889.511	14549
889.635	14324
889.759	14305
889.883	14347
890.006	14415
890.13	14423
890.254	14172
890.377	14313
890.501	14244
890.624	14073
890.748	14172
890.871	14088
890.995	13978
891.118	13978
891.241	13978
891.364	13982
891.488	14183
891.611	14130
891.734	14050
891.857	14149
891.98	14107
892.103	14008
892.226	14134
892.349	14020
892.471	13890
892.594	14016
892.717	14039
892.839	14130
892.962	14096
893.085	14069
893.207	14027
893.33	13849
893.452	13898
893.575	14073
893.697	14046
893.819	14183
893.941	14294
894.064	14153
894.186	14001
894.308	13932
894.43	14206
894.552	14210
894.674	14183
894.796	14012
894.918	14027
895.04	13974
895.161	14214
895.283	14233
895.405	14096
895.526	14092
895.648	14221
895.769	14210
895.891	14256
896.012	14145
896.134	14180
896.255	14176
896.376	14191
896.498	14301
896.619	14309
896.74	14263
896.861	14267
896.982	14583
897.103	14648
897.224	14651
897.345	14457
897.466	14434
897.587	14400
897.708	14632
897.828	14625
897.949	14473
898.07	14218
898.19	14396
898.311	14674
898.431	14514
898.552	14579
898.672	14670
898.792	14587
898.913	14625
899.033	14469
899.153	14385
899.273	14412
899.393	14442
899.513	14408
899.633	14400
899.753	14370
899.873	14404
899.993	14480
900.113	14412
900.232	14484
900.352	14370
900.472	14275
900.591	14195
900.711	14278
900.83	14199
900.95	14362
901.069	14457
901.189	14286
901.308	13978
901.427	13951
901.546	13944
901.665	13871
901.784	13894
901.904	13909
902.023	13753
902.141	13487
902.26	13487
902.379	13643
902.498	13563
902.617	13540
902.735	13594
902.854	13529
902.973	13476
903.091	13244
903.21	13240
903.328	13270
903.446	13198
903.565	13065
903.683	13141
903.801	13164
903.919	13126
904.038	13023
904.156	12947
904.274	12909
904.392	12913
904.51	12837
904.627	12882
904.745	12981
904.863	12966
904.981	12738
905.098	12555
905.216	12612
905.334	12578
905.451	12650
905.569	12532
905.686	12547
905.803	12635
905.921	12521
906.038	12551
906.155	12426
906.272	12384
906.389	12277
906.506	12220
906.623	12338
906.74	12159
906.857	12060
906.974	12049
907.091	12159
907.208	12346
907.324	12205
907.441	12095
907.557	12011
907.674	11958
907.79	11824
907.907	11942
908.023	12022
908.139	11916
908.256	11889
908.372	11859
908.488	11821
908.604	11703
908.72	11672
908.836	11741
908.952	11676
909.068	11824
909.184	11764
909.3	11653
909.415	11813
909.531	11691
909.647	11543
909.762	11474
909.878	11490
909.993	11520
910.108	11444
910.224	11452
910.339	11551
910.454	11398
910.57	11330
910.685	11223
910.8	11440
910.915	11497
911.03	11284
911.145	11185
911.259	11193
911.374	11235
911.489	11060
911.604	11041
911.718	10991
911.833	10968
911.947	10847
912.062	10748
912.176	10896
912.291	10911
912.405	10934
912.519	11075
912.633	11147
912.748	11022
912.862	11086
912.976	10839
913.09	10729
913.204	10786
913.318	10782
913.431	10858
913.545	10877
913.659	10949
913.772	10862
913.886	10805
914	10694
914.113	10835
914.226	10816
914.34	10801
914.453	10599
914.566	10771
914.68	10641
914.793	10618
914.906	10493
915.019	10394
915.132	10459
915.245	10424
915.358	10367
915.47	10478
915.583	10466
915.696	10485
915.809	10615
915.921	10565
916.034	10409
916.146	10424
916.259	10436
916.371	10485
916.483	10405
916.595	10390
916.708	10363
916.82	10436
916.932	10382
917.044	10352
917.156	10291
917.268	10246
917.38	10276
917.491	10287
917.603	10299
917.715	10417
917.826	10409
917.938	10234
918.049	10158
918.161	10329
918.272	10417
918.384	10413
918.495	10299
918.606	10196
918.717	10257
918.828	10158
918.939	10284
919.05	10097
919.161	10131
919.272	9918
919.383	10032
919.494	10299
919.604	10329
919.715	10246
919.826	10082
919.936	10074
920.047	10211
920.157	10169
920.267	10428
920.378	10242
920.488	10219
920.598	10394
920.708	10432
920.818	10466
920.928	10337
921.038	10531
921.148	10409
921.258	10253
921.368	10082
921.477	10025
921.587	10017
921.697	9861
921.806	10131
921.916	9915
922.025	9842
922.134	9724
922.244	9660
922.353	9728
922.462	9675
922.571	9603
922.68	9462
922.789	9401
922.898	9492
923.007	9393
923.116	9466
923.224	9389
923.333	9485
923.442	9287
923.55	9184
923.659	9359
923.767	9386
923.876	9241
923.984	9435
924.092	9313
924.201	9264
924.309	9272
924.417	9344
924.525	9233
924.633	9283
924.741	10017
924.849	9142
924.956	9222
925.064	9116
925.172	9039
925.279	8967
925.387	9077
925.494	9116
925.602	9253
925.709	9195
925.816	9013
925.924	9112
926.031	9192
926.138	9089
926.245	9112
926.352	8982
926.459	9180
926.566	9260
926.673	9062
926.779	8925
926.886	9001
926.993	8826
927.099	8697
927.206	8727
927.312	8777
927.419	8853
927.525	8823
927.631	8815
927.737	8766
927.843	8697
927.95	8602
928.056	8697
928.162	8689
928.267	8739
928.373	9253
928.479	8804
928.585	8495
928.69	8697
928.796	8781
928.901	8606
929.007	8507
929.112	8610
929.218	8689
929.323	8602
929.428	8499
929.533	8708
929.638	8412
929.743	8541
929.848	8545
929.953	8442
930.058	8408
930.163	8237
930.267	8309
930.372	8450
930.477	8256
930.581	8499
930.685	8415
930.79	8206
930.894	8225
930.998	8218
931.103	8400
931.207	8001
931.311	7944
931.415	7932
931.519	7780
931.623	7742
