Data from test_V78500241_3487.txt Node
Date: Fri Mar 25 14:57:59 CST 2022
User: usil
Spectrometer: V785-0024
Trigger mode: 0
Integration Time (sec): 4.000000E-1
Scans to average: 1
Nonlinearity correction enabled: false
Boxcar width: 0
Storing dark spectrum: false
XAxis mode: Wavelengths
Number of Pixels in Spectrum: 1024
>>>>>Begin Spectral Data<<<<<
801.071	21816
801.214	21911
801.356	21538
801.499	21389
801.641	21428
801.783	21264
801.926	21214
802.068	21169
802.211	21142
802.353	21119
802.496	20895
802.638	20731
802.78	20788
802.923	20667
803.065	20579
803.208	20503
803.35	20708
803.492	20792
803.635	20773
803.777	20613
803.919	20705
804.061	20952
804.204	20708
804.346	20545
804.488	20438
804.63	20507
804.773	20533
804.915	20552
805.057	20549
805.199	20575
805.341	20457
805.483	20571
805.626	20632
805.768	20492
805.91	20412
806.052	20575
806.194	20499
806.336	20670
806.478	20503
806.62	20454
806.762	20518
806.904	20701
807.046	20979
807.188	20689
807.33	20872
807.472	20868
807.614	20727
807.756	20785
807.898	20632
808.04	20537
808.182	20651
808.324	20659
808.465	20689
808.607	20781
808.749	20834
808.891	21013
809.033	20929
809.174	20883
809.316	20765
809.458	20830
809.6	20765
809.741	20971
809.883	21070
810.025	21077
810.166	21055
810.308	21009
810.45	20967
810.591	20883
810.733	20868
810.875	20613
811.016	20583
811.158	20575
811.299	20636
811.441	20754
811.582	20743
811.724	20632
811.865	20499
812.007	20617
812.148	20625
812.29	20655
812.431	20785
812.573	20883
812.714	21009
812.855	21176
812.997	21256
813.138	21378
813.279	21256
813.421	21077
813.562	20990
813.703	20925
813.845	20712
813.986	20476
814.127	20313
814.268	20183
814.41	20320
814.551	20259
814.692	20290
814.833	20077
814.974	20100
815.115	20199
815.256	19997
815.397	20054
815.539	20058
815.68	19982
815.821	19830
815.962	19925
816.103	19955
816.244	19784
816.385	19666
816.526	19548
816.666	19415
816.807	19320
816.948	19324
817.089	19499
817.23	19346
817.371	19362
817.512	19324
817.653	19263
817.793	19213
817.934	19285
818.075	19362
818.216	19354
818.356	19217
818.497	19088
818.638	18966
818.778	19023
818.919	18977
819.06	19015
819.2	19206
819.341	19194
819.481	19194
819.622	19312
819.762	19449
819.903	19411
820.043	19263
820.184	19278
820.324	19282
820.465	19384
820.605	19266
820.746	19247
820.886	19198
821.026	19278
821.167	19133
821.307	19358
821.447	19259
821.588	19137
821.728	19034
821.868	19053
822.008	18730
822.149	18692
822.289	18635
822.429	18494
822.569	18551
822.709	18460
822.849	18174
822.99	18197
823.13	18125
823.27	18190
823.41	18087
823.55	17980
823.69	18064
823.83	17939
823.97	17996
824.11	17802
824.25	17859
824.389	17798
824.529	17870
824.669	17828
824.809	17855
824.949	17722
825.089	17817
825.228	17790
825.368	17630
825.508	17467
825.648	17608
825.787	17512
825.927	17581
826.067	17474
826.206	17516
826.346	17589
826.485	17577
826.625	17589
826.765	17691
826.904	17535
827.044	17261
827.183	17345
827.323	17216
827.462	17299
827.601	17322
827.741	17277
827.88	17250
828.02	17098
828.159	17227
828.298	17277
828.437	17299
828.577	17307
828.716	17356
828.855	17212
828.994	17071
829.134	17041
829.273	16976
829.412	16961
829.551	16889
829.69	16984
829.829	16919
829.968	17086
830.107	17010
830.246	17029
830.385	16961
830.524	16896
830.663	16793
830.802	16786
830.941	16630
831.08	16481
831.219	16809
831.357	16736
831.496	16911
831.635	16588
831.774	16596
831.913	16615
832.051	16363
832.19	16386
832.329	16436
832.467	16356
832.606	16268
832.744	16272
832.883	16234
833.022	16322
833.16	16379
833.299	16371
833.437	16291
833.576	16409
833.714	16459
833.852	16356
833.991	16538
834.129	16443
834.267	16523
834.406	16470
834.544	16481
834.682	16470
834.821	16413
834.959	16569
835.097	16375
835.235	16481
835.373	16363
835.511	16428
835.65	16314
835.788	16306
835.926	16120
836.064	16078
836.202	16097
836.34	16371
836.478	16424
836.615	16310
836.753	16303
836.891	16451
837.029	16379
837.167	16287
837.305	16272
837.443	16226
837.58	16051
837.718	16215
837.856	16226
837.993	16071
838.131	16200
838.269	16135
838.406	16101
838.544	16093
838.681	15873
838.819	15835
838.956	15785
839.094	15785
839.231	15755
839.369	15899
839.506	16131
839.643	16071
839.781	15671
839.918	15656
840.055	15713
840.193	15789
840.33	15766
840.467	15663
840.604	15770
840.742	15964
840.879	15557
841.016	15660
841.153	15671
841.29	15774
841.427	15728
841.564	15770
841.701	15720
841.838	15713
841.975	15671
842.112	15644
842.249	15500
842.385	15458
842.522	15759
842.659	15511
842.796	15488
842.933	15488
843.069	15443
843.206	15511
843.343	15557
843.479	15519
843.616	15496
843.752	15348
843.889	15306
844.025	15568
844.162	15329
844.298	15443
844.435	15294
844.571	15291
844.708	15325
844.844	15458
844.98	15458
845.117	15481
845.253	15283
845.389	15176
845.525	15226
845.661	15188
845.798	15070
845.934	15135
846.07	15036
846.206	15195
846.342	15199
846.478	15009
846.614	14941
846.75	14918
846.886	14899
847.022	14963
847.158	15005
847.294	14891
847.429	14914
847.565	14838
847.701	15108
847.837	14636
847.972	14648
848.108	14872
848.244	14754
848.379	14568
848.515	14454
848.65	14412
848.786	14434
848.921	14514
849.057	14537
849.192	14465
849.328	14533
849.463	14480
849.598	14480
849.734	14438
849.869	14412
850.004	14298
850.14	14358
850.275	14320
850.41	14187
850.545	14275
850.68	14202
850.815	14240
850.95	14202
851.085	14400
851.22	14317
851.355	14218
851.49	14161
851.625	14183
851.76	14172
851.895	14103
852.03	14145
852.165	14221
852.299	14263
852.434	14343
852.569	14290
852.703	14324
852.838	14286
852.973	14362
853.107	14336
853.242	14195
853.376	14142
853.511	13982
853.645	14084
853.78	14218
853.914	14168
854.048	14096
854.183	14134
854.317	14161
854.451	14305
854.585	14119
854.72	14043
854.854	14176
854.988	14062
855.122	14149
855.256	13970
855.39	14096
855.524	14187
855.658	14214
855.792	14202
855.926	14199
856.06	14145
856.194	14164
856.327	14153
856.461	14081
856.595	14039
856.729	14096
856.862	14290
856.996	14168
857.13	14202
857.263	14187
857.397	14180
857.53	14187
857.664	14210
857.797	14126
857.931	14214
858.064	14248
858.197	14259
858.331	14153
858.464	14008
858.597	14092
858.731	14005
858.864	14115
858.997	14096
859.13	14142
859.263	14233
859.396	14240
859.529	14100
859.662	14138
859.795	14069
859.928	14123
860.061	14305
860.194	14278
860.327	14195
860.46	14214
860.592	14229
860.725	14294
860.858	14339
860.99	14153
861.123	14073
861.256	14039
861.388	14073
861.521	14746
861.653	13955
861.786	13890
861.918	13925
862.05	13982
862.183	14046
862.315	14062
862.447	14180
862.58	14092
862.712	13921
862.844	13909
862.976	14069
863.108	13974
863.24	14442
863.372	13818
863.504	13951
863.636	13917
863.768	14005
863.9	13849
864.032	13868
864.164	13860
864.296	13951
864.428	13997
864.559	13898
864.691	13898
864.823	13986
864.954	13974
865.086	13913
865.217	13856
865.349	13742
865.48	13906
865.612	13940
865.743	14054
865.875	13944
866.006	13791
866.137	13928
866.269	13807
866.4	13875
866.531	13830
866.662	13833
866.793	13757
866.924	13955
867.055	13940
867.186	13879
867.317	13883
867.448	13776
867.579	13795
867.71	13856
867.841	13833
867.972	13909
868.103	13928
868.233	13818
868.364	13940
868.495	13993
868.625	14050
868.756	14180
868.886	14145
869.017	14103
869.147	14187
869.278	14119
869.408	14161
869.539	14138
869.669	14126
869.799	14134
869.929	14267
870.06	14256
870.19	14419
870.32	14434
870.45	14613
870.58	14575
870.71	14727
870.84	14549
870.97	14552
871.1	14613
871.23	14758
871.36	14648
871.489	14575
871.619	14648
871.749	14697
871.879	14785
872.008	14933
872.138	14743
872.267	14678
872.397	14602
872.526	14587
872.656	14587
872.785	14594
872.915	14773
873.044	14834
873.173	14842
873.303	14811
873.432	14834
873.561	14899
873.69	14796
873.819	14731
873.948	14857
874.077	14804
874.206	14735
874.335	14842
874.464	14967
874.593	15058
874.722	15047
874.851	15024
874.979	15157
875.108	15169
875.237	15154
875.365	15036
875.494	15055
875.623	15119
875.751	15024
875.88	15146
876.008	15275
876.136	15321
876.265	15587
876.393	15690
876.521	15637
876.65	15618
876.778	15473
876.906	15511
877.034	15408
877.162	15439
877.29	15420
877.418	15564
877.546	15595
877.674	15412
877.802	15523
877.93	15477
878.058	15545
878.185	15447
878.313	15462
878.441	15587
878.568	15405
878.696	15507
878.824	15606
878.951	15599
879.079	15690
879.206	15766
879.333	15675
879.461	15572
879.588	15622
879.715	15682
879.842	15747
879.97	15610
880.097	15416
880.224	15279
880.351	15291
880.478	15389
880.605	15332
880.732	15348
880.859	15720
880.986	15435
881.112	15428
881.239	15306
881.366	15199
881.493	15146
881.619	15070
881.746	15093
881.872	15001
881.999	14960
882.125	15066
882.252	15104
882.378	15055
882.505	15165
882.631	14944
882.757	14845
882.883	14876
883.01	14834
883.136	14750
883.262	14731
883.388	14758
883.514	14864
883.64	14902
883.766	14830
883.892	14629
884.018	14773
884.143	14804
884.269	14906
884.395	14804
884.52	14590
884.646	14575
884.772	14522
884.897	14442
885.023	14583
885.148	14659
885.274	14807
885.399	14594
885.524	14560
885.65	14533
885.775	14583
885.9	14461
886.025	14701
886.15	14545
886.275	14602
886.4	14366
886.525	14495
886.65	14446
886.775	14457
886.9	14743
887.025	14804
887.149	14549
887.274	14419
887.399	14351
887.523	14370
887.648	14309
887.773	14286
887.897	14434
888.021	14564
888.146	14336
888.27	14469
888.395	14473
888.519	14442
888.643	14480
888.767	14560
888.891	14332
889.015	14233
889.139	14282
889.263	14252
889.387	14278
889.511	14495
889.635	14419
889.759	14259
889.883	14267
890.006	14358
890.13	14305
890.254	14164
890.377	14138
890.501	13951
890.624	14012
890.748	14138
890.871	13982
890.995	13986
891.118	13845
891.241	13982
891.364	13883
891.488	14054
891.611	13868
891.734	13951
891.857	14008
891.98	13982
892.103	13986
892.226	14005
892.349	13909
892.471	13765
892.594	13947
892.717	14020
892.839	14001
892.962	14005
893.085	14031
893.207	13978
893.33	13822
893.452	14039
893.575	14084
893.697	13807
893.819	14103
893.941	14324
894.064	14134
894.186	13974
894.308	13913
894.43	14107
894.552	14187
894.674	14092
894.796	14077
894.918	13986
895.04	14035
895.161	14172
895.283	14115
895.405	13959
895.526	14050
895.648	14130
895.769	14153
895.891	14195
896.012	14218
896.134	14183
896.255	14115
896.376	14252
896.498	14149
896.619	14218
896.74	14157
896.861	14145
896.982	14484
897.103	14625
897.224	14492
897.345	14400
897.466	14393
897.587	14442
897.708	14503
897.828	14556
897.949	14427
898.07	14328
898.19	14457
898.311	14625
898.431	14514
898.552	14568
898.672	14590
898.792	14625
898.913	14594
899.033	14530
899.153	14492
899.273	14286
899.393	14423
899.513	14328
899.633	14370
899.753	14366
899.873	14374
899.993	14434
900.113	14412
900.232	14476
900.352	14438
900.472	14355
900.591	14168
900.711	14320
900.83	14221
900.95	14263
901.069	14343
901.189	14199
901.308	13959
901.427	13932
901.546	13951
901.665	13845
901.784	13986
901.904	13887
902.023	13685
902.141	13510
902.26	13434
902.379	13578
902.498	13491
902.617	13400
902.735	13502
902.854	13460
902.973	13441
903.091	13187
903.21	13263
903.328	13213
903.446	13228
903.565	13164
903.683	13149
903.801	12996
903.919	13099
904.038	12958
904.156	12837
904.274	12977
904.392	12882
904.51	12901
904.627	12856
904.745	12852
904.863	12928
904.981	12692
905.098	12498
905.216	12620
905.334	12585
905.451	12528
905.569	12555
905.686	12620
905.803	12608
905.921	12429
906.038	12544
906.155	12437
906.272	12289
906.389	12304
906.506	12213
906.623	12182
906.74	12186
906.857	12041
906.974	12102
907.091	12273
907.208	12300
907.324	12190
907.441	12030
907.557	12022
907.674	11923
907.79	11912
907.907	11912
908.023	11942
908.139	11912
908.256	11874
908.372	11775
908.488	11809
908.604	11672
908.72	11710
908.836	11623
908.952	11722
909.068	11676
909.184	11805
909.3	11581
909.415	11699
909.531	11760
909.647	11433
909.762	11414
909.878	11425
909.993	11535
910.108	11486
910.224	11493
910.339	11467
910.454	11330
910.57	11239
910.685	11216
910.8	11600
910.915	11372
911.03	11299
911.145	11208
911.259	11136
911.374	11098
911.489	11003
911.604	11010
911.718	10900
911.833	10885
911.947	10854
912.062	10759
912.176	10938
912.291	10934
912.405	10953
912.519	11136
912.633	11067
912.748	11006
912.862	10896
912.976	10831
913.09	10729
913.204	10717
913.318	10812
913.431	10923
913.545	10889
913.659	10923
913.772	10812
913.886	10679
914	10649
914.113	10740
914.226	10801
914.34	10714
914.453	10618
914.566	10793
914.68	10626
914.793	10607
914.906	10451
915.019	10459
915.132	10333
915.245	10402
915.358	10466
915.47	10459
915.583	10424
915.696	10550
915.809	10577
915.921	10649
916.034	10466
916.146	10344
916.259	10375
916.371	10493
916.483	10489
916.595	10325
916.708	10386
916.82	10360
916.932	10379
917.044	10356
917.156	10276
917.268	10272
917.38	10303
917.491	10166
917.603	10337
917.715	10360
917.826	10402
917.938	10287
918.049	10162
918.161	10276
918.272	10306
918.384	10348
918.495	10310
918.606	10116
918.717	10055
918.828	10204
918.939	10177
919.05	10067
919.161	10067
919.272	9884
919.383	10040
919.494	10242
919.604	10356
919.715	10139
919.826	10078
919.936	10192
920.047	10246
920.157	10169
920.267	10417
920.378	10272
920.488	10143
920.598	10329
920.708	10466
920.818	10405
920.928	10333
921.038	10516
921.148	10489
921.258	10162
921.368	10071
921.477	10025
921.587	10021
921.697	9930
921.806	10010
921.916	9888
922.025	9892
922.134	9743
922.244	9644
922.353	9732
922.462	9614
922.571	9553
922.68	9424
922.789	9367
922.898	9416
923.007	9355
923.116	9454
923.224	9469
923.333	9431
923.442	9374
923.55	9264
923.659	9310
923.767	9332
923.876	9260
923.984	9359
924.092	9169
924.201	9199
924.309	9317
924.417	9336
924.525	9264
924.633	9264
924.741	10116
924.849	9047
924.956	9245
925.064	9062
925.172	8990
925.279	9005
925.387	9169
925.494	9169
925.602	9135
925.709	9203
925.816	9005
925.924	9093
926.031	9184
926.138	9074
926.245	9104
926.352	9009
926.459	9093
926.566	9123
926.673	9009
926.779	8960
926.886	8941
926.993	8807
927.099	8823
927.206	8819
927.312	8743
927.419	8811
927.525	8788
927.631	8826
927.737	8720
927.843	8701
927.95	8549
928.056	8636
928.162	8659
928.267	8705
928.373	9287
928.479	8746
928.585	8549
928.69	8667
928.796	8777
928.901	8610
929.007	8396
929.112	8552
929.218	8545
929.323	8507
929.428	8488
929.533	8644
929.638	8476
929.743	8503
929.848	8583
929.953	8499
930.058	8484
930.163	8256
930.267	8218
930.372	8457
930.477	8229
930.581	8461
930.685	8336
930.79	8202
930.894	8332
930.998	8157
931.103	8294
931.207	7978
931.311	7940
931.415	7947
931.519	7677
931.623	7708
