Data from test_V78500241_517.txt Node
Date: Fri Mar 25 14:37:19 CST 2022
User: usil
Spectrometer: V785-0024
Trigger mode: 0
Integration Time (sec): 4.000000E-1
Scans to average: 1
Nonlinearity correction enabled: false
Boxcar width: 0
Storing dark spectrum: false
XAxis mode: Wavelengths
Number of Pixels in Spectrum: 1024
>>>>>Begin Spectral Data<<<<<
801.071	26849
801.214	26895
801.356	26686
801.499	26537
801.641	26408
801.783	26415
801.926	26415
802.068	26259
802.211	26313
802.353	26050
802.496	26077
802.638	25883
802.78	25814
802.923	25723
803.065	25655
803.208	25693
803.35	25860
803.492	25909
803.635	25966
803.777	25868
803.919	25917
804.061	26206
804.204	25879
804.346	25879
804.488	25890
804.63	25814
804.773	25719
804.915	25845
805.057	25849
805.199	25765
805.341	25966
805.483	25978
805.626	25970
805.768	25883
805.91	25982
806.052	26001
806.194	25898
806.336	26115
806.478	25993
806.62	26050
806.762	26153
806.904	26511
807.046	26769
807.188	26693
807.33	26667
807.472	26914
807.614	26921
807.756	26952
807.898	27081
808.04	27313
808.182	27587
808.324	27964
808.465	28535
808.607	29162
808.749	29668
808.891	29885
809.033	30045
809.174	29657
809.316	29113
809.458	28615
809.6	28021
809.741	27816
809.883	27511
810.025	27340
810.166	27313
810.308	27112
810.45	26914
810.591	26826
810.733	26678
810.875	26556
811.016	26263
811.158	26309
811.299	26343
811.441	26453
811.582	26453
811.724	26320
811.865	26389
812.007	26256
812.148	26256
812.29	26267
812.431	26309
812.573	26583
812.714	26693
812.855	26731
812.997	26800
813.138	26792
813.279	26796
813.421	26693
813.562	26621
813.703	26450
813.845	26347
813.986	26096
814.127	25822
814.268	25784
814.41	25757
814.551	25632
814.692	25852
814.833	25693
814.974	25567
815.115	25635
815.256	25434
815.397	25605
815.539	25635
815.68	25479
815.821	25365
815.962	25396
816.103	25419
816.244	25225
816.385	25129
816.526	25065
816.666	24916
816.807	24916
816.948	24768
817.089	24825
817.23	24833
817.371	24741
817.512	24791
817.653	24749
817.793	24768
817.934	24852
818.075	24707
818.216	24715
818.356	24700
818.497	24563
818.638	24365
818.778	24479
818.919	24525
819.06	24452
819.2	24483
819.341	24604
819.481	24635
819.622	24768
819.762	24996
819.903	24913
820.043	24783
820.184	24703
820.324	24814
820.465	24783
820.605	24779
820.746	24673
820.886	24536
821.026	24783
821.167	24760
821.307	24764
821.447	24715
821.588	24376
821.728	24452
821.868	24270
822.008	24174
822.149	24117
822.289	23946
822.429	23691
822.569	23699
822.709	23710
822.849	23493
822.99	23486
823.13	23573
823.27	23455
823.41	23364
823.55	23170
823.69	23383
823.83	23296
823.97	23227
824.11	23185
824.25	23064
824.389	23094
824.529	23079
824.669	22942
824.809	23102
824.949	23166
825.089	23052
825.228	23014
825.368	22858
825.508	22759
825.648	22908
825.787	22847
825.927	22839
826.067	22793
826.206	22847
826.346	22816
826.485	22869
826.625	22869
826.765	22858
826.904	22873
827.044	22554
827.183	22500
827.323	22493
827.462	22455
827.601	22474
827.741	22531
827.88	22402
828.02	22455
828.159	22542
828.298	22493
828.437	22398
828.577	22390
828.716	22497
828.855	22455
828.994	22242
829.134	22219
829.273	22318
829.412	22097
829.551	22021
829.69	22177
829.829	22067
829.968	22284
830.107	22291
830.246	22242
830.385	22105
830.524	22097
830.663	22150
830.802	22017
830.941	21675
831.08	21766
831.219	21846
831.357	21747
831.496	21968
831.635	21648
831.774	21591
831.913	21561
832.051	21526
832.19	21538
832.329	21580
832.467	21515
832.606	21408
832.744	21351
832.883	21599
833.022	21481
833.16	21519
833.299	21557
833.437	21412
833.576	21401
833.714	21583
833.852	21568
833.991	21709
834.129	21705
834.267	21732
834.406	21724
834.544	21644
834.682	21644
834.821	21534
834.959	21701
835.097	21424
835.235	21603
835.373	21435
835.511	21439
835.65	21393
835.788	21382
835.926	21218
836.064	21081
836.202	21100
836.34	21287
836.478	21260
836.615	21264
836.753	21203
836.891	21462
837.029	21310
837.167	21154
837.305	21127
837.443	21142
837.58	21039
837.718	21241
837.856	21195
837.993	21135
838.131	21062
838.269	21005
838.406	21123
838.544	21005
838.681	20636
838.819	20670
838.956	20587
839.094	20549
839.231	20499
839.369	20701
839.506	20941
839.643	20758
839.781	20522
839.918	20408
840.055	20465
840.193	20552
840.33	20385
840.467	20442
840.604	20522
840.742	20598
840.879	20343
841.016	20389
841.153	20400
841.29	20560
841.427	20507
841.564	20541
841.701	20503
841.838	20339
841.975	20389
842.112	20286
842.249	20168
842.385	20195
842.522	20389
842.659	20202
842.796	20191
842.933	20214
843.069	20259
843.206	20069
843.343	20252
843.479	20195
843.616	20248
843.752	20001
843.889	20012
844.025	20119
844.162	19989
844.298	20187
844.435	20001
844.571	20008
844.708	20195
844.844	20339
844.98	20309
845.117	20355
845.253	20507
845.389	20514
845.525	21138
845.661	22109
845.798	22820
845.934	23722
846.07	24049
846.206	24015
846.342	23265
846.478	22230
846.614	21207
846.75	20461
846.886	20054
847.022	19978
847.158	19780
847.294	19552
847.429	19559
847.565	19453
847.701	19750
847.837	19232
847.972	19148
848.108	19316
848.244	19259
848.379	19015
848.515	19076
848.65	19008
848.786	18924
848.921	18962
849.057	19023
849.192	19004
849.328	19019
849.463	19000
849.598	18875
849.734	18947
849.869	18795
850.004	18734
850.14	18764
850.275	18890
850.41	18669
850.545	18779
850.68	18745
850.815	18795
850.95	18692
851.085	18890
851.22	18825
851.355	18711
851.49	18745
851.625	18658
851.76	18631
851.895	18601
852.03	18547
852.165	18677
852.299	18749
852.434	18734
852.569	18715
852.703	18768
852.838	18749
852.973	18760
853.107	18806
853.242	18764
853.376	18540
853.511	18479
853.645	18528
853.78	18707
853.914	18589
854.048	18593
854.183	18559
854.317	18604
854.451	18741
854.585	18490
854.72	18513
854.854	18486
854.988	18475
855.122	18566
855.256	18452
855.39	18525
855.524	18536
855.658	18506
855.792	18467
855.926	18536
856.06	18593
856.194	18582
856.327	18627
856.461	18445
856.595	18437
856.729	18448
856.862	18601
856.996	18528
857.13	18494
857.263	18730
857.397	18585
857.53	18506
857.664	18490
857.797	18620
857.931	18669
858.064	18410
858.197	18555
858.331	18380
858.464	18589
858.597	18350
858.731	18445
858.864	18365
858.997	18361
859.13	18502
859.263	18494
859.396	18506
859.529	18395
859.662	18464
859.795	18517
859.928	18498
860.061	18521
860.194	18608
860.327	18490
860.46	18388
860.592	18585
860.725	18551
860.858	18521
860.99	18452
861.123	18232
861.256	18467
861.388	18544
861.521	19289
861.653	18308
861.786	18270
861.918	18361
862.05	18456
862.183	18372
862.315	18540
862.447	18540
862.58	18452
862.712	18140
862.844	18270
862.976	18323
863.108	18220
863.24	18589
863.372	18087
863.504	18228
863.636	18247
863.768	18186
863.9	18239
864.032	18060
864.164	18117
864.296	18171
864.428	18258
864.559	18330
864.691	18140
864.823	18224
864.954	18148
865.086	18251
865.217	18117
865.349	18064
865.48	18079
865.612	18083
865.743	18136
865.875	18026
866.006	18079
866.137	18155
866.269	18133
866.4	18076
866.531	18022
866.662	18034
866.793	17973
866.924	18057
867.055	18053
867.186	17923
867.317	17904
867.448	17992
867.579	17999
867.71	17931
867.841	17946
867.972	18064
868.103	18076
868.233	18045
868.364	18015
868.495	18190
868.625	18281
868.756	18350
868.886	18182
869.017	18277
869.147	18357
869.278	18483
869.408	18281
869.539	18277
869.669	18350
869.799	18228
869.929	18426
870.06	18448
870.19	18604
870.32	18525
870.45	18456
870.58	18677
870.71	18806
870.84	18700
870.97	18627
871.1	18715
871.23	18829
871.36	18924
871.489	18848
871.619	18871
871.749	19000
871.879	19000
872.008	19008
872.138	18875
872.267	18901
872.397	18772
872.526	18745
872.656	18791
872.785	18791
872.915	18897
873.044	18970
873.173	19031
873.303	18939
873.432	18943
873.561	18951
873.69	18932
873.819	18916
873.948	18977
874.077	19008
874.206	18875
874.335	18924
874.464	19076
874.593	19240
874.722	19209
874.851	19152
874.979	19316
875.108	19213
875.237	19190
875.365	19297
875.494	19244
875.623	19415
875.751	19255
875.88	19293
876.008	19434
876.136	19426
876.265	19776
876.393	19883
876.521	19860
876.65	19784
876.778	19708
876.906	19677
877.034	19693
877.162	19772
877.29	19734
877.418	19852
877.546	19837
877.674	19753
877.802	19860
877.93	19830
878.058	19849
878.185	19814
878.313	19932
878.441	19898
878.568	20005
878.696	20039
878.824	20267
878.951	20552
879.079	20880
879.206	21268
879.333	21435
879.461	21622
879.588	21755
879.715	21907
879.842	21945
879.97	21507
880.097	20883
880.224	20655
880.351	20434
880.478	20282
880.605	20191
880.732	20180
880.859	20374
880.986	20142
881.112	20005
881.239	19852
881.366	19780
881.493	19860
881.619	19643
881.746	19704
881.872	19578
881.999	19643
882.125	19613
882.252	19696
882.378	19727
882.505	19807
882.631	19586
882.757	19434
882.883	19537
883.01	19495
883.136	19403
883.262	19400
883.388	19240
883.514	19441
883.64	19365
883.766	19411
883.892	19304
884.018	19377
884.143	19274
884.269	19445
884.395	19213
884.52	19137
884.646	19160
884.772	19103
884.897	19118
885.023	19164
885.148	19190
885.274	19316
885.399	19156
885.524	19019
885.65	19088
885.775	18973
885.9	19168
886.025	19122
886.15	19187
886.275	18947
886.4	18791
886.525	18878
886.65	18734
886.775	18989
886.9	18935
887.025	19129
887.149	18776
887.274	18650
887.399	18726
887.523	18604
887.648	18502
887.773	18528
887.897	18612
888.021	18639
888.146	18563
888.27	18696
888.395	18665
888.519	18608
888.643	18467
888.767	18566
888.891	18315
889.015	18296
889.139	18380
889.263	18285
889.387	18441
889.511	18471
889.635	18277
889.759	18258
889.883	18338
890.006	18353
890.13	18327
890.254	18171
890.377	18262
890.501	18064
890.624	18011
890.748	18003
890.871	17912
890.995	17790
891.118	17676
891.241	17813
891.364	18015
891.488	18019
891.611	17802
891.734	17832
891.857	17908
891.98	17851
892.103	17893
892.226	17851
892.349	17775
892.471	17668
892.594	17752
892.717	17767
892.839	17794
892.962	17642
893.085	17798
893.207	17794
893.33	17638
893.452	17642
893.575	17767
893.697	17703
893.819	17920
893.941	17999
894.064	17802
894.186	17604
894.308	17718
894.43	17851
894.552	17760
894.674	17821
894.796	17589
894.918	17794
895.04	17581
895.161	17821
895.283	17714
895.405	17661
895.526	17775
895.648	17764
895.769	17760
895.891	17680
896.012	17805
896.134	17764
896.255	17752
896.376	17786
896.498	17786
896.619	17840
896.74	17729
896.861	17786
896.982	18136
897.103	18167
897.224	18011
897.345	17847
897.466	18011
897.587	18007
897.708	18148
897.828	17973
897.949	17935
898.07	17866
898.19	17866
898.311	18087
898.431	17901
898.552	17965
898.672	18038
898.792	18049
898.913	18064
899.033	17893
899.153	17668
899.273	17630
899.393	17661
899.513	17646
899.633	17764
899.753	17805
899.873	17615
899.993	17863
900.113	17695
900.232	17687
900.352	17634
900.472	17680
900.591	17421
900.711	17627
900.83	17501
900.95	17752
901.069	17737
901.189	17554
901.308	17322
901.427	17041
901.546	17311
901.665	17277
901.784	17208
901.904	17041
902.023	16946
902.141	16752
902.26	16809
902.379	16843
902.498	16740
902.617	16577
902.735	16694
902.854	16729
902.973	16542
903.091	16303
903.21	16375
903.328	16466
903.446	16249
903.565	16257
903.683	16242
903.801	16048
903.919	16185
904.038	16169
904.156	16071
904.274	16025
904.392	15915
904.51	15915
904.627	15994
904.745	15979
904.863	15987
904.981	15762
905.098	15603
905.216	15622
905.334	15667
905.451	15660
905.569	15644
905.686	15728
905.803	15637
905.921	15363
906.038	15439
906.155	15469
906.272	15283
906.389	15298
906.506	15237
906.623	15169
906.74	15184
906.857	15112
906.974	15100
907.091	15188
907.208	15306
907.324	15199
907.441	15085
907.557	14933
907.674	14948
907.79	14853
907.907	14906
908.023	14925
908.139	14868
908.256	14811
908.372	14731
908.488	14678
908.604	14621
908.72	14606
908.836	14655
908.952	14454
909.068	14640
909.184	14724
909.3	14629
909.415	14644
909.531	14606
909.647	14278
909.762	14259
909.878	14172
909.993	14298
910.108	14328
910.224	14244
910.339	14298
910.454	14149
910.57	14138
910.685	14039
910.8	14339
910.915	14187
911.03	14107
911.145	13944
911.259	13864
911.374	13887
911.489	13849
911.604	13830
911.718	13704
911.833	13727
911.947	13525
912.062	13533
912.176	13632
912.291	13666
912.405	13605
912.519	13826
912.633	13807
912.748	13731
912.862	13708
912.976	13548
913.09	13403
913.204	13430
913.318	13571
913.431	13647
913.545	13533
913.659	13575
913.772	13441
913.886	13312
914	13297
914.113	13422
914.226	13457
914.34	13384
914.453	13240
914.566	13422
914.68	13206
914.793	13175
914.906	13065
915.019	12973
915.132	13012
915.245	13019
915.358	13027
915.47	13053
915.583	12985
915.696	13091
915.809	13179
915.921	13114
916.034	12981
916.146	12916
916.259	12848
916.371	13042
916.483	13019
916.595	12916
916.708	12909
916.82	12916
916.932	12814
917.044	12939
917.156	12886
917.268	12719
917.38	12760
917.491	12795
917.603	12802
917.715	12837
917.826	12859
917.938	12738
918.049	12650
918.161	12658
918.272	12837
918.384	12947
918.495	12711
918.606	12540
918.717	12486
918.828	12582
918.939	12528
919.05	12426
919.161	12475
919.272	12285
919.383	12403
919.494	12506
919.604	12772
919.715	12506
919.826	12380
919.936	12490
920.047	12623
920.157	12540
920.267	12646
920.378	12467
920.488	12490
920.598	12642
920.708	12798
920.818	12707
920.928	12669
921.038	12814
921.148	12749
921.258	12502
921.368	12399
921.477	12315
921.587	12273
921.697	12155
921.806	12273
921.916	12232
922.025	11958
922.134	12053
922.244	11889
922.353	11988
922.462	11870
922.571	11802
922.68	11623
922.789	11562
922.898	11627
923.007	11604
923.116	11570
923.224	11573
923.333	11558
923.442	11486
923.55	11520
923.659	11417
923.767	11562
923.876	11452
923.984	11505
924.092	11254
924.201	11387
924.309	11353
924.417	11425
924.525	11368
924.633	11322
924.741	12022
924.849	11201
924.956	11258
925.064	11246
925.172	11128
925.279	11117
925.387	11201
925.494	11170
925.602	11299
925.709	11223
925.816	11064
925.924	11086
926.031	11250
926.138	11067
926.245	11197
926.352	10991
926.459	11189
926.566	11155
926.673	11029
926.779	11048
926.886	10949
926.993	10771
927.099	10831
927.206	10736
927.312	10717
927.419	10782
927.525	10786
927.631	10805
927.737	10714
927.843	10554
927.95	10535
928.056	10531
928.162	10618
928.267	10656
928.373	11201
928.479	10744
928.585	10478
928.69	10645
928.796	10615
928.901	10493
929.007	10356
929.112	10489
929.218	10519
929.323	10356
929.428	10447
929.533	10443
929.638	10284
929.743	10363
929.848	10413
929.953	10310
930.058	10227
930.163	10150
930.267	10105
930.372	10196
930.477	10025
930.581	10287
930.685	10211
930.79	10105
930.894	10086
930.998	9987
931.103	10135
931.207	9823
931.311	9743
931.415	9644
931.519	9469
931.623	9424
