Data from test_V78500241_3403.txt Node
Date: Fri Mar 25 14:57:24 CST 2022
User: usil
Spectrometer: V785-0024
Trigger mode: 0
Integration Time (sec): 4.000000E-1
Scans to average: 1
Nonlinearity correction enabled: false
Boxcar width: 0
Storing dark spectrum: false
XAxis mode: Wavelengths
Number of Pixels in Spectrum: 1024
>>>>>Begin Spectral Data<<<<<
801.071	21838
801.214	21789
801.356	21603
801.499	21564
801.641	21256
801.783	21241
801.926	21466
802.068	21298
802.211	21089
802.353	21119
802.496	20952
802.638	20746
802.78	20762
802.923	20743
803.065	20590
803.208	20640
803.35	20522
803.492	20678
803.635	20811
803.777	20560
803.919	20583
804.061	20918
804.204	20701
804.346	20583
804.488	20495
804.63	20655
804.773	20442
804.915	20640
805.057	20613
805.199	20480
805.341	20556
805.483	20533
805.626	20594
805.768	20393
805.91	20507
806.052	20583
806.194	20400
806.336	20609
806.478	20552
806.62	20473
806.762	20629
806.904	20781
807.046	20849
807.188	20914
807.33	20804
807.472	20971
807.614	20880
807.756	20811
807.898	20648
808.04	20530
808.182	20549
808.324	20564
808.465	20621
808.607	20701
808.749	20918
808.891	20944
809.033	21055
809.174	20914
809.316	20807
809.458	20872
809.6	20864
809.741	20899
809.883	20963
810.025	21005
810.166	20906
810.308	20937
810.45	20933
810.591	20834
810.733	20777
810.875	20621
811.016	20575
811.158	20590
811.299	20731
811.441	20682
811.582	20708
811.724	20598
811.865	20632
812.007	20682
812.148	20625
812.29	20503
812.431	20853
812.573	20956
812.714	21024
812.855	21085
812.997	21283
813.138	21332
813.279	21176
813.421	21150
813.562	20887
813.703	20914
813.845	20845
813.986	20404
814.127	20381
814.268	20202
814.41	20122
814.551	20096
814.692	20206
814.833	19978
814.974	20107
815.115	20142
815.256	20046
815.397	20058
815.539	20107
815.68	19894
815.821	19894
815.962	19959
816.103	19864
816.244	19715
816.385	19544
816.526	19624
816.666	19396
816.807	19247
816.948	19445
817.089	19449
817.23	19346
817.371	19308
817.512	19327
817.653	19400
817.793	19244
817.934	19377
818.075	19221
818.216	19331
818.356	19251
818.497	19099
818.638	18985
818.778	18989
818.919	19000
819.06	19042
819.2	19031
819.341	19190
819.481	19110
819.622	19274
819.762	19468
819.903	19339
820.043	19365
820.184	19217
820.324	19282
820.465	19400
820.605	19308
820.746	19282
820.886	19065
821.026	19129
821.167	19221
821.307	19259
821.447	19190
821.588	19129
821.728	18970
821.868	18817
822.008	18768
822.149	18642
822.289	18681
822.429	18441
822.569	18281
822.709	18235
822.849	18235
822.99	18076
823.13	18186
823.27	18102
823.41	18057
823.55	18015
823.69	18049
823.83	18049
823.97	17863
824.11	17756
824.25	17764
824.389	17714
824.529	17809
824.669	17649
824.809	17847
824.949	17843
825.089	17878
825.228	17783
825.368	17570
825.508	17520
825.648	17566
825.787	17585
825.927	17653
826.067	17429
826.206	17604
826.346	17520
826.485	17592
826.625	17566
826.765	17657
826.904	17493
827.044	17288
827.183	17356
827.323	17239
827.462	17296
827.601	17170
827.741	17231
827.88	17235
828.02	17109
828.159	17128
828.298	17311
828.437	17296
828.577	17220
828.716	17414
828.855	17162
828.994	17113
829.134	16896
829.273	17048
829.412	16938
829.551	16999
829.69	16980
829.829	17018
829.968	16984
830.107	17067
830.246	17022
830.385	16877
830.524	16923
830.663	16957
830.802	16771
830.941	16603
831.08	16637
831.219	16675
831.357	16710
831.496	16847
831.635	16672
831.774	16626
831.913	16641
832.051	16375
832.19	16417
832.329	16394
832.467	16371
832.606	16246
832.744	16367
832.883	16276
833.022	16310
833.16	16314
833.299	16341
833.437	16363
833.576	16356
833.714	16379
833.852	16462
833.991	16394
834.129	16489
834.267	16367
834.406	16390
834.544	16462
834.682	16440
834.821	16436
834.959	16603
835.097	16325
835.235	16402
835.373	16421
835.511	16306
835.65	16166
835.788	16295
835.926	16166
836.064	16090
836.202	16082
836.34	16337
836.478	16394
836.615	16234
836.753	16272
836.891	16360
837.029	16306
837.167	16348
837.305	16257
837.443	16268
837.58	16143
837.718	16219
837.856	16124
837.993	16238
838.131	16276
838.269	16200
838.406	16093
838.544	16109
838.681	15926
838.819	15717
838.956	15720
839.094	15736
839.231	15846
839.369	15857
839.506	16090
839.643	15922
839.781	15835
839.918	15728
840.055	15713
840.193	15736
840.33	15743
840.467	15762
840.604	15728
840.742	16017
840.879	15500
841.016	15705
841.153	15606
841.29	15892
841.427	15713
841.564	15812
841.701	15762
841.838	15705
841.975	15701
842.112	15622
842.249	15572
842.385	15450
842.522	15633
842.659	15504
842.796	15526
842.933	15458
843.069	15462
843.206	15519
843.343	15610
843.479	15682
843.616	15553
843.752	15408
843.889	15302
844.025	15439
844.162	15317
844.298	15340
844.435	15340
844.571	15298
844.708	15405
844.844	15435
844.98	15496
845.117	15473
845.253	15306
845.389	15184
845.525	15192
845.661	15214
845.798	15028
845.934	15100
846.07	15077
846.206	15100
846.342	15218
846.478	15173
846.614	14956
846.75	14826
846.886	14864
847.022	15047
847.158	14925
847.294	14845
847.429	14864
847.565	14834
847.701	15112
847.837	14629
847.972	14651
848.108	14708
848.244	14682
848.379	14511
848.515	14476
848.65	14488
848.786	14419
848.921	14533
849.057	14568
849.192	14571
849.328	14522
849.463	14602
849.598	14473
849.734	14362
849.869	14271
850.004	14320
850.14	14320
850.275	14202
850.41	14157
850.545	14233
850.68	14248
850.815	14298
850.95	14366
851.085	14404
851.22	14339
851.355	14259
851.49	14252
851.625	14172
851.76	14145
851.895	14119
852.03	14218
852.165	14191
852.299	14290
852.434	14370
852.569	14183
852.703	14233
852.838	14377
852.973	14423
853.107	14389
853.242	14221
853.376	14153
853.511	14130
853.645	14126
853.78	14218
853.914	14161
854.048	14050
854.183	14111
854.317	14153
854.451	14317
854.585	14153
854.72	14084
854.854	14161
854.988	14016
855.122	14084
855.256	13959
855.39	14058
855.524	14153
855.658	14172
855.792	14168
855.926	14050
856.06	14214
856.194	14206
856.327	14183
856.461	14043
856.595	14069
856.729	14069
856.862	14218
856.996	14123
857.13	14244
857.263	14202
857.397	14199
857.53	14142
857.664	14183
857.797	14176
857.931	14237
858.064	14218
858.197	14229
858.331	14119
858.464	14103
858.597	14050
858.731	14259
858.864	14115
858.997	14107
859.13	14130
859.263	14164
859.396	14263
859.529	14111
859.662	14035
859.795	14111
859.928	14191
860.061	14294
860.194	14100
860.327	14077
860.46	14134
860.592	14286
860.725	14157
860.858	14305
860.99	14065
861.123	14050
861.256	14062
861.388	14145
861.521	14762
861.653	14016
861.786	13951
861.918	14020
862.05	14058
862.183	14096
862.315	14130
862.447	14199
862.58	14027
862.712	13864
862.844	13822
862.976	13932
863.108	13936
863.24	14347
863.372	13871
863.504	13860
863.636	13856
863.768	13974
863.9	13826
864.032	13833
864.164	13822
864.296	13917
864.428	13989
864.559	14039
864.691	13959
864.823	13917
864.954	13921
865.086	13864
865.217	13879
865.349	13826
865.48	13845
865.612	13902
865.743	14024
865.875	14001
866.006	13818
866.137	13894
866.269	13951
866.4	13856
866.531	13902
866.662	13890
866.793	13883
866.924	13852
867.055	14001
867.186	13852
867.317	13963
867.448	13757
867.579	13750
867.71	13940
867.841	13814
867.972	13814
868.103	13890
868.233	13845
868.364	13868
868.495	14016
868.625	14145
868.756	14275
868.886	14081
869.017	14130
869.147	14187
869.278	14259
869.408	14195
869.539	14149
869.669	14153
869.799	14145
869.929	14347
870.06	14180
870.19	14507
870.32	14362
870.45	14454
870.58	14537
870.71	14659
870.84	14610
870.97	14545
871.1	14571
871.23	14746
871.36	14743
871.489	14617
871.619	14674
871.749	14746
871.879	14746
872.008	14921
872.138	14720
872.267	14682
872.397	14629
872.526	14560
872.656	14590
872.785	14571
872.915	14811
873.044	14906
873.173	14804
873.303	14872
873.432	14906
873.561	14887
873.69	14823
873.819	14762
873.948	14807
874.077	14792
874.206	14667
874.335	14834
874.464	15001
874.593	15097
874.722	15017
874.851	15077
874.979	15093
875.108	15127
875.237	15047
875.365	15051
875.494	15093
875.623	15138
875.751	15131
875.88	15112
876.008	15336
876.136	15386
876.265	15580
876.393	15698
876.521	15584
876.65	15648
876.778	15606
876.906	15526
877.034	15473
877.162	15610
877.29	15473
877.418	15469
877.546	15530
877.674	15477
877.802	15526
877.93	15458
878.058	15564
878.185	15367
878.313	15553
878.441	15496
878.568	15355
878.696	15378
878.824	15538
878.951	15606
879.079	15667
879.206	15823
879.333	15812
879.461	15641
879.588	15614
879.715	15720
879.842	15797
879.97	15633
880.097	15359
880.224	15431
880.351	15435
880.478	15397
880.605	15485
880.732	15359
880.859	15618
880.986	15287
881.112	15424
881.239	15291
881.366	15077
881.493	15005
881.619	14921
881.746	14994
881.872	14994
881.999	14952
882.125	14971
882.252	15062
882.378	15028
882.505	15195
882.631	15070
882.757	14914
882.883	14933
883.01	14971
883.136	14838
883.262	14579
883.388	14735
883.514	14880
883.64	14948
883.766	14739
883.892	14640
884.018	14701
884.143	14880
884.269	15055
884.395	14556
884.52	14610
884.646	14644
884.772	14473
884.897	14507
885.023	14598
885.148	14743
885.274	14659
885.399	14720
885.524	14621
885.65	14598
885.775	14575
885.9	14522
886.025	14758
886.15	14617
886.275	14526
886.4	14526
886.525	14594
886.65	14507
886.775	14499
886.9	14594
887.025	14765
887.149	14564
887.274	14419
887.399	14355
887.523	14313
887.648	14355
887.773	14317
887.897	14442
888.021	14434
888.146	14271
888.27	14476
888.395	14507
888.519	14480
888.643	14419
888.767	14431
888.891	14343
889.015	14267
889.139	14191
889.263	14187
889.387	14415
889.511	14476
889.635	14419
889.759	14263
889.883	14088
890.006	14320
890.13	14362
890.254	14240
890.377	14142
890.501	14149
890.624	14020
890.748	14176
890.871	14050
890.995	13963
891.118	13913
891.241	13959
891.364	13940
891.488	14050
891.611	13940
891.734	14035
891.857	14054
891.98	14008
892.103	13982
892.226	13925
892.349	13894
892.471	13856
892.594	13959
892.717	13997
892.839	13951
892.962	14084
893.085	14107
893.207	13898
893.33	13864
893.452	13951
893.575	14058
893.697	14027
893.819	14130
893.941	14187
894.064	14252
894.186	14008
894.308	13936
894.43	14054
894.552	14157
894.674	14221
894.796	13890
894.918	14039
895.04	13917
895.161	14145
895.283	14103
895.405	13925
895.526	14065
895.648	14081
895.769	14180
895.891	14202
896.012	14142
896.134	14161
896.255	14168
896.376	14081
896.498	14157
896.619	14275
896.74	14161
896.861	14240
896.982	14469
897.103	14663
897.224	14469
897.345	14385
897.466	14473
897.587	14355
897.708	14419
897.828	14400
897.949	14374
898.07	14343
898.19	14385
898.311	14606
898.431	14469
898.552	14545
898.672	14625
898.792	14629
898.913	14590
899.033	14412
899.153	14290
899.273	14256
899.393	14347
899.513	14309
899.633	14187
899.753	14324
899.873	14294
899.993	14438
900.113	14275
900.232	14385
900.352	14313
900.472	14256
900.591	14149
900.711	14183
900.83	14111
900.95	14263
901.069	14457
901.189	14168
901.308	13898
901.427	13826
901.546	13883
901.665	13868
901.784	14008
901.904	13746
902.023	13651
902.141	13529
902.26	13403
902.379	13533
902.498	13449
902.617	13369
902.735	13518
902.854	13499
902.973	13426
903.091	13198
903.21	13213
903.328	13206
903.446	13126
903.565	13031
903.683	13072
903.801	12935
903.919	13046
904.038	12993
904.156	12859
904.274	12993
904.392	12875
904.51	12806
904.627	12837
904.745	12905
904.863	12837
904.981	12711
905.098	12441
905.216	12555
905.334	12570
905.451	12513
905.569	12517
905.686	12570
905.803	12665
905.921	12346
906.038	12471
906.155	12365
906.272	12243
906.389	12243
906.506	12159
906.623	12171
906.74	12121
906.857	12041
906.974	12079
907.091	12270
907.208	12323
907.324	12182
907.441	11977
907.557	11931
907.674	11840
907.79	11901
907.907	11866
908.023	11908
908.139	11916
908.256	11790
908.372	11859
908.488	11824
908.604	11627
908.72	11779
908.836	11714
908.952	11634
909.068	11802
909.184	11809
909.3	11619
909.415	11779
909.531	11665
909.647	11547
909.762	11376
909.878	11341
909.993	11368
910.108	11452
910.224	11421
910.339	11406
910.454	11353
910.57	11269
910.685	11155
910.8	11505
910.915	11455
911.03	11311
911.145	11159
911.259	11056
911.374	11083
911.489	10999
911.604	11064
911.718	10873
911.833	10862
911.947	10748
912.062	10721
912.176	10816
912.291	10923
912.405	10847
912.519	11079
912.633	11006
912.748	11014
912.862	10889
912.976	10869
913.09	10615
913.204	10691
913.318	10828
913.431	10919
913.545	10812
913.659	10900
913.772	10752
913.886	10694
914	10622
914.113	10698
914.226	10774
914.34	10729
914.453	10489
914.566	10664
914.68	10630
914.793	10599
914.906	10356
915.019	10371
915.132	10284
915.245	10409
915.358	10413
915.47	10413
915.583	10466
915.696	10367
915.809	10500
915.921	10523
916.034	10447
916.146	10379
916.259	10356
916.371	10428
916.483	10413
916.595	10333
916.708	10371
916.82	10341
916.932	10337
917.044	10333
917.156	10310
917.268	10261
917.38	10207
917.491	10242
917.603	10238
917.715	10242
917.826	10299
917.938	10257
918.049	10112
918.161	10234
918.272	10360
918.384	10337
918.495	10204
918.606	10097
918.717	10071
918.828	10097
918.939	10131
919.05	10051
919.161	10101
919.272	9903
919.383	9975
919.494	10185
919.604	10402
919.715	10055
919.826	10090
919.936	10059
920.047	10215
920.157	10128
920.267	10352
920.378	10200
920.488	10131
920.598	10337
920.708	10417
920.818	10238
920.928	10417
921.038	10485
921.148	10417
921.258	10162
921.368	10040
921.477	10017
921.587	9941
921.697	9857
921.806	10040
921.916	9808
922.025	9675
922.134	9690
922.244	9629
922.353	9698
922.462	9599
922.571	9515
922.68	9435
922.789	9405
922.898	9363
923.007	9351
923.116	9428
923.224	9370
923.333	9317
923.442	9340
923.55	9233
923.659	9344
923.767	9332
923.876	9291
923.984	9386
924.092	9199
924.201	9253
924.309	9268
924.417	9283
924.525	9226
924.633	9199
924.741	10090
924.849	8941
924.956	9135
925.064	9020
925.172	8868
925.279	9032
925.387	9077
925.494	9032
925.602	9135
925.709	9138
925.816	8990
925.924	9043
926.031	9135
926.138	9074
926.245	9074
926.352	8990
926.459	9077
926.566	9081
926.673	8910
926.779	8933
926.886	8895
926.993	8739
927.099	8785
927.206	8720
927.312	8693
927.419	8804
927.525	8834
927.631	8872
927.737	8754
927.843	8716
927.95	8560
928.056	8625
928.162	8651
928.267	8720
928.373	9370
928.479	8807
928.585	8457
928.69	8705
928.796	8746
928.901	8579
929.007	8358
929.112	8568
929.218	8469
929.323	8522
929.428	8511
929.533	8594
929.638	8400
929.743	8434
929.848	8499
929.953	8480
930.058	8431
930.163	8263
930.267	8267
930.372	8385
930.477	8218
930.581	8412
930.685	8347
930.79	8206
930.894	8176
930.998	8168
931.103	8339
931.207	7989
931.311	7830
931.415	7894
931.519	7666
931.623	7696
