Data from test_V78500241_591.txt Node
Date: Fri Mar 25 14:37:50 CST 2022
User: usil
Spectrometer: V785-0024
Trigger mode: 0
Integration Time (sec): 4.000000E-1
Scans to average: 1
Nonlinearity correction enabled: false
Boxcar width: 0
Storing dark spectrum: false
XAxis mode: Wavelengths
Number of Pixels in Spectrum: 1024
>>>>>Begin Spectral Data<<<<<
801.071	27876
801.214	27755
801.356	27682
801.499	27568
801.641	27382
801.783	27294
801.926	27317
802.068	27184
802.211	27119
802.353	27047
802.496	26937
802.638	26826
802.78	26861
802.923	26914
803.065	26739
803.208	26708
803.35	26777
803.492	27028
803.635	26940
803.777	26963
803.919	26899
804.061	27226
804.204	27005
804.346	26777
804.488	26861
804.63	27013
804.773	26956
804.915	26994
805.057	27275
805.199	27131
805.341	27214
805.483	27310
805.626	27329
805.768	27218
805.91	27363
806.052	27599
806.194	27424
806.336	27717
806.478	27778
806.62	27949
806.762	28185
806.904	28489
807.046	28759
807.188	29064
807.33	29273
807.472	29729
807.614	30106
807.756	30582
807.898	31327
808.04	32393
808.182	33682
808.324	35490
808.465	37270
808.607	39610
808.749	41421
808.891	42544
809.033	42654
809.174	41448
809.316	39408
809.458	37285
809.6	35048
809.741	33382
809.883	32016
810.025	31145
810.166	30429
810.308	29958
810.45	29528
810.591	29155
810.733	28744
810.875	28512
811.016	28173
811.158	28112
811.299	28131
811.441	28101
811.582	27930
811.724	27812
811.865	27629
812.007	27690
812.148	27549
812.29	27515
812.431	27504
812.573	27671
812.714	27850
812.855	28059
812.997	27979
813.138	27968
813.279	28029
813.421	27846
813.562	27644
813.703	27568
813.845	27374
813.986	26998
814.127	26853
814.268	26857
814.41	26750
814.551	26609
814.692	26800
814.833	26598
814.974	26598
815.115	26560
815.256	26347
815.397	26408
815.539	26362
815.68	26199
815.821	26218
815.962	26176
816.103	26282
816.244	26020
816.385	25879
816.526	25917
816.666	25788
816.807	25616
816.948	25674
817.089	25750
817.23	25651
817.371	25628
817.512	25548
817.653	25544
817.793	25533
817.934	25639
818.075	25533
818.216	25274
818.356	25384
818.497	25244
818.638	25240
818.778	25175
818.919	25160
819.06	25225
819.2	25343
819.341	25392
819.481	25377
819.622	25556
819.762	25544
819.903	25639
820.043	25616
820.184	25365
820.324	25521
820.465	25479
820.605	25525
820.746	25293
820.886	25164
821.026	25297
821.167	25316
821.307	25396
821.447	25236
821.588	25232
821.728	25099
821.868	24783
822.008	24540
822.149	24722
822.289	24642
822.429	24376
822.569	24308
822.709	24330
822.849	24129
822.99	24144
823.13	23969
823.27	24110
823.41	23927
823.55	23824
823.69	23908
823.83	23821
823.97	23824
824.11	23714
824.25	23627
824.389	23649
824.529	23748
824.669	23707
824.809	23741
824.949	23786
825.089	23718
825.228	23573
825.368	23520
825.508	23360
825.648	23535
825.787	23482
825.927	23531
826.067	23471
826.206	23376
826.346	23452
826.485	23364
826.625	23493
826.765	23608
826.904	23444
827.044	23265
827.183	23166
827.323	23121
827.462	23273
827.601	23044
827.741	23102
827.88	23048
828.02	23056
828.159	22999
828.298	23121
828.437	23151
828.577	23006
828.716	23174
828.855	22927
828.994	22763
829.134	22873
829.273	22748
829.412	22835
829.551	22809
829.69	22725
829.829	22717
829.968	22744
830.107	22858
830.246	22733
830.385	22824
830.524	22649
830.663	22634
830.802	22527
830.941	22303
831.08	22333
831.219	22493
831.357	22493
831.496	22535
831.635	22253
831.774	22344
831.913	22230
832.051	22158
832.19	22291
832.329	22200
832.467	22192
832.606	22131
832.744	22211
832.883	22268
833.022	22185
833.16	22329
833.299	22325
833.437	22424
833.576	22512
833.714	22641
833.852	22744
833.991	22873
834.129	22862
834.267	22877
834.406	22752
834.544	22782
834.682	22786
834.821	22603
834.959	22812
835.097	22306
835.235	22523
835.373	22344
835.511	22223
835.65	22109
835.788	21991
835.926	21884
836.064	21751
836.202	21827
836.34	21968
836.478	21922
836.615	21800
836.753	21812
836.891	21930
837.029	21876
837.167	21789
837.305	21766
837.443	21831
837.58	21698
837.718	21728
837.856	21660
837.993	21583
838.131	21641
838.269	21637
838.406	21564
838.544	21435
838.681	21374
838.819	21287
838.956	21245
839.094	21096
839.231	21237
839.369	21169
839.506	21587
839.643	21382
839.781	21108
839.918	21062
840.055	21138
840.193	20944
840.33	20990
840.467	21062
840.604	21020
840.742	21245
840.879	20929
841.016	21001
841.153	20902
841.29	21180
841.427	21024
841.564	21096
841.701	21070
841.838	20963
841.975	20902
842.112	20861
842.249	20731
842.385	20781
842.522	20952
842.659	20925
842.796	20849
842.933	20902
843.069	20750
843.206	20838
843.343	21001
843.479	20899
843.616	20883
843.752	20765
843.889	20674
844.025	20918
844.162	20826
844.298	21093
844.435	20986
844.571	21017
844.708	21291
844.844	21587
844.98	21797
845.117	22299
845.253	22767
845.389	23843
845.525	26035
845.661	29783
845.798	34169
845.934	37647
846.07	39115
846.206	38313
846.342	35551
846.478	30905
846.614	27051
846.75	24384
846.886	22968
847.022	22017
847.158	21405
847.294	21112
847.429	20739
847.565	20724
847.701	20754
847.837	20142
847.972	20081
848.108	20142
848.244	20050
848.379	19799
848.515	19742
848.65	19776
848.786	19822
848.921	19674
849.057	19772
849.192	19731
849.328	19765
849.463	19689
849.598	19586
849.734	19449
849.869	19525
850.004	19346
850.14	19419
850.275	19449
850.41	19217
850.545	19358
850.68	19392
850.815	19445
850.95	19308
851.085	19540
851.22	19491
851.355	19373
851.49	19266
851.625	19263
851.76	19308
851.895	19339
852.03	19225
852.165	19396
852.299	19426
852.434	19426
852.569	19426
852.703	19487
852.838	19430
852.973	19575
853.107	19521
853.242	19396
853.376	19384
853.511	19316
853.645	19312
853.78	19468
853.914	19487
854.048	19457
854.183	19483
854.317	19506
854.451	19586
854.585	19445
854.72	19381
854.854	19438
854.988	19362
855.122	19335
855.256	19217
855.39	19240
855.524	19365
855.658	19316
855.792	19274
855.926	19274
856.06	19304
856.194	19259
856.327	19217
856.461	19145
856.595	19171
856.729	19198
856.862	19232
856.996	19221
857.13	19160
857.263	19259
857.397	19156
857.53	19023
857.664	19148
857.797	19160
857.931	19110
858.064	19114
858.197	19148
858.331	19095
858.464	19080
858.597	18958
858.731	18996
858.864	18981
858.997	19023
859.13	19107
859.263	19145
859.396	19137
859.529	19057
859.662	19065
859.795	19015
859.928	19019
860.061	19278
860.194	19129
860.327	18981
860.46	19015
860.592	19129
860.725	19171
860.858	19164
860.99	19057
861.123	19065
861.256	18932
861.388	18920
861.521	19822
861.653	18966
861.786	18810
861.918	18802
862.05	18886
862.183	19004
862.315	19012
862.447	19053
862.58	19008
862.712	18795
862.844	18787
862.976	18757
863.108	18878
863.24	19069
863.372	18612
863.504	18749
863.636	18707
863.768	18745
863.9	18612
864.032	18604
864.164	18589
864.296	18757
864.428	18768
864.559	18741
864.691	18802
864.823	18749
864.954	18745
865.086	18719
865.217	18559
865.349	18566
865.48	18635
865.612	18738
865.743	18745
865.875	18677
866.006	18563
866.137	18616
866.269	18578
866.4	18719
866.531	18574
866.662	18547
866.793	18574
866.924	18608
867.055	18635
867.186	18620
867.317	18540
867.448	18490
867.579	18566
867.71	18555
867.841	18429
867.972	18490
868.103	18490
868.233	18490
868.364	18563
868.495	18768
868.625	18795
868.756	18825
868.886	18764
869.017	18977
869.147	18749
869.278	18844
869.408	18852
869.539	18825
869.669	18962
869.799	18760
869.929	18935
870.06	18962
870.19	19187
870.32	19076
870.45	19247
870.58	19221
870.71	19228
870.84	19331
870.97	19183
871.1	19198
871.23	19381
871.36	19460
871.489	19289
871.619	19434
871.749	19449
871.879	19510
872.008	19632
872.138	19510
872.267	19556
872.397	19388
872.526	19464
872.656	19381
872.785	19495
872.915	19544
873.044	19662
873.173	19635
873.303	19616
873.432	19586
873.561	19784
873.69	19704
873.819	19670
873.948	19696
874.077	19708
874.206	19780
874.335	19738
874.464	19887
874.593	20069
874.722	19974
874.851	20111
874.979	20119
875.108	20161
875.237	20069
875.365	20126
875.494	20240
875.623	20282
875.751	20309
875.88	20263
876.008	20552
876.136	20644
876.265	20800
876.393	20967
876.521	20880
876.65	20937
876.778	20899
876.906	20872
877.034	20941
877.162	20979
877.29	20937
877.418	21184
877.546	21214
877.674	21138
877.802	21348
877.93	21397
878.058	21401
878.185	21477
878.313	21827
878.441	22021
878.568	22086
878.696	22542
878.824	23025
878.951	23904
879.079	24909
879.206	26412
879.333	27625
879.461	28778
879.588	29440
879.715	29531
879.842	29029
879.97	27797
880.097	26221
880.224	25145
880.351	24334
880.478	23653
880.605	23303
880.732	23121
880.859	23143
880.986	22911
881.112	22877
881.239	22660
881.366	22428
881.493	22443
881.619	22451
881.746	22356
881.872	22409
881.999	22428
882.125	22432
882.252	22546
882.378	22489
882.505	22626
882.631	22390
882.757	22344
882.883	22421
883.01	22306
883.136	22291
883.262	22303
883.388	22093
883.514	22223
883.64	22276
883.766	22200
883.892	22032
884.018	22078
884.143	22253
884.269	22398
884.395	22192
884.52	21964
884.646	21994
884.772	21953
884.897	21941
885.023	22036
885.148	22032
885.274	22093
885.399	21968
885.524	21694
885.65	21873
885.775	21690
885.9	21534
886.025	21595
886.15	21481
886.275	21188
886.4	21066
886.525	21127
886.65	20891
886.775	20842
886.9	20944
887.025	21062
887.149	20693
887.274	20434
887.399	20332
887.523	20343
887.648	20362
887.773	20027
887.897	20206
888.021	20286
888.146	20096
888.27	20138
888.395	20225
888.519	20012
888.643	19989
888.767	20100
888.891	19921
889.015	19811
889.139	19879
889.263	19628
889.387	19864
889.511	19906
889.635	19681
889.759	19518
889.883	19647
890.006	19544
890.13	19605
890.254	19449
890.377	19415
890.501	19285
890.624	19266
890.748	19263
890.871	19225
890.995	19042
891.118	18993
891.241	18989
891.364	19050
891.488	19042
891.611	18947
891.734	18897
891.857	18996
891.98	18856
892.103	18852
892.226	18920
892.349	18875
892.471	18757
892.594	18738
892.717	18700
892.839	18703
892.962	18658
893.085	18821
893.207	18669
893.33	18532
893.452	18582
893.575	18654
893.697	18578
893.819	18673
893.941	18719
894.064	18726
894.186	18365
894.308	18433
894.43	18525
894.552	18673
894.674	18456
894.796	18471
894.918	18521
895.04	18426
895.161	18536
895.283	18483
895.405	18384
895.526	18384
895.648	18483
895.769	18475
895.891	18418
896.012	18547
896.134	18460
896.255	18304
896.376	18391
896.498	18334
896.619	18429
896.74	18426
896.861	18410
896.982	18711
897.103	18772
897.224	18696
897.345	18700
897.466	18490
897.587	18528
897.708	18715
897.828	18544
897.949	18544
898.07	18357
898.19	18467
898.311	18566
898.431	18448
898.552	18597
898.672	18585
898.792	18639
898.913	18601
899.033	18532
899.153	18464
899.273	18190
899.393	18338
899.513	18270
899.633	18414
899.753	18369
899.873	18277
899.993	18365
900.113	18342
900.232	18304
900.352	18315
900.472	18258
900.591	18083
900.711	18201
900.83	18053
900.95	18346
901.069	18171
901.189	18110
901.308	17866
901.427	17703
901.546	17680
901.665	17790
901.784	17748
901.904	17623
902.023	17376
902.141	17284
902.26	17223
902.379	17265
902.498	17246
902.617	17098
902.735	17216
902.854	17227
902.973	17079
903.091	16816
903.21	16793
903.328	16835
903.446	16740
903.565	16660
903.683	16577
903.801	16584
903.919	16561
904.038	16542
904.156	16356
904.274	16504
904.392	16402
904.51	16318
904.627	16428
904.745	16413
904.863	16436
904.981	16185
905.098	16150
905.216	16051
905.334	16021
905.451	16090
905.569	15953
905.686	16063
905.803	15998
905.921	15793
906.038	15876
906.155	15915
906.272	15789
906.389	15774
906.506	15705
906.623	15599
906.74	15580
906.857	15435
906.974	15500
907.091	15545
907.208	15690
907.324	15553
907.441	15458
907.557	15237
907.674	15321
907.79	15230
907.907	15161
908.023	15241
908.139	15245
908.256	15142
908.372	15119
908.488	15097
908.604	14998
908.72	14910
908.836	15036
908.952	15009
909.068	14975
909.184	14956
909.3	14948
909.415	14944
909.531	14960
909.647	14735
909.762	14716
909.878	14701
909.993	14655
910.108	14708
910.224	14568
910.339	14640
910.454	14556
910.57	14393
910.685	14366
910.8	14769
910.915	14492
911.03	14507
911.145	14389
911.259	14278
911.374	14339
911.489	14267
911.604	14172
911.718	14001
911.833	14054
911.947	13887
912.062	13830
912.176	14058
912.291	14039
912.405	14043
912.519	14240
912.633	14164
912.748	14081
912.862	13982
912.976	13830
913.09	13807
913.204	13864
913.318	13700
913.431	13940
913.545	13921
913.659	13932
913.772	13776
913.886	13788
914	13647
914.113	13814
914.226	13837
914.34	13803
914.453	13632
914.566	13845
914.68	13693
914.793	13609
914.906	13415
915.019	13339
915.132	13339
915.245	13377
915.358	13430
915.47	13419
915.583	13430
915.696	13415
915.809	13544
915.921	13544
916.034	13369
916.146	13362
916.259	13316
916.371	13434
916.483	13438
916.595	13327
916.708	13308
916.82	13354
916.932	13183
917.044	13263
917.156	13217
917.268	13050
917.38	13175
917.491	13133
917.603	13072
917.715	13244
917.826	13133
917.938	13046
918.049	12913
918.161	13027
918.272	13152
918.384	13175
918.495	13046
918.606	12962
918.717	12844
918.828	12875
918.939	12859
919.05	12837
919.161	12817
919.272	12681
919.383	12684
919.494	12947
919.604	13072
919.715	12886
919.826	12734
919.936	12757
920.047	12920
920.157	12840
920.267	13034
920.378	12798
920.488	12810
920.598	12977
920.708	13053
920.818	12920
920.928	12977
921.038	13171
921.148	13114
921.258	12840
921.368	12741
921.477	12597
921.587	12597
921.697	12372
921.806	12566
921.916	12445
922.025	12346
922.134	12258
922.244	12281
922.353	12376
922.462	12232
922.571	12121
922.68	11920
922.789	11939
922.898	11984
923.007	11783
923.116	11939
923.224	11863
923.333	11847
923.442	11745
923.55	11707
923.659	11809
923.767	11790
923.876	11649
923.984	11828
924.092	11558
924.201	11691
924.309	11691
924.417	11707
924.525	11634
924.633	11733
924.741	12369
924.849	11467
924.956	11623
925.064	11417
925.172	11307
925.279	11429
925.387	11490
925.494	11353
925.602	11577
925.709	11463
925.816	11398
925.924	11322
926.031	11471
926.138	11421
926.245	11425
926.352	11303
926.459	11444
926.566	11402
926.673	11345
926.779	11197
926.886	11170
926.993	11117
927.099	11033
927.206	11056
927.312	11025
927.419	11022
927.525	10980
927.631	11048
927.737	10980
927.843	10911
927.95	10771
928.056	10896
928.162	10843
928.267	10885
928.373	11547
928.479	10915
928.585	10714
928.69	10831
928.796	10946
928.901	10816
929.007	10740
929.112	10767
929.218	10767
929.323	10694
929.428	10637
929.533	10759
929.638	10596
929.743	10607
929.848	10698
929.953	10603
930.058	10440
930.163	10367
930.267	10356
930.372	10462
930.477	10375
930.581	10637
930.685	10455
930.79	10265
930.894	10230
930.998	10215
931.103	10413
931.207	9956
931.311	9930
931.415	9876
931.519	9698
931.623	9698
