Data from test_V78500241_3494.txt Node
Date: Fri Mar 25 14:58:02 CST 2022
User: usil
Spectrometer: V785-0024
Trigger mode: 0
Integration Time (sec): 4.000000E-1
Scans to average: 1
Nonlinearity correction enabled: false
Boxcar width: 0
Storing dark spectrum: false
XAxis mode: Wavelengths
Number of Pixels in Spectrum: 1024
>>>>>Begin Spectral Data<<<<<
801.071	21880
801.214	21895
801.356	21549
801.499	21477
801.641	21336
801.783	21298
801.926	21386
802.068	21192
802.211	21169
802.353	20998
802.496	20895
802.638	20743
802.78	20777
802.923	20712
803.065	20632
803.208	20484
803.35	20629
803.492	20708
803.635	20640
803.777	20575
803.919	20705
804.061	20899
804.204	20693
804.346	20484
804.488	20518
804.63	20609
804.773	20602
804.915	20594
805.057	20583
805.199	20473
805.341	20712
805.483	20613
805.626	20659
805.768	20564
805.91	20492
806.052	20511
806.194	20362
806.336	20667
806.478	20545
806.62	20381
806.762	20492
806.904	20613
807.046	20933
807.188	20830
807.33	20769
807.472	20941
807.614	20758
807.756	20815
807.898	20556
808.04	20587
808.182	20541
808.324	20514
808.465	20530
808.607	20754
808.749	20861
808.891	20948
809.033	21062
809.174	20929
809.316	20811
809.458	20811
809.6	20769
809.741	20887
809.883	20963
810.025	21104
810.166	20944
810.308	20998
810.45	20887
810.591	20750
810.733	20796
810.875	20648
811.016	20499
811.158	20587
811.299	20674
811.441	20659
811.582	20648
811.724	20549
811.865	20587
812.007	20644
812.148	20431
812.29	20629
812.431	20705
812.573	20910
812.714	20769
812.855	21055
812.997	21131
813.138	21386
813.279	21165
813.421	21237
813.562	21093
813.703	20838
813.845	20743
813.986	20480
814.127	20317
814.268	20206
814.41	20187
814.551	20244
814.692	20252
814.833	20126
814.974	20172
815.115	20168
815.256	20035
815.397	20062
815.539	19970
815.68	19868
815.821	19940
815.962	19959
816.103	19967
816.244	19814
816.385	19639
816.526	19521
816.666	19483
816.807	19343
816.948	19457
817.089	19373
817.23	19316
817.371	19381
817.512	19304
817.653	19217
817.793	19190
817.934	19270
818.075	19282
818.216	19301
818.356	19194
818.497	19129
818.638	18943
818.778	19012
818.919	18897
819.06	18939
819.2	19171
819.341	19057
819.481	19057
819.622	19240
819.762	19445
819.903	19453
820.043	19289
820.184	19350
820.324	19160
820.465	19202
820.605	19270
820.746	19415
820.886	19274
821.026	19263
821.167	19202
821.307	19343
821.447	19213
821.588	19042
821.728	18943
821.868	18840
822.008	18696
822.149	18604
822.289	18677
822.429	18350
822.569	18350
822.709	18327
822.849	18247
822.99	18098
823.13	18159
823.27	18338
823.41	17996
823.55	17851
823.69	17984
823.83	17996
823.97	17935
824.11	17764
824.25	17722
824.389	17775
824.529	17840
824.669	17775
824.809	17866
824.949	17843
825.089	17760
825.228	17843
825.368	17573
825.508	17657
825.648	17516
825.787	17596
825.927	17592
826.067	17433
826.206	17467
826.346	17615
826.485	17467
826.625	17592
826.765	17661
826.904	17562
827.044	17246
827.183	17273
827.323	17212
827.462	17307
827.601	17193
827.741	17227
827.88	17277
828.02	17060
828.159	17193
828.298	17216
828.437	17395
828.577	17128
828.716	17349
828.855	17235
828.994	16991
829.134	16980
829.273	17045
829.412	16847
829.551	16972
829.69	16927
829.829	17010
829.968	17079
830.107	17045
830.246	17025
830.385	16934
830.524	16991
830.663	16843
830.802	16790
830.941	16630
831.08	16569
831.219	16660
831.357	16774
831.496	16847
831.635	16599
831.774	16538
831.913	16500
832.051	16535
832.19	16417
832.329	16470
832.467	16268
832.606	16287
832.744	16246
832.883	16356
833.022	16333
833.16	16284
833.299	16421
833.437	16344
833.576	16325
833.714	16371
833.852	16409
833.991	16459
834.129	16493
834.267	16443
834.406	16337
834.544	16352
834.682	16531
834.821	16417
834.959	16611
835.097	16402
835.235	16542
835.373	16348
835.511	16470
835.65	16246
835.788	16333
835.926	16192
836.064	16246
836.202	16090
836.34	16360
836.478	16485
836.615	16219
836.753	16325
836.891	16508
837.029	16318
837.167	16318
837.305	16344
837.443	16257
837.58	16177
837.718	16280
837.856	16185
837.993	16188
838.131	16219
838.269	16166
838.406	16219
838.544	16135
838.681	15861
838.819	15922
838.956	15759
839.094	15724
839.231	15861
839.369	15934
839.506	16204
839.643	15960
839.781	15793
839.918	15686
840.055	15861
840.193	15800
840.33	15686
840.467	15641
840.604	15785
840.742	16002
840.879	15603
841.016	15584
841.153	15770
841.29	15956
841.427	15705
841.564	15698
841.701	15850
841.838	15667
841.975	15667
842.112	15728
842.249	15572
842.385	15496
842.522	15728
842.659	15682
842.796	15538
842.933	15526
843.069	15431
843.206	15462
843.343	15572
843.479	15542
843.616	15534
843.752	15336
843.889	15401
844.025	15568
844.162	15317
844.298	15405
844.435	15310
844.571	15272
844.708	15298
844.844	15477
844.98	15462
845.117	15374
845.253	15348
845.389	15260
845.525	15378
845.661	15127
845.798	15074
845.934	15138
846.07	15085
846.206	15127
846.342	15291
846.478	15028
846.614	14921
846.75	14868
846.886	14792
847.022	15001
847.158	14979
847.294	14895
847.429	14868
847.565	14887
847.701	15180
847.837	14667
847.972	14610
848.108	14735
848.244	14693
848.379	14473
848.515	14492
848.65	14415
848.786	14541
848.921	14537
849.057	14537
849.192	14629
849.328	14640
849.463	14511
849.598	14412
849.734	14419
849.869	14294
850.004	14351
850.14	14351
850.275	14278
850.41	14115
850.545	14187
850.68	14259
850.815	14259
850.95	14389
851.085	14480
851.22	14362
851.355	14248
851.49	14092
851.625	14263
851.76	14252
851.895	14111
852.03	14164
852.165	14237
852.299	14210
852.434	14328
852.569	14294
852.703	14294
852.838	14278
852.973	14336
853.107	14457
853.242	14202
853.376	14237
853.511	14012
853.645	14103
853.78	14355
853.914	14240
854.048	14073
854.183	14073
854.317	14210
854.451	14267
854.585	14134
854.72	14103
854.854	14218
854.988	14103
855.122	14149
855.256	14062
855.39	14195
855.524	14206
855.658	14286
855.792	14168
855.926	14176
856.06	14252
856.194	14377
856.327	14149
856.461	14157
856.595	14069
856.729	14130
856.862	14263
856.996	14176
857.13	14305
857.263	14294
857.397	14229
857.53	14183
857.664	14252
857.797	14218
857.931	14218
858.064	14202
858.197	14153
858.331	14134
858.464	14024
858.597	14050
858.731	14153
858.864	14153
858.997	14069
859.13	14164
859.263	14214
859.396	14282
859.529	14130
859.662	14183
859.795	14081
859.928	14206
860.061	14336
860.194	14176
860.327	14172
860.46	14054
860.592	14286
860.725	14381
860.858	14244
860.99	14119
861.123	14043
861.256	14062
861.388	14100
861.521	14842
861.653	14035
861.786	13986
861.918	14005
862.05	14111
862.183	14103
862.315	14149
862.447	14199
862.58	14092
862.712	13967
862.844	13845
862.976	13997
863.108	13982
863.24	14328
863.372	13864
863.504	13871
863.636	13868
863.768	14012
863.9	14020
864.032	13909
864.164	13944
864.296	13982
864.428	14024
864.559	14062
864.691	13959
864.823	13963
864.954	13993
865.086	13913
865.217	13902
865.349	13864
865.48	13811
865.612	13997
865.743	14031
865.875	13967
866.006	13852
866.137	13883
866.269	13860
866.4	13906
866.531	13921
866.662	13826
866.793	13837
866.924	13898
867.055	13974
867.186	13906
867.317	13837
867.448	13791
867.579	13906
867.71	13814
867.841	13811
867.972	13940
868.103	13928
868.233	13959
868.364	13902
868.495	13944
868.625	14138
868.756	14233
868.886	14024
869.017	14218
869.147	14256
869.278	14415
869.408	14183
869.539	14180
869.669	14206
869.799	14218
869.929	14377
870.06	14195
870.19	14393
870.32	14450
870.45	14533
870.58	14648
870.71	14701
870.84	14697
870.97	14530
871.1	14587
871.23	14743
871.36	14781
871.489	14678
871.619	14735
871.749	14720
871.879	14758
872.008	14804
872.138	14765
872.267	14834
872.397	14705
872.526	14560
872.656	14545
872.785	14651
872.915	14788
873.044	14804
873.173	14781
873.303	14868
873.432	14876
873.561	14872
873.69	14857
873.819	14792
873.948	14956
874.077	14838
874.206	14769
874.335	14857
874.464	14986
874.593	15077
874.722	15047
874.851	15081
874.979	15165
875.108	15211
875.237	15032
875.365	15032
875.494	15081
875.623	15165
875.751	15097
875.88	15119
876.008	15245
876.136	15332
876.265	15644
876.393	15641
876.521	15717
876.65	15614
876.778	15603
876.906	15568
877.034	15542
877.162	15545
877.29	15450
877.418	15526
877.546	15587
877.674	15523
877.802	15584
877.93	15549
878.058	15530
878.185	15488
878.313	15447
878.441	15488
878.568	15397
878.696	15504
878.824	15515
878.951	15633
879.079	15751
879.206	15789
879.333	15671
879.461	15542
879.588	15652
879.715	15747
879.842	15838
879.97	15599
880.097	15393
880.224	15428
880.351	15469
880.478	15397
880.605	15447
880.732	15412
880.859	15603
880.986	15450
881.112	15431
881.239	15298
881.366	15131
881.493	15230
881.619	15039
881.746	15077
881.872	15017
881.999	15070
882.125	15146
882.252	15165
882.378	15066
882.505	15268
882.631	14944
882.757	14944
882.883	14952
883.01	14868
883.136	14857
883.262	14838
883.388	14689
883.514	14902
883.64	14880
883.766	14830
883.892	14625
884.018	14705
884.143	14853
884.269	14956
884.395	14636
884.52	14438
884.646	14606
884.772	14484
884.897	14556
885.023	14545
885.148	14701
885.274	14781
885.399	14663
885.524	14746
885.65	14594
885.775	14640
885.9	14571
886.025	14610
886.15	14552
886.275	14465
886.4	14514
886.525	14636
886.65	14670
886.775	14476
886.9	14640
887.025	14838
887.149	14587
887.274	14503
887.399	14518
887.523	14374
887.648	14385
887.773	14328
887.897	14366
888.021	14514
888.146	14317
888.27	14484
888.395	14503
888.519	14552
888.643	14465
888.767	14492
888.891	14434
889.015	14301
889.139	14309
889.263	14240
889.387	14389
889.511	14503
889.635	14393
889.759	14324
889.883	14263
890.006	14271
890.13	14309
890.254	14157
890.377	14259
890.501	14191
890.624	14088
890.748	14123
890.871	14046
890.995	13925
891.118	13940
891.241	14008
891.364	14062
891.488	14088
891.611	14012
891.734	13986
891.857	14115
891.98	13947
892.103	14142
892.226	14020
892.349	13921
892.471	13822
892.594	13982
892.717	13967
892.839	13974
892.962	14005
893.085	14126
893.207	13967
893.33	13814
893.452	13928
893.575	14069
893.697	13902
893.819	14142
893.941	14168
894.064	14100
894.186	14043
894.308	13906
894.43	14100
894.552	14244
894.674	14111
894.796	13989
894.918	14100
895.04	14008
895.161	14103
895.283	14100
895.405	14024
895.526	14027
895.648	14031
895.769	14134
895.891	14164
896.012	14187
896.134	14142
896.255	14202
896.376	14157
896.498	14157
896.619	14244
896.74	14119
896.861	14332
896.982	14552
897.103	14606
897.224	14511
897.345	14412
897.466	14339
897.587	14427
897.708	14530
897.828	14541
897.949	14469
898.07	14298
898.19	14298
898.311	14575
898.431	14499
898.552	14473
898.672	14655
898.792	14617
898.913	14541
899.033	14476
899.153	14450
899.273	14336
899.393	14358
899.513	14427
899.633	14396
899.753	14454
899.873	14286
899.993	14423
900.113	14282
900.232	14457
900.352	14275
900.472	14214
900.591	14202
900.711	14252
900.83	14172
900.95	14328
901.069	14381
901.189	14157
901.308	13978
901.427	13811
901.546	13852
901.665	13944
901.784	13925
901.904	13864
902.023	13632
902.141	13434
902.26	13472
902.379	13624
902.498	13472
902.617	13411
902.735	13544
902.854	13464
902.973	13392
903.091	13110
903.21	13164
903.328	13175
903.446	13080
903.565	12996
903.683	13072
903.801	13038
903.919	12981
904.038	12973
904.156	12909
904.274	12939
904.392	12791
904.51	12772
904.627	12806
904.745	12863
904.863	12897
904.981	12677
905.098	12555
905.216	12540
905.334	12582
905.451	12612
905.569	12502
905.686	12574
905.803	12703
905.921	12365
906.038	12372
906.155	12410
906.272	12239
906.389	12228
906.506	12133
906.623	12152
906.74	12152
906.857	12076
906.974	12049
907.091	12201
907.208	12350
907.324	12133
907.441	12136
907.557	11920
907.674	11904
907.79	11870
907.907	11809
908.023	11950
908.139	11939
908.256	11863
908.372	11832
908.488	11790
908.604	11680
908.72	11707
908.836	11642
908.952	11528
909.068	11695
909.184	11748
909.3	11657
909.415	11767
909.531	11642
909.647	11478
909.762	11345
909.878	11433
909.993	11448
910.108	11417
910.224	11417
910.339	11448
910.454	11387
910.57	11239
910.685	11227
910.8	11512
910.915	11448
911.03	11239
911.145	11136
911.259	11071
911.374	11147
911.489	11041
911.604	10984
911.718	10915
911.833	10862
911.947	10759
912.062	10740
912.176	10923
912.291	10809
912.405	10809
912.519	11143
912.633	11113
912.748	10927
912.862	10877
912.976	10831
913.09	10645
913.204	10752
913.318	10869
913.431	10984
913.545	10824
913.659	10869
913.772	10694
913.886	10596
914	10675
914.113	10717
914.226	10763
914.34	10687
914.453	10607
914.566	10710
914.68	10573
914.793	10611
914.906	10398
915.019	10344
915.132	10325
915.245	10413
915.358	10432
915.47	10382
915.583	10432
915.696	10417
915.809	10577
915.921	10519
916.034	10379
916.146	10402
916.259	10318
916.371	10447
916.483	10432
916.595	10333
916.708	10440
916.82	10303
916.932	10344
917.044	10325
917.156	10242
917.268	10246
917.38	10246
917.491	10173
917.603	10253
917.715	10348
917.826	10341
917.938	10219
918.049	10150
918.161	10211
918.272	10333
918.384	10417
918.495	10325
918.606	10120
918.717	10032
918.828	10192
918.939	10162
919.05	9968
919.161	10048
919.272	9846
919.383	9975
919.494	10150
919.604	10386
919.715	10215
919.826	10078
919.936	10067
920.047	10295
920.157	10120
920.267	10265
920.378	10139
920.488	10169
920.598	10329
920.708	10466
920.818	10356
920.928	10318
921.038	10512
921.148	10478
921.258	10207
921.368	10032
921.477	10010
921.587	9956
921.697	9907
921.806	10032
921.916	9850
922.025	9709
922.134	9709
922.244	9667
922.353	9740
922.462	9648
922.571	9481
922.68	9405
922.789	9420
922.898	9397
923.007	9401
923.116	9420
923.224	9393
923.333	9466
923.442	9230
923.55	9226
923.659	9283
923.767	9306
923.876	9317
923.984	9279
924.092	9161
924.201	9287
924.309	9222
924.417	9237
924.525	9203
924.633	9279
924.741	9907
924.849	9077
924.956	9214
925.064	9020
925.172	8956
925.279	8994
925.387	8994
925.494	9017
925.602	9195
925.709	9058
925.816	8979
925.924	9081
926.031	9135
926.138	9077
926.245	9062
926.352	9001
926.459	9085
926.566	9184
926.673	9013
926.779	8929
926.886	8937
926.993	8815
927.099	8735
927.206	8750
927.312	8754
927.419	8750
927.525	8758
927.631	8826
927.737	8701
927.843	8663
927.95	8575
928.056	8644
928.162	8651
928.267	8777
928.373	9298
928.479	8804
928.585	8571
928.69	8651
928.796	8716
928.901	8583
929.007	8434
929.112	8579
929.218	8549
929.323	8514
929.428	8522
929.533	8610
929.638	8438
929.743	8454
929.848	8476
929.953	8461
930.058	8370
930.163	8267
930.267	8267
930.372	8450
930.477	8225
930.581	8415
930.685	8328
930.79	8191
930.894	8221
930.998	8161
931.103	8358
931.207	7993
931.311	7947
931.415	7860
931.519	7655
931.623	7658
