Data from test_V78500241_250.txt Node
Date: Fri Mar 25 14:35:27 CST 2022
User: usil
Spectrometer: V785-0024
Trigger mode: 0
Integration Time (sec): 4.000000E-1
Scans to average: 1
Nonlinearity correction enabled: false
Boxcar width: 0
Storing dark spectrum: false
XAxis mode: Wavelengths
Number of Pixels in Spectrum: 1024
>>>>>Begin Spectral Data<<<<<
801.071	27534
801.214	27500
801.356	27150
801.499	27085
801.641	26902
801.783	26971
801.926	26929
802.068	26990
802.211	26788
802.353	26629
802.496	26564
802.638	26636
802.78	26549
802.923	26427
803.065	26453
803.208	26358
803.35	26419
803.492	26518
803.635	26571
803.777	26560
803.919	26609
804.061	26929
804.204	26571
804.346	26385
804.488	26305
804.63	26457
804.773	26442
804.915	26503
805.057	26522
805.199	26419
805.341	26579
805.483	26617
805.626	26556
805.768	26480
805.91	26533
806.052	26514
806.194	26446
806.336	26769
806.478	26419
806.62	26537
806.762	26571
806.904	26712
807.046	26944
807.188	26918
807.33	26819
807.472	27024
807.614	26982
807.756	26785
807.898	26735
808.04	26788
808.182	26674
808.324	26796
808.465	26800
808.607	26990
808.749	27077
808.891	27214
809.033	27420
809.174	27401
809.316	27214
809.458	27195
809.6	27135
809.741	27161
809.883	27150
810.025	27222
810.166	27424
810.308	27336
810.45	27241
810.591	27093
810.733	27001
810.875	26937
811.016	26765
811.158	26765
811.299	26777
811.441	26960
811.582	26963
811.724	26845
811.865	26872
812.007	26811
812.148	26902
812.29	26902
812.431	27062
812.573	27252
812.714	27077
812.855	27275
812.997	27458
813.138	27572
813.279	27435
813.421	27321
813.562	27317
813.703	27123
813.845	26967
813.986	26781
814.127	26606
814.268	26575
814.41	26438
814.551	26298
814.692	26556
814.833	26366
814.974	26495
815.115	26294
815.256	26358
815.397	26294
815.539	26259
815.68	26100
815.821	26081
815.962	26180
816.103	26164
816.244	25906
816.385	25917
816.526	25959
816.666	25746
816.807	25658
816.948	25525
817.089	25712
817.23	25556
817.371	25449
817.512	25525
817.653	25613
817.793	25609
817.934	25552
818.075	25518
818.216	25594
818.356	25514
818.497	25354
818.638	25316
818.778	25175
818.919	25316
819.06	25400
819.2	25240
819.341	25388
819.481	25327
819.622	25635
819.762	25780
819.903	25662
820.043	25632
820.184	25540
820.324	25533
820.465	25559
820.605	25518
820.746	25499
820.886	25438
821.026	25415
821.167	25521
821.307	25582
821.447	25422
821.588	25392
821.728	25069
821.868	25042
822.008	24859
822.149	24935
822.289	24856
822.429	24642
822.569	24604
822.709	24574
822.849	24509
822.99	24311
823.13	24414
823.27	24342
823.41	24140
823.55	24186
823.69	24224
823.83	24152
823.97	24060
824.11	23901
824.25	23870
824.389	23961
824.529	23999
824.669	23878
824.809	24053
824.949	24003
825.089	23996
825.228	23843
825.368	23726
825.508	23718
825.648	23680
825.787	23748
825.927	23786
826.067	23672
826.206	23547
826.346	23661
826.485	23619
826.625	23585
826.765	23779
826.904	23718
827.044	23452
827.183	23360
827.323	23311
827.462	23353
827.601	23349
827.741	23280
827.88	23379
828.02	23143
828.159	23318
828.298	23345
828.437	23349
828.577	23311
828.716	23345
828.855	23307
828.994	23067
829.134	23022
829.273	23109
829.412	22980
829.551	23006
829.69	22930
829.829	23018
829.968	23048
830.107	23090
830.246	22999
830.385	22965
830.524	22961
830.663	22854
830.802	22717
830.941	22554
831.08	22656
831.219	22717
831.357	22607
831.496	22649
831.635	22504
831.774	22485
831.913	22325
832.051	22348
832.19	22360
832.329	22382
832.467	22333
832.606	22223
832.744	22219
832.883	22238
833.022	22131
833.16	22158
833.299	22158
833.437	22215
833.576	22310
833.714	22249
833.852	22238
833.991	22287
834.129	22306
834.267	22348
834.406	22207
834.544	22314
834.682	22219
834.821	22200
834.959	22287
835.097	22242
835.235	22215
835.373	22139
835.511	22268
835.65	22139
835.788	22166
835.926	21964
836.064	21972
836.202	21899
836.34	22063
836.478	22219
836.615	22051
836.753	22051
836.891	22177
837.029	22105
837.167	21945
837.305	21987
837.443	21937
837.58	21915
837.718	22017
837.856	21918
837.993	21854
838.131	21964
838.269	21728
838.406	21850
838.544	21648
838.681	21591
838.819	21576
838.956	21435
839.094	21393
839.231	21329
839.369	21477
839.506	21720
839.643	21583
839.781	21351
839.918	21268
840.055	21370
840.193	21260
840.33	21272
840.467	21207
840.604	21245
840.742	21473
840.879	21066
841.016	21169
841.153	21150
841.29	21275
841.427	21329
841.564	21138
841.701	21157
841.838	21272
841.975	21104
842.112	21036
842.249	21024
842.385	20944
842.522	21089
842.659	21123
842.796	20834
842.933	20994
843.069	20853
843.206	20902
843.343	20963
843.479	21017
843.616	20990
843.752	20693
843.889	20724
844.025	20895
844.162	20762
844.298	20746
844.435	20773
844.571	20651
844.708	20857
844.844	20807
844.98	20864
845.117	20754
845.253	20648
845.389	20625
845.525	20670
845.661	20693
845.798	20590
845.934	20777
846.07	20788
846.206	20861
846.342	20769
846.478	20651
846.614	20377
846.75	20278
846.886	20180
847.022	20286
847.158	20183
847.294	20039
847.429	20172
847.565	20187
847.701	20393
847.837	19875
847.972	19826
848.108	19944
848.244	19989
848.379	19864
848.515	19696
848.65	19693
848.786	19620
848.921	19658
849.057	19795
849.192	19715
849.328	19803
849.463	19712
849.598	19632
849.734	19742
849.869	19601
850.004	19468
850.14	19460
850.275	19487
850.41	19354
850.545	19403
850.68	19445
850.815	19537
850.95	19483
851.085	19613
851.22	19510
851.355	19460
851.49	19400
851.625	19430
851.76	19392
851.895	19316
852.03	19365
852.165	19518
852.299	19426
852.434	19514
852.569	19499
852.703	19301
852.838	19537
852.973	19514
853.107	19529
853.242	19339
853.376	19232
853.511	19179
853.645	19240
853.78	19350
853.914	19232
854.048	19175
854.183	19244
854.317	19236
854.451	19472
854.585	19266
854.72	19168
854.854	19304
854.988	19164
855.122	19289
855.256	19183
855.39	19152
855.524	19320
855.658	19289
855.792	19343
855.926	19129
856.06	19206
856.194	19331
856.327	19148
856.461	19126
856.595	19217
856.729	19301
856.862	19358
856.996	19320
857.13	19183
857.263	19373
857.397	19232
857.53	19190
857.664	19263
857.797	19152
857.931	19343
858.064	19171
858.197	19247
858.331	19255
858.464	19137
858.597	19107
858.731	19244
858.864	19114
858.997	19148
859.13	19228
859.263	19221
859.396	19259
859.529	19019
859.662	19190
859.795	19122
859.928	19114
860.061	19324
860.194	19365
860.327	19228
860.46	19160
860.592	19285
860.725	19274
860.858	19327
860.99	19145
861.123	18970
861.256	19145
861.388	19080
861.521	19750
861.653	18977
861.786	19031
861.918	19057
862.05	19114
862.183	19285
862.315	19255
862.447	19209
862.58	19209
862.712	18996
862.844	18958
862.976	18928
863.108	18985
863.24	19263
863.372	18825
863.504	19076
863.636	18897
863.768	18875
863.9	18882
864.032	18833
864.164	18875
864.296	18875
864.428	18954
864.559	18916
864.691	18924
864.823	18882
864.954	18928
865.086	18920
865.217	18749
865.349	18856
865.48	18837
865.612	18730
865.743	18977
865.875	18852
866.006	18772
866.137	18825
866.269	18829
866.4	18760
866.531	18719
866.662	18658
866.793	18764
866.924	18715
867.055	18787
867.186	18730
867.317	18730
867.448	18650
867.579	18654
867.71	18688
867.841	18658
867.972	18730
868.103	18734
868.233	18814
868.364	18745
868.495	18825
868.625	18962
868.756	18932
868.886	19004
869.017	18939
869.147	19076
869.278	19141
869.408	19034
869.539	18973
869.669	18973
869.799	19057
869.929	19148
870.06	19019
870.19	19225
870.32	19308
870.45	19221
870.58	19259
870.71	19373
870.84	19381
870.97	19274
871.1	19369
871.23	19438
871.36	19464
871.489	19476
871.619	19426
871.749	19533
871.879	19620
872.008	19575
872.138	19567
872.267	19601
872.397	19495
872.526	19362
872.656	19422
872.785	19388
872.915	19533
873.044	19613
873.173	19689
873.303	19582
873.432	19594
873.561	19635
873.69	19544
873.819	19449
873.948	19712
874.077	19514
874.206	19457
874.335	19624
874.464	19696
874.593	19811
874.722	19788
874.851	19917
874.979	19921
875.108	19947
875.237	19830
875.365	19822
875.494	19795
875.623	20092
875.751	19833
875.88	19928
876.008	20062
876.136	20077
876.265	20267
876.393	20374
876.521	20275
876.65	20320
876.778	20282
876.906	20069
877.034	20199
877.162	20328
877.29	20164
877.418	20298
877.546	20339
877.674	20313
877.802	20301
877.93	20206
878.058	20092
878.185	20008
878.313	20138
878.441	20278
878.568	20122
878.696	20187
878.824	20336
878.951	20320
879.079	20484
879.206	20537
879.333	20659
879.461	20492
879.588	20484
879.715	20549
879.842	20526
879.97	20385
880.097	20164
880.224	20225
880.351	20134
880.478	20191
880.605	20058
880.732	20065
880.859	20396
880.986	20119
881.112	20122
881.239	20111
881.366	19902
881.493	19837
881.619	19772
881.746	19738
881.872	19689
881.999	19616
882.125	19750
882.252	19757
882.378	19693
882.505	19871
882.631	19731
882.757	19563
882.883	19544
883.01	19548
883.136	19460
883.262	19320
883.388	19308
883.514	19495
883.64	19533
883.766	19487
883.892	19335
884.018	19168
884.143	19419
884.269	19483
884.395	19228
884.52	19122
884.646	19221
884.772	19122
884.897	18993
885.023	19050
885.148	19251
885.274	19266
885.399	19137
885.524	19080
885.65	19118
885.775	19141
885.9	19091
886.025	19282
886.15	19228
886.275	18981
886.4	18951
886.525	18993
886.65	19103
886.775	19046
886.9	19289
887.025	19335
887.149	19069
887.274	18932
887.399	18814
887.523	18867
887.648	18776
887.773	18684
887.897	18905
888.021	19042
888.146	18795
888.27	18867
888.395	18981
888.519	18954
888.643	18837
888.767	18958
888.891	18795
889.015	18688
889.139	18783
889.263	18608
889.387	18817
889.511	18932
889.635	18749
889.759	18650
889.883	18608
890.006	18749
890.13	18795
890.254	18620
890.377	18566
890.501	18391
890.624	18365
890.748	18494
890.871	18353
890.995	18281
891.118	18315
891.241	18159
891.364	18292
891.488	18422
891.611	18395
891.734	18296
891.857	18277
891.98	18311
892.103	18334
892.226	18224
892.349	18338
892.471	18072
892.594	18270
892.717	18262
892.839	18174
892.962	18330
893.085	18251
893.207	18266
893.33	18011
893.452	18205
893.575	18266
893.697	18125
893.819	18323
893.941	18304
894.064	18232
894.186	18194
894.308	18076
894.43	18300
894.552	18327
894.674	18235
894.796	18190
894.918	18133
895.04	18220
895.161	18209
895.283	18182
895.405	18167
895.526	18232
895.648	18186
895.769	18197
895.891	18220
896.012	18228
896.134	18311
896.255	18205
896.376	18365
896.498	18213
896.619	18315
896.74	18243
896.861	18376
896.982	18490
897.103	18741
897.224	18566
897.345	18517
897.466	18395
897.587	18547
897.708	18582
897.828	18601
897.949	18452
898.07	18350
898.19	18433
898.311	18536
898.431	18441
898.552	18521
898.672	18650
898.792	18601
898.913	18532
899.033	18407
899.153	18304
899.273	18171
899.393	18315
899.513	18277
899.633	18315
899.753	18292
899.873	18254
899.993	18254
900.113	18239
900.232	18201
900.352	18308
900.472	18114
900.591	18102
900.711	18186
900.83	18045
900.95	18136
901.069	18155
901.189	17977
901.308	17794
901.427	17722
901.546	17737
901.665	17611
901.784	17672
901.904	17707
902.023	17589
902.141	17208
902.26	17216
902.379	17280
902.498	17277
902.617	17132
902.735	17159
902.854	17193
902.973	17143
903.091	16946
903.21	16881
903.328	16835
903.446	16809
903.565	16755
903.683	16774
903.801	16634
903.919	16706
904.038	16588
904.156	16546
904.274	16546
904.392	16478
904.51	16466
904.627	16466
904.745	16516
904.863	16493
904.981	16291
905.098	16166
905.216	16173
905.334	16086
905.451	16185
905.569	16185
905.686	16097
905.803	16169
905.921	15869
906.038	15998
906.155	15964
906.272	15812
906.389	15850
906.506	15720
906.623	15797
906.74	15663
906.857	15572
906.974	15682
907.091	15770
907.208	15739
907.324	15751
907.441	15530
907.557	15405
907.674	15454
907.79	15252
907.907	15348
908.023	15359
908.139	15363
908.256	15325
908.372	15313
908.488	15241
908.604	15108
908.72	15013
908.836	15138
908.952	15104
909.068	15013
909.184	15272
909.3	15032
909.415	15036
909.531	15001
909.647	14815
909.762	14739
909.878	14712
909.993	14838
910.108	14872
910.224	14701
910.339	14659
910.454	14606
910.57	14636
910.685	14560
910.8	14834
910.915	14758
911.03	14632
911.145	14438
911.259	14362
911.374	14362
911.489	14271
911.604	14332
911.718	14126
911.833	14199
911.947	14046
912.062	13993
912.176	14130
912.291	14149
912.405	14100
912.519	14332
912.633	14282
912.748	14180
912.862	14157
912.976	13944
913.09	13822
913.204	13913
913.318	13997
913.431	14050
913.545	14069
913.659	13993
913.772	13936
913.886	13898
914	13795
914.113	13860
914.226	13841
914.34	13860
914.453	13655
914.566	13833
914.68	13670
914.793	13658
914.906	13571
915.019	13434
915.132	13430
915.245	13472
915.358	13506
915.47	13518
915.583	13472
915.696	13518
915.809	13548
915.921	13578
916.034	13457
916.146	13407
916.259	13350
916.371	13422
916.483	13369
916.595	13324
916.708	13377
916.82	13358
916.932	13255
917.044	13304
917.156	13274
917.268	13187
917.38	13171
917.491	13156
917.603	13141
917.715	13316
917.826	13293
917.938	13069
918.049	13069
918.161	13110
918.272	13308
918.384	13320
918.495	13072
918.606	12989
918.717	12962
918.828	12970
918.939	13015
919.05	12916
919.161	12981
919.272	12673
919.383	12806
919.494	13042
919.604	13065
919.715	12962
919.826	12848
919.936	12871
920.047	12977
920.157	12871
920.267	13057
920.378	13076
920.488	12848
920.598	13061
920.708	13247
920.818	13110
920.928	13053
921.038	13225
921.148	13190
921.258	12875
921.368	12722
921.477	12639
921.587	12646
921.697	12582
921.806	12642
921.916	12551
922.025	12308
922.134	12350
922.244	12380
922.353	12277
922.462	12220
922.571	12194
922.68	11996
922.789	11999
922.898	11999
923.007	11923
923.116	12098
923.224	12011
923.333	11954
923.442	11824
923.55	11798
923.659	11840
923.767	11946
923.876	11741
923.984	11859
924.092	11767
924.201	11840
924.309	11817
924.417	11786
924.525	11646
924.633	11714
924.741	12563
924.849	11562
924.956	11695
925.064	11608
925.172	11440
925.279	11493
925.387	11524
925.494	11512
925.602	11539
925.709	11547
925.816	11391
925.924	11516
926.031	11524
926.138	11505
926.245	11501
926.352	11417
926.459	11524
926.566	11551
926.673	11429
926.779	11284
926.886	11284
926.993	11105
927.099	11143
927.206	10968
927.312	11045
927.419	11064
927.525	11079
927.631	11147
927.737	11052
927.843	10957
927.95	10869
928.056	10904
928.162	11025
928.267	10995
928.373	11474
928.479	11071
928.585	10774
928.69	10900
928.796	10934
928.901	10835
929.007	10714
929.112	10771
929.218	10862
929.323	10645
929.428	10653
929.533	10828
929.638	10714
929.743	10675
929.848	10744
929.953	10675
930.058	10630
930.163	10455
930.267	10523
930.372	10596
930.477	10348
930.581	10668
930.685	10481
930.79	10306
930.894	10379
930.998	10337
931.103	10462
931.207	10029
931.311	9956
931.415	9960
931.519	9720
931.623	9812
