Data from test_V78500241_766.txt Node
Date: Fri Mar 25 14:39:03 CST 2022
User: usil
Spectrometer: V785-0024
Trigger mode: 0
Integration Time (sec): 4.000000E-1
Scans to average: 1
Nonlinearity correction enabled: false
Boxcar width: 0
Storing dark spectrum: false
XAxis mode: Wavelengths
Number of Pixels in Spectrum: 1024
>>>>>Begin Spectral Data<<<<<
801.071	27066
801.214	26823
801.356	26545
801.499	26530
801.641	26317
801.783	26358
801.926	26282
802.068	26149
802.211	26115
802.353	26005
802.496	25788
802.638	25818
802.78	25875
802.923	25734
803.065	25784
803.208	25788
803.35	25776
803.492	25887
803.635	25997
803.777	25818
803.919	25913
804.061	26351
804.204	25982
804.346	25921
804.488	25909
804.63	25982
804.773	26005
804.915	26027
805.057	26248
805.199	26294
805.341	26381
805.483	26431
805.626	26575
805.768	26522
805.91	26640
806.052	26674
806.194	26746
806.336	27291
806.478	27237
806.62	27306
806.762	27793
806.904	28078
807.046	28656
807.188	28854
807.33	29429
807.472	29996
807.614	30509
807.756	31350
807.898	32336
808.04	33918
808.182	35999
808.324	38438
808.465	41383
808.607	44644
808.749	47512
808.891	49190
809.033	49609
809.174	47786
809.316	45115
809.458	41604
809.6	38218
809.741	35436
809.883	33405
810.025	32100
810.166	30871
810.308	30155
810.45	29535
810.591	28999
810.733	28337
810.875	27945
811.016	27679
811.158	27454
811.299	27424
811.441	27268
811.582	27268
811.724	27047
811.865	26785
812.007	26800
812.148	26655
812.29	26697
812.431	26746
812.573	26804
812.714	26883
812.855	26864
812.997	26815
813.138	26921
813.279	26758
813.421	26667
813.562	26678
813.703	26339
813.845	26317
813.986	25871
814.127	25715
814.268	25605
814.41	25529
814.551	25430
814.692	25578
814.833	25434
814.974	25571
815.115	25350
815.256	25388
815.397	25160
815.539	25221
815.68	25285
815.821	25019
815.962	24878
816.103	24897
816.244	24817
816.385	24654
816.526	24582
816.666	24578
816.807	24254
816.948	24544
817.089	24433
817.23	24304
817.371	24239
817.512	24330
817.653	24224
817.793	24087
817.934	24251
818.075	24216
818.216	24311
818.356	24254
818.497	24064
818.638	23824
818.778	23908
818.919	23897
819.06	23961
819.2	24049
819.341	24140
819.481	24095
819.622	24140
819.762	24327
819.903	24262
820.043	24125
820.184	24136
820.324	24129
820.465	24194
820.605	24053
820.746	23977
820.886	23843
821.026	24121
821.167	23904
821.307	24079
821.447	23980
821.588	23802
821.728	23752
821.868	23463
822.008	23372
822.149	23292
822.289	23368
822.429	23094
822.569	23033
822.709	22930
822.849	22866
822.99	22706
823.13	22786
823.27	22687
823.41	22497
823.55	22489
823.69	22584
823.83	22497
823.97	22382
824.11	22284
824.25	22280
824.389	22280
824.529	22474
824.669	22398
824.809	22409
824.949	22436
825.089	22459
825.228	22268
825.368	22147
825.508	22010
825.648	22090
825.787	22032
825.927	22185
826.067	21998
826.206	21953
826.346	22124
826.485	22093
826.625	22048
826.765	22215
826.904	22055
827.044	21823
827.183	21895
827.323	21774
827.462	21736
827.601	21720
827.741	21759
827.88	21690
828.02	21701
828.159	21728
828.298	21679
828.437	21743
828.577	21694
828.716	21804
828.855	21629
828.994	21469
829.134	21412
829.273	21443
829.412	21325
829.551	21283
829.69	21431
829.829	21378
829.968	21454
830.107	21523
830.246	21515
830.385	21466
830.524	21325
830.663	21241
830.802	21093
830.941	21036
831.08	21074
831.219	21001
831.357	21203
831.496	21230
831.635	20971
831.774	20921
831.913	20891
832.051	20853
832.19	20849
832.329	20971
832.467	20982
832.606	20864
832.744	20823
832.883	20971
833.022	21036
833.16	21127
833.299	21184
833.437	21287
833.576	21580
833.714	21618
833.852	21591
833.991	21819
834.129	21926
834.267	22055
834.406	21759
834.544	21850
834.682	21827
834.821	21553
834.959	21622
835.097	21321
835.235	21462
835.373	21131
835.511	21081
835.65	20963
835.788	20830
835.926	20598
836.064	20571
836.202	20583
836.34	20640
836.478	20598
836.615	20613
836.753	20552
836.891	20716
837.029	20461
837.167	20484
837.305	20461
837.443	20457
837.58	20396
837.718	20305
837.856	20419
837.993	20271
838.131	20324
838.269	20263
838.406	20233
838.544	20263
838.681	20043
838.819	19986
838.956	19841
839.094	19784
839.231	19860
839.369	19928
839.506	20092
839.643	20065
839.781	19742
839.918	19757
840.055	19772
840.193	19734
840.33	19704
840.467	19769
840.604	19799
840.742	20031
840.879	19666
841.016	19643
841.153	19761
841.29	19780
841.427	19784
841.564	19868
841.701	19883
841.838	19734
841.975	19712
842.112	19685
842.249	19693
842.385	19563
842.522	19712
842.659	19616
842.796	19586
842.933	19719
843.069	19616
843.206	19780
843.343	19731
843.479	19685
843.616	19826
843.752	19582
843.889	19552
844.025	19788
844.162	19723
844.298	20027
844.435	19982
844.571	20202
844.708	20526
844.844	20876
844.98	21355
845.117	21979
845.253	22774
845.389	24696
845.525	28253
845.661	34013
845.798	40706
845.934	45675
846.07	47520
846.206	46169
846.342	41589
846.478	34843
846.614	29033
846.75	25297
846.886	23071
847.022	21911
847.158	20941
847.294	20393
847.429	19883
847.565	19681
847.701	19734
847.837	19225
847.972	19000
848.108	19088
848.244	19061
848.379	18779
848.515	18726
848.65	18578
848.786	18646
848.921	18642
849.057	18753
849.192	18635
849.328	18597
849.463	18475
849.598	18593
849.734	18433
849.869	18426
850.004	18209
850.14	18342
850.275	18323
850.41	18220
850.545	18129
850.68	18216
850.815	18251
850.95	18384
851.085	18388
851.22	18327
851.355	18258
851.49	18186
851.625	18174
851.76	18140
851.895	18133
852.03	18171
852.165	18174
852.299	18243
852.434	18357
852.569	18296
852.703	18262
852.838	18304
852.973	18388
853.107	18513
853.242	18338
853.376	18258
853.511	18247
853.645	18308
853.78	18483
853.914	18388
854.048	18369
854.183	18395
854.317	18486
854.451	18673
854.585	18456
854.72	18479
854.854	18433
854.988	18380
855.122	18292
855.256	18228
855.39	18224
855.524	18243
855.658	18235
855.792	18239
855.926	18197
856.06	18194
856.194	18121
856.327	18148
856.461	17931
856.595	18117
856.729	18007
856.862	18125
856.996	18049
857.13	18121
857.263	18057
857.397	18114
857.53	17954
857.664	18060
857.797	18106
857.931	18068
858.064	18095
858.197	18057
858.331	17939
858.464	17836
858.597	17752
858.731	17893
858.864	17927
858.997	17969
859.13	17889
859.263	17931
859.396	17954
859.529	17870
859.662	17836
859.795	17889
859.928	17923
860.061	18015
860.194	17946
860.327	17977
860.46	17878
860.592	18011
860.725	17950
860.858	17969
860.99	17794
861.123	17767
861.256	17771
861.388	17912
861.521	18555
861.653	17649
861.786	17638
861.918	17668
862.05	17737
862.183	17817
862.315	17859
862.447	17931
862.58	17695
862.712	17558
862.844	17505
862.976	17646
863.108	17642
863.24	18068
863.372	17463
863.504	17501
863.636	17539
863.768	17562
863.9	17471
864.032	17421
864.164	17398
864.296	17672
864.428	17611
864.559	17687
864.691	17589
864.823	17573
864.954	17558
865.086	17474
865.217	17493
865.349	17410
865.48	17452
865.612	17417
865.743	17608
865.875	17486
866.006	17539
866.137	17520
866.269	17471
866.4	17387
866.531	17425
866.662	17379
866.793	17414
866.924	17410
867.055	17455
867.186	17402
867.317	17341
867.448	17353
867.579	17322
867.71	17417
867.841	17318
867.972	17490
868.103	17452
868.233	17528
868.364	17478
868.495	17455
868.625	17745
868.756	17703
868.886	17585
869.017	17638
869.147	17828
869.278	17817
869.408	17718
869.539	17718
869.669	17828
869.799	17745
869.929	17783
870.06	17954
870.19	17999
870.32	18072
870.45	17977
870.58	18182
870.71	18289
870.84	18380
870.97	18205
871.1	18178
871.23	18407
871.36	18323
871.489	18243
871.619	18365
871.749	18460
871.879	18456
872.008	18528
872.138	18563
872.267	18414
872.397	18391
872.526	18342
872.656	18319
872.785	18467
872.915	18563
873.044	18631
873.173	18559
873.303	18711
873.432	18650
873.561	18776
873.69	18738
873.819	18719
873.948	18772
874.077	18852
874.206	18654
874.335	18795
874.464	18954
874.593	19107
874.722	19057
874.851	19190
874.979	19304
875.108	19301
875.237	19263
875.365	19129
875.494	19285
875.623	19540
875.751	19422
875.88	19552
876.008	19674
876.136	19734
876.265	19883
876.393	20130
876.521	20130
876.65	20119
876.778	20187
876.906	20298
877.034	20237
877.162	20244
877.29	20461
877.418	20530
877.546	20583
877.674	20735
877.802	20895
877.93	21066
878.058	21047
878.185	21241
878.313	21564
878.441	21854
878.568	22128
878.696	22911
878.824	23714
878.951	24757
879.079	26172
879.206	28303
879.333	30437
879.461	32039
879.588	33176
879.715	33142
879.842	32320
879.97	30338
880.097	28325
880.224	26526
880.351	25559
880.478	24525
880.605	23950
880.732	23737
880.859	23627
880.986	23220
881.112	23178
881.239	23041
881.366	22843
881.493	22801
881.619	22698
881.746	22721
881.872	22736
881.999	22717
882.125	22774
882.252	22790
882.378	22965
882.505	23128
882.631	22850
882.757	22672
882.883	22854
883.01	22847
883.136	22668
883.262	22786
883.388	22561
883.514	22786
883.64	22725
883.766	22786
883.892	22462
884.018	22546
884.143	22691
884.269	22812
884.395	22481
884.52	22390
884.646	22573
884.772	22428
884.897	22432
885.023	22478
885.148	22668
885.274	22500
885.399	22485
885.524	22246
885.65	22192
885.775	21998
885.9	21842
886.025	21835
886.15	21671
886.275	21458
886.4	21256
886.525	21245
886.65	21009
886.775	20948
886.9	20925
887.025	20937
887.149	20575
887.274	20286
887.399	20191
887.523	20130
887.648	20183
887.773	19940
887.897	20039
888.021	20001
888.146	19799
888.27	19898
888.395	19784
888.519	19704
888.643	19658
888.767	19582
888.891	19430
889.015	19285
889.139	19346
889.263	19221
889.387	19407
889.511	19464
889.635	19320
889.759	18985
889.883	19015
890.006	19114
890.13	19061
890.254	18939
890.377	18882
890.501	18715
890.624	18601
890.748	18798
890.871	18528
890.995	18494
891.118	18395
891.241	18547
891.364	18494
891.488	18441
891.611	18319
891.734	18228
891.857	18334
891.98	18304
892.103	18235
892.226	18247
892.349	18117
892.471	17828
892.594	18049
892.717	18144
892.839	18034
892.962	18091
893.085	17996
893.207	17961
893.33	17809
893.452	17779
893.575	17901
893.697	17901
893.819	17954
893.941	17984
894.064	17920
894.186	17707
894.308	17752
894.43	17824
894.552	17855
894.674	17794
894.796	17684
894.918	17600
895.04	17532
895.161	17767
895.283	17615
895.405	17501
895.526	17676
895.648	17611
895.769	17623
895.891	17562
896.012	17661
896.134	17528
896.255	17520
896.376	17509
896.498	17467
896.619	17585
896.74	17570
896.861	17524
896.982	17790
897.103	17931
897.224	17813
897.345	17691
897.466	17600
897.587	17699
897.708	17802
897.828	17653
897.949	17592
898.07	17554
898.19	17642
898.311	17726
898.431	17547
898.552	17668
898.672	17786
898.792	17691
898.913	17691
899.033	17672
899.153	17520
899.273	17417
899.393	17463
899.513	17512
899.633	17600
899.753	17577
899.873	17455
899.993	17566
900.113	17398
900.232	17547
900.352	17467
900.472	17379
900.591	17258
900.711	17315
900.83	17280
900.95	17395
901.069	17341
901.189	17170
901.308	17006
901.427	16965
901.546	16915
901.665	16923
901.784	16866
901.904	16767
902.023	16580
902.141	16459
902.26	16329
902.379	16440
902.498	16284
902.617	16150
902.735	16329
902.854	16280
902.973	16242
903.091	15876
903.21	15949
903.328	15998
903.446	15884
903.565	15823
903.683	15937
903.801	15667
903.919	15739
904.038	15743
904.156	15648
904.274	15713
904.392	15496
904.51	15557
904.627	15386
904.745	15504
904.863	15572
904.981	15287
905.098	15249
905.216	15203
905.334	15165
905.451	15264
905.569	15211
905.686	15161
905.803	15173
905.921	14918
906.038	14975
906.155	14921
906.272	14811
906.389	14826
906.506	14701
906.623	14663
906.74	14765
906.857	14629
906.974	14644
907.091	14720
907.208	14842
907.324	14746
907.441	14613
907.557	14476
907.674	14415
907.79	14301
907.907	14446
908.023	14442
908.139	14336
908.256	14385
908.372	14320
908.488	14256
908.604	14119
908.72	14058
908.836	14210
908.952	14092
909.068	14195
909.184	14202
909.3	14031
909.415	14164
909.531	14096
909.647	13875
909.762	13906
909.878	13780
909.993	13826
910.108	13906
910.224	13788
910.339	13898
910.454	13689
910.57	13681
910.685	13613
910.8	14031
910.915	13864
911.03	13780
911.145	13559
911.259	13487
911.374	13518
911.489	13369
911.604	13403
911.718	13190
911.833	13316
911.947	13152
912.062	13050
912.176	13228
912.291	13289
912.405	13206
912.519	13407
912.633	13373
912.748	13255
912.862	13202
912.976	13034
913.09	12943
913.204	12993
913.318	13091
913.431	13171
913.545	13141
913.659	13145
913.772	13034
913.886	12928
914	12947
914.113	13046
914.226	12996
914.34	13099
914.453	12859
914.566	12951
914.68	12806
914.793	12844
914.906	12635
915.019	12662
915.132	12547
915.245	12639
915.358	12627
915.47	12566
915.583	12684
915.696	12703
915.809	12787
915.921	12871
916.034	12574
916.146	12608
916.259	12566
916.371	12772
916.483	12688
916.595	12631
916.708	12658
916.82	12662
916.932	12620
917.044	12559
917.156	12616
917.268	12471
917.38	12544
917.491	12483
917.603	12460
917.715	12475
917.826	12635
917.938	12342
918.049	12243
918.161	12437
918.272	12578
918.384	12448
918.495	12388
918.606	12209
918.717	12186
918.828	12254
918.939	12140
919.05	12114
919.161	12239
919.272	11984
919.383	12026
919.494	12205
919.604	12513
919.715	12133
919.826	12083
919.936	12201
920.047	12323
920.157	12190
920.267	12308
920.378	12209
920.488	12232
920.598	12365
920.708	12559
920.818	12365
920.928	12342
921.038	12532
921.148	12513
921.258	12178
921.368	12129
921.477	12041
921.587	12060
921.697	11859
921.806	12011
921.916	11908
922.025	11691
922.134	11589
922.244	11558
922.353	11748
922.462	11608
922.571	11463
922.68	11379
922.789	11269
922.898	11433
923.007	11345
923.116	11349
923.224	11334
923.333	11250
923.442	11193
923.55	11208
923.659	11140
923.767	11242
923.876	11174
923.984	11178
924.092	11109
924.201	11094
924.309	11045
924.417	11166
924.525	11041
924.633	11132
924.741	11824
924.849	10961
924.956	11003
925.064	10873
925.172	10786
925.279	10896
925.387	11025
925.494	10915
925.602	10934
925.709	10858
925.816	10763
925.924	10771
926.031	10987
926.138	10900
926.245	10873
926.352	10691
926.459	10915
926.566	10896
926.673	10767
926.779	10687
926.886	10702
926.993	10603
927.099	10512
927.206	10481
927.312	10421
927.419	10630
927.525	10538
927.631	10497
927.737	10512
927.843	10440
927.95	10276
928.056	10394
928.162	10386
928.267	10470
928.373	11060
928.479	10398
928.585	10318
928.69	10390
928.796	10379
928.901	10265
929.007	10188
929.112	10299
929.218	10223
929.323	10230
929.428	10181
929.533	10291
929.638	10147
929.743	10086
929.848	10162
929.953	10154
930.058	10013
930.163	9899
930.267	9918
930.372	10071
930.477	9876
930.581	10086
930.685	9937
930.79	9800
930.894	9838
930.998	9789
931.103	9945
931.207	9614
931.311	9500
931.415	9405
931.519	9283
931.623	9268
