Data from test_V78500241_2010.txt Node
Date: Fri Mar 25 14:47:42 CST 2022
User: usil
Spectrometer: V785-0024
Trigger mode: 0
Integration Time (sec): 4.000000E-1
Scans to average: 1
Nonlinearity correction enabled: false
Boxcar width: 0
Storing dark spectrum: false
XAxis mode: Wavelengths
Number of Pixels in Spectrum: 1024
>>>>>Begin Spectral Data<<<<<
801.071	22131
801.214	21983
801.356	21671
801.499	21622
801.641	21530
801.783	21481
801.926	21614
802.068	21428
802.211	21348
802.353	21207
802.496	20902
802.638	21024
802.78	20933
802.923	20754
803.065	20815
803.208	20735
803.35	20891
803.492	20910
803.635	20891
803.777	20743
803.919	20788
804.061	21116
804.204	20876
804.346	20807
804.488	20727
804.63	20769
804.773	20689
804.915	20716
805.057	20735
805.199	20708
805.341	20800
805.483	20701
805.626	20724
805.768	20632
805.91	20708
806.052	20682
806.194	20674
806.336	20811
806.478	20590
806.62	20727
806.762	20765
806.904	20941
807.046	21169
807.188	21047
807.33	21051
807.472	21135
807.614	20872
807.756	20929
807.898	20925
808.04	20891
808.182	20743
808.324	20811
808.465	20891
808.607	20883
808.749	21093
808.891	21146
809.033	21249
809.174	21104
809.316	21108
809.458	21001
809.6	21032
809.741	21154
809.883	21252
810.025	21173
810.166	21252
810.308	21351
810.45	21070
810.591	21104
810.733	20948
810.875	20956
811.016	20880
811.158	20823
811.299	20979
811.441	20998
811.582	21020
811.724	20982
811.865	20777
812.007	20762
812.148	20864
812.29	20880
812.431	21017
812.573	21028
812.714	21233
812.855	21378
812.997	21412
813.138	21587
813.279	21477
813.421	21195
813.562	21207
813.703	21028
813.845	21028
813.986	20686
814.127	20579
814.268	20404
814.41	20465
814.551	20415
814.692	20381
814.833	20286
814.974	20381
815.115	20343
815.256	20286
815.397	20240
815.539	20282
815.68	20237
815.821	20020
815.962	20115
816.103	20225
816.244	19997
816.385	19940
816.526	19894
816.666	19658
816.807	19518
816.948	19514
817.089	19597
817.23	19529
817.371	19624
817.512	19586
817.653	19544
817.793	19400
817.934	19537
818.075	19582
818.216	19476
818.356	19537
818.497	19350
818.638	19213
818.778	19095
818.919	19259
819.06	19270
819.2	19392
819.341	19392
819.481	19426
819.622	19655
819.762	19742
819.903	19643
820.043	19567
820.184	19537
820.324	19499
820.465	19632
820.605	19434
820.746	19403
820.886	19403
821.026	19502
821.167	19533
821.307	19548
821.447	19457
821.588	19331
821.728	19247
821.868	19088
822.008	19027
822.149	18935
822.289	18935
822.429	18677
822.569	18650
822.709	18673
822.849	18490
822.99	18448
823.13	18433
823.27	18372
823.41	18201
823.55	18136
823.69	18296
823.83	18209
823.97	18163
824.11	17996
824.25	18026
824.389	18083
824.529	18072
824.669	18011
824.809	18072
824.949	18041
825.089	18133
825.228	18007
825.368	17878
825.508	17703
825.648	17821
825.787	17851
825.927	17863
826.067	17794
826.206	17843
826.346	17824
826.485	17737
826.625	17745
826.765	17786
826.904	17817
827.044	17562
827.183	17570
827.323	17471
827.462	17615
827.601	17425
827.741	17429
827.88	17524
828.02	17364
828.159	17505
828.298	17440
828.437	17676
828.577	17482
828.716	17638
828.855	17482
828.994	17261
829.134	17208
829.273	17258
829.412	17193
829.551	17060
829.69	17235
829.829	17265
829.968	17368
830.107	17296
830.246	17254
830.385	17200
830.524	17181
830.663	16987
830.802	16987
830.941	16930
831.08	16938
831.219	16942
831.357	16934
831.496	17045
831.635	16793
831.774	16790
831.913	16687
832.051	16607
832.19	16713
832.329	16641
832.467	16622
832.606	16523
832.744	16535
832.883	16504
833.022	16554
833.16	16485
833.299	16641
833.437	16607
833.576	16634
833.714	16603
833.852	16630
833.991	16607
834.129	16687
834.267	16516
834.406	16554
834.544	16645
834.682	16660
834.821	16527
834.959	16725
835.097	16512
835.235	16645
835.373	16637
835.511	16573
835.65	16523
835.788	16512
835.926	16405
836.064	16318
836.202	16306
836.34	16561
836.478	16580
836.615	16523
836.753	16516
836.891	16698
837.029	16558
837.167	16527
837.305	16500
837.443	16516
837.58	16337
837.718	16459
837.856	16386
837.993	16382
838.131	16398
838.269	16310
838.406	16219
838.544	16223
838.681	16219
838.819	16032
838.956	15960
839.094	15949
839.231	16010
839.369	16158
839.506	16409
839.643	16124
839.781	15926
839.918	15804
840.055	15911
840.193	15895
840.33	15915
840.467	15873
840.604	16036
840.742	16314
840.879	15793
841.016	15762
841.153	15857
841.29	16010
841.427	15895
841.564	15911
841.701	15998
841.838	15956
841.975	15876
842.112	15831
842.249	15705
842.385	15686
842.522	15842
842.659	15759
842.796	15698
842.933	15690
843.069	15606
843.206	15663
843.343	15774
843.479	15713
843.616	15705
843.752	15507
843.889	15420
844.025	15557
844.162	15439
844.298	15671
844.435	15466
844.571	15420
844.708	15603
844.844	15690
844.98	15701
845.117	15549
845.253	15420
845.389	15370
845.525	15481
845.661	15416
845.798	15363
845.934	15325
846.07	15218
846.206	15332
846.342	15443
846.478	15260
846.614	15142
846.75	15032
846.886	14960
847.022	15123
847.158	15123
847.294	14998
847.429	15093
847.565	15093
847.701	15222
847.837	14857
847.972	14743
848.108	14868
848.244	14868
848.379	14693
848.515	14629
848.65	14617
848.786	14765
848.921	14629
849.057	14731
849.192	14735
849.328	14697
849.463	14636
849.598	14724
849.734	14667
849.869	14579
850.004	14431
850.14	14461
850.275	14351
850.41	14389
850.545	14381
850.68	14381
850.815	14499
850.95	14419
851.085	14682
851.22	14636
851.355	14438
851.49	14446
851.625	14492
851.76	14480
851.895	14347
852.03	14263
852.165	14408
852.299	14438
852.434	14473
852.569	14408
852.703	14488
852.838	14404
852.973	14594
853.107	14629
853.242	14404
853.376	14355
853.511	14290
853.645	14195
853.78	14370
853.914	14419
854.048	14313
854.183	14233
854.317	14244
854.451	14465
854.585	14347
854.72	14336
854.854	14415
854.988	14244
855.122	14324
855.256	14168
855.39	14259
855.524	14484
855.658	14233
855.792	14339
855.926	14298
856.06	14339
856.194	14412
856.327	14282
856.461	14305
856.595	14244
856.729	14180
856.862	14336
856.996	14362
857.13	14362
857.263	14362
857.397	14412
857.53	14374
857.664	14332
857.797	14415
857.931	14434
858.064	14358
858.197	14404
858.331	14339
858.464	14240
858.597	14237
858.731	14343
858.864	14294
858.997	14233
859.13	14339
859.263	14309
859.396	14427
859.529	14301
859.662	14313
859.795	14259
859.928	14191
860.061	14476
860.194	14602
860.327	14355
860.46	14248
860.592	14518
860.725	14389
860.858	14442
860.99	14370
861.123	14187
861.256	14218
861.388	14336
861.521	14918
861.653	14161
861.786	14134
861.918	14221
862.05	14199
862.183	14298
862.315	14294
862.447	14339
862.58	14259
862.712	14088
862.844	14001
862.976	14168
863.108	14187
863.24	14503
863.372	14012
863.504	14024
863.636	14050
863.768	14103
863.9	14077
864.032	13993
864.164	14126
864.296	14096
864.428	14294
864.559	14210
864.691	14195
864.823	14065
864.954	14161
865.086	14126
865.217	14111
865.349	14100
865.48	14103
865.612	14100
865.743	14157
865.875	14123
866.006	14050
866.137	14161
866.269	14103
866.4	14069
866.531	14058
866.662	14046
866.793	13913
866.924	14005
867.055	14031
867.186	14107
867.317	14001
867.448	14065
867.579	14062
867.71	14062
867.841	14054
867.972	14050
868.103	14046
868.233	14092
868.364	14088
868.495	14115
868.625	14275
868.756	14431
868.886	14191
869.017	14370
869.147	14469
869.278	14419
869.408	14408
869.539	14305
869.669	14442
869.799	14423
869.929	14442
870.06	14389
870.19	14678
870.32	14590
870.45	14670
870.58	14765
870.71	14804
870.84	14842
870.97	14739
871.1	14693
871.23	14918
871.36	14925
871.489	14792
871.619	14895
871.749	14960
871.879	14910
872.008	15024
872.138	14925
872.267	14868
872.397	14811
872.526	14777
872.656	14781
872.785	14792
872.915	14918
873.044	15013
873.173	14933
873.303	14956
873.432	15017
873.561	15032
873.69	14963
873.819	15020
873.948	15089
874.077	14994
874.206	14925
874.335	14979
874.464	15157
874.593	15192
874.722	15211
874.851	15329
874.979	15317
875.108	15310
875.237	15218
875.365	15287
875.494	15241
875.623	15458
875.751	15199
875.88	15279
876.008	15389
876.136	15481
876.265	15755
876.393	15869
876.521	15720
876.65	15774
876.778	15728
876.906	15663
877.034	15603
877.162	15591
877.29	15580
877.418	15679
877.546	15739
877.674	15739
877.802	15785
877.93	15739
878.058	15648
878.185	15580
878.313	15641
878.441	15705
878.568	15595
878.696	15705
878.824	15694
878.951	15838
879.079	15941
879.206	16040
879.333	15835
879.461	15755
879.588	15804
879.715	15930
879.842	15922
879.97	15842
880.097	15481
880.224	15561
880.351	15591
880.478	15515
880.605	15534
880.732	15584
880.859	15724
880.986	15606
881.112	15564
881.239	15504
881.366	15367
881.493	15325
881.619	15184
881.746	15233
881.872	15313
881.999	15176
882.125	15161
882.252	15165
882.378	15203
882.505	15291
882.631	15161
882.757	15032
882.883	15062
883.01	15097
883.136	14952
883.262	14868
883.388	14811
883.514	15081
883.64	15138
883.766	15085
883.892	14902
884.018	14811
884.143	15043
884.269	15176
884.395	14746
884.52	14720
884.646	14712
884.772	14705
884.897	14655
885.023	14758
885.148	14819
885.274	14925
885.399	14864
885.524	14849
885.65	14792
885.775	14758
885.9	14739
886.025	14838
886.15	14758
886.275	14640
886.4	14659
886.525	14746
886.65	14689
886.775	14655
886.9	14918
887.025	14883
887.149	14697
887.274	14636
887.399	14545
887.523	14522
887.648	14511
887.773	14503
887.897	14651
888.021	14522
888.146	14480
888.27	14735
888.395	14746
888.519	14575
888.643	14659
888.767	14602
888.891	14537
889.015	14358
889.139	14412
889.263	14381
889.387	14617
889.511	14644
889.635	14549
889.759	14358
889.883	14408
890.006	14492
890.13	14594
890.254	14347
890.377	14389
890.501	14267
890.624	14119
890.748	14267
890.871	14161
890.995	14084
891.118	14027
891.241	14096
891.364	14123
891.488	14221
891.611	14202
891.734	14107
891.857	14214
891.98	14123
892.103	14195
892.226	14180
892.349	14138
892.471	14016
892.594	14031
892.717	14123
892.839	14130
892.962	14092
893.085	14252
893.207	14138
893.33	13989
893.452	14058
893.575	14134
893.697	14172
893.819	14271
893.941	14381
894.064	14259
894.186	14077
894.308	13997
894.43	14286
894.552	14370
894.674	14210
894.796	14058
894.918	14252
895.04	14142
895.161	14248
895.283	14191
895.405	14206
895.526	14233
895.648	14328
895.769	14237
895.891	14225
896.012	14370
896.134	14317
896.255	14305
896.376	14225
896.498	14317
896.619	14374
896.74	14252
896.861	14317
896.982	14629
897.103	14693
897.224	14610
897.345	14473
897.466	14473
897.587	14503
897.708	14693
897.828	14571
897.949	14469
898.07	14381
898.19	14552
898.311	14640
898.431	14564
898.552	14629
898.672	14636
898.792	14746
898.913	14625
899.033	14549
899.153	14568
899.273	14377
899.393	14393
899.513	14552
899.633	14537
899.753	14545
899.873	14374
899.993	14579
900.113	14465
900.232	14514
900.352	14514
900.472	14389
900.591	14313
900.711	14320
900.83	14278
900.95	14495
901.069	14511
901.189	14320
901.308	14168
901.427	14069
901.546	14073
901.665	14039
901.784	14050
901.904	13887
902.023	13780
902.141	13696
902.26	13655
902.379	13628
902.498	13643
902.617	13662
902.735	13712
902.854	13647
902.973	13575
903.091	13396
903.21	13198
903.328	13308
903.446	13339
903.565	13133
903.683	13217
903.801	13015
903.919	13137
904.038	13141
904.156	12947
904.274	13019
904.392	12897
904.51	13023
904.627	13084
904.745	13004
904.863	13080
904.981	12738
905.098	12669
905.216	12662
905.334	12631
905.451	12734
905.569	12555
905.686	12776
905.803	12642
905.921	12525
906.038	12547
906.155	12490
906.272	12388
906.389	12460
906.506	12254
906.623	12292
906.74	12342
906.857	12095
906.974	12216
907.091	12300
907.208	12369
907.324	12327
907.441	12201
907.557	11973
907.674	12030
907.79	11999
907.907	11999
908.023	11999
908.139	11980
908.256	11977
908.372	11931
908.488	11973
908.604	11786
908.72	11741
908.836	11859
908.952	11748
909.068	11710
909.184	11965
909.3	11840
909.415	11870
909.531	11805
909.647	11558
909.762	11604
909.878	11486
909.993	11547
910.108	11554
910.224	11543
910.339	11581
910.454	11429
910.57	11474
910.685	11414
910.8	11699
910.915	11589
911.03	11417
911.145	11284
911.259	11269
911.374	11311
911.489	11181
911.604	11124
911.718	11048
911.833	11052
911.947	10911
912.062	10850
912.176	10900
912.291	11083
912.405	10976
912.519	11197
912.633	11197
912.748	11067
912.862	10961
912.976	10877
913.09	10748
913.204	10847
913.318	10919
913.431	11037
913.545	11045
913.659	10991
913.772	10885
913.886	10748
914	10816
914.113	10885
914.226	10923
914.34	10862
914.453	10664
914.566	10839
914.68	10755
914.793	10733
914.906	10580
915.019	10459
915.132	10440
915.245	10474
915.358	10504
915.47	10615
915.583	10558
915.696	10527
915.809	10622
915.921	10710
916.034	10455
916.146	10500
916.259	10421
916.371	10607
916.483	10542
916.595	10394
916.708	10497
916.82	10459
916.932	10436
917.044	10447
917.156	10405
917.268	10291
917.38	10348
917.491	10280
917.603	10333
917.715	10424
917.826	10348
917.938	10249
918.049	10177
918.161	10322
918.272	10519
918.384	10436
918.495	10329
918.606	10204
918.717	10097
918.828	10333
918.939	10291
919.05	10090
919.161	10303
919.272	10025
919.383	10071
919.494	10280
919.604	10481
919.715	10234
919.826	10139
919.936	10169
920.047	10287
920.157	10265
920.267	10455
920.378	10356
920.488	10215
920.598	10451
920.708	10607
920.818	10398
920.928	10428
921.038	10531
921.148	10550
921.258	10207
921.368	10249
921.477	10086
921.587	10135
921.697	9998
921.806	10166
921.916	9953
922.025	9835
922.134	9789
922.244	9781
922.353	9884
922.462	9667
922.571	9648
922.68	9572
922.789	9504
922.898	9485
923.007	9443
923.116	9450
923.224	9523
923.333	9435
923.442	9428
923.55	9321
923.659	9298
923.767	9408
923.876	9317
923.984	9469
924.092	9260
924.201	9344
924.309	9359
924.417	9374
924.525	9207
924.633	9302
924.741	10211
924.849	9093
924.956	9332
925.064	9100
925.172	8998
925.279	9058
925.387	9169
925.494	9138
925.602	9222
925.709	9253
925.816	9036
925.924	9108
926.031	9226
926.138	9154
926.245	9245
926.352	9089
926.459	9226
926.566	9180
926.673	9104
926.779	9009
926.886	8975
926.993	8826
927.099	8823
927.206	8762
927.312	8804
927.419	8929
927.525	8861
927.631	8941
927.737	8777
927.843	8724
927.95	8682
928.056	8724
928.162	8754
928.267	8834
928.373	9454
928.479	8880
928.585	8636
928.69	8716
928.796	8788
928.901	8640
929.007	8522
929.112	8644
929.218	8686
929.323	8655
929.428	8560
929.533	8629
929.638	8488
929.743	8560
929.848	8560
929.953	8545
930.058	8427
930.163	8252
930.267	8343
930.372	8549
930.477	8317
930.581	8522
930.685	8446
930.79	8229
930.894	8244
930.998	8298
931.103	8358
931.207	8100
931.311	8016
931.415	8005
931.519	7788
931.623	7719
