Data from test_V78500241_1161.txt Node
Date: Fri Mar 25 14:41:48 CST 2022
User: usil
Spectrometer: V785-0024
Trigger mode: 0
Integration Time (sec): 4.000000E-1
Scans to average: 1
Nonlinearity correction enabled: false
Boxcar width: 0
Storing dark spectrum: false
XAxis mode: Wavelengths
Number of Pixels in Spectrum: 1024
>>>>>Begin Spectral Data<<<<<
801.071	22557
801.214	22367
801.356	22166
801.499	22036
801.641	21979
801.783	21808
801.926	21918
802.068	21876
802.211	21747
802.353	21682
802.496	21515
802.638	21256
802.78	21450
802.923	21435
803.065	21310
803.208	21260
803.35	21283
803.492	21351
803.635	21469
803.777	21260
803.919	21321
804.061	21622
804.204	21363
804.346	21184
804.488	21024
804.63	21135
804.773	21127
804.915	21264
805.057	21359
805.199	21116
805.341	21233
805.483	21279
805.626	21298
805.768	21119
805.91	21123
806.052	21211
806.194	21123
806.336	21283
806.478	21214
806.62	21180
806.762	21252
806.904	21344
807.046	21610
807.188	21439
807.33	21561
807.472	21679
807.614	21428
807.756	21424
807.898	21367
808.04	21169
808.182	21325
808.324	21363
808.465	21439
808.607	21614
808.749	21713
808.891	21968
809.033	21827
809.174	21789
809.316	21690
809.458	21698
809.6	21587
809.741	21812
809.883	21652
810.025	21717
810.166	21781
810.308	21770
810.45	21759
810.591	21679
810.733	21420
810.875	21408
811.016	21272
811.158	21279
811.299	21530
811.441	21488
811.582	21450
811.724	21397
811.865	21211
812.007	21279
812.148	21351
812.29	21302
812.431	21496
812.573	21793
812.714	21660
812.855	21797
812.997	21930
813.138	22116
813.279	22078
813.421	21911
813.562	21800
813.703	21507
813.845	21595
813.986	21214
814.127	21157
814.268	20982
814.41	20994
814.551	20925
814.692	20925
814.833	20838
814.974	20857
815.115	20864
815.256	20746
815.397	20750
815.539	20743
815.68	20693
815.821	20526
815.962	20788
816.103	20606
816.244	20545
816.385	20343
816.526	20377
816.666	20256
816.807	19993
816.948	20164
817.089	20176
817.23	20103
817.371	20138
817.512	20058
817.653	20012
817.793	19986
817.934	20199
818.075	20081
818.216	20050
818.356	19997
818.497	19814
818.638	19734
818.778	19738
818.919	19818
819.06	19788
819.2	19833
819.341	19852
819.481	19932
819.622	20103
819.762	20172
819.903	20202
820.043	20149
820.184	20065
820.324	20008
820.465	20157
820.605	20039
820.746	20126
820.886	19845
821.026	19955
821.167	20012
821.307	19947
821.447	19837
821.588	19811
821.728	19734
821.868	19464
822.008	19381
822.149	19400
822.289	19426
822.429	19202
822.569	19114
822.709	19110
822.849	18951
822.99	18852
823.13	18943
823.27	18973
823.41	18620
823.55	18734
823.69	18681
823.83	18791
823.97	18631
824.11	18582
824.25	18521
824.389	18513
824.529	18536
824.669	18483
824.809	18635
824.949	18559
825.089	18547
825.228	18563
825.368	18441
825.508	18247
825.648	18296
825.787	18418
825.927	18338
826.067	18289
826.206	18254
826.346	18213
826.485	18357
826.625	18273
826.765	18391
826.904	18289
827.044	18045
827.183	18026
827.323	17939
827.462	18064
827.601	17969
827.741	17931
827.88	17977
828.02	17882
828.159	18076
828.298	17939
828.437	18026
828.577	17889
828.716	18163
828.855	17912
828.994	17760
829.134	17775
829.273	17821
829.412	17672
829.551	17733
829.69	17931
829.829	17817
829.968	17764
830.107	17836
830.246	17866
830.385	17676
830.524	17657
830.663	17493
830.802	17528
830.941	17417
831.08	17383
831.219	17410
831.357	17364
831.496	17497
831.635	17467
831.774	17334
831.913	17162
832.051	17159
832.19	17128
832.329	17246
832.467	17075
832.606	17113
832.744	17151
832.883	17052
833.022	17041
833.16	17010
833.299	17155
833.437	17075
833.576	17083
833.714	17170
833.852	17223
833.991	17090
834.129	17147
834.267	17124
834.406	17132
834.544	17197
834.682	17113
834.821	17109
834.959	17197
835.097	17098
835.235	17227
835.373	17109
835.511	17105
835.65	17037
835.788	17041
835.926	16816
836.064	16892
836.202	17010
836.34	17128
836.478	17025
836.615	16915
836.753	17067
836.891	17162
837.029	17056
837.167	17018
837.305	16949
837.443	16991
837.58	16961
837.718	16957
837.856	16999
837.993	16828
838.131	16885
838.269	16850
838.406	16862
838.544	16782
838.681	16668
838.819	16645
838.956	16402
839.094	16398
839.231	16386
839.369	16558
839.506	16854
839.643	16596
839.781	16409
839.918	16371
840.055	16485
840.193	16451
840.33	16424
840.467	16504
840.604	16565
840.742	16672
840.879	16284
841.016	16303
841.153	16337
841.29	16611
841.427	16516
841.564	16493
841.701	16409
841.838	16375
841.975	16360
842.112	16268
842.249	16253
842.385	16318
842.522	16306
842.659	16291
842.796	16169
842.933	16128
843.069	16143
843.206	16097
843.343	16310
843.479	16242
843.616	16253
843.752	16082
843.889	16051
844.025	16226
844.162	15972
844.298	16120
844.435	15926
844.571	15972
844.708	15926
844.844	16169
844.98	16124
845.117	16120
845.253	15956
845.389	15922
845.525	16029
845.661	15960
845.798	15934
845.934	16029
846.07	15956
846.206	16139
846.342	16109
846.478	15983
846.614	15614
846.75	15576
846.886	15610
847.022	15652
847.158	15610
847.294	15686
847.429	15614
847.565	15652
847.701	15823
847.837	15287
847.972	15264
848.108	15481
848.244	15424
848.379	15237
848.515	15203
848.65	15192
848.786	15214
848.921	15207
849.057	15306
849.192	15329
849.328	15211
849.463	15097
849.598	15142
849.734	15062
849.869	15013
850.004	14986
850.14	14941
850.275	14895
850.41	14918
850.545	14887
850.68	14910
850.815	14883
850.95	15009
851.085	15024
851.22	14971
851.355	14925
851.49	14842
851.625	14921
851.76	14864
851.895	14792
852.03	14853
852.165	14925
852.299	14952
852.434	15039
852.569	14998
852.703	14975
852.838	15024
852.973	15074
853.107	14967
853.242	14895
853.376	14857
853.511	14613
853.645	14735
853.78	14861
853.914	14842
854.048	14796
854.183	14712
854.317	14800
854.451	15039
854.585	14727
854.72	14743
854.854	14853
854.988	14815
855.122	14777
855.256	14632
855.39	14800
855.524	14800
855.658	14800
855.792	14853
855.926	14849
856.06	14845
856.194	14857
856.327	14762
856.461	14697
856.595	14887
856.729	14705
856.862	14933
856.996	14830
857.13	14887
857.263	14880
857.397	14914
857.53	14746
857.664	14769
857.797	14819
857.931	14921
858.064	14731
858.197	14952
858.331	14918
858.464	14735
858.597	14644
858.731	14883
858.864	14849
858.997	14727
859.13	14773
859.263	14830
859.396	14944
859.529	14834
859.662	14788
859.795	14674
859.928	14762
860.061	14975
860.194	14960
860.327	14705
860.46	14708
860.592	14937
860.725	14921
860.858	14918
860.99	14788
861.123	14727
861.256	14758
861.388	14834
861.521	15412
861.653	14655
861.786	14625
861.918	14765
862.05	14686
862.183	14769
862.315	14773
862.447	14811
862.58	14682
862.712	14545
862.844	14423
862.976	14765
863.108	14667
863.24	15020
863.372	14488
863.504	14560
863.636	14560
863.768	14621
863.9	14598
864.032	14518
864.164	14560
864.296	14579
864.428	14693
864.559	14621
864.691	14648
864.823	14663
864.954	14651
865.086	14579
865.217	14522
865.349	14568
865.48	14651
865.612	14526
865.743	14663
865.875	14583
866.006	14552
866.137	14583
866.269	14613
866.4	14625
866.531	14568
866.662	14389
866.793	14473
866.924	14461
867.055	14526
867.186	14556
867.317	14461
867.448	14370
867.579	14476
867.71	14568
867.841	14442
867.972	14552
868.103	14610
868.233	14461
868.364	14590
868.495	14545
868.625	14754
868.756	14902
868.886	14743
869.017	14834
869.147	14925
869.278	14838
869.408	14819
869.539	14788
869.669	14781
869.799	14823
869.929	14918
870.06	14941
870.19	15226
870.32	15017
870.45	15195
870.58	15165
870.71	15275
870.84	15306
870.97	15226
871.1	15218
871.23	15355
871.36	15351
871.489	15260
871.619	15252
871.749	15332
871.879	15488
872.008	15549
872.138	15469
872.267	15306
872.397	15226
872.526	15207
872.656	15218
872.785	15245
872.915	15378
873.044	15477
873.173	15382
873.303	15431
873.432	15428
873.561	15416
873.69	15485
873.819	15458
873.948	15519
874.077	15542
874.206	15359
874.335	15332
874.464	15625
874.593	15781
874.722	15694
874.851	15823
874.979	15808
875.108	15656
875.237	15797
875.365	15648
875.494	15785
875.623	15823
875.751	15694
875.88	15812
876.008	15873
876.136	15937
876.265	16067
876.393	16310
876.521	16234
876.65	16310
876.778	16169
876.906	16139
877.034	16032
877.162	16017
877.29	16112
877.418	16181
877.546	16154
877.674	16128
877.802	16097
877.93	16101
878.058	16116
878.185	16154
878.313	16177
878.441	16105
878.568	15994
878.696	16006
878.824	16303
878.951	16196
879.079	16356
879.206	16580
879.333	16451
879.461	16284
879.588	16432
879.715	16348
879.842	16512
879.97	16299
880.097	16059
880.224	16093
880.351	16017
880.478	16002
880.605	16086
880.732	16051
880.859	16310
880.986	16055
881.112	16082
881.239	15854
881.366	15861
881.493	15682
881.619	15656
881.746	15698
881.872	15663
881.999	15599
882.125	15580
882.252	15694
882.378	15652
882.505	15838
882.631	15584
882.757	15389
882.883	15618
883.01	15492
883.136	15515
883.262	15416
883.388	15268
883.514	15507
883.64	15500
883.766	15389
883.892	15291
884.018	15310
884.143	15534
884.269	15660
884.395	15317
884.52	15230
884.646	15211
884.772	15180
884.897	15070
885.023	15233
885.148	15268
885.274	15294
885.399	15252
885.524	15222
885.65	15184
885.775	15192
885.9	15135
886.025	15264
886.15	15279
886.275	15192
886.4	15112
886.525	15039
886.65	15051
886.775	15142
886.9	15336
887.025	15363
887.149	15131
887.274	15032
887.399	14956
887.523	14948
887.648	14975
887.773	14891
887.897	15150
888.021	15108
888.146	14986
888.27	15062
888.395	15081
888.519	14960
888.643	14990
888.767	15192
888.891	15039
889.015	14853
889.139	14834
889.263	14883
889.387	14960
889.511	14956
889.635	14952
889.759	14746
889.883	14781
890.006	14910
890.13	14971
890.254	14777
890.377	14773
890.501	14648
890.624	14663
890.748	14765
890.871	14606
890.995	14499
891.118	14442
891.241	14495
891.364	14530
891.488	14583
891.611	14533
891.734	14488
891.857	14629
891.98	14594
892.103	14651
892.226	14587
892.349	14507
892.471	14473
892.594	14408
892.717	14594
892.839	14488
892.962	14568
893.085	14625
893.207	14488
893.33	14396
893.452	14313
893.575	14590
893.697	14545
893.819	14765
893.941	14785
894.064	14682
894.186	14476
894.308	14469
894.43	14720
894.552	14750
894.674	14735
894.796	14533
894.918	14594
895.04	14419
895.161	14686
895.283	14674
895.405	14606
895.526	14541
895.648	14613
895.769	14556
895.891	14682
896.012	14701
896.134	14716
896.255	14678
896.376	14640
896.498	14716
896.619	14720
896.74	14621
896.861	14758
896.982	15032
897.103	15207
897.224	15009
897.345	14883
897.466	14918
897.587	14994
897.708	15135
897.828	14967
897.949	14868
898.07	14705
898.19	14971
898.311	15116
898.431	15055
898.552	15009
898.672	15066
898.792	15062
898.913	15127
899.033	14998
899.153	14842
899.273	14826
899.393	14868
899.513	14887
899.633	14872
899.753	14925
899.873	14800
899.993	14880
900.113	14819
900.232	14868
900.352	14826
900.472	14727
900.591	14644
900.711	14735
900.83	14648
900.95	14804
901.069	14880
901.189	14552
901.308	14511
901.427	14309
901.546	14377
901.665	14393
901.784	14457
901.904	14271
902.023	14225
902.141	13951
902.26	13963
902.379	13989
902.498	13955
902.617	13906
902.735	14016
902.854	13986
902.973	13856
903.091	13616
903.21	13586
903.328	13704
903.446	13628
903.565	13563
903.683	13453
903.801	13468
903.919	13491
904.038	13491
904.156	13324
904.274	13331
904.392	13274
904.51	13369
904.627	13354
904.745	13327
904.863	13419
904.981	13152
905.098	13012
905.216	13107
905.334	13107
905.451	13091
905.569	13012
905.686	13088
905.803	13061
905.921	12764
906.038	12920
906.155	12890
906.272	12692
906.389	12734
906.506	12677
906.623	12627
906.74	12540
906.857	12525
906.974	12506
907.091	12662
907.208	12741
907.324	12654
907.441	12471
907.557	12372
907.674	12391
907.79	12327
907.907	12388
908.023	12422
908.139	12399
908.256	12372
908.372	12258
908.488	12239
908.604	12197
908.72	12072
908.836	12072
908.952	12064
909.068	12079
909.184	12281
909.3	12186
909.415	12136
909.531	12152
909.647	11942
909.762	11973
909.878	11874
909.993	11935
910.108	11942
910.224	11927
910.339	11866
910.454	11718
910.57	11798
910.685	11634
910.8	11931
910.915	11863
911.03	11790
911.145	11638
911.259	11570
911.374	11577
911.489	11566
911.604	11524
911.718	11368
911.833	11372
911.947	11311
912.062	11223
912.176	11299
912.291	11334
912.405	11368
912.519	11547
912.633	11547
912.748	11387
912.862	11356
912.976	11178
913.09	11121
913.204	11201
913.318	11277
913.431	11280
913.545	11364
913.659	11410
913.772	11178
913.886	11075
914	11128
914.113	11231
914.226	11220
914.34	11220
914.453	11079
914.566	11189
914.68	11098
914.793	11014
914.906	10869
915.019	10835
915.132	10694
915.245	10873
915.358	10831
915.47	10850
915.583	10908
915.696	10873
915.809	10957
915.921	10968
916.034	10877
916.146	10782
916.259	10843
916.371	10858
916.483	10831
916.595	10831
916.708	10812
916.82	10752
916.932	10774
917.044	10698
917.156	10725
917.268	10622
917.38	10721
917.491	10599
917.603	10664
917.715	10759
917.826	10828
917.938	10622
918.049	10577
918.161	10683
918.272	10767
918.384	10831
918.495	10660
918.606	10455
918.717	10443
918.828	10527
918.939	10573
919.05	10500
919.161	10523
919.272	10314
919.383	10497
919.494	10645
919.604	10771
919.715	10489
919.826	10466
919.936	10470
920.047	10626
920.157	10596
920.267	10702
920.378	10607
920.488	10554
920.598	10797
920.708	10919
920.818	10694
920.928	10710
921.038	10866
921.148	10889
921.258	10554
921.368	10500
921.477	10466
921.587	10470
921.697	10196
921.806	10421
921.916	10295
922.025	10124
922.134	10059
922.244	10074
922.353	10169
922.462	9956
922.571	9911
922.68	9797
922.789	9755
922.898	9701
923.007	9778
923.116	9789
923.224	9789
923.333	9705
923.442	9698
923.55	9679
923.659	9682
923.767	9717
923.876	9637
923.984	9705
924.092	9534
924.201	9755
924.309	9599
924.417	9690
924.525	9580
924.633	9625
924.741	10337
924.849	9386
924.956	9545
925.064	9428
925.172	9332
925.279	9397
925.387	9447
925.494	9420
925.602	9488
925.709	9549
925.816	9313
925.924	9393
926.031	9454
926.138	9435
926.245	9496
926.352	9325
926.459	9504
926.566	9500
926.673	9367
926.779	9321
926.886	9237
926.993	9203
927.099	9108
927.206	9081
927.312	9017
927.419	9180
927.525	9184
927.631	9237
927.737	8986
927.843	9043
927.95	8902
928.056	9009
928.162	8998
928.267	9024
928.373	9705
928.479	9127
928.585	8891
928.69	8982
928.796	8979
928.901	8902
929.007	8750
929.112	8967
929.218	8872
929.323	8857
929.428	8788
929.533	8994
929.638	8785
929.743	8766
929.848	8845
929.953	8826
930.058	8731
930.163	8533
930.267	8629
930.372	8743
930.477	8594
930.581	8842
930.685	8689
930.79	8530
930.894	8541
930.998	8503
931.103	8667
931.207	8267
931.311	8244
931.415	8191
931.519	8001
931.623	8005
