Data from test_V78500241_1239.txt Node
Date: Fri Mar 25 14:42:20 CST 2022
User: usil
Spectrometer: V785-0024
Trigger mode: 0
Integration Time (sec): 4.000000E-1
Scans to average: 1
Nonlinearity correction enabled: false
Boxcar width: 0
Storing dark spectrum: false
XAxis mode: Wavelengths
Number of Pixels in Spectrum: 1024
>>>>>Begin Spectral Data<<<<<
801.071	22413
801.214	22333
801.356	22101
801.499	21884
801.641	21713
801.783	21724
801.926	21823
802.068	21778
802.211	21599
802.353	21644
802.496	21279
802.638	21176
802.78	21180
802.923	21226
803.065	21070
803.208	21066
803.35	21070
803.492	21146
803.635	21367
803.777	21081
803.919	21241
804.061	21473
804.204	21252
804.346	21165
804.488	20960
804.63	21009
804.773	20925
804.915	21157
805.057	21241
805.199	20960
805.341	21074
805.483	21009
805.626	20956
805.768	20994
805.91	20975
806.052	20990
806.194	20956
806.336	21127
806.478	21013
806.62	20944
806.762	21020
806.904	21138
807.046	21439
807.188	21412
807.33	21367
807.472	21424
807.614	21325
807.756	21344
807.898	21127
808.04	21131
808.182	21123
808.324	21192
808.465	21211
808.607	21279
808.749	21405
808.891	21610
809.033	21686
809.174	21435
809.316	21435
809.458	21405
809.6	21367
809.741	21500
809.883	21519
810.025	21561
810.166	21568
810.308	21603
810.45	21549
810.591	21325
810.733	21344
810.875	21287
811.016	21150
811.158	21173
811.299	21252
811.441	21344
811.582	21378
811.724	21195
811.865	21017
812.007	21192
812.148	21218
812.29	21237
812.431	21336
812.573	21545
812.714	21572
812.855	21641
812.997	21816
813.138	21827
813.279	21793
813.421	21538
813.562	21553
813.703	21534
813.845	21272
813.986	20994
814.127	20876
814.268	20804
814.41	20754
814.551	20819
814.692	20902
814.833	20720
814.974	20587
815.115	20670
815.256	20568
815.397	20549
815.539	20629
815.68	20568
815.821	20484
815.962	20606
816.103	20507
816.244	20237
816.385	20149
816.526	20210
816.666	19989
816.807	19837
816.948	20100
817.089	19997
817.23	19967
817.371	19959
817.512	19898
817.653	19925
817.793	19826
817.934	19887
818.075	19898
818.216	19837
818.356	19811
818.497	19693
818.638	19533
818.778	19597
818.919	19609
819.06	19567
819.2	19734
819.341	19818
819.481	19761
819.622	19898
819.762	20054
819.903	20096
820.043	19906
820.184	19879
820.324	19944
820.465	19864
820.605	19894
820.746	19830
820.886	19643
821.026	19875
821.167	19849
821.307	19898
821.447	19894
821.588	19742
821.728	19594
821.868	19476
822.008	19259
822.149	19126
822.289	19270
822.429	19141
822.569	18966
822.709	18890
822.849	18863
822.99	18814
823.13	18684
823.27	18688
823.41	18582
823.55	18540
823.69	18616
823.83	18551
823.97	18528
824.11	18471
824.25	18334
824.389	18350
824.529	18464
824.669	18262
824.809	18475
824.949	18506
825.089	18414
825.228	18422
825.368	18251
825.508	18224
825.648	18224
825.787	18220
825.927	18197
826.067	18129
826.206	18064
826.346	18133
826.485	18220
826.625	18190
826.765	18178
826.904	18076
827.044	17931
827.183	17973
827.323	17802
827.462	17916
827.601	17901
827.741	17843
827.88	17775
828.02	17741
828.159	17794
828.298	17916
828.437	17920
828.577	17851
828.716	17897
828.855	17718
828.994	17558
829.134	17649
829.273	17524
829.412	17551
829.551	17627
829.69	17520
829.829	17619
829.968	17703
830.107	17600
830.246	17615
830.385	17436
830.524	17532
830.663	17410
830.802	17364
830.941	17181
831.08	17090
831.219	17242
831.357	17311
831.496	17436
831.635	17185
831.774	17216
831.913	17102
832.051	16972
832.19	17083
832.329	16987
832.467	16927
832.606	16862
832.744	16812
832.883	16991
833.022	16892
833.16	16866
833.299	16938
833.437	17048
833.576	16881
833.714	17071
833.852	17003
833.991	17090
834.129	17056
834.267	17010
834.406	16980
834.544	16908
834.682	17033
834.821	17060
834.959	17136
835.097	16927
835.235	17128
835.373	17006
835.511	17109
835.65	16854
835.788	16904
835.926	16759
836.064	16767
836.202	16748
836.34	16892
836.478	17067
836.615	16938
836.753	16915
836.891	16908
837.029	16953
837.167	16820
837.305	16839
837.443	16771
837.58	16744
837.718	16866
837.856	16805
837.993	16679
838.131	16755
838.269	16706
838.406	16710
838.544	16675
838.681	16561
838.819	16497
838.956	16291
839.094	16314
839.231	16352
839.369	16462
839.506	16645
839.643	16466
839.781	16356
839.918	16287
840.055	16299
840.193	16287
840.33	16211
840.467	16249
840.604	16333
840.742	16500
840.879	16234
841.016	16207
841.153	16211
841.29	16337
841.427	16234
841.564	16299
841.701	16405
841.838	16242
841.975	16211
842.112	16154
842.249	16063
842.385	16013
842.522	16310
842.659	16006
842.796	16036
842.933	16040
843.069	16017
843.206	16124
843.343	16116
843.479	16128
843.616	16097
843.752	15953
843.889	15842
844.025	16086
844.162	15915
844.298	16067
844.435	15892
844.571	15827
844.708	15911
844.844	15998
844.98	16074
845.117	15972
845.253	15797
845.389	15835
845.525	15789
845.661	15808
845.798	15751
845.934	15861
846.07	15819
846.206	15823
846.342	15827
846.478	15728
846.614	15534
846.75	15435
846.886	15469
847.022	15504
847.158	15504
847.294	15359
847.429	15435
847.565	15424
847.701	15633
847.837	15226
847.972	15184
848.108	15325
848.244	15310
848.379	15077
848.515	14998
848.65	15017
848.786	15100
848.921	15005
849.057	15135
849.192	15142
849.328	15100
849.463	15024
849.598	15089
849.734	14887
849.869	14796
850.004	14887
850.14	14834
850.275	14781
850.41	14689
850.545	14800
850.68	14724
850.815	14891
850.95	14811
851.085	14868
851.22	14815
851.355	14842
851.49	14826
851.625	14796
851.76	14693
851.895	14727
852.03	14720
852.165	14746
852.299	14765
852.434	14838
852.569	14815
852.703	14830
852.838	14880
852.973	14876
853.107	14963
853.242	14727
853.376	14670
853.511	14598
853.645	14617
853.78	14849
853.914	14754
854.048	14590
854.183	14644
854.317	14746
854.451	14796
854.585	14629
854.72	14560
854.854	14644
854.988	14640
855.122	14602
855.256	14484
855.39	14606
855.524	14705
855.658	14765
855.792	14773
855.926	14724
856.06	14682
856.194	14746
856.327	14549
856.461	14712
856.595	14632
856.729	14640
856.862	14826
856.996	14777
857.13	14746
857.263	14735
857.397	14792
857.53	14773
857.664	14746
857.797	14754
857.931	14785
858.064	14708
858.197	14697
858.331	14693
858.464	14712
858.597	14579
858.731	14663
858.864	14621
858.997	14762
859.13	14667
859.263	14731
859.396	14746
859.529	14663
859.662	14564
859.795	14655
859.928	14777
860.061	14842
860.194	14830
860.327	14697
860.46	14705
860.592	14769
860.725	14815
860.858	14834
860.99	14640
861.123	14610
861.256	14625
861.388	14651
861.521	15344
861.653	14537
861.786	14579
861.918	14530
862.05	14545
862.183	14583
862.315	14625
862.447	14754
862.58	14629
862.712	14438
862.844	14446
862.976	14374
863.108	14469
863.24	14842
863.372	14339
863.504	14385
863.636	14366
863.768	14511
863.9	14381
864.032	14385
864.164	14404
864.296	14415
864.428	14541
864.559	14613
864.691	14526
864.823	14575
864.954	14507
865.086	14473
865.217	14400
865.349	14377
865.48	14408
865.612	14514
865.743	14552
865.875	14419
866.006	14317
866.137	14476
866.269	14408
866.4	14362
866.531	14313
866.662	14355
866.793	14370
866.924	14336
867.055	14362
867.186	14396
867.317	14343
867.448	14298
867.579	14347
867.71	14294
867.841	14259
867.972	14362
868.103	14396
868.233	14454
868.364	14442
868.495	14571
868.625	14667
868.756	14712
868.886	14659
869.017	14541
869.147	14773
869.278	14712
869.408	14758
869.539	14686
869.669	14754
869.799	14644
869.929	14773
870.06	14727
870.19	14941
870.32	14967
870.45	14952
870.58	15009
870.71	15249
870.84	15241
870.97	15097
871.1	15013
871.23	15252
871.36	15325
871.489	15180
871.619	15173
871.749	15249
871.879	15291
872.008	15443
872.138	15359
872.267	15321
872.397	15138
872.526	15097
872.656	15070
872.785	15051
872.915	15260
873.044	15405
873.173	15211
873.303	15332
873.432	15306
873.561	15401
873.69	15363
873.819	15332
873.948	15420
874.077	15351
874.206	15313
874.335	15363
874.464	15344
874.593	15526
874.722	15614
874.851	15610
874.979	15557
875.108	15724
875.237	15523
875.365	15656
875.494	15557
875.623	15720
875.751	15561
875.88	15698
876.008	15816
876.136	15751
876.265	15972
876.393	16173
876.521	16211
876.65	16124
876.778	16090
876.906	15998
877.034	15991
877.162	15975
877.29	15937
877.418	16082
877.546	15964
877.674	15994
877.802	16055
877.93	16055
878.058	15949
878.185	16032
878.313	15998
878.441	16067
878.568	15869
878.696	15964
878.824	16036
878.951	16067
879.079	16211
879.206	16402
879.333	16272
879.461	16093
879.588	16230
879.715	16390
879.842	16382
879.97	16147
880.097	15873
880.224	15884
880.351	15926
880.478	15884
880.605	15979
880.732	15892
880.859	16124
880.986	15953
881.112	15975
881.239	15838
881.366	15770
881.493	15652
881.619	15500
881.746	15587
881.872	15526
881.999	15439
882.125	15496
882.252	15523
882.378	15526
882.505	15686
882.631	15405
882.757	15420
882.883	15424
883.01	15408
883.136	15268
883.262	15222
883.388	15260
883.514	15291
883.64	15473
883.766	15302
883.892	15169
884.018	15218
884.143	15466
884.269	15408
884.395	15135
884.52	15055
884.646	15104
884.772	14963
884.897	15024
885.023	15214
885.148	15142
885.274	15222
885.399	15211
885.524	15062
885.65	14979
885.775	15127
885.9	15024
886.025	15173
886.15	15119
886.275	15043
886.4	15024
886.525	15062
886.65	15020
886.775	14990
886.9	15195
887.025	15291
887.149	15112
887.274	15058
887.399	14845
887.523	14925
887.648	14746
887.773	14781
887.897	14960
888.021	14887
888.146	14796
888.27	15062
888.395	14941
888.519	14910
888.643	14933
888.767	14910
888.891	14792
889.015	14750
889.139	14754
889.263	14743
889.387	14773
889.511	14937
889.635	14861
889.759	14636
889.883	14686
890.006	14754
890.13	14838
890.254	14663
890.377	14670
890.501	14511
890.624	14552
890.748	14610
890.871	14396
890.995	14507
891.118	14419
891.241	14514
891.364	14442
891.488	14450
891.611	14469
891.734	14461
891.857	14400
891.98	14450
892.103	14473
892.226	14423
892.349	14450
892.471	14294
892.594	14412
892.717	14400
892.839	14336
892.962	14450
893.085	14549
893.207	14454
893.33	14320
893.452	14427
893.575	14442
893.697	14408
893.819	14663
893.941	14587
894.064	14541
894.186	14332
894.308	14370
894.43	14530
894.552	14697
894.674	14606
894.796	14400
894.918	14503
895.04	14446
895.161	14545
895.283	14602
895.405	14492
895.526	14434
895.648	14473
895.769	14488
895.891	14545
896.012	14651
896.134	14590
896.255	14545
896.376	14560
896.498	14556
896.619	14651
896.74	14568
896.861	14598
896.982	14853
897.103	15058
897.224	14971
897.345	14800
897.466	14716
897.587	14849
897.708	14933
897.828	14994
897.949	14872
898.07	14670
898.19	14811
898.311	15032
898.431	14830
898.552	14853
898.672	15005
898.792	14902
898.913	14998
899.033	14868
899.153	14800
899.273	14781
899.393	14735
899.513	14800
899.633	14754
899.753	14788
899.873	14762
899.993	14750
900.113	14735
900.232	14785
900.352	14712
900.472	14724
900.591	14556
900.711	14667
900.83	14587
900.95	14598
901.069	14762
901.189	14598
901.308	14332
901.427	14256
901.546	14218
901.665	14457
901.784	14256
901.904	14233
902.023	14134
902.141	13826
902.26	13932
902.379	14012
902.498	13856
902.617	13826
902.735	13955
902.854	13917
902.973	13757
903.091	13582
903.21	13597
903.328	13601
903.446	13556
903.565	13438
903.683	13430
903.801	13301
903.919	13419
904.038	13445
904.156	13213
904.274	13350
904.392	13145
904.51	13171
904.627	13217
904.745	13263
904.863	13297
904.981	13072
905.098	12970
905.216	12970
905.334	12932
905.451	12935
905.569	12897
905.686	12962
905.803	12916
905.921	12783
906.038	12939
906.155	12852
906.272	12681
906.389	12738
906.506	12608
906.623	12547
906.74	12464
906.857	12471
906.974	12460
907.091	12513
907.208	12623
907.324	12608
907.441	12433
907.557	12330
907.674	12292
907.79	12247
907.907	12171
908.023	12308
908.139	12304
908.256	12194
908.372	12152
908.488	12159
908.604	12030
908.72	12003
908.836	12003
908.952	11939
909.068	12030
909.184	12167
909.3	12121
909.415	12064
909.531	12057
909.647	11901
909.762	11878
909.878	11745
909.993	11813
910.108	11718
910.224	11790
910.339	11805
910.454	11665
910.57	11695
910.685	11562
910.8	11908
910.915	11737
911.03	11657
911.145	11501
911.259	11486
911.374	11474
911.489	11410
911.604	11387
911.718	11212
911.833	11174
911.947	11155
912.062	11113
912.176	11239
912.291	11254
912.405	11197
912.519	11467
912.633	11429
912.748	11254
912.862	11242
912.976	11147
913.09	10976
913.204	11086
913.318	11193
913.431	11143
913.545	11136
913.659	11254
913.772	11086
913.886	11018
914	10934
914.113	11170
914.226	11048
914.34	11083
914.453	10892
914.566	11037
914.68	10972
914.793	10904
914.906	10778
915.019	10774
915.132	10641
915.245	10729
915.358	10725
915.47	10793
915.583	10805
915.696	10755
915.809	10904
915.921	10835
916.034	10755
916.146	10668
916.259	10733
916.371	10694
916.483	10778
916.595	10675
916.708	10607
916.82	10698
916.932	10645
917.044	10637
917.156	10565
917.268	10538
917.38	10497
917.491	10542
917.603	10649
917.715	10717
917.826	10702
917.938	10508
918.049	10436
918.161	10538
918.272	10748
918.384	10687
918.495	10630
918.606	10432
918.717	10386
918.828	10474
918.939	10436
919.05	10348
919.161	10398
919.272	10188
919.383	10238
919.494	10402
919.604	10649
919.715	10440
919.826	10272
919.936	10344
920.047	10497
920.157	10443
920.267	10653
920.378	10478
920.488	10421
920.598	10580
920.708	10752
920.818	10637
920.928	10603
921.038	10797
921.148	10759
921.258	10466
921.368	10367
921.477	10360
921.587	10268
921.697	10162
921.806	10284
921.916	10185
922.025	10063
922.134	9983
922.244	9960
922.353	10025
922.462	9899
922.571	9880
922.68	9690
922.789	9679
922.898	9774
923.007	9606
923.116	9740
923.224	9667
923.333	9652
923.442	9564
923.55	9526
923.659	9652
923.767	9610
923.876	9534
923.984	9625
924.092	9469
924.201	9584
924.309	9538
924.417	9534
924.525	9447
924.633	9477
924.741	10227
924.849	9348
924.956	9481
925.064	9294
925.172	9310
925.279	9275
925.387	9317
925.494	9294
925.602	9496
925.709	9340
925.816	9260
925.924	9283
926.031	9363
926.138	9332
926.245	9447
926.352	9321
926.459	9340
926.566	9443
926.673	9306
926.779	9123
926.886	9127
926.993	9036
927.099	9024
927.206	8937
927.312	8921
927.419	8998
927.525	9055
927.631	8944
927.737	8910
927.843	8910
927.95	8781
928.056	8853
928.162	8906
928.267	9009
928.373	9534
928.479	9009
928.585	8769
928.69	8921
928.796	8891
928.901	8788
929.007	8682
929.112	8811
929.218	8735
929.323	8697
929.428	8655
929.533	8800
929.638	8667
929.743	8693
929.848	8716
929.953	8731
930.058	8526
930.163	8412
930.267	8503
930.372	8583
930.477	8480
930.581	8663
930.685	8499
930.79	8461
930.894	8499
930.998	8381
931.103	8533
931.207	8282
931.311	8187
931.415	8126
931.519	8001
931.623	7997
