Data from test_V78500241_3072.txt Node
Date: Fri Mar 25 14:55:06 CST 2022
User: usil
Spectrometer: V785-0024
Trigger mode: 0
Integration Time (sec): 4.000000E-1
Scans to average: 1
Nonlinearity correction enabled: false
Boxcar width: 0
Storing dark spectrum: false
XAxis mode: Wavelengths
Number of Pixels in Spectrum: 1024
>>>>>Begin Spectral Data<<<<<
801.071	22078
801.214	21827
801.356	21701
801.499	21671
801.641	21492
801.783	21408
801.926	21431
802.068	21431
802.211	21298
802.353	21233
802.496	21123
802.638	20914
802.78	20887
802.923	20804
803.065	20788
803.208	20590
803.35	20743
803.492	20891
803.635	20857
803.777	20758
803.919	20864
804.061	21157
804.204	20800
804.346	20796
804.488	20712
804.63	20781
804.773	20560
804.915	20686
805.057	20754
805.199	20667
805.341	20743
805.483	20785
805.626	20800
805.768	20503
805.91	20758
806.052	20712
806.194	20621
806.336	20861
806.478	20705
806.62	20556
806.762	20826
806.904	20899
807.046	21119
807.188	21123
807.33	20906
807.472	21108
807.614	20944
807.756	20941
807.898	20731
808.04	20731
808.182	20689
808.324	20579
808.465	20864
808.607	21005
808.749	21176
808.891	21112
809.033	21310
809.174	21077
809.316	21009
809.458	21024
809.6	20960
809.741	21138
809.883	21135
810.025	21237
810.166	21272
810.308	21237
810.45	21203
810.591	21146
810.733	20868
810.875	20826
811.016	20796
811.158	20678
811.299	20861
811.441	20998
811.582	20845
811.724	20800
811.865	20842
812.007	20705
812.148	20804
812.29	20811
812.431	21058
812.573	21188
812.714	21154
812.855	21428
812.997	21405
813.138	21656
813.279	21568
813.421	21230
813.562	21317
813.703	21085
813.845	20925
813.986	20689
814.127	20514
814.268	20412
814.41	20351
814.551	20301
814.692	20541
814.833	20271
814.974	20309
815.115	20473
815.256	20294
815.397	20263
815.539	20183
815.68	20157
815.821	20020
815.962	20202
816.103	20153
816.244	19970
816.385	19772
816.526	19784
816.666	19635
816.807	19510
816.948	19601
817.089	19753
817.23	19605
817.371	19491
817.512	19514
817.653	19487
817.793	19495
817.934	19476
818.075	19396
818.216	19525
818.356	19540
818.497	19339
818.638	19118
818.778	19187
818.919	19232
819.06	19350
819.2	19304
819.341	19377
819.481	19335
819.622	19578
819.762	19719
819.903	19746
820.043	19434
820.184	19575
820.324	19407
820.465	19525
820.605	19476
820.746	19514
820.886	19171
821.026	19529
821.167	19422
821.307	19487
821.447	19384
821.588	19278
821.728	19145
821.868	18973
822.008	18779
822.149	18848
822.289	18840
822.429	18620
822.569	18460
822.709	18639
822.849	18388
822.99	18327
823.13	18369
823.27	18338
823.41	18144
823.55	18178
823.69	18209
823.83	18258
823.97	18068
824.11	17908
824.25	17950
824.389	17893
824.529	17870
824.669	17866
824.809	17961
824.949	17980
825.089	18034
825.228	17889
825.368	17722
825.508	17733
825.648	17794
825.787	17687
825.927	17760
826.067	17600
826.206	17615
826.346	17802
826.485	17741
826.625	17722
826.765	17775
826.904	17649
827.044	17372
827.183	17539
827.323	17402
827.462	17452
827.601	17440
827.741	17364
827.88	17334
828.02	17242
828.159	17372
828.298	17486
828.437	17535
828.577	17391
828.716	17581
828.855	17341
828.994	17181
829.134	17151
829.273	17109
829.412	17113
829.551	17090
829.69	17098
829.829	17227
829.968	17288
830.107	17299
830.246	17212
830.385	17083
830.524	16995
830.663	16915
830.802	16843
830.941	16790
831.08	16653
831.219	16869
831.357	16835
831.496	16961
831.635	16740
831.774	16649
831.913	16611
832.051	16599
832.19	16466
832.329	16538
832.467	16478
832.606	16310
832.744	16421
832.883	16428
833.022	16333
833.16	16512
833.299	16413
833.437	16398
833.576	16466
833.714	16542
833.852	16523
833.991	16573
834.129	16531
834.267	16538
834.406	16436
834.544	16554
834.682	16451
834.821	16462
834.959	16672
835.097	16573
835.235	16538
835.373	16504
835.511	16443
835.65	16402
835.788	16402
835.926	16272
836.064	16112
836.202	16219
836.34	16474
836.478	16470
836.615	16375
836.753	16363
836.891	16413
837.029	16394
837.167	16409
837.305	16314
837.443	16299
837.58	16135
837.718	16344
837.856	16299
837.993	16166
838.131	16253
838.269	16147
838.406	16139
838.544	16166
838.681	15975
838.819	15926
838.956	15880
839.094	15823
839.231	15888
839.369	15911
839.506	16333
839.643	16078
839.781	15812
839.918	15633
840.055	15732
840.193	15899
840.33	15690
840.467	15800
840.604	15808
840.742	15918
840.879	15732
841.016	15641
841.153	15705
841.29	15960
841.427	15838
841.564	15861
841.701	15778
841.838	15717
841.975	15622
842.112	15709
842.249	15580
842.385	15523
842.522	15766
842.659	15496
842.796	15545
842.933	15526
843.069	15477
843.206	15534
843.343	15618
843.479	15675
843.616	15625
843.752	15306
843.889	15283
844.025	15549
844.162	15207
844.298	15488
844.435	15367
844.571	15408
844.708	15370
844.844	15526
844.98	15557
845.117	15458
845.253	15294
845.389	15161
845.525	15237
845.661	15184
845.798	15135
845.934	15157
846.07	15150
846.206	15207
846.342	15226
846.478	15211
846.614	14960
846.75	14899
846.886	14861
847.022	15028
847.158	15005
847.294	14998
847.429	15058
847.565	14906
847.701	15249
847.837	14655
847.972	14583
848.108	14746
848.244	14788
848.379	14545
848.515	14454
848.65	14503
848.786	14423
848.921	14507
849.057	14613
849.192	14602
849.328	14522
849.463	14499
849.598	14533
849.734	14499
849.869	14404
850.004	14256
850.14	14282
850.275	14381
850.41	14240
850.545	14275
850.68	14233
850.815	14301
850.95	14286
851.085	14431
851.22	14457
851.355	14298
851.49	14176
851.625	14305
851.76	14248
851.895	14199
852.03	14157
852.165	14298
852.299	14328
852.434	14286
852.569	14301
852.703	14370
852.838	14377
852.973	14454
853.107	14309
853.242	14377
853.376	14142
853.511	14092
853.645	14111
853.78	14256
853.914	14157
854.048	14149
854.183	14145
854.317	14107
854.451	14362
854.585	14210
854.72	14134
854.854	14237
854.988	14107
855.122	14073
855.256	14046
855.39	14187
855.524	14309
855.658	14187
855.792	14298
855.926	14142
856.06	14328
856.194	14267
856.327	14183
856.461	14012
856.595	14180
856.729	14164
856.862	14313
856.996	14252
857.13	14271
857.263	14286
857.397	14313
857.53	14149
857.664	14267
857.797	14244
857.931	14324
858.064	14199
858.197	14168
858.331	14176
858.464	14084
858.597	14069
858.731	14168
858.864	14134
858.997	14103
859.13	14183
859.263	14259
859.396	14278
859.529	14149
859.662	14126
859.795	14157
859.928	14153
860.061	14317
860.194	14393
860.327	14142
860.46	14210
860.592	14191
860.725	14343
860.858	14206
860.99	14157
861.123	14073
861.256	14100
861.388	14130
861.521	14727
861.653	14005
861.786	14012
861.918	14107
862.05	14126
862.183	14081
862.315	14126
862.447	14218
862.58	14107
862.712	13936
862.844	13864
862.976	14008
863.108	13970
863.24	14183
863.372	13849
863.504	13906
863.636	13989
863.768	13967
863.9	13887
864.032	13928
864.164	13928
864.296	14077
864.428	14035
864.559	14058
864.691	14073
864.823	14020
864.954	14062
865.086	14062
865.217	13944
865.349	13830
865.48	13856
865.612	13959
865.743	14012
865.875	13951
866.006	13875
866.137	14008
866.269	13936
866.4	13947
866.531	13849
866.662	13826
866.793	13871
866.924	13909
867.055	14012
867.186	13986
867.317	13871
867.448	13849
867.579	13822
867.71	13814
867.841	13849
867.972	13879
868.103	13997
868.233	13898
868.364	13925
868.495	14027
868.625	14259
868.756	14298
868.886	14126
869.017	14221
869.147	14286
869.278	14336
869.408	14107
869.539	14153
869.669	14202
869.799	14206
869.929	14282
870.06	14271
870.19	14545
870.32	14507
870.45	14400
870.58	14678
870.71	14743
870.84	14712
870.97	14568
871.1	14655
871.23	14720
871.36	14830
871.489	14777
871.619	14773
871.749	14712
871.879	14773
872.008	14986
872.138	14765
872.267	14845
872.397	14686
872.526	14617
872.656	14564
872.785	14693
872.915	14762
873.044	14838
873.173	14845
873.303	14842
873.432	14895
873.561	14921
873.69	14811
873.819	14792
873.948	14807
874.077	14758
874.206	14788
874.335	14815
874.464	14979
874.593	15222
874.722	15039
874.851	15100
874.979	15135
875.108	15252
875.237	15142
875.365	14990
875.494	15142
875.623	15211
875.751	15112
875.88	15214
876.008	15233
876.136	15386
876.265	15629
876.393	15698
876.521	15610
876.65	15644
876.778	15622
876.906	15568
877.034	15606
877.162	15564
877.29	15454
877.418	15545
877.546	15572
877.674	15511
877.802	15572
877.93	15500
878.058	15568
878.185	15526
878.313	15458
878.441	15561
878.568	15412
878.696	15526
878.824	15553
878.951	15720
879.079	15785
879.206	15846
879.333	15732
879.461	15545
879.588	15682
879.715	15724
879.842	15804
879.97	15587
880.097	15393
880.224	15348
880.351	15488
880.478	15431
880.605	15367
880.732	15355
880.859	15591
880.986	15405
881.112	15492
881.239	15283
881.366	15097
881.493	15093
881.619	14975
881.746	15138
881.872	15081
881.999	14990
882.125	15017
882.252	15188
882.378	15097
882.505	15241
882.631	15005
882.757	14921
882.883	14838
883.01	14830
883.136	14864
883.262	14804
883.388	14785
883.514	14906
883.64	14933
883.766	14796
883.892	14674
884.018	14727
884.143	14819
884.269	14967
884.395	14716
884.52	14488
884.646	14560
884.772	14560
884.897	14488
885.023	14587
885.148	14659
885.274	14625
885.399	14712
885.524	14533
885.65	14598
885.775	14682
885.9	14552
886.025	14727
886.15	14674
886.275	14522
886.4	14545
886.525	14556
886.65	14583
886.775	14533
886.9	14804
887.025	14819
887.149	14522
887.274	14385
887.399	14431
887.523	14431
887.648	14370
887.773	14431
887.897	14511
888.021	14454
888.146	14476
888.27	14545
888.395	14575
888.519	14568
888.643	14480
888.767	14571
888.891	14469
889.015	14324
889.139	14393
889.263	14267
889.387	14370
889.511	14495
889.635	14537
889.759	14305
889.883	14320
890.006	14404
890.13	14450
890.254	14244
890.377	14244
890.501	14202
890.624	14134
890.748	14240
890.871	14062
890.995	13917
891.118	13989
891.241	14107
891.364	14024
891.488	14084
891.611	14027
891.734	14081
891.857	14142
891.98	14020
892.103	14138
892.226	14138
892.349	14081
892.471	13860
892.594	13982
892.717	14176
892.839	14069
892.962	14084
893.085	14130
893.207	14092
893.33	13955
893.452	14031
893.575	14020
893.697	14031
893.819	14202
893.941	14259
894.064	14149
894.186	13932
894.308	14039
894.43	14149
894.552	14256
894.674	14100
894.796	13970
894.918	14142
895.04	14100
895.161	14183
895.283	14100
895.405	14069
895.526	14069
895.648	14157
895.769	14168
895.891	14119
896.012	14248
896.134	14339
896.255	14134
896.376	14134
896.498	14157
896.619	14218
896.74	14244
896.861	14263
896.982	14514
897.103	14659
897.224	14431
897.345	14393
897.466	14450
897.587	14530
897.708	14648
897.828	14518
897.949	14408
898.07	14328
898.19	14454
898.311	14602
898.431	14537
898.552	14484
898.672	14743
898.792	14537
898.913	14651
899.033	14511
899.153	14442
899.273	14332
899.393	14377
899.513	14503
899.633	14408
899.753	14503
899.873	14431
899.993	14511
900.113	14434
900.232	14568
900.352	14336
900.472	14313
900.591	14214
900.711	14320
900.83	14237
900.95	14476
901.069	14469
901.189	14225
901.308	14043
901.427	13898
901.546	13974
901.665	14012
901.784	14001
901.904	13795
902.023	13757
902.141	13575
902.26	13533
902.379	13594
902.498	13556
902.617	13434
902.735	13616
902.854	13514
902.973	13460
903.091	13244
903.21	13240
903.328	13278
903.446	13202
903.565	13050
903.683	13023
903.801	13076
903.919	13046
904.038	13099
904.156	12943
904.274	12916
904.392	12970
904.51	13008
904.627	12897
904.745	12947
904.863	12913
904.981	12696
905.098	12532
905.216	12650
905.334	12627
905.451	12616
905.569	12627
905.686	12650
905.803	12585
905.921	12422
906.038	12517
906.155	12388
906.272	12308
906.389	12372
906.506	12232
906.623	12277
906.74	12228
906.857	12140
906.974	12068
907.091	12148
907.208	12270
907.324	12235
907.441	12144
907.557	11866
907.674	11946
907.79	11965
907.907	12019
908.023	11912
908.139	12038
908.256	11897
908.372	11897
908.488	11935
908.604	11646
908.72	11668
908.836	11684
908.952	11703
909.068	11745
909.184	11756
909.3	11634
909.415	11783
909.531	11695
909.647	11551
909.762	11478
909.878	11455
909.993	11547
910.108	11478
910.224	11482
910.339	11501
910.454	11425
910.57	11303
910.685	11277
910.8	11585
910.915	11433
911.03	11334
911.145	11151
911.259	11147
911.374	11223
911.489	11132
911.604	11045
911.718	10965
911.833	11003
911.947	10873
912.062	10706
912.176	10915
912.291	10930
912.405	10942
912.519	11159
912.633	11174
912.748	11037
912.862	10889
912.976	10759
913.09	10725
913.204	10828
913.318	10843
913.431	10938
913.545	10881
913.659	10976
913.772	10790
913.886	10683
914	10710
914.113	10801
914.226	10790
914.34	10721
914.453	10653
914.566	10691
914.68	10668
914.793	10618
914.906	10413
915.019	10462
915.132	10371
915.245	10455
915.358	10535
915.47	10470
915.583	10436
915.696	10474
915.809	10698
915.921	10607
916.034	10447
916.146	10371
916.259	10394
916.371	10485
916.483	10424
916.595	10417
916.708	10447
916.82	10424
916.932	10325
917.044	10428
917.156	10375
917.268	10303
917.38	10249
917.491	10303
917.603	10261
917.715	10424
917.826	10352
917.938	10234
918.049	10173
918.161	10344
918.272	10462
918.384	10367
918.495	10318
918.606	10169
918.717	10074
918.828	10234
918.939	10185
919.05	10143
919.161	10109
919.272	9937
919.383	10051
919.494	10139
919.604	10413
919.715	10120
919.826	10090
919.936	10162
920.047	10295
920.157	10211
920.267	10390
920.378	10188
920.488	10128
920.598	10428
920.708	10504
920.818	10352
920.928	10390
921.038	10508
921.148	10497
921.258	10242
921.368	10112
921.477	10067
921.587	9918
921.697	9949
921.806	10044
921.916	9930
922.025	9694
922.134	9679
922.244	9686
922.353	9740
922.462	9595
922.571	9633
922.68	9424
922.789	9435
922.898	9367
923.007	9431
923.116	9485
923.224	9420
923.333	9370
923.442	9306
923.55	9195
923.659	9367
923.767	9378
923.876	9233
923.984	9374
924.092	9260
924.201	9291
924.309	9287
924.417	9279
924.525	9218
924.633	9241
924.741	10173
924.849	9039
924.956	9131
925.064	9108
925.172	9001
925.279	9017
925.387	9119
925.494	9032
925.602	9245
925.709	9233
925.816	9066
925.924	9165
926.031	9203
926.138	9180
926.245	9142
926.352	8994
926.459	9199
926.566	9203
926.673	9039
926.779	9009
926.886	8998
926.993	8834
927.099	8838
927.206	8819
927.312	8800
927.419	8906
927.525	8861
927.631	8857
927.737	8727
927.843	8731
927.95	8564
928.056	8712
928.162	8758
928.267	8716
928.373	9272
928.479	8838
928.585	8579
928.69	8686
928.796	8735
928.901	8644
929.007	8476
929.112	8594
929.218	8613
929.323	8522
929.428	8499
929.533	8590
929.638	8499
929.743	8530
929.848	8549
929.953	8537
930.058	8446
930.163	8305
930.267	8286
930.372	8400
930.477	8317
930.581	8533
930.685	8381
930.79	8229
930.894	8240
930.998	8221
931.103	8366
931.207	8050
931.311	7982
931.415	7982
931.519	7750
931.623	7658
