Data from test_V78500241_2884.txt Node
Date: Fri Mar 25 14:53:47 CST 2022
User: usil
Spectrometer: V785-0024
Trigger mode: 0
Integration Time (sec): 4.000000E-1
Scans to average: 1
Nonlinearity correction enabled: false
Boxcar width: 0
Storing dark spectrum: false
XAxis mode: Wavelengths
Number of Pixels in Spectrum: 1024
>>>>>Begin Spectral Data<<<<<
801.071	22017
801.214	22059
801.356	21755
801.499	21625
801.641	21416
801.783	21477
801.926	21466
802.068	21370
802.211	21355
802.353	21336
802.496	21089
802.638	20914
802.78	20921
802.923	20876
803.065	20724
803.208	20705
803.35	20842
803.492	20933
803.635	21005
803.777	20906
803.919	20845
804.061	21096
804.204	20883
804.346	20777
804.488	20701
804.63	20743
804.773	20629
804.915	20758
805.057	20811
805.199	20697
805.341	20804
805.483	20921
805.626	20708
805.768	20541
805.91	20705
806.052	20674
806.194	20655
806.336	20804
806.478	20708
806.62	20693
806.762	20811
806.904	20769
807.046	21195
807.188	21047
807.33	21036
807.472	21146
807.614	21085
807.756	20952
807.898	20739
808.04	20750
808.182	20674
808.324	20948
808.465	20819
808.607	20944
808.749	21146
808.891	21214
809.033	21272
809.174	21165
809.316	20929
809.458	20986
809.6	21055
809.741	21116
809.883	21058
810.025	21245
810.166	21203
810.308	21192
810.45	21116
810.591	21146
810.733	20998
810.875	20800
811.016	20781
811.158	20598
811.299	20880
811.441	20891
811.582	20906
811.724	20758
811.865	20777
812.007	20693
812.148	20765
812.29	20876
812.431	21081
812.573	21123
812.714	21161
812.855	21287
812.997	21374
813.138	21492
813.279	21374
813.421	21313
813.562	21317
813.703	21176
813.845	21066
813.986	20716
814.127	20533
814.268	20514
814.41	20366
814.551	20385
814.692	20457
814.833	20385
814.974	20385
815.115	20343
815.256	20263
815.397	20248
815.539	20176
815.68	20145
815.821	20062
815.962	20088
816.103	20161
816.244	19928
816.385	19826
816.526	19830
816.666	19696
816.807	19514
816.948	19677
817.089	19632
817.23	19556
817.371	19537
817.512	19506
817.653	19506
817.793	19449
817.934	19495
818.075	19502
818.216	19419
818.356	19384
818.497	19247
818.638	19221
818.778	19282
818.919	19137
819.06	19194
819.2	19327
819.341	19335
819.481	19430
819.622	19632
819.762	19647
819.903	19624
820.043	19502
820.184	19430
820.324	19537
820.465	19578
820.605	19552
820.746	19464
820.886	19453
821.026	19483
821.167	19411
821.307	19487
821.447	19365
821.588	19377
821.728	19282
821.868	19091
822.008	18958
822.149	18932
822.289	18962
822.429	18711
822.569	18509
822.709	18688
822.849	18384
822.99	18467
823.13	18388
823.27	18311
823.41	18266
823.55	18197
823.69	18334
823.83	18235
823.97	18190
824.11	17923
824.25	17954
824.389	17931
824.529	18152
824.669	18053
824.809	18057
824.949	18019
825.089	18011
825.228	17988
825.368	17802
825.508	17771
825.648	17676
825.787	17931
825.927	17882
826.067	17805
826.206	17779
826.346	17718
826.485	17805
826.625	17809
826.765	17847
826.904	17821
827.044	17589
827.183	17551
827.323	17497
827.462	17532
827.601	17471
827.741	17421
827.88	17535
828.02	17345
828.159	17414
828.298	17471
828.437	17573
828.577	17406
828.716	17509
828.855	17379
828.994	17296
829.134	17227
829.273	17231
829.412	17105
829.551	17181
829.69	17155
829.829	17311
829.968	17379
830.107	17178
830.246	17250
830.385	17197
830.524	17079
830.663	17079
830.802	16911
830.941	16854
831.08	16797
831.219	16892
831.357	16892
831.496	17079
831.635	16843
831.774	16736
831.913	16710
832.051	16573
832.19	16615
832.329	16713
832.467	16634
832.606	16451
832.744	16470
832.883	16592
833.022	16527
833.16	16550
833.299	16607
833.437	16527
833.576	16481
833.714	16599
833.852	16580
833.991	16493
834.129	16645
834.267	16634
834.406	16592
834.544	16641
834.682	16603
834.821	16493
834.959	16809
835.097	16523
835.235	16687
835.373	16618
835.511	16550
835.65	16478
835.788	16440
835.926	16352
836.064	16329
836.202	16341
836.34	16561
836.478	16558
836.615	16402
836.753	16462
836.891	16580
837.029	16451
837.167	16542
837.305	16432
837.443	16299
837.58	16341
837.718	16436
837.856	16322
837.993	16341
838.131	16333
838.269	16219
838.406	16177
838.544	16109
838.681	16116
838.819	16048
838.956	15899
839.094	15892
839.231	15972
839.369	16082
839.506	16417
839.643	16143
839.781	15934
839.918	15922
840.055	15804
840.193	15949
840.33	15869
840.467	15892
840.604	15953
840.742	16120
840.879	15720
841.016	15804
841.153	15774
841.29	15949
841.427	15956
841.564	15922
841.701	15888
841.838	15797
841.975	15789
842.112	15819
842.249	15606
842.385	15648
842.522	15770
842.659	15660
842.796	15648
842.933	15599
843.069	15572
843.206	15622
843.343	15701
843.479	15572
843.616	15717
843.752	15469
843.889	15462
844.025	15553
844.162	15367
844.298	15488
844.435	15397
844.571	15313
844.708	15424
844.844	15660
844.98	15568
845.117	15545
845.253	15329
845.389	15336
845.525	15420
845.661	15386
845.798	15249
845.934	15203
846.07	15142
846.206	15249
846.342	15268
846.478	15180
846.614	15017
846.75	14952
846.886	14918
847.022	15127
847.158	15112
847.294	14979
847.429	15024
847.565	15001
847.701	15214
847.837	14769
847.972	14636
848.108	14845
848.244	14815
848.379	14575
848.515	14674
848.65	14571
848.786	14625
848.921	14568
849.057	14655
849.192	14697
849.328	14701
849.463	14651
849.598	14602
849.734	14522
849.869	14503
850.004	14393
850.14	14434
850.275	14381
850.41	14332
850.545	14317
850.68	14358
850.815	14427
850.95	14298
851.085	14556
851.22	14518
851.355	14457
851.49	14355
851.625	14381
851.76	14317
851.895	14214
852.03	14084
852.165	14313
852.299	14393
852.434	14495
852.569	14488
852.703	14339
852.838	14457
852.973	14412
853.107	14507
853.242	14317
853.376	14256
853.511	14073
853.645	14168
853.78	14320
853.914	14267
854.048	14161
854.183	14248
854.317	14187
854.451	14320
854.585	14221
854.72	14206
854.854	14309
854.988	14180
855.122	14278
855.256	14077
855.39	14233
855.524	14385
855.658	14358
855.792	14317
855.926	14252
856.06	14381
856.194	14366
856.327	14275
856.461	14199
856.595	14092
856.729	14263
856.862	14320
856.996	14267
857.13	14244
857.263	14332
857.397	14313
857.53	14229
857.664	14286
857.797	14347
857.931	14400
858.064	14244
858.197	14324
858.331	14233
858.464	14210
858.597	14046
858.731	14244
858.864	14225
858.997	14278
859.13	14240
859.263	14275
859.396	14278
859.529	14183
859.662	14195
859.795	14195
859.928	14324
860.061	14419
860.194	14370
860.327	14267
860.46	14233
860.592	14400
860.725	14347
860.858	14358
860.99	14195
861.123	14176
861.256	14206
861.388	14298
861.521	14872
861.653	14073
861.786	14058
861.918	14145
862.05	14199
862.183	14202
862.315	14225
862.447	14229
862.58	14142
862.712	14027
862.844	13947
862.976	14111
863.108	13978
863.24	14446
863.372	13967
863.504	14073
863.636	13982
863.768	14065
863.9	13970
864.032	13875
864.164	14054
864.296	14077
864.428	14123
864.559	14119
864.691	14073
864.823	14005
864.954	14130
865.086	14088
865.217	13974
865.349	13875
865.48	14016
865.612	14050
865.743	14050
865.875	14043
866.006	13978
866.137	13997
866.269	14001
866.4	13974
866.531	13970
866.662	13921
866.793	13986
866.924	13951
867.055	13951
867.186	13974
867.317	13963
867.448	13906
867.579	13928
867.71	13936
867.841	13883
867.972	13951
868.103	13974
868.233	14020
868.364	14073
868.495	14073
868.625	14142
868.756	14343
868.886	14130
869.017	14259
869.147	14286
869.278	14320
869.408	14259
869.539	14206
869.669	14256
869.799	14233
869.929	14339
870.06	14332
870.19	14552
870.32	14598
870.45	14590
870.58	14674
870.71	14659
870.84	14716
870.97	14716
871.1	14594
871.23	14834
871.36	14849
871.489	14659
871.619	14785
871.749	14819
871.879	14868
872.008	14918
872.138	14800
872.267	14864
872.397	14667
872.526	14640
872.656	14579
872.785	14648
872.915	14834
873.044	14864
873.173	14872
873.303	14956
873.432	15009
873.561	14982
873.69	14842
873.819	14918
873.948	14982
874.077	14853
874.206	14880
874.335	14883
874.464	15013
874.593	15127
874.722	15116
874.851	15211
874.979	15279
875.108	15211
875.237	15226
875.365	15131
875.494	15055
875.623	15283
875.751	15138
875.88	15226
876.008	15431
876.136	15473
876.265	15606
876.393	15819
876.521	15690
876.65	15686
876.778	15629
876.906	15652
877.034	15603
877.162	15534
877.29	15549
877.418	15564
877.546	15641
877.674	15515
877.802	15511
877.93	15641
878.058	15637
878.185	15519
878.313	15614
878.441	15549
878.568	15568
878.696	15625
878.824	15709
878.951	15633
879.079	15850
879.206	15869
879.333	15770
879.461	15679
879.588	15739
879.715	15850
879.842	15884
879.97	15720
880.097	15504
880.224	15466
880.351	15420
880.478	15561
880.605	15443
880.732	15454
880.859	15633
880.986	15511
881.112	15481
881.239	15367
881.366	15237
881.493	15184
881.619	15138
881.746	15157
881.872	15142
881.999	15070
882.125	15070
882.252	15264
882.378	15176
882.505	15264
882.631	15108
882.757	14906
882.883	14952
883.01	14891
883.136	14952
883.262	14853
883.388	14777
883.514	14960
883.64	15001
883.766	14876
883.892	14701
884.018	14804
884.143	14838
884.269	15017
884.395	14819
884.52	14617
884.646	14640
884.772	14617
884.897	14526
885.023	14594
885.148	14762
885.274	14804
885.399	14804
885.524	14610
885.65	14602
885.775	14697
885.9	14667
886.025	14777
886.15	14731
886.275	14640
886.4	14514
886.525	14617
886.65	14537
886.775	14552
886.9	14697
887.025	14754
887.149	14743
887.274	14533
887.399	14450
887.523	14522
887.648	14419
887.773	14434
887.897	14568
888.021	14499
888.146	14374
888.27	14503
888.395	14568
888.519	14514
888.643	14442
888.767	14507
888.891	14507
889.015	14362
889.139	14412
889.263	14366
889.387	14450
889.511	14613
889.635	14423
889.759	14278
889.883	14282
890.006	14324
890.13	14370
890.254	14195
890.377	14305
890.501	14259
890.624	14119
890.748	14294
890.871	14084
890.995	14046
891.118	13906
891.241	13902
891.364	14126
891.488	14191
891.611	14069
891.734	14027
891.857	14065
891.98	14024
892.103	14176
892.226	14092
892.349	13951
892.471	13936
892.594	13967
892.717	14111
892.839	13963
892.962	14062
893.085	14130
893.207	14008
893.33	13963
893.452	14035
893.575	14065
893.697	14069
893.819	14233
893.941	14275
894.064	14195
894.186	13951
894.308	14035
894.43	14176
894.552	14275
894.674	14282
894.796	14008
894.918	14111
895.04	14153
895.161	14126
895.283	14153
895.405	14111
895.526	14134
895.648	14183
895.769	14096
895.891	14199
896.012	14267
896.134	14290
896.255	14214
896.376	14164
896.498	14176
896.619	14385
896.74	14187
896.861	14301
896.982	14636
897.103	14686
897.224	14503
897.345	14431
897.466	14374
897.587	14457
897.708	14617
897.828	14530
897.949	14552
898.07	14465
898.19	14503
898.311	14545
898.431	14514
898.552	14590
898.672	14587
898.792	14670
898.913	14629
899.033	14442
899.153	14465
899.273	14377
899.393	14374
899.513	14518
899.633	14457
899.753	14476
899.873	14393
899.993	14499
900.113	14385
900.232	14438
900.352	14438
900.472	14301
900.591	14199
900.711	14324
900.83	14252
900.95	14351
901.069	14358
901.189	14256
901.308	14100
901.427	13978
901.546	14016
901.665	13974
901.784	13932
901.904	13951
902.023	13757
902.141	13655
902.26	13445
902.379	13620
902.498	13426
902.617	13396
902.735	13597
902.854	13624
902.973	13514
903.091	13259
903.21	13274
903.328	13175
903.446	13187
903.565	13107
903.683	13103
903.801	12916
903.919	13088
904.038	13072
904.156	12928
904.274	13019
904.392	12966
904.51	12886
904.627	12977
904.745	12878
904.863	13004
904.981	12738
905.098	12623
905.216	12601
905.334	12623
905.451	12589
905.569	12711
905.686	12608
905.803	12604
905.921	12418
906.038	12578
906.155	12502
906.272	12281
906.389	12323
906.506	12220
906.623	12277
906.74	12224
906.857	12213
906.974	12133
907.091	12220
907.208	12228
907.324	12098
907.441	12057
907.557	11954
907.674	11980
907.79	11904
907.907	11889
908.023	11961
908.139	11961
908.256	11950
908.372	11863
908.488	11958
908.604	11748
908.72	11657
908.836	11710
908.952	11710
909.068	11836
909.184	11832
909.3	11627
909.415	11752
909.531	11805
909.647	11512
909.762	11547
909.878	11455
909.993	11532
910.108	11440
910.224	11345
910.339	11573
910.454	11372
910.57	11311
910.685	11299
910.8	11585
910.915	11448
911.03	11360
911.145	11151
911.259	11223
911.374	11227
911.489	11178
911.604	11102
911.718	10953
911.833	10854
911.947	10790
912.062	10752
912.176	10938
912.291	10892
912.405	10896
912.519	11140
912.633	11155
912.748	11003
912.862	11010
912.976	10824
913.09	10733
913.204	10752
913.318	10820
913.431	10900
913.545	10908
913.659	10927
913.772	10809
913.886	10702
914	10634
914.113	10835
914.226	10824
914.34	10748
914.453	10607
914.566	10805
914.68	10706
914.793	10630
914.906	10440
915.019	10375
915.132	10352
915.245	10405
915.358	10432
915.47	10413
915.583	10428
915.696	10474
915.809	10550
915.921	10573
916.034	10421
916.146	10382
916.259	10295
916.371	10485
916.483	10466
916.595	10291
916.708	10417
916.82	10440
916.932	10360
917.044	10310
917.156	10246
917.268	10299
917.38	10276
917.491	10242
917.603	10253
917.715	10367
917.826	10322
917.938	10303
918.049	10150
918.161	10253
918.272	10409
918.384	10413
918.495	10276
918.606	10200
918.717	10097
918.828	10188
918.939	10154
919.05	10071
919.161	10139
919.272	9968
919.383	10013
919.494	10242
919.604	10337
919.715	10135
919.826	10040
919.936	10143
920.047	10257
920.157	10101
920.267	10443
920.378	10223
920.488	10188
920.598	10405
920.708	10451
920.818	10379
920.928	10348
921.038	10500
921.148	10550
921.258	10147
921.368	10135
921.477	10055
921.587	10040
921.697	9915
921.806	10097
921.916	9926
922.025	9774
922.134	9660
922.244	9728
922.353	9781
922.462	9606
922.571	9580
922.68	9481
922.789	9378
922.898	9439
923.007	9359
923.116	9420
923.224	9405
923.333	9386
923.442	9325
923.55	9344
923.659	9298
923.767	9363
923.876	9279
923.984	9287
924.092	9214
924.201	9302
924.309	9310
924.417	9367
924.525	9279
924.633	9283
924.741	10185
924.849	9066
924.956	9264
925.064	9127
925.172	8990
925.279	9062
925.387	9039
925.494	9138
925.602	9253
925.709	9138
925.816	8994
925.924	9032
926.031	9176
926.138	9062
926.245	9104
926.352	9043
926.459	9093
926.566	9222
926.673	8982
926.779	8944
926.886	8979
926.993	8849
927.099	8800
927.206	8716
927.312	8743
927.419	8815
927.525	8773
927.631	8872
927.737	8819
927.843	8746
927.95	8617
928.056	8686
928.162	8648
928.267	8766
928.373	9355
928.479	8746
928.585	8575
928.69	8716
928.796	8800
928.901	8537
929.007	8507
929.112	8594
929.218	8560
929.323	8530
929.428	8522
929.533	8674
929.638	8492
929.743	8530
929.848	8571
929.953	8438
930.058	8415
930.163	8221
930.267	8279
930.372	8454
930.477	8324
930.581	8511
930.685	8328
930.79	8244
930.894	8301
930.998	8180
931.103	8408
931.207	8054
931.311	7947
931.415	7898
931.519	7761
931.623	7685
