Data from test_V78500241_3176.txt Node
Date: Fri Mar 25 14:55:49 CST 2022
User: usil
Spectrometer: V785-0024
Trigger mode: 0
Integration Time (sec): 4.000000E-1
Scans to average: 1
Nonlinearity correction enabled: false
Boxcar width: 0
Storing dark spectrum: false
XAxis mode: Wavelengths
Number of Pixels in Spectrum: 1024
>>>>>Begin Spectral Data<<<<<
801.071	22067
801.214	21987
801.356	21667
801.499	21591
801.641	21424
801.783	21481
801.926	21526
802.068	21458
802.211	21291
802.353	21085
802.496	21066
802.638	20891
802.78	20861
802.923	20910
803.065	20697
803.208	20583
803.35	20697
803.492	20834
803.635	20929
803.777	20807
803.919	20712
804.061	21039
804.204	20788
804.346	20705
804.488	20686
804.63	20663
804.773	20602
804.915	20575
805.057	20788
805.199	20625
805.341	20625
805.483	20773
805.626	20705
805.768	20568
805.91	20613
806.052	20727
806.194	20613
806.336	20785
806.478	20526
806.62	20556
806.762	20712
806.904	20872
807.046	21032
807.188	20998
807.33	20849
807.472	21020
807.614	20872
807.756	20944
807.898	20727
808.04	20655
808.182	20708
808.324	20686
808.465	20720
808.607	20845
808.749	20994
808.891	21214
809.033	21256
809.174	21024
809.316	20918
809.458	20963
809.6	20933
809.741	21093
809.883	21123
810.025	21188
810.166	21192
810.308	21104
810.45	21074
810.591	21055
810.733	20910
810.875	20724
811.016	20663
811.158	20667
811.299	20819
811.441	20929
811.582	20815
811.724	20720
811.865	20727
812.007	20758
812.148	20697
812.29	20788
812.431	20849
812.573	21047
812.714	21176
812.855	21264
812.997	21397
813.138	21450
813.279	21370
813.421	21264
813.562	21214
813.703	20998
813.845	20876
813.986	20724
814.127	20377
814.268	20271
814.41	20324
814.551	20343
814.692	20374
814.833	20374
814.974	20309
815.115	20278
815.256	20138
815.397	20199
815.539	20259
815.68	19978
815.821	19917
815.962	20062
816.103	20084
816.244	19875
816.385	19772
816.526	19769
816.666	19548
816.807	19327
816.948	19499
817.089	19628
817.23	19483
817.371	19407
817.512	19457
817.653	19362
817.793	19453
817.934	19495
818.075	19388
818.216	19403
818.356	19308
818.497	19148
818.638	19061
818.778	19148
818.919	19061
819.06	19168
819.2	19255
819.341	19293
819.481	19259
819.622	19411
819.762	19670
819.903	19613
820.043	19521
820.184	19320
820.324	19400
820.465	19529
820.605	19339
820.746	19510
820.886	19285
821.026	19506
821.167	19430
821.307	19449
821.447	19354
821.588	19335
821.728	19034
821.868	18985
822.008	18890
822.149	18875
822.289	18783
822.429	18631
822.569	18540
822.709	18467
822.849	18475
822.99	18262
823.13	18350
823.27	18448
823.41	18133
823.55	18057
823.69	18117
823.83	18178
823.97	18022
824.11	17977
824.25	17935
824.389	17988
824.529	18015
824.669	17923
824.809	18007
824.949	18030
825.089	17904
825.228	18026
825.368	17794
825.508	17680
825.648	17733
825.787	17733
825.927	17733
826.067	17710
826.206	17691
826.346	17790
826.485	17741
826.625	17684
826.765	17813
826.904	17737
827.044	17493
827.183	17516
827.323	17345
827.462	17455
827.601	17402
827.741	17337
827.88	17383
828.02	17311
828.159	17406
828.298	17341
828.437	17417
828.577	17269
828.716	17509
828.855	17307
828.994	17235
829.134	17174
829.273	17265
829.412	17124
829.551	17025
829.69	17155
829.829	17174
829.968	17239
830.107	17204
830.246	17071
830.385	17159
830.524	17029
830.663	16965
830.802	16892
830.941	16752
831.08	16691
831.219	16828
831.357	16812
831.496	16980
831.635	16717
831.774	16656
831.913	16656
832.051	16653
832.19	16538
832.329	16558
832.467	16493
832.606	16523
832.744	16474
832.883	16382
833.022	16428
833.16	16466
833.299	16558
833.437	16497
833.576	16333
833.714	16493
833.852	16542
833.991	16523
834.129	16637
834.267	16546
834.406	16466
834.544	16577
834.682	16470
834.821	16497
834.959	16687
835.097	16523
835.235	16588
835.373	16565
835.511	16527
835.65	16428
835.788	16451
835.926	16268
836.064	16185
836.202	16204
836.34	16413
836.478	16428
836.615	16363
836.753	16428
836.891	16443
837.029	16516
837.167	16398
837.305	16325
837.443	16272
837.58	16181
837.718	16314
837.856	16196
837.993	16204
838.131	16207
838.269	16261
838.406	16135
838.544	16158
838.681	16021
838.819	15983
838.956	15778
839.094	15739
839.231	15854
839.369	15922
839.506	16246
839.643	16090
839.781	15812
839.918	15705
840.055	15816
840.193	15911
840.33	15819
840.467	15785
840.604	15827
840.742	16036
840.879	15637
841.016	15686
841.153	15743
841.29	16002
841.427	15743
841.564	15831
841.701	15781
841.838	15797
841.975	15663
842.112	15584
842.249	15652
842.385	15492
842.522	15819
842.659	15660
842.796	15576
842.933	15606
843.069	15576
843.206	15496
843.343	15713
843.479	15557
843.616	15545
843.752	15321
843.889	15325
844.025	15557
844.162	15325
844.298	15500
844.435	15431
844.571	15310
844.708	15351
844.844	15568
844.98	15481
845.117	15606
845.253	15374
845.389	15245
845.525	15325
845.661	15169
845.798	15176
845.934	15283
846.07	15150
846.206	15252
846.342	15355
846.478	15237
846.614	15001
846.75	14902
846.886	14952
847.022	15085
847.158	14960
847.294	14990
847.429	14941
847.565	14910
847.701	15119
847.837	14716
847.972	14590
848.108	14830
848.244	14785
848.379	14556
848.515	14606
848.65	14431
848.786	14560
848.921	14533
849.057	14678
849.192	14568
849.328	14617
849.463	14579
849.598	14598
849.734	14522
849.869	14400
850.004	14366
850.14	14294
850.275	14343
850.41	14225
850.545	14370
850.68	14263
850.815	14294
850.95	14275
851.085	14495
851.22	14343
851.355	14355
851.49	14298
851.625	14294
851.76	14294
851.895	14233
852.03	14119
852.165	14294
852.299	14362
852.434	14396
852.569	14408
852.703	14324
852.838	14400
852.973	14374
853.107	14404
853.242	14252
853.376	14191
853.511	14111
853.645	14161
853.78	14290
853.914	14218
854.048	14130
854.183	14149
854.317	14229
854.451	14347
854.585	14168
854.72	14172
854.854	14172
854.988	14103
855.122	14176
855.256	14031
855.39	14134
855.524	14237
855.658	14153
855.792	14259
855.926	14218
856.06	14259
856.194	14259
856.327	14164
856.461	14088
856.595	14138
856.729	14202
856.862	14309
856.996	14275
857.13	14229
857.263	14301
857.397	14298
857.53	14244
857.664	14290
857.797	14286
857.931	14271
858.064	14256
858.197	14290
858.331	14199
858.464	14126
858.597	14138
858.731	14145
858.864	14180
858.997	14161
859.13	14244
859.263	14225
859.396	14271
859.529	14088
859.662	14096
859.795	14107
859.928	14214
860.061	14374
860.194	14389
860.327	14225
860.46	14214
860.592	14286
860.725	14317
860.858	14317
860.99	14111
861.123	14107
861.256	14073
861.388	14149
861.521	14998
861.653	14046
861.786	14050
861.918	13875
862.05	14081
862.183	14142
862.315	14157
862.447	14294
862.58	14233
862.712	13970
862.844	13868
862.976	13967
863.108	14012
863.24	14366
863.372	13913
863.504	14069
863.636	13982
863.768	13986
863.9	13951
864.032	14001
864.164	14077
864.296	13925
864.428	14027
864.559	14012
864.691	14039
864.823	13989
864.954	14001
865.086	14065
865.217	13932
865.349	14020
865.48	13894
865.612	13925
865.743	14088
865.875	13978
866.006	13849
866.137	13997
866.269	13970
866.4	13932
866.531	13917
866.662	13864
866.793	13883
866.924	13959
867.055	13925
867.186	14005
867.317	13932
867.448	13795
867.579	13944
867.71	13879
867.841	13788
867.972	13974
868.103	13898
868.233	13970
868.364	14039
868.495	14107
868.625	14286
868.756	14366
868.886	14130
869.017	14218
869.147	14191
869.278	14313
869.408	14259
869.539	14084
869.669	14267
869.799	14267
869.929	14434
870.06	14362
870.19	14511
870.32	14473
870.45	14518
870.58	14625
870.71	14708
870.84	14750
870.97	14674
871.1	14552
871.23	14838
871.36	14853
871.489	14781
871.619	14724
871.749	14750
871.879	14765
872.008	15013
872.138	14792
872.267	14735
872.397	14716
872.526	14693
872.656	14583
872.785	14632
872.915	14838
873.044	14941
873.173	14864
873.303	14781
873.432	14918
873.561	14914
873.69	14811
873.819	14834
873.948	14906
874.077	14883
874.206	14750
874.335	14845
874.464	15127
874.593	15176
874.722	15112
874.851	15161
874.979	15165
875.108	15192
875.237	15127
875.365	15108
875.494	15104
875.623	15226
875.751	15108
875.88	15195
876.008	15321
876.136	15344
876.265	15557
876.393	15705
876.521	15652
876.65	15694
876.778	15599
876.906	15500
877.034	15469
877.162	15443
877.29	15500
877.418	15591
877.546	15637
877.674	15606
877.802	15526
877.93	15564
878.058	15500
878.185	15511
878.313	15515
878.441	15553
878.568	15549
878.696	15538
878.824	15686
878.951	15724
879.079	15800
879.206	15861
879.333	15644
879.461	15614
879.588	15686
879.715	15812
879.842	15873
879.97	15663
880.097	15443
880.224	15412
880.351	15473
880.478	15428
880.605	15382
880.732	15306
880.859	15648
880.986	15439
881.112	15408
881.239	15298
881.366	15317
881.493	15077
881.619	15112
881.746	15100
881.872	15081
881.999	14998
882.125	14998
882.252	15165
882.378	15142
882.505	15264
882.631	15062
882.757	14853
882.883	14937
883.01	14918
883.136	14861
883.262	14758
883.388	14716
883.514	14960
883.64	14845
883.766	14914
883.892	14735
884.018	14727
884.143	14887
884.269	15020
884.395	14708
884.52	14568
884.646	14587
884.772	14514
884.897	14564
885.023	14632
885.148	14686
885.274	14739
885.399	14632
885.524	14522
885.65	14579
885.775	14716
885.9	14602
886.025	14815
886.15	14705
886.275	14610
886.4	14526
886.525	14590
886.65	14533
886.775	14442
886.9	14724
887.025	14804
887.149	14689
887.274	14461
887.399	14343
887.523	14450
887.648	14347
887.773	14377
887.897	14507
888.021	14549
888.146	14355
888.27	14522
888.395	14526
888.519	14476
888.643	14587
888.767	14476
888.891	14370
889.015	14358
889.139	14336
889.263	14294
889.387	14450
889.511	14499
889.635	14499
889.759	14275
889.883	14233
890.006	14358
890.13	14412
890.254	14149
890.377	14248
890.501	14172
890.624	14046
890.748	14081
890.871	14073
890.995	14008
891.118	13978
891.241	14020
891.364	13978
891.488	14134
891.611	14008
891.734	13947
891.857	14024
891.98	14187
892.103	14119
892.226	14005
892.349	14031
892.471	13879
892.594	13967
892.717	13974
892.839	13944
892.962	14069
893.085	14046
893.207	13970
893.33	13864
893.452	13928
893.575	14062
893.697	13993
893.819	14172
893.941	14145
894.064	14278
894.186	13986
894.308	13967
894.43	14191
894.552	14202
894.674	14157
894.796	13978
894.918	14020
895.04	14043
895.161	14244
895.283	14161
895.405	14031
895.526	14043
895.648	14180
895.769	14107
895.891	14161
896.012	14206
896.134	14225
896.255	14233
896.376	14069
896.498	14164
896.619	14191
896.74	14263
896.861	14202
896.982	14533
897.103	14724
897.224	14511
897.345	14332
897.466	14381
897.587	14381
897.708	14530
897.828	14522
897.949	14370
898.07	14290
898.19	14377
898.311	14564
898.431	14480
898.552	14533
898.672	14689
898.792	14526
898.913	14568
899.033	14526
899.153	14568
899.273	14366
899.393	14305
899.513	14385
899.633	14347
899.753	14355
899.873	14400
899.993	14473
900.113	14393
900.232	14454
900.352	14282
900.472	14366
900.591	14210
900.711	14370
900.83	14252
900.95	14362
901.069	14347
901.189	14248
901.308	14043
901.427	13970
901.546	13906
901.665	13955
901.784	14024
901.904	13826
902.023	13731
902.141	13609
902.26	13483
902.379	13719
902.498	13548
902.617	13483
902.735	13518
902.854	13571
902.973	13415
903.091	13297
903.21	13187
903.328	13190
903.446	13152
903.565	13031
903.683	13080
903.801	12985
903.919	13019
904.038	13015
904.156	12916
904.274	13057
904.392	13008
904.51	12817
904.627	12837
904.745	12867
904.863	12932
904.981	12707
905.098	12597
905.216	12582
905.334	12555
905.451	12506
905.569	12597
905.686	12700
905.803	12570
905.921	12391
906.038	12506
906.155	12528
906.272	12319
906.389	12376
906.506	12155
906.623	12209
906.74	12194
906.857	12083
906.974	12110
907.091	12178
907.208	12327
907.324	12159
907.441	12095
907.557	11901
907.674	11851
907.79	11878
907.907	11958
908.023	11954
908.139	11950
908.256	11760
908.372	11809
908.488	11824
908.604	11653
908.72	11608
908.836	11710
908.952	11703
909.068	11676
909.184	11714
909.3	11676
909.415	11642
909.531	11722
909.647	11551
909.762	11459
909.878	11406
909.993	11444
910.108	11509
910.224	11368
910.339	11425
910.454	11353
910.57	11223
910.685	11307
910.8	11581
910.915	11414
911.03	11322
911.145	11212
911.259	11159
911.374	11140
911.489	11056
911.604	11064
911.718	10934
911.833	10953
911.947	10774
912.062	10721
912.176	10923
912.291	10938
912.405	10908
912.519	11143
912.633	11090
912.748	11037
912.862	10984
912.976	10892
913.09	10714
913.204	10774
913.318	10774
913.431	10938
913.545	10889
913.659	10965
913.772	10763
913.886	10729
914	10626
914.113	10721
914.226	10793
914.34	10736
914.453	10535
914.566	10793
914.68	10607
914.793	10580
914.906	10504
915.019	10436
915.132	10390
915.245	10417
915.358	10455
915.47	10428
915.583	10462
915.696	10443
915.809	10535
915.921	10573
916.034	10402
916.146	10375
916.259	10402
916.371	10474
916.483	10428
916.595	10314
916.708	10314
916.82	10341
916.932	10375
917.044	10215
917.156	10310
917.268	10204
917.38	10211
917.491	10188
917.603	10261
917.715	10230
917.826	10428
917.938	10272
918.049	10109
918.161	10219
918.272	10405
918.384	10402
918.495	10291
918.606	10124
918.717	10017
918.828	10219
918.939	10135
919.05	10055
919.161	10055
919.272	9956
919.383	9983
919.494	10204
919.604	10329
919.715	10166
919.826	10074
919.936	10158
920.047	10238
920.157	10196
920.267	10360
920.378	10215
920.488	10166
920.598	10424
920.708	10459
920.818	10337
920.928	10367
921.038	10531
921.148	10519
921.258	10173
921.368	10112
921.477	10051
921.587	9934
921.697	9899
921.806	9991
921.916	9922
922.025	9732
922.134	9720
922.244	9618
922.353	9720
922.462	9534
922.571	9606
922.68	9405
922.789	9431
922.898	9469
923.007	9332
923.116	9447
923.224	9424
923.333	9355
923.442	9298
923.55	9294
923.659	9268
923.767	9340
923.876	9325
923.984	9416
924.092	9207
924.201	9245
924.309	9272
924.417	9272
924.525	9222
924.633	9180
924.741	10154
924.849	9119
924.956	9207
925.064	9028
925.172	8975
925.279	9089
925.387	9062
925.494	9058
925.602	9188
925.709	9100
925.816	8975
925.924	9066
926.031	9165
926.138	9100
926.245	9142
926.352	8982
926.459	9108
926.566	9131
926.673	8986
926.779	8853
926.886	8887
926.993	8849
927.099	8804
927.206	8766
927.312	8708
927.419	8842
927.525	8842
927.631	8849
927.737	8693
927.843	8663
927.95	8549
928.056	8632
928.162	8670
928.267	8701
928.373	9226
928.479	8785
928.585	8560
928.69	8689
928.796	8705
928.901	8526
929.007	8438
929.112	8556
929.218	8716
929.323	8503
929.428	8537
929.533	8636
929.638	8457
929.743	8484
929.848	8545
929.953	8484
930.058	8389
930.163	8286
930.267	8237
930.372	8396
930.477	8206
930.581	8499
930.685	8290
930.79	8168
930.894	8229
930.998	8176
931.103	8396
931.207	8020
931.311	7959
931.415	7875
931.519	7742
931.623	7715
