Data from test_V78500241_1286.txt Node
Date: Fri Mar 25 14:42:40 CST 2022
User: usil
Spectrometer: V785-0024
Trigger mode: 0
Integration Time (sec): 4.000000E-1
Scans to average: 1
Nonlinearity correction enabled: false
Boxcar width: 0
Storing dark spectrum: false
XAxis mode: Wavelengths
Number of Pixels in Spectrum: 1024
>>>>>Begin Spectral Data<<<<<
801.071	22462
801.214	22398
801.356	22131
801.499	22097
801.641	21789
801.783	21747
801.926	21903
802.068	21717
802.211	21652
802.353	21496
802.496	21325
802.638	21325
802.78	21321
802.923	21226
803.065	21184
803.208	21055
803.35	21001
803.492	21173
803.635	21214
803.777	21028
803.919	21222
804.061	21450
804.204	21089
804.346	20963
804.488	21074
804.63	21070
804.773	20990
804.915	21085
805.057	21211
805.199	20956
805.341	21173
805.483	21142
805.626	21127
805.768	21062
805.91	21104
806.052	20979
806.194	20914
806.336	20971
806.478	21062
806.62	21051
806.762	21070
806.904	21199
807.046	21389
807.188	21249
807.33	21378
807.472	21332
807.614	21294
807.756	21382
807.898	21268
808.04	21108
808.182	21165
808.324	21226
808.465	21279
808.607	21340
808.749	21553
808.891	21717
809.033	21713
809.174	21564
809.316	21420
809.458	21595
809.6	21492
809.741	21504
809.883	21469
810.025	21766
810.166	21599
810.308	21595
810.45	21603
810.591	21534
810.733	21428
810.875	21249
811.016	21154
811.158	21169
811.299	21188
811.441	21310
811.582	21420
811.724	21192
811.865	21203
812.007	21195
812.148	21154
812.29	21180
812.431	21283
812.573	21519
812.714	21564
812.855	21686
812.997	21956
813.138	21884
813.279	21720
813.421	21709
813.562	21618
813.703	21412
813.845	21393
813.986	21249
814.127	20941
814.268	20857
814.41	20800
814.551	20781
814.692	20864
814.833	20644
814.974	20629
815.115	20769
815.256	20587
815.397	20560
815.539	20625
815.68	20438
815.821	20385
815.962	20625
816.103	20484
816.244	20381
816.385	20134
816.526	20267
816.666	20199
816.807	19932
816.948	19951
817.089	20054
817.23	19932
817.371	19913
817.512	19932
817.653	19887
817.793	19913
817.934	19830
818.075	20008
818.216	19974
818.356	19772
818.497	19635
818.638	19651
818.778	19582
818.919	19613
819.06	19723
819.2	19742
819.341	19791
819.481	19761
819.622	19890
819.762	20214
819.903	19989
820.043	19951
820.184	19845
820.324	19982
820.465	19974
820.605	19921
820.746	19814
820.886	19719
821.026	19868
821.167	19753
821.307	19883
821.447	19761
821.588	19571
821.728	19620
821.868	19525
822.008	19282
822.149	19358
822.289	19381
822.429	19012
822.569	18973
822.709	18943
822.849	18779
822.99	18768
823.13	18905
823.27	18783
823.41	18547
823.55	18426
823.69	18684
823.83	18601
823.97	18517
824.11	18338
824.25	18323
824.389	18422
824.529	18471
824.669	18410
824.809	18502
824.949	18456
825.089	18467
825.228	18391
825.368	18243
825.508	18190
825.648	18117
825.787	18315
825.927	18273
826.067	18209
826.206	18182
826.346	18159
826.485	18155
826.625	18190
826.765	18114
826.904	18201
827.044	17942
827.183	17923
827.323	17828
827.462	17897
827.601	17942
827.741	17737
827.88	17859
828.02	17745
828.159	17828
828.298	17859
828.437	17832
828.577	17851
828.716	18064
828.855	17859
828.994	17710
829.134	17642
829.273	17611
829.412	17566
829.551	17528
829.69	17638
829.829	17592
829.968	17703
830.107	17703
830.246	17592
830.385	17619
830.524	17425
830.663	17486
830.802	17303
830.941	17292
831.08	17121
831.219	17349
831.357	17265
831.496	17452
831.635	17212
831.774	17193
831.913	17132
832.051	16911
832.19	17060
832.329	16995
832.467	16946
832.606	16976
832.744	16892
832.883	16923
833.022	16812
833.16	16972
833.299	16915
833.437	16991
833.576	17014
833.714	17010
833.852	16915
833.991	17083
834.129	17098
834.267	17071
834.406	16949
834.544	17056
834.682	16980
834.821	16991
834.959	17162
835.097	16919
835.235	17090
835.373	17067
835.511	17075
835.65	16904
835.788	16953
835.926	16759
836.064	16706
836.202	16736
836.34	16949
836.478	16877
836.615	16828
836.753	16911
836.891	16987
837.029	16930
837.167	16843
837.305	16759
837.443	16805
837.58	16713
837.718	16752
837.856	16717
837.993	16679
838.131	16759
838.269	16691
838.406	16797
838.544	16607
838.681	16402
838.819	16432
838.956	16333
839.094	16223
839.231	16310
839.369	16451
839.506	16740
839.643	16489
839.781	16348
839.918	16265
840.055	16470
840.193	16318
840.33	16299
840.467	16310
840.604	16409
840.742	16523
840.879	16124
841.016	16272
841.153	16185
841.29	16443
841.427	16276
841.564	16322
841.701	16265
841.838	16238
841.975	16253
842.112	16143
842.249	16230
842.385	15972
842.522	16169
842.659	16055
842.796	16097
842.933	16071
843.069	16032
843.206	16055
843.343	16158
843.479	16082
843.616	16112
843.752	15850
843.889	15869
844.025	16010
844.162	15865
844.298	15953
844.435	15983
844.571	15865
844.708	15953
844.844	16021
844.98	16086
845.117	15918
845.253	15865
845.389	15873
845.525	15808
845.661	15892
845.798	15774
845.934	15922
846.07	15816
846.206	15823
846.342	15983
846.478	15732
846.614	15488
846.75	15507
846.886	15344
847.022	15500
847.158	15485
847.294	15382
847.429	15469
847.565	15450
847.701	15698
847.837	15214
847.972	15112
848.108	15291
848.244	15245
848.379	15039
848.515	15017
848.65	14986
848.786	15005
848.921	15074
849.057	15058
849.192	15123
849.328	15116
849.463	15039
849.598	15017
849.734	14948
849.869	14842
850.004	14853
850.14	14853
850.275	14811
850.41	14670
850.545	14724
850.68	14746
850.815	14838
850.95	14724
851.085	14880
851.22	14842
851.355	14868
851.49	14773
851.625	14773
851.76	14792
851.895	14682
852.03	14701
852.165	14800
852.299	14838
852.434	14830
852.569	14804
852.703	14785
852.838	14819
852.973	14944
853.107	15013
853.242	14815
853.376	14663
853.511	14579
853.645	14583
853.78	14777
853.914	14556
854.048	14644
854.183	14545
854.317	14708
854.451	14830
854.585	14708
854.72	14663
854.854	14632
854.988	14655
855.122	14651
855.256	14594
855.39	14644
855.524	14762
855.658	14648
855.792	14712
855.926	14613
856.06	14629
856.194	14758
856.327	14693
856.461	14636
856.595	14663
856.729	14644
856.862	14796
856.996	14724
857.13	14697
857.263	14773
857.397	14724
857.53	14610
857.664	14762
857.797	14689
857.931	14773
858.064	14765
858.197	14815
858.331	14621
858.464	14575
858.597	14541
858.731	14667
858.864	14644
858.997	14610
859.13	14640
859.263	14640
859.396	14670
859.529	14571
859.662	14590
859.795	14731
859.928	14674
860.061	14792
860.194	14796
860.327	14689
860.46	14670
860.592	14804
860.725	14788
860.858	14674
860.99	14678
861.123	14564
861.256	14632
861.388	14663
861.521	15416
861.653	14488
861.786	14434
861.918	14560
862.05	14606
862.183	14678
862.315	14651
862.447	14804
862.58	14594
862.712	14400
862.844	14419
862.976	14465
863.108	14393
863.24	14876
863.372	14370
863.504	14358
863.636	14389
863.768	14480
863.9	14454
864.032	14305
864.164	14351
864.296	14442
864.428	14488
864.559	14560
864.691	14492
864.823	14480
864.954	14495
865.086	14484
865.217	14427
865.349	14305
865.48	14484
865.612	14427
865.743	14450
865.875	14473
866.006	14533
866.137	14434
866.269	14454
866.4	14427
866.531	14377
866.662	14233
866.793	14446
866.924	14442
867.055	14381
867.186	14381
867.317	14347
867.448	14263
867.579	14347
867.71	14362
867.841	14412
867.972	14385
868.103	14488
868.233	14457
868.364	14423
868.495	14495
868.625	14556
868.756	14800
868.886	14556
869.017	14568
869.147	14765
869.278	14758
869.408	14659
869.539	14686
869.669	14762
869.799	14712
869.929	14754
870.06	14769
870.19	14998
870.32	14876
870.45	14982
870.58	15039
870.71	15180
870.84	15123
870.97	15058
871.1	15104
871.23	15256
871.36	15207
871.489	15142
871.619	15192
871.749	15241
871.879	15370
872.008	15340
872.138	15188
872.267	15294
872.397	15097
872.526	15119
872.656	15161
872.785	15020
872.915	15161
873.044	15374
873.173	15199
873.303	15412
873.432	15298
873.561	15401
873.69	15275
873.819	15256
873.948	15348
874.077	15351
874.206	15294
874.335	15355
874.464	15534
874.593	15549
874.722	15523
874.851	15709
874.979	15660
875.108	15618
875.237	15671
875.365	15515
875.494	15584
875.623	15743
875.751	15553
875.88	15557
876.008	15694
876.136	15812
876.265	16135
876.393	16143
876.521	16017
876.65	16010
876.778	16082
876.906	15975
877.034	15922
877.162	16010
877.29	15998
877.418	15994
877.546	16116
877.674	15956
877.802	16017
877.93	16006
878.058	15937
878.185	15865
878.313	15857
878.441	16055
878.568	15915
878.696	15956
878.824	16097
878.951	16055
879.079	16196
879.206	16402
879.333	16246
879.461	16242
879.588	16265
879.715	16280
879.842	16360
879.97	16150
880.097	16044
880.224	15949
880.351	15911
880.478	15873
880.605	15865
880.732	15915
880.859	16131
880.986	15937
881.112	15861
881.239	15732
881.366	15637
881.493	15599
881.619	15538
881.746	15595
881.872	15561
881.999	15469
882.125	15545
882.252	15519
882.378	15648
882.505	15694
882.631	15435
882.757	15306
882.883	15393
883.01	15332
883.136	15222
883.262	15154
883.388	15233
883.514	15374
883.64	15450
883.766	15291
883.892	15180
884.018	15211
884.143	15348
884.269	15447
884.395	15241
884.52	15142
884.646	15039
884.772	15085
884.897	14921
885.023	15081
885.148	15154
885.274	15127
885.399	15142
885.524	15093
885.65	15036
885.775	15161
885.9	15047
886.025	15169
886.15	15085
886.275	14994
886.4	14990
886.525	15013
886.65	15066
886.775	14937
886.9	15131
887.025	15226
887.149	15017
887.274	14781
887.399	14792
887.523	14944
887.648	14796
887.773	14754
887.897	14937
888.021	14902
888.146	14796
888.27	14944
888.395	14979
888.519	15005
888.643	14868
888.767	14887
888.891	14857
889.015	14754
889.139	14769
889.263	14598
889.387	14872
889.511	14845
889.635	14883
889.759	14678
889.883	14697
890.006	14781
890.13	14826
890.254	14587
890.377	14701
890.501	14499
890.624	14438
890.748	14587
890.871	14434
890.995	14339
891.118	14415
891.241	14408
891.364	14495
891.488	14518
891.611	14465
891.734	14454
891.857	14503
891.98	14423
892.103	14568
892.226	14454
892.349	14419
892.471	14248
892.594	14442
892.717	14469
892.839	14381
892.962	14465
893.085	14419
893.207	14438
893.33	14267
893.452	14301
893.575	14484
893.697	14343
893.819	14621
893.941	14602
894.064	14427
894.186	14389
894.308	14404
894.43	14434
894.552	14613
894.674	14579
894.796	14374
894.918	14446
895.04	14476
895.161	14583
895.283	14590
895.405	14526
895.526	14495
895.648	14552
895.769	14583
895.891	14613
896.012	14617
896.134	14587
896.255	14564
896.376	14533
896.498	14564
896.619	14636
896.74	14537
896.861	14629
896.982	14933
897.103	15066
897.224	14800
897.345	14914
897.466	14788
897.587	14845
897.708	14895
897.828	14910
897.949	14796
898.07	14667
898.19	14769
898.311	14933
898.431	14811
898.552	14982
898.672	14998
898.792	15013
898.913	15043
899.033	14765
899.153	14701
899.273	14750
899.393	14724
899.513	14796
899.633	14758
899.753	14819
899.873	14727
899.993	14876
900.113	14773
900.232	14834
900.352	14724
900.472	14667
900.591	14655
900.711	14590
900.83	14530
900.95	14750
901.069	14819
901.189	14530
901.308	14374
901.427	14275
901.546	14267
901.665	14324
901.784	14370
901.904	14123
902.023	14100
902.141	13868
902.26	13879
902.379	13978
902.498	13864
902.617	13826
902.735	13932
902.854	13906
902.973	13860
903.091	13700
903.21	13514
903.328	13556
903.446	13449
903.565	13472
903.683	13449
903.801	13274
903.919	13301
904.038	13392
904.156	13301
904.274	13308
904.392	13206
904.51	13217
904.627	13228
904.745	13255
904.863	13362
904.981	13027
905.098	12913
905.216	12935
905.334	12951
905.451	12924
905.569	12951
905.686	12962
905.803	13000
905.921	12745
906.038	12962
906.155	12760
906.272	12734
906.389	12608
906.506	12570
906.623	12532
906.74	12517
906.857	12429
906.974	12426
907.091	12555
907.208	12745
907.324	12563
907.441	12437
907.557	12281
907.674	12315
907.79	12220
907.907	12258
908.023	12251
908.139	12239
908.256	12167
908.372	12330
908.488	12106
908.604	12102
908.72	12049
908.836	12064
908.952	11977
909.068	12007
909.184	12155
909.3	12060
909.415	12072
909.531	11984
909.647	11745
909.762	11821
909.878	11737
909.993	11824
910.108	11786
910.224	11649
910.339	11904
910.454	11627
910.57	11619
910.685	11528
910.8	11828
910.915	11707
911.03	11661
911.145	11532
911.259	11482
911.374	11512
911.489	11421
911.604	11372
911.718	11220
911.833	11292
911.947	11151
912.062	11052
912.176	11239
912.291	11159
912.405	11246
912.519	11406
912.633	11417
912.748	11341
912.862	11246
912.976	11056
913.09	10911
913.204	11064
913.318	11086
913.431	11147
913.545	11155
913.659	11201
913.772	11140
913.886	10991
914	11029
914.113	11025
914.226	11159
914.34	11018
914.453	10904
914.566	11056
914.68	10942
914.793	10892
914.906	10755
915.019	10691
915.132	10561
915.245	10774
915.358	10645
915.47	10733
915.583	10763
915.696	10816
915.809	10828
915.921	10896
916.034	10672
916.146	10603
916.259	10588
916.371	10774
916.483	10763
916.595	10675
916.708	10626
916.82	10679
916.932	10634
917.044	10641
917.156	10542
917.268	10554
917.38	10554
917.491	10497
917.603	10588
917.715	10622
917.826	10626
917.938	10485
918.049	10428
918.161	10554
918.272	10584
918.384	10698
918.495	10531
918.606	10432
918.717	10367
918.828	10497
918.939	10405
919.05	10276
919.161	10474
919.272	10223
919.383	10280
919.494	10440
919.604	10733
919.715	10447
919.826	10367
919.936	10462
920.047	10538
920.157	10459
920.267	10596
920.378	10459
920.488	10455
920.598	10603
920.708	10736
920.818	10618
920.928	10603
921.038	10805
921.148	10672
921.258	10447
921.368	10394
921.477	10268
921.587	10223
921.697	10185
921.806	10257
921.916	10116
922.025	10032
922.134	9991
922.244	9972
922.353	10044
922.462	9949
922.571	9842
922.68	9660
922.789	9660
922.898	9622
923.007	9595
923.116	9751
923.224	9736
923.333	9800
923.442	9534
923.55	9553
923.659	9584
923.767	9599
923.876	9515
923.984	9584
924.092	9439
924.201	9587
924.309	9606
924.417	9523
924.525	9504
924.633	9515
924.741	10280
924.849	9268
924.956	9473
925.064	9351
925.172	9233
925.279	9298
925.387	9416
925.494	9325
925.602	9473
925.709	9389
925.816	9256
925.924	9294
926.031	9348
926.138	9272
926.245	9336
926.352	9173
926.459	9367
926.566	9412
926.673	9260
926.779	9245
926.886	9142
926.993	9036
927.099	9055
927.206	8960
927.312	8975
927.419	9089
927.525	9039
927.631	9085
927.737	8979
927.843	8906
927.95	8777
928.056	8937
928.162	9024
928.267	8956
928.373	9504
928.479	9020
928.585	8781
928.69	8914
928.796	8944
928.901	8804
929.007	8663
929.112	8891
929.218	8804
929.323	8746
929.428	8796
929.533	8895
929.638	8667
929.743	8708
929.848	8754
929.953	8731
930.058	8594
930.163	8469
930.267	8560
930.372	8545
930.477	8461
930.581	8689
930.685	8583
930.79	8438
930.894	8450
930.998	8393
931.103	8473
931.207	8259
931.311	8161
931.415	8134
931.519	7932
931.623	7890
