Data from test_V78500241_2854.txt Node
Date: Fri Mar 25 14:53:35 CST 2022
User: usil
Spectrometer: V785-0024
Trigger mode: 0
Integration Time (sec): 4.000000E-1
Scans to average: 1
Nonlinearity correction enabled: false
Boxcar width: 0
Storing dark spectrum: false
XAxis mode: Wavelengths
Number of Pixels in Spectrum: 1024
>>>>>Begin Spectral Data<<<<<
801.071	22139
801.214	22013
801.356	21778
801.499	21663
801.641	21447
801.783	21523
801.926	21386
802.068	21348
802.211	21199
802.353	21249
802.496	20986
802.638	21024
802.78	20933
802.923	20800
803.065	20842
803.208	20712
803.35	20765
803.492	20998
803.635	20864
803.777	20781
803.919	20842
804.061	21226
804.204	20777
804.346	20674
804.488	20621
804.63	20727
804.773	20682
804.915	20667
805.057	20796
805.199	20670
805.341	20781
805.483	20811
805.626	20739
805.768	20609
805.91	20621
806.052	20758
806.194	20552
806.336	20880
806.478	20735
806.62	20648
806.762	20697
806.904	20880
807.046	21127
807.188	21116
807.33	21074
807.472	21032
807.614	20906
807.756	20910
807.898	20746
808.04	20701
808.182	20735
808.324	20754
808.465	20891
808.607	21009
808.749	21104
808.891	21085
809.033	21214
809.174	21074
809.316	20998
809.458	20998
809.6	20952
809.741	21195
809.883	21058
810.025	21249
810.166	21237
810.308	21169
810.45	21169
810.591	21039
810.733	20952
810.875	20960
811.016	20777
811.158	20842
811.299	20902
811.441	21013
811.582	20857
811.724	20838
811.865	20739
812.007	20758
812.148	20830
812.29	20842
812.431	20960
812.573	21116
812.714	21169
812.855	21325
812.997	21294
813.138	21526
813.279	21393
813.421	21435
813.562	21340
813.703	21142
813.845	20925
813.986	20686
814.127	20343
814.268	20442
814.41	20404
814.551	20347
814.692	20377
814.833	20225
814.974	20244
815.115	20267
815.256	20248
815.397	20256
815.539	20149
815.68	20046
815.821	20077
815.962	20122
816.103	20058
816.244	19864
816.385	19868
816.526	19875
816.666	19658
816.807	19369
816.948	19597
817.089	19578
817.23	19506
817.371	19460
817.512	19392
817.653	19468
817.793	19400
817.934	19415
818.075	19499
818.216	19491
818.356	19426
818.497	19206
818.638	19050
818.778	19206
818.919	19206
819.06	19327
819.2	19320
819.341	19304
819.481	19400
819.622	19499
819.762	19594
819.903	19563
820.043	19537
820.184	19464
820.324	19453
820.465	19510
820.605	19422
820.746	19434
820.886	19415
821.026	19403
821.167	19415
821.307	19415
821.447	19396
821.588	19240
821.728	19148
821.868	19095
822.008	18890
822.149	18829
822.289	18806
822.429	18642
822.569	18486
822.709	18635
822.849	18391
822.99	18410
823.13	18346
823.27	18365
823.41	18258
823.55	18121
823.69	18152
823.83	18197
823.97	18129
824.11	18087
824.25	17859
824.389	17958
824.529	17996
824.669	17901
824.809	18083
824.949	18019
825.089	18034
825.228	17904
825.368	17665
825.508	17668
825.648	17794
825.787	17710
825.927	17775
826.067	17646
826.206	17680
826.346	17748
826.485	17707
826.625	17653
826.765	17805
826.904	17703
827.044	17516
827.183	17467
827.323	17311
827.462	17444
827.601	17486
827.741	17448
827.88	17425
828.02	17296
828.159	17433
828.298	17364
828.437	17395
828.577	17421
828.716	17608
828.855	17315
828.994	17162
829.134	17094
829.273	17193
829.412	17018
829.551	17052
829.69	17102
829.829	17143
829.968	17261
830.107	17121
830.246	17223
830.385	17105
830.524	16987
830.663	17079
830.802	16873
830.941	16710
831.08	16740
831.219	16980
831.357	16763
831.496	16987
831.635	16812
831.774	16702
831.913	16675
832.051	16630
832.19	16626
832.329	16607
832.467	16478
832.606	16424
832.744	16428
832.883	16504
833.022	16318
833.16	16356
833.299	16508
833.437	16497
833.576	16550
833.714	16538
833.852	16493
833.991	16516
834.129	16577
834.267	16485
834.406	16470
834.544	16512
834.682	16390
834.821	16500
834.959	16611
835.097	16455
835.235	16645
835.373	16577
835.511	16561
835.65	16325
835.788	16417
835.926	16291
836.064	16246
836.202	16196
836.34	16367
836.478	16455
836.615	16390
836.753	16516
836.891	16508
837.029	16478
837.167	16318
837.305	16398
837.443	16265
837.58	16432
837.718	16341
837.856	16333
837.993	16169
838.131	16230
838.269	16268
838.406	16200
838.544	16086
838.681	16002
838.819	16006
838.956	15831
839.094	15762
839.231	15857
839.369	15975
839.506	16219
839.643	16147
839.781	15899
839.918	15865
840.055	15869
840.193	15888
840.33	15800
840.467	15804
840.604	15869
840.742	16051
840.879	15694
841.016	15850
841.153	15808
841.29	15789
841.427	15793
841.564	15846
841.701	15876
841.838	15755
841.975	15717
842.112	15759
842.249	15587
842.385	15633
842.522	15732
842.659	15648
842.796	15622
842.933	15637
843.069	15534
843.206	15523
843.343	15660
843.479	15568
843.616	15584
843.752	15374
843.889	15336
844.025	15606
844.162	15268
844.298	15561
844.435	15405
844.571	15439
844.708	15389
844.844	15424
844.98	15587
845.117	15507
845.253	15401
845.389	15180
845.525	15370
845.661	15336
845.798	15108
845.934	15218
846.07	15157
846.206	15252
846.342	15340
846.478	15173
846.614	14994
846.75	14914
846.886	14842
847.022	15085
847.158	14937
847.294	15009
847.429	15020
847.565	14902
847.701	15157
847.837	14670
847.972	14667
848.108	14834
848.244	14777
848.379	14640
848.515	14655
848.65	14518
848.786	14610
848.921	14503
849.057	14655
849.192	14598
849.328	14537
849.463	14610
849.598	14606
849.734	14549
849.869	14461
850.004	14305
850.14	14446
850.275	14374
850.41	14259
850.545	14355
850.68	14252
850.815	14301
850.95	14233
851.085	14526
851.22	14358
851.355	14385
851.49	14290
851.625	14237
851.76	14366
851.895	14267
852.03	14256
852.165	14347
852.299	14362
852.434	14434
852.569	14336
852.703	14355
852.838	14412
852.973	14575
853.107	14419
853.242	14347
853.376	14225
853.511	14191
853.645	14180
853.78	14301
853.914	14149
854.048	14134
854.183	14081
854.317	14237
854.451	14366
854.585	14271
854.72	14161
854.854	14202
854.988	14206
855.122	14092
855.256	13947
855.39	14168
855.524	14233
855.658	14157
855.792	14218
855.926	14237
856.06	14202
856.194	14317
856.327	14221
856.461	14126
856.595	14199
856.729	14221
856.862	14309
856.996	14199
857.13	14218
857.263	14298
857.397	14347
857.53	14206
857.664	14240
857.797	14225
857.931	14221
858.064	14183
858.197	14339
858.331	14237
858.464	14062
858.597	14119
858.731	14191
858.864	14172
858.997	14142
859.13	14191
859.263	14259
859.396	14351
859.529	14176
859.662	14088
859.795	14103
859.928	14229
860.061	14305
860.194	14290
860.327	14180
860.46	14183
860.592	14320
860.725	14278
860.858	14256
860.99	14100
861.123	14062
861.256	14161
861.388	14202
861.521	14705
861.653	14050
861.786	13982
861.918	13963
862.05	14164
862.183	14195
862.315	14073
862.447	14199
862.58	14210
862.712	13982
862.844	13875
862.976	14088
863.108	14062
863.24	14442
863.372	13826
863.504	14020
863.636	14035
863.768	14046
863.9	14001
864.032	13894
864.164	13917
864.296	14149
864.428	14024
864.559	14103
864.691	14065
864.823	14039
864.954	13997
865.086	13932
865.217	14035
865.349	13967
865.48	14001
865.612	14035
865.743	14054
865.875	13909
866.006	13890
866.137	14035
866.269	13913
866.4	13906
866.531	13906
866.662	13947
866.793	13925
866.924	13928
867.055	13963
867.186	13925
867.317	13967
867.448	13883
867.579	13902
867.71	13890
867.841	13944
867.972	13890
868.103	13959
868.233	13925
868.364	13959
868.495	14142
868.625	14214
868.756	14301
868.886	14229
869.017	14221
869.147	14252
869.278	14336
869.408	14240
869.539	14214
869.669	14347
869.799	14271
869.929	14313
870.06	14301
870.19	14469
870.32	14568
870.45	14575
870.58	14644
870.71	14739
870.84	14697
870.97	14621
871.1	14545
871.23	14796
871.36	14724
871.489	14659
871.619	14845
871.749	14902
871.879	14826
872.008	14944
872.138	14849
872.267	14838
872.397	14705
872.526	14697
872.656	14640
872.785	14663
872.915	14864
873.044	14948
873.173	14857
873.303	14880
873.432	14853
873.561	15039
873.69	14819
873.819	14895
873.948	15032
874.077	14906
874.206	14739
874.335	14910
874.464	15039
874.593	15123
874.722	15226
874.851	15100
874.979	15112
875.108	15268
875.237	15112
875.365	15127
875.494	15138
875.623	15351
875.751	15074
875.88	15230
876.008	15359
876.136	15405
876.265	15656
876.393	15747
876.521	15759
876.65	15633
876.778	15667
876.906	15515
877.034	15637
877.162	15519
877.29	15534
877.418	15599
877.546	15614
877.674	15644
877.802	15530
877.93	15610
878.058	15564
878.185	15447
878.313	15526
878.441	15542
878.568	15439
878.696	15507
878.824	15625
878.951	15682
879.079	15800
879.206	15861
879.333	15705
879.461	15732
879.588	15732
879.715	15679
879.842	15804
879.97	15614
880.097	15424
880.224	15389
880.351	15488
880.478	15469
880.605	15488
880.732	15466
880.859	15618
880.986	15530
881.112	15530
881.239	15294
881.366	15207
881.493	15161
881.619	15108
881.746	15116
881.872	15207
881.999	15097
882.125	15135
882.252	15180
882.378	15097
882.505	15389
882.631	15116
882.757	14956
882.883	15001
883.01	14902
883.136	14914
883.262	14750
883.388	14705
883.514	15005
883.64	15089
883.766	14925
883.892	14735
884.018	14735
884.143	14933
884.269	14929
884.395	14739
884.52	14613
884.646	14617
884.772	14522
884.897	14537
885.023	14667
885.148	14716
885.274	14773
885.399	14632
885.524	14632
885.65	14708
885.775	14587
885.9	14651
886.025	14746
886.15	14762
886.275	14560
886.4	14511
886.525	14522
886.65	14499
886.775	14590
886.9	14815
887.025	14872
887.149	14648
887.274	14507
887.399	14400
887.523	14545
887.648	14381
887.773	14351
887.897	14526
888.021	14404
888.146	14400
888.27	14590
888.395	14674
888.519	14530
888.643	14522
888.767	14564
888.891	14377
889.015	14305
889.139	14301
889.263	14320
889.387	14351
889.511	14450
889.635	14431
889.759	14298
889.883	14343
890.006	14305
890.13	14442
890.254	14282
890.377	14294
890.501	14134
890.624	14092
890.748	14168
890.871	14081
890.995	14043
891.118	13993
891.241	14149
891.364	14046
891.488	14134
891.611	14031
891.734	14008
891.857	14134
891.98	14126
892.103	14081
892.226	14001
892.349	13955
892.471	13731
892.594	14005
892.717	14062
892.839	13993
892.962	13993
893.085	14088
893.207	14046
893.33	13959
893.452	14084
893.575	14077
893.697	13944
893.819	14259
893.941	14210
894.064	14214
894.186	13989
894.308	14073
894.43	14142
894.552	14202
894.674	14134
894.796	13974
894.918	14145
895.04	14050
895.161	14161
895.283	14096
895.405	13963
895.526	14043
895.648	14119
895.769	14183
895.891	14119
896.012	14191
896.134	14218
896.255	14233
896.376	14153
896.498	14240
896.619	14206
896.74	14206
896.861	14313
896.982	14492
897.103	14693
897.224	14492
897.345	14442
897.466	14454
897.587	14454
897.708	14598
897.828	14469
897.949	14511
898.07	14442
898.19	14412
898.311	14670
898.431	14545
898.552	14537
898.672	14621
898.792	14632
898.913	14488
899.033	14507
899.153	14469
899.273	14328
899.393	14328
899.513	14434
899.633	14336
899.753	14571
899.873	14381
899.993	14469
900.113	14339
900.232	14473
900.352	14427
900.472	14434
900.591	14256
900.711	14320
900.83	14275
900.95	14434
901.069	14465
901.189	14176
901.308	13978
901.427	13860
901.546	14027
901.665	13909
901.784	13982
901.904	13833
902.023	13814
902.141	13521
902.26	13502
902.379	13639
902.498	13540
902.617	13445
902.735	13582
902.854	13540
902.973	13430
903.091	13312
903.21	13183
903.328	13232
903.446	13206
903.565	13095
903.683	13088
903.801	13023
903.919	13103
904.038	13038
904.156	12951
904.274	13015
904.392	12897
904.51	12863
904.627	12856
904.745	12943
904.863	12928
904.981	12787
905.098	12616
905.216	12589
905.334	12620
905.451	12635
905.569	12646
905.686	12681
905.803	12658
905.921	12464
906.038	12570
906.155	12429
906.272	12334
906.389	12376
906.506	12175
906.623	12194
906.74	12175
906.857	12121
906.974	12152
907.091	12315
907.208	12330
907.324	12266
907.441	12041
907.557	11984
907.674	11927
907.79	11859
907.907	11912
908.023	11912
908.139	11950
908.256	11878
908.372	11912
908.488	11809
908.604	11668
908.72	11634
908.836	11691
908.952	11695
909.068	11634
909.184	11817
909.3	11707
909.415	11710
909.531	11771
909.647	11570
909.762	11619
909.878	11414
909.993	11520
910.108	11444
910.224	11444
910.339	11509
910.454	11379
910.57	11292
910.685	11318
910.8	11547
910.915	11452
911.03	11391
911.145	11216
911.259	11166
911.374	11181
911.489	11140
911.604	11041
911.718	10873
911.833	10927
911.947	10774
912.062	10733
912.176	10915
912.291	10946
912.405	10934
912.519	11124
912.633	11181
912.748	10976
912.862	10923
912.976	10820
913.09	10679
913.204	10748
913.318	10816
913.431	10953
913.545	10847
913.659	10965
913.772	10820
913.886	10721
914	10675
914.113	10744
914.226	10839
914.34	10744
914.453	10611
914.566	10759
914.68	10687
914.793	10664
914.906	10382
915.019	10451
915.132	10409
915.245	10398
915.358	10466
915.47	10451
915.583	10367
915.696	10580
915.809	10565
915.921	10596
916.034	10432
916.146	10462
916.259	10333
916.371	10455
916.483	10512
916.595	10428
916.708	10478
916.82	10386
916.932	10409
917.044	10322
917.156	10314
917.268	10265
917.38	10280
917.491	10238
917.603	10299
917.715	10242
917.826	10398
917.938	10211
918.049	10131
918.161	10280
918.272	10424
918.384	10402
918.495	10299
918.606	10242
918.717	10143
918.828	10223
918.939	10207
919.05	10112
919.161	10124
919.272	9991
919.383	10002
919.494	10230
919.604	10367
919.715	10192
919.826	9998
919.936	10131
920.047	10287
920.157	10196
920.267	10390
920.378	10234
920.488	10147
920.598	10325
920.708	10523
920.818	10371
920.928	10386
921.038	10538
921.148	10561
921.258	10196
921.368	10101
921.477	9975
921.587	9922
921.697	9899
921.806	9998
921.916	9884
922.025	9724
922.134	9751
922.244	9701
922.353	9759
922.462	9603
922.571	9557
922.68	9405
922.789	9332
922.898	9504
923.007	9359
923.116	9504
923.224	9416
923.333	9428
923.442	9325
923.55	9283
923.659	9279
923.767	9367
923.876	9325
923.984	9287
924.092	9302
924.201	9321
924.309	9222
924.417	9313
924.525	9245
924.633	9253
924.741	10181
924.849	9070
924.956	9203
925.064	9081
925.172	8963
925.279	9020
925.387	9142
925.494	9047
925.602	9218
925.709	9154
925.816	8986
925.924	9070
926.031	9161
926.138	9146
926.245	9142
926.352	9017
926.459	9135
926.566	9116
926.673	9028
926.779	8937
926.886	8941
926.993	8762
927.099	8792
927.206	8815
927.312	8788
927.419	8883
927.525	8857
927.631	8876
927.737	8743
927.843	8724
927.95	8552
928.056	8663
928.162	8689
928.267	8697
928.373	9253
928.479	8830
928.585	8552
928.69	8632
928.796	8750
928.901	8617
929.007	8492
929.112	8583
929.218	8610
929.323	8526
929.428	8564
929.533	8632
929.638	8495
929.743	8522
929.848	8587
929.953	8526
930.058	8370
930.163	8195
930.267	8328
930.372	8408
930.477	8256
930.581	8499
930.685	8336
930.79	8191
930.894	8313
930.998	8252
931.103	8347
931.207	8020
931.311	8005
931.415	7852
931.519	7750
931.623	7689
