Data from test_V78500241_2507.txt Node
Date: Fri Mar 25 14:51:10 CST 2022
User: usil
Spectrometer: V785-0024
Trigger mode: 0
Integration Time (sec): 4.000000E-1
Scans to average: 1
Nonlinearity correction enabled: false
Boxcar width: 0
Storing dark spectrum: false
XAxis mode: Wavelengths
Number of Pixels in Spectrum: 1024
>>>>>Begin Spectral Data<<<<<
801.071	22074
801.214	21930
801.356	21732
801.499	21663
801.641	21469
801.783	21439
801.926	21523
802.068	21351
802.211	21313
802.353	21119
802.496	21032
802.638	20925
802.78	20975
802.923	20899
803.065	20674
803.208	20724
803.35	20701
803.492	20864
803.635	20845
803.777	20769
803.919	20823
804.061	21089
804.204	20792
804.346	20754
804.488	20648
804.63	20663
804.773	20625
804.915	20636
805.057	20735
805.199	20670
805.341	20762
805.483	20750
805.626	20701
805.768	20571
805.91	20644
806.052	20689
806.194	20571
806.336	20754
806.478	20655
806.62	20571
806.762	20587
806.904	20849
807.046	21116
807.188	20842
807.33	20887
807.472	21214
807.614	20895
807.756	20902
807.898	20754
808.04	20659
808.182	20678
808.324	20746
808.465	20762
808.607	20857
808.749	21066
808.891	20979
809.033	21184
809.174	21051
809.316	20971
809.458	20994
809.6	20952
809.741	21070
809.883	21039
810.025	21199
810.166	21195
810.308	21169
810.45	21233
810.591	21214
810.733	20872
810.875	20746
811.016	20788
811.158	20731
811.299	20918
811.441	20979
811.582	20895
811.724	20925
811.865	20796
812.007	20689
812.148	20849
812.29	20933
812.431	20845
812.573	21017
812.714	21131
812.855	21336
812.997	21325
813.138	21485
813.279	21351
813.421	21272
813.562	21211
813.703	21089
813.845	20868
813.986	20739
814.127	20556
814.268	20492
814.41	20446
814.551	20290
814.692	20374
814.833	20237
814.974	20366
815.115	20362
815.256	20187
815.397	20202
815.539	20096
815.68	20081
815.821	20024
815.962	20168
816.103	20073
816.244	19890
816.385	19868
816.526	19784
816.666	19639
816.807	19582
816.948	19559
817.089	19571
817.23	19609
817.371	19438
817.512	19506
817.653	19388
817.793	19438
817.934	19434
818.075	19411
818.216	19388
818.356	19312
818.497	19244
818.638	19110
818.778	19175
818.919	19190
819.06	19175
819.2	19320
819.341	19369
819.481	19362
819.622	19563
819.762	19658
819.903	19441
820.043	19590
820.184	19567
820.324	19521
820.465	19430
820.605	19533
820.746	19392
820.886	19445
821.026	19316
821.167	19400
821.307	19506
821.447	19422
821.588	19289
821.728	19122
821.868	19114
822.008	18821
822.149	18798
822.289	18882
822.429	18627
822.569	18547
822.709	18532
822.849	18296
822.99	18369
823.13	18418
823.27	18285
823.41	18197
823.55	18129
823.69	18155
823.83	18167
823.97	18228
824.11	17920
824.25	17958
824.389	17912
824.529	17935
824.669	17999
824.809	18136
824.949	17954
825.089	17939
825.228	17961
825.368	17756
825.508	17726
825.648	17824
825.787	17809
825.927	17710
826.067	17653
826.206	17665
826.346	17684
826.485	17680
826.625	17661
826.765	17859
826.904	17764
827.044	17509
827.183	17391
827.323	17356
827.462	17551
827.601	17410
827.741	17379
827.88	17410
828.02	17216
828.159	17318
828.298	17467
828.437	17429
828.577	17410
828.716	17440
828.855	17410
828.994	17124
829.134	17216
829.273	17124
829.412	16987
829.551	17075
829.69	17174
829.829	17166
829.968	17345
830.107	17254
830.246	17162
830.385	17246
830.524	17075
830.663	17003
830.802	16885
830.941	16763
831.08	16744
831.219	16892
831.357	16812
831.496	17037
831.635	16702
831.774	16774
831.913	16672
832.051	16554
832.19	16691
832.329	16573
832.467	16455
832.606	16398
832.744	16421
832.883	16493
833.022	16341
833.16	16523
833.299	16481
833.437	16462
833.576	16508
833.714	16405
833.852	16512
833.991	16386
834.129	16535
834.267	16637
834.406	16558
834.544	16588
834.682	16577
834.821	16504
834.959	16733
835.097	16371
835.235	16542
835.373	16538
835.511	16523
835.65	16394
835.788	16421
835.926	16268
836.064	16238
836.202	16280
836.34	16478
836.478	16478
836.615	16474
836.753	16413
836.891	16516
837.029	16421
837.167	16405
837.305	16405
837.443	16352
837.58	16215
837.718	16386
837.856	16337
837.993	16192
838.131	16211
838.269	16291
838.406	16287
838.544	16325
838.681	16021
838.819	15991
838.956	15861
839.094	15884
839.231	15907
839.369	15953
839.506	16238
839.643	16021
839.781	15800
839.918	15804
840.055	15827
840.193	15892
840.33	15793
840.467	15892
840.604	15884
840.742	16124
840.879	15686
841.016	15785
841.153	15827
841.29	15926
841.427	15930
841.564	15880
841.701	15861
841.838	15865
841.975	15747
842.112	15679
842.249	15739
842.385	15591
842.522	15743
842.659	15580
842.796	15720
842.933	15660
843.069	15656
843.206	15568
843.343	15739
843.479	15641
843.616	15595
843.752	15454
843.889	15500
844.025	15572
844.162	15370
844.298	15549
844.435	15538
844.571	15485
844.708	15557
844.844	15584
844.98	15488
845.117	15511
845.253	15363
845.389	15302
845.525	15306
845.661	15287
845.798	15260
845.934	15195
846.07	15146
846.206	15279
846.342	15336
846.478	15192
846.614	15028
846.75	14975
846.886	14952
847.022	15020
847.158	14899
847.294	15032
847.429	14948
847.565	15013
847.701	15306
847.837	14842
847.972	14674
848.108	14823
848.244	14777
848.379	14560
848.515	14655
848.65	14602
848.786	14560
848.921	14651
849.057	14651
849.192	14697
849.328	14598
849.463	14621
849.598	14522
849.734	14541
849.869	14499
850.004	14434
850.14	14377
850.275	14396
850.41	14191
850.545	14298
850.68	14278
850.815	14362
850.95	14305
851.085	14571
851.22	14442
851.355	14370
851.49	14332
851.625	14332
851.76	14282
851.895	14225
852.03	14240
852.165	14358
852.299	14362
852.434	14320
852.569	14457
852.703	14301
852.838	14484
852.973	14549
853.107	14492
853.242	14339
853.376	14191
853.511	13936
853.645	14191
853.78	14332
853.914	14301
854.048	14237
854.183	14240
854.317	14202
854.451	14454
854.585	14237
854.72	14206
854.854	14332
854.988	14138
855.122	14107
855.256	14123
855.39	14294
855.524	14351
855.658	14332
855.792	14320
855.926	14366
856.06	14290
856.194	14374
856.327	14271
856.461	14309
856.595	14233
856.729	14256
856.862	14244
856.996	14275
857.13	14370
857.263	14355
857.397	14278
857.53	14328
857.664	14351
857.797	14385
857.931	14438
858.064	14286
858.197	14290
858.331	14256
858.464	14172
858.597	14244
858.731	14180
858.864	14237
858.997	14278
859.13	14278
859.263	14256
859.396	14423
859.529	14191
859.662	14267
859.795	14218
859.928	14301
860.061	14427
860.194	14446
860.327	14286
860.46	14210
860.592	14385
860.725	14381
860.858	14438
860.99	14267
861.123	14168
861.256	14214
861.388	14214
861.521	14845
861.653	14153
861.786	14065
861.918	14142
862.05	14225
862.183	14233
862.315	14290
862.447	14332
862.58	14195
862.712	14062
862.844	13944
862.976	14183
863.108	14092
863.24	14412
863.372	13989
863.504	14008
863.636	14016
863.768	14062
863.9	14069
864.032	14058
864.164	13932
864.296	14031
864.428	14111
864.559	14149
864.691	14183
864.823	14039
864.954	14065
865.086	14054
865.217	14069
865.349	14062
865.48	14039
865.612	14111
865.743	14111
865.875	14103
866.006	13993
866.137	14058
866.269	14054
866.4	14069
866.531	13940
866.662	13967
866.793	14008
866.924	14024
867.055	14005
867.186	13993
867.317	14027
867.448	13947
867.579	13963
867.71	13902
867.841	13959
867.972	14046
868.103	13982
868.233	14100
868.364	14069
868.495	14054
868.625	14244
868.756	14347
868.886	14301
869.017	14271
869.147	14396
869.278	14358
869.408	14210
869.539	14244
869.669	14256
869.799	14404
869.929	14476
870.06	14404
870.19	14670
870.32	14590
870.45	14621
870.58	14754
870.71	14838
870.84	14815
870.97	14568
871.1	14693
871.23	14925
871.36	14876
871.489	14819
871.619	14838
871.749	14804
871.879	14967
872.008	14975
872.138	14838
872.267	14891
872.397	14708
872.526	14712
872.656	14602
872.785	14796
872.915	14918
873.044	14963
873.173	14979
873.303	14979
873.432	14872
873.561	15039
873.69	15039
873.819	14895
873.948	15005
874.077	14910
874.206	14914
874.335	15043
874.464	15089
874.593	15116
874.722	15233
874.851	15146
874.979	15241
875.108	15249
875.237	15112
875.365	15188
875.494	15207
875.623	15351
875.751	15165
875.88	15348
876.008	15348
876.136	15507
876.265	15671
876.393	15857
876.521	15728
876.65	15728
876.778	15724
876.906	15603
877.034	15557
877.162	15694
877.29	15545
877.418	15823
877.546	15644
877.674	15545
877.802	15728
877.93	15610
878.058	15606
878.185	15462
878.313	15694
878.441	15720
878.568	15538
878.696	15553
878.824	15660
878.951	15698
879.079	15747
879.206	15888
879.333	15823
879.461	15694
879.588	15690
879.715	15785
879.842	16040
879.97	15648
880.097	15405
880.224	15477
880.351	15587
880.478	15534
880.605	15485
880.732	15507
880.859	15800
880.986	15542
881.112	15549
881.239	15462
881.366	15291
881.493	15233
881.619	15070
881.746	15176
881.872	15230
881.999	15154
882.125	15100
882.252	15157
882.378	15275
882.505	15264
882.631	15062
882.757	14944
882.883	15047
883.01	15005
883.136	14811
883.262	14815
883.388	14777
883.514	15005
883.64	15032
883.766	14857
883.892	14811
884.018	14872
884.143	14864
884.269	15097
884.395	14735
884.52	14720
884.646	14667
884.772	14720
884.897	14533
885.023	14731
885.148	14781
885.274	14731
885.399	14811
885.524	14674
885.65	14701
885.775	14693
885.9	14670
886.025	14807
886.15	14792
886.275	14587
886.4	14575
886.525	14659
886.65	14670
886.775	14560
886.9	14845
887.025	14918
887.149	14670
887.274	14560
887.399	14503
887.523	14446
887.648	14473
887.773	14362
887.897	14594
888.021	14571
888.146	14476
888.27	14613
888.395	14678
888.519	14621
888.643	14533
888.767	14583
888.891	14419
889.015	14336
889.139	14461
889.263	14389
889.387	14442
889.511	14575
889.635	14552
889.759	14385
889.883	14396
890.006	14423
890.13	14556
890.254	14282
890.377	14351
890.501	14202
890.624	14100
890.748	14263
890.871	14176
890.995	13993
891.118	13989
891.241	14069
891.364	14088
891.488	14187
891.611	14123
891.734	14130
891.857	14168
891.98	14065
892.103	14073
892.226	14065
892.349	14180
892.471	13947
892.594	13982
892.717	14123
892.839	14035
892.962	14077
893.085	14206
893.207	14088
893.33	14027
893.452	14046
893.575	14138
893.697	14081
893.819	14221
893.941	14336
894.064	14248
894.186	14164
894.308	14020
894.43	14157
894.552	14275
894.674	14301
894.796	14107
894.918	14054
895.04	14081
895.161	14199
895.283	14119
895.405	14134
895.526	14187
895.648	14168
895.769	14161
895.891	14237
896.012	14313
896.134	14320
896.255	14191
896.376	14309
896.498	14183
896.619	14271
896.74	14317
896.861	14396
896.982	14640
897.103	14674
897.224	14522
897.345	14469
897.466	14370
897.587	14541
897.708	14511
897.828	14564
897.949	14473
898.07	14480
898.19	14541
898.311	14670
898.431	14575
898.552	14636
898.672	14575
898.792	14682
898.913	14712
899.033	14560
899.153	14503
899.273	14393
899.393	14324
899.513	14446
899.633	14514
899.753	14480
899.873	14423
899.993	14503
900.113	14488
900.232	14537
900.352	14473
900.472	14412
900.591	14252
900.711	14385
900.83	14290
900.95	14415
901.069	14347
901.189	14218
901.308	14027
901.427	13837
901.546	13944
901.665	14016
901.784	14016
901.904	13860
902.023	13837
902.141	13655
902.26	13510
902.379	13590
902.498	13674
902.617	13491
902.735	13586
902.854	13563
902.973	13415
903.091	13331
903.21	13403
903.328	13324
903.446	13293
903.565	13152
903.683	13141
903.801	13015
903.919	13107
904.038	13065
904.156	12951
904.274	12989
904.392	12897
904.51	12886
904.627	12852
904.745	12935
904.863	12970
904.981	12776
905.098	12639
905.216	12673
905.334	12642
905.451	12650
905.569	12627
905.686	12639
905.803	12707
905.921	12410
906.038	12532
906.155	12513
906.272	12350
906.389	12323
906.506	12232
906.623	12266
906.74	12152
906.857	12133
906.974	12076
907.091	12292
907.208	12304
907.324	12213
907.441	12140
907.557	12003
907.674	11999
907.79	11958
907.907	11908
908.023	11874
908.139	11996
908.256	11882
908.372	11988
908.488	11908
908.604	11870
908.72	11718
908.836	11771
908.952	11703
909.068	11790
909.184	11882
909.3	11756
909.415	11798
909.531	11748
909.647	11532
909.762	11490
909.878	11554
909.993	11501
910.108	11619
910.224	11471
910.339	11497
910.454	11383
910.57	11337
910.685	11353
910.8	11471
910.915	11600
911.03	11315
911.145	11216
911.259	11147
911.374	11231
911.489	11113
911.604	11185
911.718	10908
911.833	11060
911.947	10850
912.062	10812
912.176	10915
912.291	11018
912.405	11003
912.519	11109
912.633	11178
912.748	11102
912.862	10961
912.976	10820
913.09	10717
913.204	10816
913.318	10869
913.431	10961
913.545	10930
913.659	10930
913.772	10847
913.886	10694
914	10721
914.113	10877
914.226	10938
914.34	10763
914.453	10729
914.566	10858
914.68	10653
914.793	10672
914.906	10554
915.019	10424
915.132	10432
915.245	10470
915.358	10516
915.47	10413
915.583	10474
915.696	10535
915.809	10603
915.921	10577
916.034	10424
916.146	10398
916.259	10417
916.371	10561
916.483	10538
916.595	10382
916.708	10447
916.82	10371
916.932	10424
917.044	10394
917.156	10356
917.268	10242
917.38	10310
917.491	10257
917.603	10352
917.715	10356
917.826	10341
917.938	10333
918.049	10234
918.161	10295
918.272	10470
918.384	10398
918.495	10257
918.606	10242
918.717	10078
918.828	10196
918.939	10097
919.05	10143
919.161	10166
919.272	9975
919.383	10090
919.494	10166
919.604	10417
919.715	10173
919.826	10109
919.936	10219
920.047	10227
920.157	10234
920.267	10436
920.378	10284
920.488	10223
920.598	10371
920.708	10500
920.818	10363
920.928	10394
921.038	10558
921.148	10531
921.258	10204
921.368	10105
921.477	10036
921.587	10097
921.697	9983
921.806	10101
921.916	9945
922.025	9740
922.134	9781
922.244	9675
922.353	9800
922.462	9637
922.571	9652
922.68	9542
922.789	9420
922.898	9435
923.007	9469
923.116	9485
923.224	9492
923.333	9488
923.442	9351
923.55	9363
923.659	9359
923.767	9477
923.876	9389
923.984	9424
924.092	9325
924.201	9378
924.309	9370
924.417	9378
924.525	9253
924.633	9321
924.741	10207
924.849	9081
924.956	9256
925.064	9081
925.172	9077
925.279	9081
925.387	9123
925.494	9089
925.602	9222
925.709	9241
925.816	9077
925.924	9127
926.031	9245
926.138	9256
926.245	9100
926.352	9097
926.459	9184
926.566	9233
926.673	9135
926.779	9055
926.886	8998
926.993	8876
927.099	8823
927.206	8811
927.312	8788
927.419	8842
927.525	8910
927.631	8910
927.737	8811
927.843	8724
927.95	8659
928.056	8701
928.162	8708
928.267	8796
928.373	9416
928.479	8830
928.585	8644
928.69	8735
928.796	8731
928.901	8716
929.007	8575
929.112	8712
929.218	8629
929.323	8545
929.428	8594
929.533	8720
929.638	8571
929.743	8549
929.848	8651
929.953	8602
930.058	8446
930.163	8313
930.267	8362
930.372	8511
930.477	8305
930.581	8579
930.685	8377
930.79	8309
930.894	8336
930.998	8294
931.103	8434
931.207	8069
931.311	8043
931.415	8005
931.519	7822
931.623	7769
