Data from test_V78500241_3247.txt Node
Date: Fri Mar 25 14:56:19 CST 2022
User: usil
Spectrometer: V785-0024
Trigger mode: 0
Integration Time (sec): 4.000000E-1
Scans to average: 1
Nonlinearity correction enabled: false
Boxcar width: 0
Storing dark spectrum: false
XAxis mode: Wavelengths
Number of Pixels in Spectrum: 1024
>>>>>Begin Spectral Data<<<<<
801.071	22032
801.214	21778
801.356	21720
801.499	21549
801.641	21538
801.783	21351
801.926	21500
802.068	21355
802.211	21344
802.353	21081
802.496	20910
802.638	20902
802.78	20842
802.923	20746
803.065	20636
803.208	20663
803.35	20731
803.492	20876
803.635	20804
803.777	20644
803.919	20750
804.061	20967
804.204	20686
804.346	20625
804.488	20579
804.63	20701
804.773	20537
804.915	20583
805.057	20705
805.199	20495
805.341	20594
805.483	20644
805.626	20602
805.768	20454
805.91	20476
806.052	20648
806.194	20495
806.336	20625
806.478	20560
806.62	20583
806.762	20552
806.904	20758
807.046	21013
807.188	20819
807.33	20952
807.472	20937
807.614	20849
807.756	20758
807.898	20750
808.04	20530
808.182	20590
808.324	20621
808.465	20731
808.607	20857
808.749	21020
808.891	20998
809.033	21074
809.174	20880
809.316	21051
809.458	20830
809.6	20937
809.741	20967
809.883	21138
810.025	21173
810.166	21199
810.308	21150
810.45	21028
810.591	20788
810.733	20834
810.875	20819
811.016	20659
811.158	20571
811.299	20781
811.441	20819
811.582	20773
811.724	20716
811.865	20636
812.007	20594
812.148	20667
812.29	20724
812.431	20788
812.573	21104
812.714	21108
812.855	21287
812.997	21275
813.138	21466
813.279	21332
813.421	21089
813.562	21188
813.703	20941
813.845	20918
813.986	20629
814.127	20461
814.268	20332
814.41	20259
814.551	20187
814.692	20320
814.833	20103
814.974	20161
815.115	20195
815.256	20126
815.397	20180
815.539	20005
815.68	19959
815.821	19928
815.962	20081
816.103	19989
816.244	19963
816.385	19689
816.526	19670
816.666	19552
816.807	19434
816.948	19449
817.089	19552
817.23	19499
817.371	19415
817.512	19396
817.653	19384
817.793	19396
817.934	19472
818.075	19403
818.216	19369
818.356	19381
818.497	19221
818.638	19133
818.778	19122
818.919	19110
819.06	19190
819.2	19225
819.341	19289
819.481	19270
819.622	19407
819.762	19628
819.903	19468
820.043	19468
820.184	19384
820.324	19369
820.465	19415
820.605	19449
820.746	19327
820.886	19350
821.026	19419
821.167	19369
821.307	19403
821.447	19312
821.588	19247
821.728	19061
821.868	18985
822.008	18795
822.149	18779
822.289	18757
822.429	18502
822.569	18509
822.709	18547
822.849	18205
822.99	18121
823.13	18243
823.27	18247
823.41	18201
823.55	18026
823.69	18007
823.83	18034
823.97	17946
824.11	17878
824.25	17752
824.389	17775
824.529	17882
824.669	17916
824.809	17889
824.949	17893
825.089	17851
825.228	17695
825.368	17752
825.508	17562
825.648	17608
825.787	17627
825.927	17623
826.067	17604
826.206	17630
826.346	17638
826.485	17764
826.625	17505
826.765	17653
826.904	17600
827.044	17391
827.183	17368
827.323	17360
827.462	17349
827.601	17242
827.741	17307
827.88	17265
828.02	17273
828.159	17376
828.298	17299
828.437	17463
828.577	17292
828.716	17303
828.855	17303
828.994	17117
829.134	17109
829.273	17022
829.412	17071
829.551	17102
829.69	17121
829.829	17109
829.968	17174
830.107	17025
830.246	17121
830.385	16949
830.524	16919
830.663	16915
830.802	16812
830.941	16664
831.08	16558
831.219	16755
831.357	16763
831.496	16839
831.635	16592
831.774	16580
831.913	16584
832.051	16455
832.19	16485
832.329	16443
832.467	16447
832.606	16230
832.744	16394
832.883	16440
833.022	16352
833.16	16360
833.299	16348
833.437	16459
833.576	16470
833.714	16379
833.852	16527
833.991	16402
834.129	16424
834.267	16508
834.406	16375
834.544	16409
834.682	16504
834.821	16504
834.959	16645
835.097	16238
835.235	16550
835.373	16481
835.511	16497
835.65	16451
835.788	16432
835.926	16181
836.064	16112
836.202	16188
836.34	16371
836.478	16447
836.615	16253
836.753	16306
836.891	16421
837.029	16272
837.167	16276
837.305	16181
837.443	16124
837.58	16211
837.718	16204
837.856	16177
837.993	16139
838.131	16211
838.269	16109
838.406	16207
838.544	16101
838.681	15873
838.819	15972
838.956	15739
839.094	15667
839.231	15865
839.369	15903
839.506	16215
839.643	15956
839.781	15880
839.918	15728
840.055	15705
840.193	15793
840.33	15698
840.467	15717
840.604	15812
840.742	16013
840.879	15648
841.016	15648
841.153	15603
841.29	15854
841.427	15800
841.564	15770
841.701	15869
841.838	15728
841.975	15675
842.112	15720
842.249	15641
842.385	15488
842.522	15747
842.659	15496
842.796	15538
842.933	15564
843.069	15473
843.206	15507
843.343	15660
843.479	15538
843.616	15595
843.752	15325
843.889	15329
844.025	15450
844.162	15359
844.298	15420
844.435	15252
844.571	15298
844.708	15393
844.844	15454
844.98	15504
845.117	15378
845.253	15283
845.389	15237
845.525	15260
845.661	15260
845.798	15081
845.934	15192
846.07	15112
846.206	15176
846.342	15310
846.478	15032
846.614	14994
846.75	14861
846.886	14861
847.022	14941
847.158	14921
847.294	14952
847.429	15005
847.565	14864
847.701	15157
847.837	14727
847.972	14754
848.108	14648
848.244	14727
848.379	14537
848.515	14507
848.65	14503
848.786	14537
848.921	14438
849.057	14541
849.192	14495
849.328	14556
849.463	14545
849.598	14461
849.734	14427
849.869	14328
850.004	14286
850.14	14343
850.275	14267
850.41	14199
850.545	14210
850.68	14259
850.815	14290
850.95	14233
851.085	14552
851.22	14332
851.355	14278
851.49	14126
851.625	14263
851.76	14161
851.895	14195
852.03	14142
852.165	14256
852.299	14240
852.434	14282
852.569	14214
852.703	14233
852.838	14305
852.973	14438
853.107	14412
853.242	14313
853.376	14142
853.511	14111
853.645	14206
853.78	14252
853.914	14176
854.048	14084
854.183	14088
854.317	14161
854.451	14396
854.585	14145
854.72	14020
854.854	14214
854.988	14088
855.122	14065
855.256	13925
855.39	14157
855.524	14202
855.658	14187
855.792	14195
855.926	14233
856.06	14164
856.194	14244
856.327	14107
856.461	14039
856.595	14164
856.729	14123
856.862	14244
856.996	14172
857.13	14233
857.263	14278
857.397	14256
857.53	14111
857.664	14183
857.797	14221
857.931	14244
858.064	14221
858.197	14343
858.331	14164
858.464	14084
858.597	14081
858.731	14123
858.864	14054
858.997	14119
859.13	14180
859.263	14164
859.396	14206
859.529	14164
859.662	14149
859.795	14115
859.928	14164
860.061	14355
860.194	14377
860.327	14180
860.46	14142
860.592	14309
860.725	14286
860.858	14244
860.99	14214
861.123	14027
861.256	14096
861.388	14244
861.521	14937
861.653	14043
861.786	13963
861.918	13986
862.05	14119
862.183	14168
862.315	14168
862.447	14221
862.58	14202
862.712	13947
862.844	13989
862.976	14039
863.108	14084
863.24	14400
863.372	13890
863.504	13940
863.636	13944
863.768	14035
863.9	14005
864.032	13917
864.164	13947
864.296	14119
864.428	14092
864.559	13997
864.691	14077
864.823	14157
864.954	13963
865.086	13986
865.217	14016
865.349	13940
865.48	14020
865.612	13936
865.743	14073
865.875	13921
866.006	13921
866.137	13818
866.269	13970
866.4	13936
866.531	13982
866.662	13879
866.793	13925
866.924	13917
867.055	13913
867.186	13898
867.317	13978
867.448	13883
867.579	13906
867.71	13845
867.841	13860
867.972	13898
868.103	13986
868.233	13993
868.364	13986
868.495	14008
868.625	14275
868.756	14396
868.886	14100
869.017	14123
869.147	14324
869.278	14351
869.408	14309
869.539	14130
869.669	14343
869.799	14225
869.929	14351
870.06	14339
870.19	14610
870.32	14545
870.45	14514
870.58	14587
870.71	14758
870.84	14678
870.97	14686
871.1	14606
871.23	14826
871.36	14796
871.489	14708
871.619	14868
871.749	14804
871.879	14830
872.008	14891
872.138	14887
872.267	14823
872.397	14754
872.526	14549
872.656	14617
872.785	14651
872.915	14788
873.044	14883
873.173	14861
873.303	14868
873.432	14891
873.561	14941
873.69	14956
873.819	14838
873.948	14925
874.077	14918
874.206	14765
874.335	14887
874.464	14963
874.593	15150
874.722	15085
874.851	15226
874.979	15218
875.108	15184
875.237	15051
875.365	15009
875.494	15154
875.623	15233
875.751	15119
875.88	15188
876.008	15302
876.136	15340
876.265	15614
876.393	15743
876.521	15808
876.65	15557
876.778	15553
876.906	15545
877.034	15435
877.162	15629
877.29	15492
877.418	15648
877.546	15496
877.674	15622
877.802	15648
877.93	15591
878.058	15580
878.185	15458
878.313	15545
878.441	15549
878.568	15469
878.696	15656
878.824	15572
878.951	15705
879.079	15789
879.206	15941
879.333	15793
879.461	15534
879.588	15720
879.715	15819
879.842	15873
879.97	15610
880.097	15466
880.224	15374
880.351	15435
880.478	15485
880.605	15469
880.732	15340
880.859	15682
880.986	15450
881.112	15477
881.239	15469
881.366	15264
881.493	15131
881.619	15066
881.746	15043
881.872	15173
881.999	15024
882.125	15047
882.252	15135
882.378	15062
882.505	15241
882.631	15127
882.757	14834
882.883	14960
883.01	14849
883.136	14845
883.262	14807
883.388	14769
883.514	14948
883.64	14979
883.766	14861
883.892	14754
884.018	14727
884.143	14876
884.269	14998
884.395	14712
884.52	14610
884.646	14610
884.772	14480
884.897	14473
885.023	14564
885.148	14720
885.274	14712
885.399	14712
885.524	14594
885.65	14644
885.775	14663
885.9	14610
886.025	14746
886.15	14651
886.275	14526
886.4	14450
886.525	14610
886.65	14511
886.775	14507
886.9	14735
887.025	14906
887.149	14511
887.274	14492
887.399	14427
887.523	14358
887.648	14389
887.773	14248
887.897	14530
888.021	14450
888.146	14522
888.27	14488
888.395	14564
888.519	14465
888.643	14461
888.767	14530
888.891	14393
889.015	14332
889.139	14381
889.263	14358
889.387	14431
889.511	14587
889.635	14461
889.759	14328
889.883	14248
890.006	14286
890.13	14446
890.254	14233
890.377	14275
890.501	14153
890.624	14119
890.748	14214
890.871	14016
890.995	13947
891.118	13959
891.241	13921
891.364	14020
891.488	14069
891.611	13959
891.734	14039
891.857	14145
891.98	14046
892.103	14100
892.226	14001
892.349	13986
892.471	13936
892.594	14145
892.717	14096
892.839	14058
892.962	13974
893.085	14138
893.207	14039
893.33	13833
893.452	13967
893.575	14058
893.697	13970
893.819	14214
893.941	14282
894.064	14142
894.186	14039
894.308	13955
894.43	14164
894.552	14229
894.674	14191
894.796	13963
894.918	14039
895.04	13989
895.161	14183
895.283	14195
895.405	14005
895.526	14107
895.648	14123
895.769	14282
895.891	14134
896.012	14221
896.134	14172
896.255	14233
896.376	14221
896.498	14115
896.619	14142
896.74	14294
896.861	14191
896.982	14602
897.103	14705
897.224	14511
897.345	14438
897.466	14431
897.587	14552
897.708	14651
897.828	14408
897.949	14438
898.07	14389
898.19	14503
898.311	14530
898.431	14385
898.552	14598
898.672	14697
898.792	14697
898.913	14682
899.033	14442
899.153	14476
899.273	14225
899.393	14366
899.513	14434
899.633	14355
899.753	14358
899.873	14347
899.993	14465
900.113	14457
900.232	14404
900.352	14400
900.472	14301
900.591	14317
900.711	14248
900.83	14263
900.95	14366
901.069	14305
901.189	14256
901.308	14012
901.427	13894
901.546	14005
901.665	14031
901.784	14039
901.904	13833
902.023	13738
902.141	13529
902.26	13491
902.379	13624
902.498	13495
902.617	13403
902.735	13499
902.854	13502
902.973	13411
903.091	13206
903.21	13240
903.328	13293
903.446	13137
903.565	13103
903.683	13034
903.801	12981
903.919	13126
904.038	13000
904.156	12905
904.274	12954
904.392	12947
904.51	12966
904.627	12985
904.745	12928
904.863	12977
904.981	12795
905.098	12608
905.216	12601
905.334	12585
905.451	12707
905.569	12582
905.686	12631
905.803	12642
905.921	12422
906.038	12490
906.155	12376
906.272	12334
906.389	12357
906.506	12175
906.623	12159
906.74	12186
906.857	12106
906.974	12087
907.091	12209
907.208	12334
907.324	12209
907.441	12171
907.557	11889
907.674	11969
907.79	11828
907.907	11859
908.023	12022
908.139	11901
908.256	11832
908.372	11885
908.488	11935
908.604	11710
908.72	11562
908.836	11722
908.952	11653
909.068	11760
909.184	11821
909.3	11699
909.415	11707
909.531	11691
909.647	11448
909.762	11554
909.878	11429
909.993	11520
910.108	11398
910.224	11448
910.339	11471
910.454	11455
910.57	11364
910.685	11178
910.8	11512
910.915	11478
911.03	11277
911.145	11162
911.259	11223
911.374	11258
911.489	11155
911.604	11086
911.718	10904
911.833	10961
911.947	10847
912.062	10805
912.176	10862
912.291	10862
912.405	10949
912.519	11094
912.633	11155
912.748	11029
912.862	10923
912.976	10809
913.09	10706
913.204	10774
913.318	10755
913.431	10942
913.545	10923
913.659	10873
913.772	10793
913.886	10725
914	10611
914.113	10786
914.226	10835
914.34	10778
914.453	10584
914.566	10679
914.68	10721
914.793	10653
914.906	10432
915.019	10402
915.132	10363
915.245	10394
915.358	10440
915.47	10436
915.583	10455
915.696	10421
915.809	10512
915.921	10645
916.034	10394
916.146	10287
916.259	10356
916.371	10447
916.483	10535
916.595	10363
916.708	10363
916.82	10360
916.932	10348
917.044	10295
917.156	10272
917.268	10257
917.38	10246
917.491	10223
917.603	10257
917.715	10329
917.826	10371
917.938	10261
918.049	10169
918.161	10360
918.272	10367
918.384	10462
918.495	10287
918.606	10124
918.717	10044
918.828	10166
918.939	10192
919.05	10124
919.161	10147
919.272	9987
919.383	10059
919.494	10207
919.604	10322
919.715	10177
919.826	10082
919.936	10086
920.047	10219
920.157	10223
920.267	10386
920.378	10230
920.488	10112
920.598	10356
920.708	10554
920.818	10440
920.928	10390
921.038	10523
921.148	10519
921.258	10242
921.368	10086
921.477	10048
921.587	9998
921.697	9899
921.806	10013
921.916	9975
922.025	9732
922.134	9660
922.244	9698
922.353	9755
922.462	9580
922.571	9473
922.68	9389
922.789	9412
922.898	9420
923.007	9359
923.116	9473
923.224	9386
923.333	9431
923.442	9287
923.55	9340
923.659	9313
923.767	9389
923.876	9188
923.984	9348
924.092	9272
924.201	9253
924.309	9306
924.417	9294
924.525	9135
924.633	9268
924.741	10204
924.849	9074
924.956	9253
925.064	9112
925.172	8967
925.279	9020
925.387	9032
925.494	9032
925.602	9199
925.709	9180
925.816	8990
925.924	9032
926.031	9119
926.138	9127
926.245	9089
926.352	9028
926.459	9154
926.566	9161
926.673	9081
926.779	8948
926.886	8929
926.993	8796
927.099	8838
927.206	8746
927.312	8758
927.419	8788
927.525	8838
927.631	8887
927.737	8701
927.843	8727
927.95	8636
928.056	8682
928.162	8735
928.267	8743
928.373	9241
928.479	8766
928.585	8549
928.69	8682
928.796	8750
928.901	8575
929.007	8476
929.112	8621
929.218	8545
929.323	8537
929.428	8442
929.533	8636
929.638	8469
929.743	8465
929.848	8560
929.953	8511
930.058	8434
930.163	8301
930.267	8313
930.372	8434
930.477	8279
930.581	8518
930.685	8385
930.79	8259
930.894	8279
930.998	8263
931.103	8343
931.207	8054
931.311	8005
931.415	7989
931.519	7765
931.623	7784
