Data from test_V78500241_869.txt Node
Date: Fri Mar 25 14:39:46 CST 2022
User: usil
Spectrometer: V785-0024
Trigger mode: 0
Integration Time (sec): 4.000000E-1
Scans to average: 1
Nonlinearity correction enabled: false
Boxcar width: 0
Storing dark spectrum: false
XAxis mode: Wavelengths
Number of Pixels in Spectrum: 1024
>>>>>Begin Spectral Data<<<<<
801.071	25632
801.214	25540
801.356	25301
801.499	25217
801.641	25061
801.783	24992
801.926	24913
802.068	24859
802.211	24776
802.353	24730
802.496	24544
802.638	24585
802.78	24426
802.923	24342
803.065	24365
803.208	24292
803.35	24448
803.492	24452
803.635	24479
803.777	24502
803.919	24342
804.061	24890
804.204	24464
804.346	24391
804.488	24502
804.63	24437
804.773	24251
804.915	24403
805.057	24677
805.199	24536
805.341	24593
805.483	24551
805.626	24665
805.768	24563
805.91	24772
806.052	24730
806.194	24734
806.336	24985
806.478	24935
806.62	24939
806.762	25217
806.904	25244
807.046	25799
807.188	25795
807.33	25906
807.472	26298
807.614	26495
807.756	26819
807.898	27291
808.04	27835
808.182	28516
808.324	29646
808.465	30692
808.607	32065
808.749	33279
808.891	34021
809.033	33903
809.174	33222
809.316	32122
809.458	30787
809.6	29417
809.741	28516
809.883	27663
810.025	27127
810.166	26800
810.308	26609
810.45	26218
810.591	25940
810.733	25601
810.875	25514
811.016	25190
811.158	25194
811.299	25171
811.441	25202
811.582	25152
811.724	25000
811.865	24833
812.007	24829
812.148	24875
812.29	24802
812.431	24981
812.573	25221
812.714	25145
812.855	25293
812.997	25293
813.138	25365
813.279	25487
813.421	25175
813.562	25232
813.703	24814
813.845	24802
813.986	24593
814.127	24399
814.268	24266
814.41	24228
814.551	24102
814.692	24190
814.833	24068
814.974	23996
815.115	24041
815.256	23920
815.397	23843
815.539	24053
815.68	23783
815.821	23821
815.962	23901
816.103	23817
816.244	23684
816.385	23433
816.526	23497
816.666	23292
816.807	23105
816.948	23204
817.089	23273
817.23	23174
817.371	23254
817.512	23242
817.653	23136
817.793	23147
817.934	23121
818.075	23143
818.216	23269
818.356	23044
818.497	22991
818.638	22889
818.778	22809
818.919	22713
819.06	22854
819.2	22839
819.341	23117
819.481	23003
819.622	23075
819.762	23193
819.903	23303
820.043	23311
820.184	23124
820.324	23003
820.465	23121
820.605	22961
820.746	22991
820.886	22866
821.026	22995
821.167	22946
821.307	22995
821.447	22934
821.588	22774
821.728	22691
821.868	22580
822.008	22341
822.149	22303
822.289	22371
822.429	22116
822.569	22006
822.709	21941
822.849	21827
822.99	21713
823.13	21736
823.27	21831
823.41	21644
823.55	21492
823.69	21755
823.83	21713
823.97	21549
824.11	21386
824.25	21329
824.389	21405
824.529	21416
824.669	21306
824.809	21477
824.949	21492
825.089	21511
825.228	21310
825.368	21252
825.508	21211
825.648	21188
825.787	21245
825.927	21256
826.067	21165
826.206	21036
826.346	21199
826.485	21188
826.625	21055
826.765	21119
826.904	21096
827.044	20906
827.183	20891
827.323	20800
827.462	20906
827.601	20956
827.741	20765
827.88	20861
828.02	20644
828.159	20629
828.298	20773
828.437	20895
828.577	20762
828.716	21009
828.855	20651
828.994	20568
829.134	20518
829.273	20594
829.412	20446
829.551	20492
829.69	20480
829.829	20533
829.968	20720
830.107	20541
830.246	20476
830.385	20385
830.524	20423
830.663	20298
830.802	20221
830.941	20092
831.08	20016
831.219	20157
831.357	20043
831.496	20324
831.635	20103
831.774	20020
831.913	20020
832.051	19856
832.19	19856
832.329	19993
832.467	19879
832.606	19864
832.744	19894
832.883	19826
833.022	19852
833.16	19830
833.299	19925
833.437	19993
833.576	20122
833.714	20142
833.852	20271
833.991	20157
834.129	20305
834.267	20301
834.406	20259
834.544	20256
834.682	20275
834.821	20138
834.959	20130
835.097	19921
835.235	20126
835.373	19909
835.511	19921
835.65	19807
835.788	19700
835.926	19514
836.064	19552
836.202	19388
836.34	19685
836.478	19723
836.615	19674
836.753	19681
836.891	19765
837.029	19620
837.167	19601
837.305	19552
837.443	19525
837.58	19407
837.718	19449
837.856	19491
837.993	19472
838.131	19502
838.269	19400
838.406	19343
838.544	19331
838.681	19129
838.819	19095
838.956	19057
839.094	18954
839.231	19019
839.369	19050
839.506	19327
839.643	19171
839.781	18996
839.918	18852
840.055	18996
840.193	18878
840.33	18897
840.467	18802
840.604	18875
840.742	19183
840.879	18711
841.016	18825
841.153	18806
841.29	19088
841.427	18760
841.564	18882
841.701	18738
841.838	18844
841.975	18829
842.112	18806
842.249	18635
842.385	18635
842.522	18852
842.659	18684
842.796	18540
842.933	18620
843.069	18612
843.206	18650
843.343	18711
843.479	18681
843.616	18760
843.752	18448
843.889	18570
844.025	18745
844.162	18509
844.298	18627
844.435	18525
844.571	18604
844.708	18829
844.844	19088
844.98	19194
845.117	19377
845.253	19677
845.389	20267
845.525	21549
845.661	23596
845.798	26355
845.934	28451
846.07	29288
846.206	28919
846.342	27431
846.478	24700
846.614	22226
846.75	20560
846.886	19620
847.022	19187
847.158	18719
847.294	18536
847.429	18391
847.565	18163
847.701	18414
847.837	17889
847.972	17851
848.108	17954
848.244	17779
848.379	17775
848.515	17604
848.65	17528
848.786	17577
848.921	17611
849.057	17615
849.192	17547
849.328	17554
849.463	17554
849.598	17505
849.734	17467
849.869	17440
850.004	17311
850.14	17284
850.275	17220
850.41	17292
850.545	17170
850.68	17242
850.815	17265
850.95	17254
851.085	17345
851.22	17383
851.355	17322
851.49	17151
851.625	17326
851.76	17147
851.895	17140
852.03	17178
852.165	17193
852.299	17261
852.434	17356
852.569	17296
852.703	17410
852.838	17277
852.973	17444
853.107	17391
853.242	17322
853.376	17223
853.511	17098
853.645	17083
853.78	17284
853.914	17223
854.048	17189
854.183	17250
854.317	17189
854.451	17353
854.585	17193
854.72	17185
854.854	17258
854.988	17223
855.122	17140
855.256	17056
855.39	17117
855.524	17121
855.658	17197
855.792	17102
855.926	17189
856.06	17258
856.194	17121
856.327	17140
856.461	16980
856.595	17022
856.729	17162
856.862	17178
856.996	17109
857.13	17128
857.263	17132
857.397	17185
857.53	17136
857.664	17231
857.797	17208
857.931	17212
858.064	17124
858.197	17216
858.331	17075
858.464	17022
858.597	16908
858.731	16934
858.864	16991
858.997	17105
859.13	17105
859.263	17018
859.396	17033
859.529	17064
859.662	16980
859.795	16908
859.928	17083
860.061	17071
860.194	17212
860.327	16961
860.46	16984
860.592	16999
860.725	17090
860.858	17155
860.99	16889
861.123	16908
861.256	16991
861.388	16961
861.521	17661
861.653	16892
861.786	16839
861.918	16942
862.05	16919
862.183	16984
862.315	17018
862.447	17064
862.58	17010
862.712	16713
862.844	16634
862.976	16778
863.108	16881
863.24	17102
863.372	16630
863.504	16790
863.636	16672
863.768	16733
863.9	16706
864.032	16691
864.164	16645
864.296	16710
864.428	16900
864.559	16820
864.691	16805
864.823	16748
864.954	16767
865.086	16831
865.217	16698
865.349	16603
865.48	16656
865.612	16577
865.743	16786
865.875	16649
866.006	16634
866.137	16736
866.269	16668
866.4	16618
866.531	16584
866.662	16577
866.793	16558
866.924	16645
867.055	16634
867.186	16767
867.317	16664
867.448	16531
867.579	16565
867.71	16523
867.841	16592
867.972	16622
868.103	16645
868.233	16618
868.364	16542
868.495	16622
868.625	16877
868.756	16965
868.886	16843
869.017	16805
869.147	16927
869.278	17037
869.408	16896
869.539	16911
869.669	17003
869.799	16999
869.929	17003
870.06	17079
870.19	17159
870.32	17239
870.45	17258
870.58	17341
870.71	17444
870.84	17436
870.97	17242
871.1	17372
871.23	17459
871.36	17463
871.489	17414
871.619	17490
871.749	17452
871.879	17581
872.008	17646
872.138	17600
872.267	17444
872.397	17467
872.526	17337
872.656	17318
872.785	17379
872.915	17562
873.044	17699
873.173	17672
873.303	17539
873.432	17608
873.561	17623
873.69	17684
873.819	17684
873.948	17752
874.077	17630
874.206	17627
874.335	17718
874.464	17821
874.593	17980
874.722	17885
874.851	18060
874.979	18064
875.108	18110
875.237	18045
875.365	17969
875.494	18011
875.623	18167
875.751	18060
875.88	18254
876.008	18285
876.136	18273
876.265	18525
876.393	18768
876.521	18627
876.65	18715
876.778	18604
876.906	18642
877.034	18506
877.162	18760
877.29	18658
877.418	18806
877.546	18821
877.674	18867
877.802	18783
877.93	19004
878.058	18951
878.185	18973
878.313	19080
878.441	19373
878.568	19365
878.696	19666
878.824	20100
878.951	20427
879.079	21123
879.206	22090
879.333	22721
879.461	23471
879.588	23863
879.715	23984
879.842	23760
879.97	22755
880.097	21641
880.224	21058
880.351	20648
880.478	20267
880.605	20001
880.732	19883
880.859	20016
880.986	19868
881.112	19670
881.239	19510
881.366	19426
881.493	19400
881.619	19232
881.746	19362
881.872	19304
881.999	19426
882.125	19320
882.252	19316
882.378	19411
882.505	19590
882.631	19369
882.757	19133
882.883	19263
883.01	19137
883.136	19164
883.262	19179
883.388	18928
883.514	19175
883.64	19255
883.766	19019
883.892	19034
884.018	18970
884.143	19171
884.269	19240
884.395	18913
884.52	18928
884.646	18913
884.772	18863
884.897	18779
885.023	18867
885.148	18825
885.274	18966
885.399	19027
885.524	18772
885.65	18734
885.775	18692
885.9	18570
886.025	18681
886.15	18658
886.275	18399
886.4	18311
886.525	18289
886.65	18232
886.775	18319
886.9	18525
887.025	18388
887.149	18243
887.274	18034
887.399	17897
887.523	17923
887.648	17805
887.773	17733
887.897	17855
888.021	17828
888.146	17809
888.27	17741
888.395	17855
888.519	17714
888.643	17687
888.767	17722
888.891	17512
889.015	17372
889.139	17493
889.263	17356
889.387	17581
889.511	17691
889.635	17482
889.759	17368
889.883	17326
890.006	17444
890.13	17528
890.254	17178
890.377	17178
890.501	17151
890.624	17170
890.748	17105
890.871	16835
890.995	16900
891.118	16930
891.241	16892
891.364	16889
891.488	17022
891.611	16862
891.734	16923
891.857	16911
891.98	16908
892.103	16923
892.226	16847
892.349	16790
892.471	16611
892.594	16755
892.717	16835
892.839	16664
892.962	16725
893.085	16801
893.207	16687
893.33	16687
893.452	16645
893.575	16763
893.697	16634
893.819	16793
893.941	16942
894.064	16782
894.186	16565
894.308	16599
894.43	16683
894.552	16649
894.674	16599
894.796	16527
894.918	16538
895.04	16694
895.161	16702
895.283	16626
895.405	16664
895.526	16603
895.648	16596
895.769	16649
895.891	16569
896.012	16580
896.134	16702
896.255	16641
896.376	16637
896.498	16558
896.619	16721
896.74	16679
896.861	16771
896.982	16984
897.103	17090
897.224	17025
897.345	16835
897.466	16820
897.587	16999
897.708	16885
897.828	16911
897.949	16900
898.07	16725
898.19	16782
898.311	16961
898.431	16923
898.552	16896
898.672	16965
898.792	16980
898.913	16946
899.033	16850
899.153	16706
899.273	16744
899.393	16736
899.513	16831
899.633	16831
899.753	16820
899.873	16702
899.993	16793
900.113	16755
900.232	16763
900.352	16687
900.472	16694
900.591	16546
900.711	16653
900.83	16497
900.95	16733
901.069	16565
901.189	16500
901.308	16367
901.427	16207
901.546	16265
901.665	16322
901.784	16276
901.904	16082
902.023	15968
902.141	15892
902.26	15694
902.379	15876
902.498	15633
902.617	15701
902.735	15747
902.854	15603
902.973	15625
903.091	15492
903.21	15393
903.328	15302
903.446	15321
903.565	15157
903.683	15268
903.801	15074
903.919	15260
904.038	15176
904.156	14994
904.274	15047
904.392	14982
904.51	14918
904.627	14952
904.745	15058
904.863	14902
904.981	14857
905.098	14617
905.216	14621
905.334	14686
905.451	14541
905.569	14598
905.686	14492
905.803	14674
905.921	14381
906.038	14484
906.155	14469
906.272	14290
906.389	14320
906.506	14115
906.623	14107
906.74	14221
906.857	13986
906.974	13959
907.091	14199
907.208	14278
907.324	14123
907.441	13951
907.557	13868
907.674	13913
907.79	13822
907.907	13837
908.023	13860
908.139	13849
908.256	13750
908.372	13814
908.488	13799
908.604	13605
908.72	13540
908.836	13613
908.952	13556
909.068	13647
909.184	13700
909.3	13540
909.415	13677
909.531	13540
909.647	13327
909.762	13384
909.878	13297
909.993	13354
910.108	13129
910.224	13377
910.339	13327
910.454	13145
910.57	13183
910.685	13080
910.8	13445
910.915	13278
911.03	13061
911.145	13126
911.259	13023
911.374	12981
911.489	12856
911.604	12837
911.718	12700
911.833	12817
911.947	12669
912.062	12582
912.176	12642
912.291	12726
912.405	12722
912.519	12886
912.633	12890
912.748	12730
912.862	12741
912.976	12654
913.09	12486
913.204	12528
913.318	12604
913.431	12654
913.545	12570
913.659	12688
913.772	12570
913.886	12422
914	12319
914.113	12555
914.226	12551
914.34	12525
914.453	12330
914.566	12563
914.68	12323
914.793	12311
914.906	12254
915.019	12045
915.132	12053
915.245	12175
915.358	12251
915.47	12220
915.583	12125
915.696	12148
915.809	12273
915.921	12338
916.034	12079
916.146	12045
916.259	12038
916.371	12243
916.483	12091
916.595	12038
916.708	12049
916.82	12121
916.932	12038
917.044	12079
917.156	11950
917.268	11950
917.38	11969
917.491	11927
917.603	11942
917.715	11961
917.826	11969
917.938	11866
918.049	11794
918.161	11760
918.272	12003
918.384	11939
918.495	11798
918.606	11802
918.717	11691
918.828	11729
918.939	11889
919.05	11600
919.161	11688
919.272	11520
919.383	11570
919.494	11786
919.604	11904
919.715	11714
919.826	11630
919.936	11737
920.047	11874
920.157	11733
920.267	11813
920.378	11756
920.488	11661
920.598	11824
920.708	11977
920.818	11882
920.928	11855
921.038	12068
921.148	12019
921.258	11741
921.368	11634
921.477	11490
921.587	11471
921.697	11356
921.806	11490
921.916	11349
922.025	11178
922.134	11280
922.244	11185
922.353	11159
922.462	11041
922.571	11079
922.68	10911
922.789	10889
922.898	10904
923.007	10763
923.116	10911
923.224	10839
923.333	10854
923.442	10786
923.55	10710
923.659	10767
923.767	10725
923.876	10683
923.984	10759
924.092	10588
924.201	10679
924.309	10630
924.417	10694
924.525	10577
924.633	10599
924.741	11501
924.849	10421
924.956	10577
925.064	10409
925.172	10363
925.279	10363
925.387	10405
925.494	10417
925.602	10584
925.709	10360
925.816	10333
925.924	10356
926.031	10504
926.138	10394
926.245	10424
926.352	10276
926.459	10443
926.566	10512
926.673	10333
926.779	10230
926.886	10215
926.993	10177
927.099	10116
927.206	10055
927.312	10017
927.419	10150
927.525	10078
927.631	10112
927.737	9945
927.843	9991
927.95	9903
928.056	9903
928.162	9934
928.267	9987
928.373	10641
928.479	10063
928.585	9869
928.69	9922
928.796	10002
928.901	9911
929.007	9785
929.112	9873
929.218	9774
929.323	9865
929.428	9766
929.533	9850
929.638	9690
929.743	9717
929.848	9770
929.953	9709
930.058	9698
930.163	9500
930.267	9473
930.372	9713
930.477	9431
930.581	9679
930.685	9610
930.79	9454
930.894	9481
930.998	9382
931.103	9637
931.207	9154
931.311	9180
931.415	9070
931.519	8876
931.623	8853
