Data from test_V78500241_3335.txt Node
Date: Fri Mar 25 14:56:56 CST 2022
User: usil
Spectrometer: V785-0024
Trigger mode: 0
Integration Time (sec): 4.000000E-1
Scans to average: 1
Nonlinearity correction enabled: false
Boxcar width: 0
Storing dark spectrum: false
XAxis mode: Wavelengths
Number of Pixels in Spectrum: 1024
>>>>>Begin Spectral Data<<<<<
801.071	21968
801.214	21835
801.356	21576
801.499	21538
801.641	21298
801.783	21325
801.926	21424
802.068	21397
802.211	21249
802.353	21013
802.496	20830
802.638	20781
802.78	20678
802.923	20644
803.065	20549
803.208	20609
803.35	20724
803.492	20735
803.635	20773
803.777	20663
803.919	20762
804.061	21055
804.204	20716
804.346	20499
804.488	20533
804.63	20655
804.773	20587
804.915	20594
805.057	20727
805.199	20526
805.341	20617
805.483	20518
805.626	20674
805.768	20549
805.91	20537
806.052	20564
806.194	20495
806.336	20659
806.478	20526
806.62	20575
806.762	20594
806.904	20712
807.046	20845
807.188	20769
807.33	20830
807.472	20933
807.614	20804
807.756	20739
807.898	20629
808.04	20689
808.182	20556
808.324	20648
808.465	20644
808.607	20804
808.749	20788
808.891	21051
809.033	21112
809.174	20895
809.316	20845
809.458	20971
809.6	20937
809.741	20933
809.883	20960
810.025	21062
810.166	21005
810.308	20975
810.45	21009
810.591	20948
810.733	20754
810.875	20674
811.016	20613
811.158	20625
811.299	20686
811.441	20815
811.582	20826
811.724	20727
811.865	20579
812.007	20617
812.148	20651
812.29	20727
812.431	20796
812.573	20914
812.714	21154
812.855	21252
812.997	21287
813.138	21275
813.279	21310
813.421	21188
813.562	21077
813.703	20876
813.845	20845
813.986	20556
814.127	20317
814.268	20328
814.41	20240
814.551	20145
814.692	20298
814.833	20096
814.974	20237
815.115	20199
815.256	20103
815.397	20096
815.539	20001
815.68	19982
815.821	19753
815.962	19993
816.103	20039
816.244	19822
816.385	19635
816.526	19677
816.666	19556
816.807	19396
816.948	19472
817.089	19514
817.23	19510
817.371	19343
817.512	19289
817.653	19331
817.793	19308
817.934	19320
818.075	19358
818.216	19396
818.356	19316
818.497	19145
818.638	19053
818.778	18951
818.919	19084
819.06	19118
819.2	19266
819.341	19095
819.481	19152
819.622	19304
819.762	19502
819.903	19419
820.043	19396
820.184	19392
820.324	19244
820.465	19301
820.605	19255
820.746	19350
820.886	19148
821.026	19190
821.167	19289
821.307	19377
821.447	19274
821.588	19122
821.728	18989
821.868	18837
822.008	18787
822.149	18829
822.289	18711
822.429	18475
822.569	18334
822.709	18479
822.849	18254
822.99	18129
823.13	18209
823.27	18220
823.41	18041
823.55	17965
823.69	18114
823.83	17999
823.97	18034
824.11	17836
824.25	17779
824.389	17821
824.529	17847
824.669	17775
824.809	17961
824.949	17954
825.089	17859
825.228	17756
825.368	17440
825.508	17630
825.648	17570
825.787	17665
825.927	17634
826.067	17577
826.206	17589
826.346	17687
826.485	17570
826.625	17478
826.765	17573
826.904	17668
827.044	17250
827.183	17455
827.323	17235
827.462	17395
827.601	17193
827.741	17227
827.88	17216
828.02	17204
828.159	17307
828.298	17372
828.437	17326
828.577	17208
828.716	17482
828.855	17242
828.994	17109
829.134	16946
829.273	17067
829.412	17010
829.551	16930
829.69	17052
829.829	16965
829.968	17151
830.107	17162
830.246	17079
830.385	16995
830.524	16961
830.663	16972
830.802	16805
830.941	16748
831.08	16649
831.219	16752
831.357	16801
831.496	16885
831.635	16672
831.774	16592
831.913	16500
832.051	16428
832.19	16478
832.329	16470
832.467	16280
832.606	16356
832.744	16306
832.883	16268
833.022	16322
833.16	16382
833.299	16417
833.437	16436
833.576	16512
833.714	16398
833.852	16409
833.991	16493
834.129	16531
834.267	16466
834.406	16348
834.544	16466
834.682	16428
834.821	16508
834.959	16523
835.097	16402
835.235	16489
835.373	16531
835.511	16432
835.65	16257
835.788	16371
835.926	16257
836.064	16173
836.202	16207
836.34	16382
836.478	16367
836.615	16329
836.753	16322
836.891	16356
837.029	16421
837.167	16360
837.305	16284
837.443	16196
837.58	16215
837.718	16253
837.856	16207
837.993	16200
838.131	16291
838.269	16093
838.406	16067
838.544	16112
838.681	15937
838.819	15892
838.956	15804
839.094	15778
839.231	15831
839.369	15835
839.506	16150
839.643	16074
839.781	15717
839.918	15808
840.055	15774
840.193	15709
840.33	15701
840.467	15686
840.604	15667
840.742	15994
840.879	15648
841.016	15774
841.153	15637
841.29	15854
841.427	15766
841.564	15743
841.701	15671
841.838	15629
841.975	15713
842.112	15652
842.249	15576
842.385	15492
842.522	15762
842.659	15561
842.796	15405
842.933	15549
843.069	15549
843.206	15469
843.343	15652
843.479	15557
843.616	15485
843.752	15458
843.889	15382
844.025	15389
844.162	15249
844.298	15515
844.435	15355
844.571	15310
844.708	15420
844.844	15485
844.98	15454
845.117	15435
845.253	15317
845.389	15226
845.525	15313
845.661	15184
845.798	15097
845.934	15173
846.07	15017
846.206	15188
846.342	15173
846.478	15138
846.614	14956
846.75	14937
846.886	14891
847.022	15081
847.158	14990
847.294	14918
847.429	14979
847.565	14842
847.701	15051
847.837	14610
847.972	14659
848.108	14727
848.244	14648
848.379	14526
848.515	14434
848.65	14450
848.786	14552
848.921	14514
849.057	14648
849.192	14636
849.328	14537
849.463	14518
849.598	14377
849.734	14480
849.869	14351
850.004	14221
850.14	14347
850.275	14240
850.41	14278
850.545	14187
850.68	14301
850.815	14221
850.95	14210
851.085	14431
851.22	14427
851.355	14210
851.49	14191
851.625	14259
851.76	14305
851.895	14142
852.03	14183
852.165	14309
852.299	14347
852.434	14366
852.569	14275
852.703	14294
852.838	14381
852.973	14446
853.107	14366
853.242	14248
853.376	14210
853.511	14016
853.645	14058
853.78	14298
853.914	14153
854.048	14096
854.183	14145
854.317	14111
854.451	14313
854.585	14199
854.72	14043
854.854	14199
854.988	13940
855.122	14111
855.256	13906
855.39	14096
855.524	14191
855.658	14218
855.792	14119
855.926	14195
856.06	14218
856.194	14248
856.327	14240
856.461	14100
856.595	14062
856.729	14027
856.862	14218
856.996	14195
857.13	14259
857.263	14263
857.397	14256
857.53	14126
857.664	14172
857.797	14263
857.931	14336
858.064	14210
858.197	14305
858.331	14073
858.464	14183
858.597	13993
858.731	14088
858.864	14176
858.997	14145
859.13	14096
859.263	14259
859.396	14240
859.529	14092
859.662	14199
859.795	14054
859.928	14191
860.061	14278
860.194	14320
860.327	14195
860.46	14176
860.592	14206
860.725	14233
860.858	14267
860.99	14054
861.123	14016
861.256	14115
861.388	14134
861.521	14929
861.653	14031
861.786	13963
861.918	14043
862.05	14126
862.183	14069
862.315	14107
862.447	14092
862.58	14088
862.712	13837
862.844	13807
862.976	13970
863.108	13951
863.24	14317
863.372	13913
863.504	13951
863.636	13909
863.768	13932
863.9	13932
864.032	13925
864.164	13913
864.296	13940
864.428	13955
864.559	13978
864.691	13982
864.823	14024
864.954	13921
865.086	13970
865.217	13902
865.349	13875
865.48	13906
865.612	14008
865.743	14031
865.875	13932
866.006	13955
866.137	13906
866.269	13894
866.4	13898
866.531	13936
866.662	13803
866.793	13909
866.924	13883
867.055	13963
867.186	13902
867.317	13864
867.448	13875
867.579	13845
867.71	13761
867.841	13830
867.972	13936
868.103	13841
868.233	13967
868.364	14012
868.495	14008
868.625	14191
868.756	14358
868.886	14077
869.017	14115
869.147	14237
869.278	14347
869.408	14206
869.539	14256
869.669	14202
869.799	14161
869.929	14233
870.06	14252
870.19	14537
870.32	14419
870.45	14450
870.58	14659
870.71	14617
870.84	14705
870.97	14579
871.1	14503
871.23	14750
871.36	14705
871.489	14663
871.619	14765
871.749	14701
871.879	14811
872.008	14857
872.138	14781
872.267	14868
872.397	14571
872.526	14602
872.656	14492
872.785	14667
872.915	14769
873.044	14853
873.173	14830
873.303	14929
873.432	14777
873.561	14902
873.69	14845
873.819	14876
873.948	14864
874.077	14823
874.206	14826
874.335	14853
874.464	15066
874.593	15100
874.722	14937
874.851	15173
874.979	15138
875.108	15131
875.237	15055
875.365	15123
875.494	15169
875.623	15150
875.751	15043
875.88	15154
876.008	15355
876.136	15378
876.265	15587
876.393	15667
876.521	15580
876.65	15690
876.778	15485
876.906	15561
877.034	15420
877.162	15553
877.29	15511
877.418	15496
877.546	15599
877.674	15561
877.802	15656
877.93	15686
878.058	15435
878.185	15515
878.313	15595
878.441	15603
878.568	15454
878.696	15443
878.824	15568
878.951	15572
879.079	15671
879.206	15808
879.333	15732
879.461	15584
879.588	15633
879.715	15739
879.842	15915
879.97	15568
880.097	15389
880.224	15450
880.351	15431
880.478	15435
880.605	15275
880.732	15431
880.859	15633
880.986	15462
881.112	15458
881.239	15279
881.366	15252
881.493	15089
881.619	15074
881.746	15135
881.872	15142
881.999	14986
882.125	14971
882.252	15165
882.378	15150
882.505	15150
882.631	15036
882.757	14921
882.883	15020
883.01	14899
883.136	14796
883.262	14705
883.388	14727
883.514	14815
883.64	14925
883.766	14899
883.892	14720
884.018	14819
884.143	14838
884.269	15032
884.395	14670
884.52	14571
884.646	14507
884.772	14442
884.897	14423
885.023	14552
885.148	14632
885.274	14788
885.399	14640
885.524	14583
885.65	14655
885.775	14655
885.9	14545
886.025	14648
886.15	14739
886.275	14537
886.4	14495
886.525	14507
886.65	14530
886.775	14518
886.9	14667
887.025	14842
887.149	14651
887.274	14473
887.399	14385
887.523	14389
887.648	14309
887.773	14324
887.897	14541
888.021	14564
888.146	14381
888.27	14507
888.395	14545
888.519	14465
888.643	14526
888.767	14552
888.891	14362
889.015	14259
889.139	14343
889.263	14263
889.387	14358
889.511	14454
889.635	14427
889.759	14278
889.883	14343
890.006	14237
890.13	14351
890.254	14180
890.377	14317
890.501	14050
890.624	14069
890.748	14256
890.871	14031
890.995	13951
891.118	13845
891.241	13951
891.364	14005
891.488	14065
891.611	13864
891.734	13947
891.857	14088
891.98	13986
892.103	14027
892.226	14069
892.349	14020
892.471	13936
892.594	13932
892.717	14031
892.839	13917
892.962	14046
893.085	14020
893.207	14005
893.33	13944
893.452	13974
893.575	14058
893.697	13963
893.819	14183
893.941	14294
894.064	14130
894.186	14077
894.308	13913
894.43	14103
894.552	14058
894.674	14073
894.796	14012
894.918	14027
895.04	13883
895.161	14157
895.283	14123
895.405	14069
895.526	14092
895.648	14115
895.769	14081
895.891	14229
896.012	14210
896.134	14225
896.255	14145
896.376	14130
896.498	14130
896.619	14191
896.74	14172
896.861	14172
896.982	14381
897.103	14765
897.224	14415
897.345	14442
897.466	14305
897.587	14423
897.708	14507
897.828	14503
897.949	14404
898.07	14248
898.19	14415
898.311	14583
898.431	14431
898.552	14522
898.672	14636
898.792	14522
898.913	14670
899.033	14389
899.153	14343
899.273	14339
899.393	14267
899.513	14412
899.633	14351
899.753	14347
899.873	14305
899.993	14427
900.113	14320
900.232	14343
900.352	14278
900.472	14351
900.591	14214
900.711	14290
900.83	14172
900.95	14301
901.069	14298
901.189	14210
901.308	13906
901.427	13860
901.546	13845
901.665	13902
901.784	13978
901.904	13708
902.023	13746
902.141	13586
902.26	13525
902.379	13514
902.498	13422
902.617	13457
902.735	13499
902.854	13510
902.973	13434
903.091	13289
903.21	13156
903.328	13187
903.446	13156
903.565	13031
903.683	13088
903.801	12977
903.919	13038
904.038	13023
904.156	12859
904.274	12947
904.392	12848
904.51	12897
904.627	12867
904.745	12962
904.863	12970
904.981	12601
905.098	12620
905.216	12597
905.334	12544
905.451	12585
905.569	12589
905.686	12627
905.803	12601
905.921	12399
906.038	12570
906.155	12327
906.272	12239
906.389	12277
906.506	12117
906.623	12178
906.74	12186
906.857	12091
906.974	12057
907.091	12243
907.208	12292
907.324	12194
907.441	12121
907.557	11942
907.674	12015
907.79	11775
907.907	11859
908.023	11866
908.139	11908
908.256	11954
908.372	11832
908.488	11828
908.604	11657
908.72	11608
908.836	11729
908.952	11627
909.068	11653
909.184	11737
909.3	11611
909.415	11680
909.531	11745
909.647	11421
909.762	11417
909.878	11398
909.993	11501
910.108	11433
910.224	11497
910.339	11429
910.454	11341
910.57	11235
910.685	11201
910.8	11455
910.915	11482
911.03	11277
911.145	11124
911.259	11117
911.374	11197
911.489	11102
911.604	10976
911.718	10831
911.833	10980
911.947	10774
912.062	10714
912.176	10889
912.291	10896
912.405	10923
912.519	11113
912.633	11181
912.748	10930
912.862	10892
912.976	10786
913.09	10740
913.204	10694
913.318	10729
913.431	10824
913.545	10919
913.659	10858
913.772	10687
913.886	10691
914	10592
914.113	10782
914.226	10805
914.34	10710
914.453	10634
914.566	10774
914.68	10698
914.793	10519
914.906	10481
915.019	10413
915.132	10246
915.245	10379
915.358	10402
915.47	10440
915.583	10428
915.696	10577
915.809	10637
915.921	10558
916.034	10390
916.146	10413
916.259	10398
916.371	10470
916.483	10428
916.595	10318
916.708	10363
916.82	10287
916.932	10344
917.044	10276
917.156	10253
917.268	10196
917.38	10257
917.491	10207
917.603	10291
917.715	10253
917.826	10344
917.938	10169
918.049	10128
918.161	10287
918.272	10440
918.384	10386
918.495	10242
918.606	10044
918.717	10051
918.828	10143
918.939	10101
919.05	10051
919.161	10166
919.272	9987
919.383	9934
919.494	10162
919.604	10318
919.715	10154
919.826	10074
919.936	10120
920.047	10169
920.157	10192
920.267	10322
920.378	10158
920.488	10131
920.598	10344
920.708	10432
920.818	10249
920.928	10379
921.038	10538
921.148	10432
921.258	10131
921.368	10147
921.477	10055
921.587	10051
921.697	9804
921.806	10090
921.916	9941
922.025	9736
922.134	9747
922.244	9637
922.353	9698
922.462	9530
922.571	9561
922.68	9370
922.789	9386
922.898	9447
923.007	9431
923.116	9420
923.224	9370
923.333	9344
923.442	9272
923.55	9294
923.659	9218
923.767	9420
923.876	9233
923.984	9249
924.092	9218
924.201	9203
924.309	9329
924.417	9310
924.525	9260
924.633	9253
924.741	10078
924.849	9047
924.956	9157
925.064	8986
925.172	9001
925.279	9028
925.387	9039
925.494	9051
925.602	9192
925.709	9123
925.816	9028
925.924	8979
926.031	9150
926.138	9047
926.245	9123
926.352	8994
926.459	9043
926.566	9127
926.673	8956
926.779	8914
926.886	8975
926.993	8811
927.099	8815
927.206	8823
927.312	8724
927.419	8792
927.525	8819
927.631	8754
927.737	8697
927.843	8655
927.95	8568
928.056	8689
928.162	8587
928.267	8781
928.373	9344
928.479	8804
928.585	8560
928.69	8625
928.796	8724
928.901	8556
929.007	8530
929.112	8564
929.218	8511
929.323	8541
929.428	8541
929.533	8689
929.638	8393
929.743	8461
929.848	8560
929.953	8522
930.058	8381
930.163	8210
930.267	8271
930.372	8362
930.477	8271
930.581	8450
930.685	8328
930.79	8168
930.894	8218
930.998	8153
931.103	8385
931.207	7932
931.311	7868
931.415	7833
931.519	7738
931.623	7727
