Data from test_V78500241_1987.txt Node
Date: Fri Mar 25 14:47:32 CST 2022
User: usil
Spectrometer: V785-0024
Trigger mode: 0
Integration Time (sec): 4.000000E-1
Scans to average: 1
Nonlinearity correction enabled: false
Boxcar width: 0
Storing dark spectrum: false
XAxis mode: Wavelengths
Number of Pixels in Spectrum: 1024
>>>>>Begin Spectral Data<<<<<
801.071	22143
801.214	21998
801.356	21743
801.499	21599
801.641	21496
801.783	21469
801.926	21416
802.068	21367
802.211	21329
802.353	21256
802.496	21024
802.638	20994
802.78	21081
802.923	20868
803.065	20743
803.208	20621
803.35	20781
803.492	20815
803.635	20948
803.777	20716
803.919	20861
804.061	21089
804.204	20819
804.346	20781
804.488	20777
804.63	20792
804.773	20667
804.915	20746
805.057	20845
805.199	20693
805.341	20758
805.483	20830
805.626	20853
805.768	20689
805.91	20754
806.052	20731
806.194	20636
806.336	20914
806.478	20731
806.62	20667
806.762	20686
806.904	20887
807.046	21085
807.188	21028
807.33	21047
807.472	21047
807.614	21005
807.756	20788
807.898	20796
808.04	20720
808.182	20720
808.324	20830
808.465	20823
808.607	21020
808.749	21020
808.891	21093
809.033	21374
809.174	21135
809.316	21043
809.458	21001
809.6	20952
809.741	21100
809.883	21077
810.025	21028
810.166	21313
810.308	21199
810.45	21264
810.591	21116
810.733	20952
810.875	20765
811.016	20678
811.158	20667
811.299	20880
811.441	20944
811.582	20967
811.724	20735
811.865	20845
812.007	20853
812.148	20773
812.29	20849
812.431	21051
812.573	21119
812.714	21393
812.855	21233
812.997	21397
813.138	21591
813.279	21553
813.421	21279
813.562	21260
813.703	21043
813.845	21058
813.986	20701
814.127	20640
814.268	20442
814.41	20419
814.551	20431
814.692	20423
814.833	20332
814.974	20396
815.115	20370
815.256	20233
815.397	20183
815.539	20199
815.68	20134
815.821	20058
815.962	20142
816.103	20180
816.244	19963
816.385	19936
816.526	19879
816.666	19632
816.807	19620
816.948	19582
817.089	19666
817.23	19510
817.371	19578
817.512	19571
817.653	19445
817.793	19597
817.934	19533
818.075	19632
818.216	19559
818.356	19533
818.497	19472
818.638	19107
818.778	19259
818.919	19168
819.06	19255
819.2	19476
819.341	19339
819.481	19407
819.622	19529
819.762	19700
819.903	19822
820.043	19601
820.184	19510
820.324	19559
820.465	19647
820.605	19605
820.746	19441
820.886	19415
821.026	19559
821.167	19457
821.307	19658
821.447	19483
821.588	19358
821.728	19266
821.868	19103
822.008	18905
822.149	18928
822.289	18875
822.429	18574
822.569	18589
822.709	18601
822.849	18391
822.99	18422
823.13	18342
823.27	18388
823.41	18209
823.55	18216
823.69	18228
823.83	18251
823.97	18133
824.11	17973
824.25	17939
824.389	17984
824.529	17988
824.669	17984
824.809	18064
824.949	18026
825.089	18060
825.228	17950
825.368	17752
825.508	17756
825.648	17790
825.787	17870
825.927	17828
826.067	17733
826.206	17718
826.346	17828
826.485	17783
826.625	17832
826.765	17824
826.904	17794
827.044	17646
827.183	17509
827.323	17444
827.462	17425
827.601	17554
827.741	17337
827.88	17406
828.02	17330
828.159	17471
828.298	17524
828.437	17467
828.577	17478
828.716	17364
828.855	17387
828.994	17155
829.134	17166
829.273	17296
829.412	17250
829.551	17242
829.69	17170
829.829	17292
829.968	17162
830.107	17284
830.246	17326
830.385	17098
830.524	17121
830.663	17102
830.802	16976
830.941	16847
831.08	16736
831.219	16786
831.357	16831
831.496	17136
831.635	16797
831.774	16771
831.913	16649
832.051	16630
832.19	16641
832.329	16672
832.467	16523
832.606	16424
832.744	16523
832.883	16508
833.022	16519
833.16	16569
833.299	16622
833.437	16596
833.576	16592
833.714	16641
833.852	16664
833.991	16569
834.129	16733
834.267	16664
834.406	16630
834.544	16634
834.682	16508
834.821	16599
834.959	16908
835.097	16649
835.235	16729
835.373	16512
835.511	16611
835.65	16462
835.788	16569
835.926	16405
836.064	16265
836.202	16394
836.34	16580
836.478	16683
836.615	16592
836.753	16596
836.891	16603
837.029	16584
837.167	16596
837.305	16405
837.443	16367
837.58	16363
837.718	16558
837.856	16379
837.993	16284
838.131	16489
838.269	16268
838.406	16306
838.544	16204
838.681	16120
838.819	16158
838.956	15918
839.094	15876
839.231	15937
839.369	16158
839.506	16409
839.643	16272
839.781	15937
839.918	15911
840.055	15846
840.193	15842
840.33	15907
840.467	15922
840.604	15918
840.742	16238
840.879	15812
841.016	15850
841.153	15907
841.29	16013
841.427	15937
841.564	15956
841.701	15907
841.838	15899
841.975	15774
842.112	15819
842.249	15660
842.385	15629
842.522	15964
842.659	15793
842.796	15751
842.933	15667
843.069	15671
843.206	15698
843.343	15793
843.479	15667
843.616	15732
843.752	15504
843.889	15515
844.025	15686
844.162	15568
844.298	15633
844.435	15481
844.571	15389
844.708	15595
844.844	15603
844.98	15751
845.117	15633
845.253	15492
845.389	15412
845.525	15416
845.661	15458
845.798	15367
845.934	15359
846.07	15245
846.206	15310
846.342	15382
846.478	15355
846.614	15051
846.75	15077
846.886	15074
847.022	15195
847.158	15100
847.294	15070
847.429	15058
847.565	15051
847.701	15275
847.837	14918
847.972	14815
848.108	14906
848.244	14868
848.379	14785
848.515	14693
848.65	14648
848.786	14564
848.921	14773
849.057	14811
849.192	14830
849.328	14743
849.463	14682
849.598	14659
849.734	14636
849.869	14590
850.004	14480
850.14	14541
850.275	14431
850.41	14442
850.545	14309
850.68	14412
850.815	14385
850.95	14415
851.085	14587
851.22	14545
851.355	14480
851.49	14415
851.625	14442
851.76	14393
851.895	14336
852.03	14328
852.165	14317
852.299	14476
852.434	14503
852.569	14457
852.703	14438
852.838	14473
852.973	14594
853.107	14549
853.242	14419
853.376	14396
853.511	14248
853.645	14332
853.78	14473
853.914	14267
854.048	14290
854.183	14389
854.317	14389
854.451	14598
854.585	14355
854.72	14244
854.854	14339
854.988	14214
855.122	14180
855.256	14142
855.39	14286
855.524	14309
855.658	14355
855.792	14263
855.926	14385
856.06	14473
856.194	14412
856.327	14240
856.461	14343
856.595	14275
856.729	14320
856.862	14393
856.996	14237
857.13	14343
857.263	14469
857.397	14400
857.53	14301
857.664	14320
857.797	14518
857.931	14450
858.064	14328
858.197	14415
858.331	14305
858.464	14301
858.597	14267
858.731	14328
858.864	14275
858.997	14256
859.13	14278
859.263	14374
859.396	14347
859.529	14290
859.662	14286
859.795	14237
859.928	14259
860.061	14465
860.194	14454
860.327	14381
860.46	14298
860.592	14408
860.725	14480
860.858	14484
860.99	14267
861.123	14252
861.256	14320
861.388	14339
861.521	14979
861.653	14164
861.786	14168
861.918	14103
862.05	14263
862.183	14138
862.315	14259
862.447	14381
862.58	14229
862.712	14180
862.844	14046
862.976	14149
863.108	14119
863.24	14351
863.372	14001
863.504	14100
863.636	14077
863.768	14183
863.9	14214
864.032	14050
864.164	14012
864.296	14183
864.428	14149
864.559	14244
864.691	14161
864.823	14157
864.954	14172
865.086	14225
865.217	14031
865.349	14050
865.48	14016
865.612	14027
865.743	14225
865.875	14008
866.006	14050
866.137	14187
866.269	14069
866.4	14123
866.531	14005
866.662	13936
866.793	14027
866.924	13986
867.055	14065
867.186	14027
867.317	13982
867.448	14046
867.579	13967
867.71	14043
867.841	14024
867.972	14115
868.103	14065
868.233	14012
868.364	14111
868.495	14107
868.625	14267
868.756	14469
868.886	14271
869.017	14225
869.147	14389
869.278	14446
869.408	14427
869.539	14339
869.669	14290
869.799	14347
869.929	14552
870.06	14404
870.19	14648
870.32	14667
870.45	14682
870.58	14807
870.71	14861
870.84	14853
870.97	14773
871.1	14746
871.23	14883
871.36	14937
871.489	14792
871.619	14899
871.749	14834
871.879	14963
872.008	15020
872.138	14929
872.267	14906
872.397	14823
872.526	14716
872.656	14811
872.785	14830
872.915	14986
873.044	15043
873.173	15005
873.303	14975
873.432	15077
873.561	15036
873.69	14967
873.819	14921
873.948	14994
874.077	15005
874.206	15020
874.335	14952
874.464	15100
874.593	15294
874.722	15211
874.851	15336
874.979	15306
875.108	15340
875.237	15222
875.365	15207
875.494	15397
875.623	15393
875.751	15310
875.88	15351
876.008	15492
876.136	15553
876.265	15648
876.393	15895
876.521	15747
876.65	15835
876.778	15770
876.906	15644
877.034	15656
877.162	15690
877.29	15629
877.418	15667
877.546	15739
877.674	15705
877.802	15789
877.93	15682
878.058	15679
878.185	15652
878.313	15690
878.441	15709
878.568	15580
878.696	15675
878.824	15717
878.951	15778
879.079	15869
879.206	15934
879.333	15816
879.461	15804
879.588	15770
879.715	15831
879.842	15991
879.97	15778
880.097	15473
880.224	15648
880.351	15568
880.478	15561
880.605	15507
880.732	15561
880.859	15793
880.986	15599
881.112	15603
881.239	15378
881.366	15237
881.493	15294
881.619	15131
881.746	15237
881.872	15131
881.999	15291
882.125	15150
882.252	15283
882.378	15207
882.505	15355
882.631	15165
882.757	15032
882.883	15077
883.01	15039
883.136	15017
883.262	14925
883.388	14895
883.514	15142
883.64	15112
883.766	14986
883.892	14857
884.018	14807
884.143	15047
884.269	15131
884.395	14724
884.52	14667
884.646	14777
884.772	14613
884.897	14659
885.023	14754
885.148	14785
885.274	14914
885.399	14883
885.524	14754
885.65	14686
885.775	14765
885.9	14735
886.025	14853
886.15	14765
886.275	14670
886.4	14670
886.525	14667
886.65	14663
886.775	14640
886.9	14941
887.025	14876
887.149	14731
887.274	14473
887.399	14560
887.523	14511
887.648	14590
887.773	14575
887.897	14686
888.021	14674
888.146	14575
888.27	14682
888.395	14686
888.519	14655
888.643	14598
888.767	14644
888.891	14507
889.015	14328
889.139	14484
889.263	14320
889.387	14602
889.511	14571
889.635	14587
889.759	14396
889.883	14374
890.006	14408
890.13	14503
890.254	14343
890.377	14339
890.501	14290
890.624	14256
890.748	14351
890.871	14157
890.995	14210
891.118	14050
891.241	14111
891.364	14077
891.488	14244
891.611	14168
891.734	14172
891.857	14202
891.98	14214
892.103	14252
892.226	14157
892.349	14096
892.471	13928
892.594	13925
892.717	14176
892.839	14153
892.962	14077
893.085	14180
893.207	14157
893.33	14054
893.452	14016
893.575	14126
893.697	14103
893.819	14282
893.941	14271
894.064	14298
894.186	14054
894.308	14107
894.43	14282
894.552	14347
894.674	14214
894.796	14111
894.918	14092
895.04	14183
895.161	14282
895.283	14248
895.405	14092
895.526	14183
895.648	14271
895.769	14256
895.891	14362
896.012	14332
896.134	14351
896.255	14252
896.376	14240
896.498	14233
896.619	14320
896.74	14294
896.861	14313
896.982	14640
897.103	14750
897.224	14598
897.345	14552
897.466	14465
897.587	14606
897.708	14590
897.828	14590
897.949	14499
898.07	14381
898.19	14590
898.311	14731
898.431	14522
898.552	14610
898.672	14750
898.792	14636
898.913	14720
899.033	14583
899.153	14454
899.273	14393
899.393	14488
899.513	14518
899.633	14473
899.753	14537
899.873	14522
899.993	14450
900.113	14469
900.232	14518
900.352	14495
900.472	14377
900.591	14309
900.711	14366
900.83	14317
900.95	14465
901.069	14370
901.189	14317
901.308	14058
901.427	14020
901.546	14016
901.665	14054
901.784	14065
901.904	13913
902.023	13883
902.141	13704
902.26	13708
902.379	13674
902.498	13590
902.617	13601
902.735	13636
902.854	13601
902.973	13559
903.091	13293
903.21	13149
903.328	13331
903.446	13358
903.565	13160
903.683	13198
903.801	13084
903.919	13133
904.038	13171
904.156	13053
904.274	13042
904.392	12886
904.51	12871
904.627	12947
904.745	13072
904.863	13110
904.981	12840
905.098	12574
905.216	12692
905.334	12673
905.451	12669
905.569	12757
905.686	12650
905.803	12650
905.921	12525
906.038	12642
906.155	12490
906.272	12376
906.389	12475
906.506	12334
906.623	12273
906.74	12216
906.857	12079
906.974	12228
907.091	12403
907.208	12353
907.324	12342
907.441	12171
907.557	12087
907.674	11935
907.79	12011
907.907	11973
908.023	12072
908.139	12030
908.256	11946
908.372	11904
908.488	11969
908.604	11843
908.72	11729
908.836	11741
908.952	11802
909.068	11874
909.184	11912
909.3	11764
909.415	11843
909.531	11729
909.647	11573
909.762	11554
909.878	11463
909.993	11554
910.108	11486
910.224	11577
910.339	11520
910.454	11459
910.57	11402
910.685	11383
910.8	11657
910.915	11558
911.03	11459
911.145	11174
911.259	11193
911.374	11315
911.489	11223
911.604	11113
911.718	11025
911.833	11018
911.947	10877
912.062	10786
912.176	10987
912.291	10961
912.405	11045
912.519	11140
912.633	11197
912.748	11083
912.862	10961
912.976	10919
913.09	10714
913.204	10908
913.318	10900
913.431	10987
913.545	10968
913.659	10984
913.772	10835
913.886	10755
914	10752
914.113	10850
914.226	10805
914.34	10896
914.453	10679
914.566	10843
914.68	10672
914.793	10714
914.906	10561
915.019	10455
915.132	10417
915.245	10459
915.358	10500
915.47	10504
915.583	10550
915.696	10580
915.809	10626
915.921	10683
916.034	10523
916.146	10413
916.259	10462
916.371	10527
916.483	10500
916.595	10363
916.708	10417
916.82	10443
916.932	10375
917.044	10478
917.156	10375
917.268	10272
917.38	10352
917.491	10341
917.603	10310
917.715	10481
917.826	10367
917.938	10405
918.049	10192
918.161	10341
918.272	10428
918.384	10443
918.495	10375
918.606	10215
918.717	10211
918.828	10276
918.939	10242
919.05	10177
919.161	10173
919.272	10006
919.383	10090
919.494	10246
919.604	10443
919.715	10329
919.826	10188
919.936	10272
920.047	10280
920.157	10238
920.267	10462
920.378	10261
920.488	10196
920.598	10436
920.708	10599
920.818	10367
920.928	10386
921.038	10603
921.148	10497
921.258	10272
921.368	10188
921.477	10154
921.587	10044
921.697	9991
921.806	10120
921.916	9994
922.025	9732
922.134	9774
922.244	9762
922.353	9880
922.462	9663
922.571	9641
922.68	9485
922.789	9526
922.898	9466
923.007	9481
923.116	9530
923.224	9538
923.333	9420
923.442	9447
923.55	9344
923.659	9420
923.767	9405
923.876	9340
923.984	9420
924.092	9211
924.201	9264
924.309	9332
924.417	9363
924.525	9287
924.633	9329
924.741	10257
924.849	9070
924.956	9348
925.064	9142
925.172	9085
925.279	9043
925.387	9169
925.494	9123
925.602	9241
925.709	9169
925.816	9108
925.924	9214
926.031	9218
926.138	9233
926.245	9214
926.352	9085
926.459	9066
926.566	9233
926.673	9127
926.779	9039
926.886	9028
926.993	8906
927.099	8792
927.206	8785
927.312	8754
927.419	8914
927.525	8796
927.631	8864
927.737	8773
927.843	8701
927.95	8636
928.056	8678
928.162	8826
928.267	8773
928.373	9492
928.479	8807
928.585	8613
928.69	8743
928.796	8785
928.901	8606
929.007	8556
929.112	8697
929.218	8632
929.323	8594
929.428	8511
929.533	8697
929.638	8495
929.743	8511
929.848	8560
929.953	8610
930.058	8419
930.163	8336
930.267	8408
930.372	8499
930.477	8336
930.581	8556
930.685	8442
930.79	8248
930.894	8313
930.998	8313
931.103	8412
931.207	8077
931.311	7970
931.415	7944
931.519	7792
931.623	7761
