Data from test_V78500241_2728.txt Node
Date: Fri Mar 25 14:52:42 CST 2022
User: usil
Spectrometer: V785-0024
Trigger mode: 0
Integration Time (sec): 4.000000E-1
Scans to average: 1
Nonlinearity correction enabled: false
Boxcar width: 0
Storing dark spectrum: false
XAxis mode: Wavelengths
Number of Pixels in Spectrum: 1024
>>>>>Begin Spectral Data<<<<<
801.071	22021
801.214	21880
801.356	21641
801.499	21603
801.641	21386
801.783	21481
801.926	21382
802.068	21363
802.211	21344
802.353	21085
802.496	20921
802.638	20792
802.78	20921
802.923	20773
803.065	20670
803.208	20682
803.35	20712
803.492	20762
803.635	20845
803.777	20716
803.919	20705
804.061	20975
804.204	20754
804.346	20617
804.488	20651
804.63	20629
804.773	20583
804.915	20689
805.057	20735
805.199	20545
805.341	20587
805.483	20807
805.626	20807
805.768	20670
805.91	20590
806.052	20727
806.194	20541
806.336	20701
806.478	20564
806.62	20598
806.762	20663
806.904	20750
807.046	20941
807.188	20933
807.33	20906
807.472	20937
807.614	20815
807.756	20891
807.898	20731
808.04	20682
808.182	20594
808.324	20720
808.465	20765
808.607	20948
808.749	21062
808.891	21100
809.033	21112
809.174	21070
809.316	20887
809.458	21009
809.6	20819
809.741	21005
809.883	21032
810.025	21154
810.166	21169
810.308	21142
810.45	21112
810.591	20994
810.733	20948
810.875	20800
811.016	20621
811.158	20629
811.299	20853
811.441	20895
811.582	20864
811.724	20781
811.865	20682
812.007	20724
812.148	20697
812.29	20705
812.431	20979
812.573	21138
812.714	21188
812.855	21348
812.997	21283
813.138	21428
813.279	21233
813.421	21348
813.562	21074
813.703	20967
813.845	20929
813.986	20590
814.127	20484
814.268	20415
814.41	20259
814.551	20271
814.692	20355
814.833	20286
814.974	20229
815.115	20191
815.256	20229
815.397	20126
815.539	20164
815.68	20122
815.821	19936
815.962	19936
816.103	20016
816.244	19833
816.385	19727
816.526	19784
816.666	19575
816.807	19499
816.948	19529
817.089	19590
817.23	19350
817.371	19502
817.512	19350
817.653	19400
817.793	19327
817.934	19350
818.075	19369
818.216	19354
818.356	19316
818.497	19247
818.638	19061
818.778	19031
818.919	19065
819.06	19076
819.2	19213
819.341	19171
819.481	19339
819.622	19510
819.762	19628
819.903	19552
820.043	19472
820.184	19430
820.324	19373
820.465	19392
820.605	19293
820.746	19346
820.886	19289
821.026	19301
821.167	19297
821.307	19362
821.447	19285
821.588	19129
821.728	19046
821.868	18935
822.008	18791
822.149	18707
822.289	18722
822.429	18604
822.569	18327
822.709	18483
822.849	18353
822.99	18270
823.13	18266
823.27	18224
823.41	18079
823.55	18129
823.69	18015
823.83	18117
823.97	18057
824.11	17851
824.25	17897
824.389	17821
824.529	17904
824.669	17756
824.809	17954
824.949	17878
825.089	17874
825.228	17889
825.368	17661
825.508	17630
825.648	17672
825.787	17714
825.927	17775
826.067	17619
826.206	17566
826.346	17680
826.485	17657
826.625	17722
826.765	17737
826.904	17680
827.044	17520
827.183	17448
827.323	17341
827.462	17482
827.601	17360
827.741	17425
827.88	17364
828.02	17318
828.159	17315
828.298	17337
828.437	17421
828.577	17246
828.716	17547
828.855	17326
828.994	17090
829.134	17090
829.273	17132
829.412	17014
829.551	17056
829.69	17102
829.829	17136
829.968	17200
830.107	17041
830.246	17143
830.385	17048
830.524	17018
830.663	16934
830.802	16835
830.941	16740
831.08	16675
831.219	16755
831.357	16801
831.496	16873
831.635	16717
831.774	16592
831.913	16653
832.051	16573
832.19	16538
832.329	16649
832.467	16375
832.606	16337
832.744	16398
832.883	16424
833.022	16390
833.16	16519
833.299	16405
833.437	16554
833.576	16474
833.714	16455
833.852	16535
833.991	16504
834.129	16542
834.267	16538
834.406	16565
834.544	16493
834.682	16470
834.821	16531
834.959	16592
835.097	16443
835.235	16550
835.373	16538
835.511	16542
835.65	16363
835.788	16481
835.926	16306
836.064	16204
836.202	16287
836.34	16367
836.478	16462
836.615	16459
836.753	16356
836.891	16432
837.029	16318
837.167	16348
837.305	16337
837.443	16291
837.58	16211
837.718	16386
837.856	16265
837.993	16226
838.131	16265
838.269	16135
838.406	16204
838.544	16090
838.681	15998
838.819	15911
838.956	15812
839.094	15888
839.231	15926
839.369	16010
839.506	16223
839.643	16006
839.781	16055
839.918	15762
840.055	15835
840.193	15778
840.33	15747
840.467	15793
840.604	15827
840.742	16074
840.879	15797
841.016	15732
841.153	15759
841.29	15934
841.427	15778
841.564	15835
841.701	15781
841.838	15724
841.975	15751
842.112	15797
842.249	15663
842.385	15622
842.522	15728
842.659	15595
842.796	15561
842.933	15561
843.069	15610
843.206	15538
843.343	15614
843.479	15515
843.616	15606
843.752	15435
843.889	15348
844.025	15595
844.162	15367
844.298	15564
844.435	15317
844.571	15374
844.708	15481
844.844	15580
844.98	15557
845.117	15519
845.253	15374
845.389	15230
845.525	15260
845.661	15363
845.798	15192
845.934	15256
846.07	15154
846.206	15199
846.342	15294
846.478	15138
846.614	14986
846.75	14872
846.886	14975
847.022	15028
847.158	14990
847.294	14941
847.429	14925
847.565	14910
847.701	15245
847.837	14667
847.972	14613
848.108	14792
848.244	14785
848.379	14629
848.515	14507
848.65	14450
848.786	14606
848.921	14640
849.057	14743
849.192	14682
849.328	14583
849.463	14526
849.598	14575
849.734	14465
849.869	14351
850.004	14324
850.14	14450
850.275	14301
850.41	14256
850.545	14298
850.68	14248
850.815	14351
850.95	14381
851.085	14434
851.22	14507
851.355	14298
851.49	14336
851.625	14298
851.76	14301
851.895	14168
852.03	14126
852.165	14328
852.299	14377
852.434	14431
852.569	14290
852.703	14404
852.838	14404
852.973	14560
853.107	14465
853.242	14305
853.376	14202
853.511	14046
853.645	14149
853.78	14324
853.914	14298
854.048	14168
854.183	14282
854.317	14202
854.451	14355
854.585	14244
854.72	14062
854.854	14294
854.988	14130
855.122	14145
855.256	13963
855.39	14199
855.524	14320
855.658	14313
855.792	14176
855.926	14138
856.06	14252
856.194	14385
856.327	14115
856.461	14168
856.595	14142
856.729	14187
856.862	14229
856.996	14206
857.13	14324
857.263	14210
857.397	14328
857.53	14172
857.664	14309
857.797	14305
857.931	14351
858.064	14244
858.197	14309
858.331	14218
858.464	14183
858.597	14103
858.731	14210
858.864	14134
858.997	14176
859.13	14164
859.263	14218
859.396	14301
859.529	14210
859.662	14202
859.795	14145
859.928	14199
860.061	14339
860.194	14381
860.327	14237
860.46	14157
860.592	14324
860.725	14275
860.858	14252
860.99	14123
861.123	14153
861.256	14123
861.388	14248
861.521	14834
861.653	14062
861.786	14050
861.918	14035
862.05	14031
862.183	14024
862.315	14210
862.447	14161
862.58	14096
862.712	13913
862.844	14039
862.976	14012
863.108	14016
863.24	14427
863.372	13902
863.504	14062
863.636	13906
863.768	14069
863.9	14039
864.032	13928
864.164	13936
864.296	13932
864.428	14142
864.559	14062
864.691	14058
864.823	13970
864.954	14050
865.086	14024
865.217	13951
865.349	13921
865.48	14050
865.612	13955
865.743	14107
865.875	13917
866.006	13947
866.137	13928
866.269	13982
866.4	13978
866.531	13940
866.662	13822
866.793	13879
866.924	13967
867.055	14024
867.186	13947
867.317	13967
867.448	13852
867.579	13887
867.71	13925
867.841	13894
867.972	14020
868.103	14016
868.233	14050
868.364	13978
868.495	13970
868.625	14103
868.756	14294
868.886	14092
869.017	14168
869.147	14370
869.278	14328
869.408	14233
869.539	14157
869.669	14393
869.799	14218
869.929	14298
870.06	14404
870.19	14415
870.32	14545
870.45	14552
870.58	14571
870.71	14708
870.84	14743
870.97	14636
871.1	14522
871.23	14792
871.36	14781
871.489	14693
871.619	14800
871.749	14765
871.879	14739
872.008	14994
872.138	14948
872.267	14823
872.397	14754
872.526	14670
872.656	14613
872.785	14731
872.915	14830
873.044	14891
873.173	14796
873.303	14861
873.432	14933
873.561	14960
873.69	14902
873.819	14868
873.948	14876
874.077	14872
874.206	14868
874.335	14883
874.464	15028
874.593	15116
874.722	15104
874.851	15169
874.979	15161
875.108	15176
875.237	15199
875.365	15180
875.494	15203
875.623	15218
875.751	15203
875.88	15313
876.008	15351
876.136	15526
876.265	15629
876.393	15675
876.521	15766
876.65	15724
876.778	15682
876.906	15545
877.034	15492
877.162	15534
877.29	15469
877.418	15682
877.546	15675
877.674	15561
877.802	15682
877.93	15606
878.058	15534
878.185	15507
878.313	15633
878.441	15557
878.568	15485
878.696	15477
878.824	15701
878.951	15698
879.079	15755
879.206	15941
879.333	15743
879.461	15739
879.588	15648
879.715	15819
879.842	15915
879.97	15595
880.097	15389
880.224	15378
880.351	15488
880.478	15485
880.605	15416
880.732	15458
880.859	15644
880.986	15488
881.112	15447
881.239	15431
881.366	15211
881.493	15157
881.619	15097
881.746	15093
881.872	15062
881.999	15138
882.125	15066
882.252	15268
882.378	15150
882.505	15169
882.631	15104
882.757	14944
882.883	14990
883.01	14986
883.136	14941
883.262	14868
883.388	14792
883.514	14933
883.64	14998
883.766	14880
883.892	14739
884.018	14762
884.143	14910
884.269	15032
884.395	14724
884.52	14640
884.646	14674
884.772	14606
884.897	14549
885.023	14648
885.148	14743
885.274	14785
885.399	14724
885.524	14693
885.65	14610
885.775	14762
885.9	14629
886.025	14811
886.15	14727
886.275	14655
886.4	14530
886.525	14663
886.65	14457
886.775	14617
886.9	14750
887.025	14834
887.149	14640
887.274	14503
887.399	14526
887.523	14370
887.648	14320
887.773	14370
887.897	14400
888.021	14457
888.146	14400
888.27	14480
888.395	14636
888.519	14625
888.643	14590
888.767	14503
888.891	14393
889.015	14263
889.139	14313
889.263	14305
889.387	14438
889.511	14541
889.635	14488
889.759	14278
889.883	14313
890.006	14328
890.13	14476
890.254	14294
890.377	14370
890.501	14130
890.624	14149
890.748	14221
890.871	14027
890.995	13959
891.118	13909
891.241	14008
891.364	14065
891.488	14130
891.611	13963
891.734	14054
891.857	14058
891.98	14054
892.103	14046
892.226	13982
892.349	13944
892.471	13902
892.594	13989
892.717	14027
892.839	14046
892.962	14024
893.085	14183
893.207	14016
893.33	13883
893.452	13928
893.575	14084
893.697	13944
893.819	14240
893.941	14298
894.064	14187
894.186	14027
894.308	14016
894.43	14214
894.552	14218
894.674	14138
894.796	13978
894.918	14043
895.04	14092
895.161	14176
895.283	14126
895.405	14126
895.526	14142
895.648	14187
895.769	14176
895.891	14172
896.012	14180
896.134	14244
896.255	14187
896.376	14214
896.498	14286
896.619	14225
896.74	14202
896.861	14233
896.982	14469
897.103	14708
897.224	14503
897.345	14301
897.466	14446
897.587	14514
897.708	14632
897.828	14514
897.949	14385
898.07	14415
898.19	14446
898.311	14526
898.431	14549
898.552	14541
898.672	14682
898.792	14724
898.913	14541
899.033	14476
899.153	14351
899.273	14286
899.393	14324
899.513	14423
899.633	14366
899.753	14332
899.873	14446
899.993	14495
900.113	14480
900.232	14473
900.352	14366
900.472	14412
900.591	14229
900.711	14286
900.83	14290
900.95	14374
901.069	14366
901.189	14252
901.308	13940
901.427	13906
901.546	13928
901.665	13963
901.784	13925
901.904	13727
902.023	13795
902.141	13632
902.26	13476
902.379	13567
902.498	13487
902.617	13506
902.735	13506
902.854	13529
902.973	13419
903.091	13316
903.21	13251
903.328	13232
903.446	13164
903.565	13095
903.683	13103
903.801	13023
903.919	13034
904.038	13053
904.156	12913
904.274	12928
904.392	12810
904.51	12916
904.627	12943
904.745	12947
904.863	12985
904.981	12692
905.098	12597
905.216	12620
905.334	12601
905.451	12578
905.569	12585
905.686	12627
905.803	12627
905.921	12433
906.038	12509
906.155	12437
906.272	12479
906.389	12342
906.506	12220
906.623	12155
906.74	12175
906.857	12171
906.974	12102
907.091	12289
907.208	12342
907.324	12235
907.441	12136
907.557	11988
907.674	11859
907.79	11802
907.907	11901
908.023	11977
908.139	11965
908.256	11927
908.372	11874
908.488	11855
908.604	11802
908.72	11661
908.836	11676
908.952	11691
909.068	11722
909.184	11802
909.3	11634
909.415	11798
909.531	11657
909.647	11459
909.762	11524
909.878	11406
909.993	11482
910.108	11455
910.224	11440
910.339	11493
910.454	11376
910.57	11280
910.685	11258
910.8	11585
910.915	11501
911.03	11372
911.145	11132
911.259	11212
911.374	11231
911.489	11136
911.604	11048
911.718	10919
911.833	11018
911.947	10805
912.062	10759
912.176	10976
912.291	10923
912.405	10984
912.519	11086
912.633	11121
912.748	10984
912.862	10946
912.976	10858
913.09	10767
913.204	10801
913.318	10786
913.431	10892
913.545	10858
913.659	10908
913.772	10854
913.886	10774
914	10698
914.113	10736
914.226	10759
914.34	10782
914.453	10683
914.566	10801
914.68	10599
914.793	10630
914.906	10523
915.019	10325
915.132	10432
915.245	10375
915.358	10489
915.47	10512
915.583	10523
915.696	10497
915.809	10535
915.921	10637
916.034	10432
916.146	10443
916.259	10379
916.371	10554
916.483	10413
916.595	10398
916.708	10417
916.82	10386
916.932	10356
917.044	10287
917.156	10344
917.268	10295
917.38	10249
917.491	10284
917.603	10325
917.715	10344
917.826	10363
917.938	10211
918.049	10177
918.161	10268
918.272	10481
918.384	10432
918.495	10249
918.606	10265
918.717	10124
918.828	10074
918.939	10169
919.05	10055
919.161	10150
919.272	9926
919.383	10032
919.494	10204
919.604	10382
919.715	10173
919.826	10010
919.936	10177
920.047	10310
920.157	10188
920.267	10409
920.378	10261
920.488	10124
920.598	10371
920.708	10508
920.818	10337
920.928	10375
921.038	10466
921.148	10481
921.258	10135
921.368	10242
921.477	10021
921.587	9998
921.697	9888
921.806	9987
921.916	9907
922.025	9766
922.134	9694
922.244	9694
922.353	9781
922.462	9713
922.571	9584
922.68	9439
922.789	9348
922.898	9428
923.007	9367
923.116	9469
923.224	9378
923.333	9386
923.442	9363
923.55	9268
923.659	9340
923.767	9428
923.876	9310
923.984	9378
924.092	9207
924.201	9298
924.309	9306
924.417	9332
924.525	9226
924.633	9256
924.741	10010
924.849	9135
924.956	9310
925.064	9089
925.172	8967
925.279	9024
925.387	9066
925.494	9062
925.602	9241
925.709	9268
925.816	9028
925.924	9047
926.031	9180
926.138	9024
926.245	9070
926.352	9005
926.459	9138
926.566	9211
926.673	9058
926.779	8994
926.886	8902
926.993	8819
927.099	8834
927.206	8697
927.312	8743
927.419	8785
927.525	8823
927.631	8845
927.737	8678
927.843	8720
927.95	8552
928.056	8648
928.162	8682
928.267	8819
928.373	9340
928.479	8792
928.585	8549
928.69	8701
928.796	8667
928.901	8617
929.007	8473
929.112	8568
929.218	8552
929.323	8568
929.428	8533
929.533	8579
929.638	8427
929.743	8469
929.848	8522
929.953	8488
930.058	8423
930.163	8263
930.267	8282
930.372	8438
930.477	8233
930.581	8480
930.685	8370
930.79	8187
930.894	8237
930.998	8282
931.103	8412
931.207	7967
931.311	8008
931.415	7944
931.519	7761
931.623	7772
