Data from test_V78500241_260.txt Node
Date: Fri Mar 25 14:35:32 CST 2022
User: usil
Spectrometer: V785-0024
Trigger mode: 0
Integration Time (sec): 4.000000E-1
Scans to average: 1
Nonlinearity correction enabled: false
Boxcar width: 0
Storing dark spectrum: false
XAxis mode: Wavelengths
Number of Pixels in Spectrum: 1024
>>>>>Begin Spectral Data<<<<<
801.071	27557
801.214	27408
801.356	27142
801.499	27043
801.641	26906
801.783	26823
801.926	26754
802.068	26781
802.211	26655
802.353	26613
802.496	26495
802.638	26518
802.78	26469
802.923	26381
803.065	26275
803.208	26298
803.35	26374
803.492	26446
803.635	26415
803.777	26370
803.919	26583
804.061	26735
804.204	26609
804.346	26336
804.488	26275
804.63	26393
804.773	26290
804.915	26370
805.057	26492
805.199	26347
805.341	26381
805.483	26457
805.626	26347
805.768	26374
805.91	26457
806.052	26511
806.194	26370
806.336	26659
806.478	26530
806.62	26393
806.762	26632
806.904	26648
807.046	26807
807.188	26743
807.33	26701
807.472	26868
807.614	26651
807.756	26830
807.898	26727
808.04	26613
808.182	26659
808.324	26629
808.465	26651
808.607	26937
808.749	27096
808.891	27100
809.033	27264
809.174	27135
809.316	27207
809.458	26986
809.6	27032
809.741	26937
809.883	27055
810.025	26994
810.166	27104
810.308	27233
810.45	27233
810.591	26937
810.733	26716
810.875	26819
811.016	26663
811.158	26640
811.299	26864
811.441	26788
811.582	26861
811.724	26705
811.865	26762
812.007	26731
812.148	26712
812.29	26773
812.431	27047
812.573	27005
812.714	27222
812.855	27237
812.997	27222
813.138	27523
813.279	27355
813.421	27150
813.562	27256
813.703	27017
813.845	26937
813.986	26667
814.127	26480
814.268	26313
814.41	26469
814.551	26301
814.692	26453
814.833	26370
814.974	26271
815.115	26442
815.256	26271
815.397	26271
815.539	26081
815.68	26054
815.821	26130
815.962	26008
816.103	26043
816.244	25902
816.385	25784
816.526	25784
816.666	25632
816.807	25567
816.948	25502
817.089	25628
817.23	25506
817.371	25525
817.512	25483
817.653	25533
817.793	25369
817.934	25552
818.075	25502
818.216	25479
818.356	25369
818.497	25464
818.638	25122
818.778	25247
818.919	25221
819.06	25179
819.2	25251
819.341	25354
819.481	25285
819.622	25464
819.762	25715
819.903	25761
820.043	25434
820.184	25445
820.324	25434
820.465	25476
820.605	25499
820.746	25377
820.886	25308
821.026	25343
821.167	25183
821.307	25362
821.447	25285
821.588	25297
821.728	25000
821.868	24886
822.008	24684
822.149	24787
822.289	24741
822.429	24612
822.569	24608
822.709	24456
822.849	24281
822.99	24247
823.13	24194
823.27	24216
823.41	24079
823.55	24038
823.69	24110
823.83	24041
823.97	23863
824.11	23828
824.25	23764
824.389	23790
824.529	23843
824.669	23817
824.809	23961
824.949	23794
825.089	23840
825.228	23851
825.368	23634
825.508	23695
825.648	23619
825.787	23680
825.927	23535
826.067	23573
826.206	23516
826.346	23520
826.485	23615
826.625	23600
826.765	23524
826.904	23604
827.044	23440
827.183	23433
827.323	23162
827.462	23273
827.601	23250
827.741	23178
827.88	23208
828.02	23178
828.159	23280
828.298	23269
828.437	23254
828.577	23155
828.716	23185
828.855	23235
828.994	23010
829.134	23044
829.273	22900
829.412	22953
829.551	22881
829.69	22904
829.829	22885
829.968	22911
830.107	22915
830.246	22908
830.385	22858
830.524	22866
830.663	22717
830.802	22717
830.941	22569
831.08	22523
831.219	22519
831.357	22565
831.496	22626
831.635	22443
831.774	22561
831.913	22325
832.051	22303
832.19	22348
832.329	22173
832.467	22200
832.606	22207
832.744	22154
832.883	22177
833.022	22086
833.16	22131
833.299	22284
833.437	22192
833.576	22177
833.714	22276
833.852	22268
833.991	22150
834.129	22215
834.267	22166
834.406	22139
834.544	22272
834.682	22219
834.821	22154
834.959	22295
835.097	22154
835.235	22147
835.373	22223
835.511	22093
835.65	22013
835.788	22025
835.926	21911
836.064	21751
836.202	21899
836.34	22006
836.478	22048
836.615	21915
836.753	21884
836.891	22051
837.029	21918
837.167	21865
837.305	21888
837.443	21835
837.58	21854
837.718	21808
837.856	21903
837.993	21690
838.131	21869
838.269	21686
838.406	21732
838.544	21583
838.681	21462
838.819	21310
838.956	21317
839.094	21268
839.231	21336
839.369	21382
839.506	21523
839.643	21428
839.781	21161
839.918	21275
840.055	21195
840.193	21298
840.33	21028
840.467	21127
840.604	21135
840.742	21431
840.879	21131
841.016	21085
841.153	21093
841.29	21321
841.427	21157
841.564	21184
841.701	21157
841.838	21058
841.975	20982
842.112	21066
842.249	20956
842.385	20876
842.522	21062
842.659	21058
842.796	20769
842.933	20902
843.069	20811
843.206	20792
843.343	20891
843.479	20864
843.616	20998
843.752	20556
843.889	20708
844.025	20781
844.162	20556
844.298	20872
844.435	20613
844.571	20583
844.708	20659
844.844	20708
844.98	20705
845.117	20807
845.253	20651
845.389	20526
845.525	20697
845.661	20606
845.798	20590
845.934	20648
846.07	20667
846.206	20682
846.342	20804
846.478	20503
846.614	20225
846.75	20191
846.886	20088
847.022	20259
847.158	20214
847.294	20103
847.429	20149
847.565	20134
847.701	20317
847.837	19887
847.972	19830
848.108	19951
848.244	19864
848.379	19780
848.515	19715
848.65	19578
848.786	19742
848.921	19609
849.057	19719
849.192	19685
849.328	19613
849.463	19666
849.598	19632
849.734	19597
849.869	19453
850.004	19419
850.14	19392
850.275	19365
850.41	19358
850.545	19392
850.68	19308
850.815	19354
850.95	19270
851.085	19514
851.22	19445
851.355	19251
851.49	19293
851.625	19369
851.76	19358
851.895	19255
852.03	19324
852.165	19343
852.299	19350
852.434	19407
852.569	19472
852.703	19354
852.838	19400
852.973	19438
853.107	19430
853.242	19187
853.376	19358
853.511	18977
853.645	19164
853.78	19331
853.914	19190
854.048	19164
854.183	19095
854.317	19194
854.451	19308
854.585	19160
854.72	19080
854.854	19282
854.988	18973
855.122	19152
855.256	18989
855.39	19160
855.524	19289
855.658	19209
855.792	19152
855.926	19198
856.06	19187
856.194	19324
856.327	19175
856.461	19118
856.595	19057
856.729	19103
856.862	19354
856.996	19160
857.13	19266
857.263	19373
857.397	19362
857.53	19129
857.664	19164
857.797	19156
857.931	19137
858.064	19103
858.197	19312
858.331	19114
858.464	19008
858.597	19008
858.731	19031
858.864	19110
858.997	19168
859.13	19118
859.263	19080
859.396	19133
859.529	19099
859.662	19023
859.795	19114
859.928	19031
860.061	19301
860.194	19320
860.327	19129
860.46	19061
860.592	19156
860.725	19206
860.858	19304
860.99	19091
861.123	19061
861.256	19076
861.388	19148
861.521	19586
861.653	18928
861.786	18939
861.918	19084
862.05	19065
862.183	19247
862.315	19148
862.447	19129
862.58	19050
862.712	18817
862.844	18852
862.976	18966
863.108	18844
863.24	19221
863.372	18791
863.504	18768
863.636	18844
863.768	18943
863.9	18848
864.032	18829
864.164	18741
864.296	18890
864.428	18840
864.559	18935
864.691	18867
864.823	18901
864.954	18776
865.086	18844
865.217	18738
865.349	18681
865.48	18787
865.612	18726
865.743	18981
865.875	18806
866.006	18711
866.137	18719
866.269	18840
866.4	18719
866.531	18722
866.662	18589
866.793	18608
866.924	18722
867.055	18658
867.186	18631
867.317	18601
867.448	18684
867.579	18646
867.71	18593
867.841	18673
867.972	18661
868.103	18734
868.233	18673
868.364	18642
868.495	18734
868.625	18996
868.756	19015
868.886	18913
869.017	18848
869.147	19008
869.278	19008
869.408	19019
869.539	18821
869.669	18973
869.799	18920
869.929	19012
870.06	19012
870.19	19171
870.32	19190
870.45	19228
870.58	19304
870.71	19453
870.84	19316
870.97	19244
871.1	19339
871.23	19533
871.36	19449
871.489	19346
871.619	19384
871.749	19460
871.879	19457
872.008	19670
872.138	19533
872.267	19548
872.397	19438
872.526	19403
872.656	19251
872.785	19434
872.915	19518
873.044	19460
873.173	19548
873.303	19601
873.432	19518
873.561	19567
873.69	19510
873.819	19438
873.948	19639
874.077	19658
874.206	19506
874.335	19445
874.464	19658
874.593	19830
874.722	19685
874.851	19845
874.979	19871
875.108	19803
875.237	19837
875.365	19795
875.494	19791
875.623	19864
875.751	19734
875.88	19864
876.008	19974
876.136	20031
876.265	20153
876.393	20396
876.521	20210
876.65	20282
876.778	20221
876.906	20153
877.034	20081
877.162	20126
877.29	20164
877.418	20244
877.546	20176
877.674	20092
877.802	20145
877.93	20145
878.058	20084
878.185	20176
878.313	20054
878.441	20256
878.568	19959
878.696	20339
878.824	20278
878.951	20366
879.079	20442
879.206	20507
879.333	20423
879.461	20309
879.588	20514
879.715	20438
879.842	20644
879.97	20389
880.097	20050
880.224	20168
880.351	20092
880.478	20161
880.605	20077
880.732	20062
880.859	20221
880.986	20016
881.112	20046
881.239	19837
881.366	19879
881.493	19712
881.619	19658
881.746	19738
881.872	19742
881.999	19696
882.125	19624
882.252	19727
882.378	19582
882.505	19693
882.631	19605
882.757	19457
882.883	19426
883.01	19548
883.136	19415
883.262	19320
883.388	19190
883.514	19373
883.64	19499
883.766	19392
883.892	19282
884.018	19141
884.143	19396
884.269	19449
884.395	19213
884.52	19114
884.646	19160
884.772	19034
884.897	18928
885.023	19027
885.148	19133
885.274	19255
885.399	19008
885.524	19076
885.65	19012
885.775	19133
885.9	19046
886.025	19221
886.15	19145
886.275	18943
886.4	18970
886.525	18901
886.65	18916
886.775	18894
886.9	19156
887.025	19240
887.149	18985
887.274	18821
887.399	18730
887.523	18757
887.648	18738
887.773	18703
887.897	18924
888.021	18905
888.146	18700
888.27	18878
888.395	18840
888.519	18897
888.643	18932
888.767	18840
888.891	18673
889.015	18616
889.139	18551
889.263	18703
889.387	18707
889.511	18802
889.635	18688
889.759	18498
889.883	18506
890.006	18707
890.13	18623
890.254	18532
890.377	18448
890.501	18372
890.624	18357
890.748	18342
890.871	18311
890.995	18182
891.118	18262
891.241	18194
891.364	18194
891.488	18353
891.611	18121
891.734	18285
891.857	18144
891.98	18205
892.103	18369
892.226	18182
892.349	18064
892.471	18098
892.594	18224
892.717	18201
892.839	18205
892.962	18163
893.085	18213
893.207	18129
893.33	17992
893.452	18038
893.575	18209
893.697	18163
893.819	18330
893.941	18350
894.064	18296
894.186	18114
894.308	18095
894.43	18167
894.552	18361
894.674	18144
894.796	18045
894.918	18144
895.04	18053
895.161	18281
895.283	18281
895.405	17992
895.526	18190
895.648	18167
895.769	18125
895.891	18243
896.012	18197
896.134	18304
896.255	18235
896.376	18129
896.498	18205
896.619	18323
896.74	18216
896.861	18315
896.982	18528
897.103	18604
897.224	18426
897.345	18422
897.466	18456
897.587	18448
897.708	18631
897.828	18418
897.949	18445
898.07	18292
898.19	18361
898.311	18528
898.431	18422
898.552	18486
898.672	18452
898.792	18570
898.913	18471
899.033	18475
899.153	18209
899.273	18174
899.393	18350
899.513	18197
899.633	18182
899.753	18159
899.873	18174
899.993	18194
900.113	18235
900.232	18136
900.352	18144
900.472	17980
900.591	18045
900.711	18041
900.83	17980
900.95	18076
901.069	18129
901.189	17958
901.308	17748
901.427	17642
901.546	17642
901.665	17680
901.784	17627
901.904	17615
902.023	17349
902.141	17212
902.26	17227
902.379	17258
902.498	17136
902.617	17056
902.735	17208
902.854	17079
902.973	17045
903.091	16930
903.21	16801
903.328	16919
903.446	16733
903.565	16748
903.683	16748
903.801	16611
903.919	16531
904.038	16725
904.156	16440
904.274	16542
904.392	16413
904.51	16402
904.627	16402
904.745	16424
904.863	16394
904.981	16215
905.098	16093
905.216	16143
905.334	16112
905.451	16181
905.569	16139
905.686	16090
905.803	16029
905.921	15949
906.038	15956
906.155	15846
906.272	15823
906.389	15724
906.506	15751
906.623	15766
906.74	15633
906.857	15507
906.974	15576
907.091	15618
907.208	15781
907.324	15660
907.441	15549
907.557	15374
907.674	15374
907.79	15321
907.907	15272
908.023	15431
908.139	15268
908.256	15272
908.372	15272
908.488	15184
908.604	15089
908.72	14937
908.836	15108
908.952	15005
909.068	15005
909.184	15047
909.3	15089
909.415	15039
909.531	14937
909.647	14872
909.762	14807
909.878	14701
909.993	14655
910.108	14689
910.224	14640
910.339	14629
910.454	14583
910.57	14568
910.685	14514
910.8	14807
910.915	14644
911.03	14526
911.145	14355
911.259	14317
911.374	14332
911.489	14385
911.604	14191
911.718	14168
911.833	14161
911.947	14058
912.062	13906
912.176	14100
912.291	14077
912.405	14008
912.519	14252
912.633	14142
912.748	14138
912.862	14107
912.976	13894
913.09	13791
913.204	13921
913.318	13890
913.431	14008
913.545	13944
913.659	13963
913.772	13803
913.886	13731
914	13830
914.113	13833
914.226	13925
914.34	13772
914.453	13624
914.566	13780
914.68	13670
914.793	13704
914.906	13506
915.019	13453
915.132	13365
915.245	13377
915.358	13460
915.47	13362
915.583	13491
915.696	13510
915.809	13559
915.921	13468
916.034	13358
916.146	13285
916.259	13274
916.371	13350
916.483	13343
916.595	13297
916.708	13407
916.82	13339
916.932	13259
917.044	13304
917.156	13202
917.268	13050
917.38	13152
917.491	13046
917.603	13122
917.715	13141
917.826	13164
917.938	13118
918.049	13000
918.161	13084
918.272	13175
918.384	13225
918.495	13046
918.606	12916
918.717	12882
918.828	12966
918.939	12935
919.05	12859
919.161	12905
919.272	12681
919.383	12677
919.494	12920
919.604	13171
919.715	12962
919.826	12810
919.936	12764
920.047	13069
920.157	12909
920.267	13038
920.378	12882
920.488	12779
920.598	13084
920.708	13168
920.818	13076
920.928	13004
921.038	13213
921.148	13076
921.258	12875
921.368	12703
921.477	12662
921.587	12597
921.697	12540
921.806	12669
921.916	12551
922.025	12369
922.134	12300
922.244	12334
922.353	12330
922.462	12224
922.571	12129
922.68	12034
922.789	11847
922.898	11912
923.007	11954
923.116	11904
923.224	11942
923.333	11916
923.442	11786
923.55	11798
923.659	11836
923.767	11965
923.876	11710
923.984	11847
924.092	11619
924.201	11756
924.309	11710
924.417	11767
924.525	11688
924.633	11611
924.741	12585
924.849	11516
924.956	11680
925.064	11486
925.172	11349
925.279	11490
925.387	11577
925.494	11512
925.602	11596
925.709	11558
925.816	11391
925.924	11452
926.031	11573
926.138	11402
926.245	11501
926.352	11353
926.459	11455
926.566	11497
926.673	11337
926.779	11299
926.886	11307
926.993	11147
927.099	11136
927.206	11109
927.312	11064
927.419	11102
927.525	11105
927.631	11151
927.737	11010
927.843	10968
927.95	10797
928.056	10908
928.162	10980
928.267	10980
928.373	11501
928.479	11071
928.585	10801
928.69	10923
928.796	10946
928.901	10801
929.007	10725
929.112	10805
929.218	10869
929.323	10759
929.428	10710
929.533	10881
929.638	10611
929.743	10752
929.848	10755
929.953	10672
930.058	10554
930.163	10462
930.267	10432
930.372	10634
930.477	10440
930.581	10603
930.685	10421
930.79	10367
930.894	10424
930.998	10249
931.103	10424
931.207	10082
931.311	10021
931.415	9926
931.519	9679
931.623	9701
