Data from test_V78500241_3066.txt Node
Date: Fri Mar 25 14:55:03 CST 2022
User: usil
Spectrometer: V785-0024
Trigger mode: 0
Integration Time (sec): 4.000000E-1
Scans to average: 1
Nonlinearity correction enabled: false
Boxcar width: 0
Storing dark spectrum: false
XAxis mode: Wavelengths
Number of Pixels in Spectrum: 1024
>>>>>Begin Spectral Data<<<<<
801.071	22143
801.214	22154
801.356	21705
801.499	21686
801.641	21435
801.783	21447
801.926	21416
802.068	21500
802.211	21260
802.353	21268
802.496	21150
802.638	20868
802.78	20944
802.923	20887
803.065	20834
803.208	20701
803.35	20765
803.492	20918
803.635	20914
803.777	20731
803.919	20979
804.061	21226
804.204	20735
804.346	20765
804.488	20689
804.63	20807
804.773	20579
804.915	20720
805.057	20876
805.199	20682
805.341	20956
805.483	20830
805.626	20792
805.768	20663
805.91	20670
806.052	20708
806.194	20602
806.336	20762
806.478	20613
806.62	20659
806.762	20731
806.904	20929
807.046	21104
807.188	21001
807.33	21070
807.472	21192
807.614	20800
807.756	20937
807.898	20739
808.04	20811
808.182	20830
808.324	20811
808.465	20849
808.607	20883
808.749	21207
808.891	21135
809.033	21176
809.174	20990
809.316	21001
809.458	21066
809.6	21047
809.741	21123
809.883	21150
810.025	21176
810.166	21188
810.308	21252
810.45	21077
810.591	21180
810.733	21024
810.875	20758
811.016	20769
811.158	20674
811.299	20880
811.441	21043
811.582	20975
811.724	20708
811.865	20739
812.007	20864
812.148	20739
812.29	20777
812.431	20887
812.573	21138
812.714	21245
812.855	21408
812.997	21378
813.138	21641
813.279	21359
813.421	21401
813.562	21279
813.703	21089
813.845	20933
813.986	20697
814.127	20499
814.268	20457
814.41	20412
814.551	20450
814.692	20370
814.833	20336
814.974	20442
815.115	20183
815.256	20351
815.397	20233
815.539	20252
815.68	20252
815.821	20054
815.962	20172
816.103	20096
816.244	19982
816.385	19788
816.526	19753
816.666	19788
816.807	19521
816.948	19613
817.089	19742
817.23	19586
817.371	19514
817.512	19537
817.653	19510
817.793	19426
817.934	19518
818.075	19582
818.216	19518
818.356	19377
818.497	19202
818.638	19240
818.778	19152
818.919	19190
819.06	19270
819.2	19297
819.341	19384
819.481	19422
819.622	19514
819.762	19723
819.903	19594
820.043	19460
820.184	19510
820.324	19483
820.465	19510
820.605	19487
820.746	19324
820.886	19251
821.026	19266
821.167	19384
821.307	19426
821.447	19377
821.588	19354
821.728	19209
821.868	19110
822.008	18829
822.149	18821
822.289	18863
822.429	18696
822.569	18646
822.709	18551
822.849	18414
822.99	18308
823.13	18365
823.27	18281
823.41	18224
823.55	18133
823.69	18235
823.83	18110
823.97	18136
824.11	18026
824.25	17882
824.389	17984
824.529	18015
824.669	17980
824.809	18102
824.949	18019
825.089	18060
825.228	17923
825.368	17665
825.508	17813
825.648	17684
825.787	17775
825.927	17767
826.067	17547
826.206	17752
826.346	17794
826.485	17638
826.625	17615
826.765	17783
826.904	17737
827.044	17497
827.183	17455
827.323	17277
827.462	17474
827.601	17376
827.741	17414
827.88	17349
828.02	17345
828.159	17376
828.298	17493
828.437	17425
828.577	17360
828.716	17497
828.855	17349
828.994	17288
829.134	17204
829.273	17162
829.412	17136
829.551	17075
829.69	17090
829.829	17193
829.968	17261
830.107	17064
830.246	17303
830.385	17132
830.524	17010
830.663	16923
830.802	16976
830.941	16778
831.08	16790
831.219	16824
831.357	16930
831.496	16968
831.635	16805
831.774	16698
831.913	16656
832.051	16542
832.19	16542
832.329	16584
832.467	16523
832.606	16367
832.744	16417
832.883	16459
833.022	16504
833.16	16493
833.299	16512
833.437	16577
833.576	16382
833.714	16443
833.852	16565
833.991	16542
834.129	16603
834.267	16577
834.406	16459
834.544	16527
834.682	16573
834.821	16497
834.959	16645
835.097	16485
835.235	16550
835.373	16394
835.511	16538
835.65	16417
835.788	16333
835.926	16287
836.064	16158
836.202	16234
836.34	16432
836.478	16516
836.615	16409
836.753	16432
836.891	16417
837.029	16432
837.167	16390
837.305	16466
837.443	16272
837.58	16226
837.718	16272
837.856	16314
837.993	16226
838.131	16204
838.269	16147
838.406	16177
838.544	16131
838.681	16013
838.819	15953
838.956	15762
839.094	15804
839.231	15816
839.369	15937
839.506	16337
839.643	16082
839.781	15747
839.918	15679
840.055	15800
840.193	15747
840.33	15762
840.467	15774
840.604	15766
840.742	16040
840.879	15724
841.016	15656
841.153	15622
841.29	15930
841.427	15804
841.564	15770
841.701	15797
841.838	15705
841.975	15743
842.112	15656
842.249	15545
842.385	15584
842.522	15732
842.659	15545
842.796	15542
842.933	15591
843.069	15523
843.206	15530
843.343	15713
843.479	15530
843.616	15671
843.752	15386
843.889	15355
844.025	15507
844.162	15351
844.298	15519
844.435	15310
844.571	15340
844.708	15435
844.844	15553
844.98	15530
845.117	15462
845.253	15298
845.389	15207
845.525	15249
845.661	15245
845.798	15222
845.934	15157
846.07	15123
846.206	15169
846.342	15325
846.478	15116
846.614	15017
846.75	14883
846.886	14918
847.022	15024
847.158	14990
847.294	14975
847.429	14895
847.565	14769
847.701	15157
847.837	14682
847.972	14655
848.108	14815
848.244	14838
848.379	14640
848.515	14431
848.65	14473
848.786	14541
848.921	14579
849.057	14583
849.192	14636
849.328	14465
849.463	14571
849.598	14446
849.734	14423
849.869	14381
850.004	14332
850.14	14431
850.275	14404
850.41	14324
850.545	14305
850.68	14377
850.815	14244
850.95	14237
851.085	14552
851.22	14396
851.355	14358
851.49	14332
851.625	14332
851.76	14275
851.895	14210
852.03	14149
852.165	14298
852.299	14332
852.434	14336
852.569	14355
852.703	14301
852.838	14408
852.973	14442
853.107	14438
853.242	14278
853.376	14134
853.511	14035
853.645	14058
853.78	14294
853.914	14176
854.048	14100
854.183	14100
854.317	14183
854.451	14396
854.585	14202
854.72	14138
854.854	14218
854.988	14092
855.122	14100
855.256	14065
855.39	14176
855.524	14275
855.658	14233
855.792	14191
855.926	14210
856.06	14248
856.194	14271
856.327	14149
856.461	14126
856.595	14153
856.729	14077
856.862	14298
856.996	14286
857.13	14214
857.263	14313
857.397	14263
857.53	14100
857.664	14225
857.797	14161
857.931	14210
858.064	14358
858.197	14191
858.331	14142
858.464	14081
858.597	14142
858.731	14183
858.864	14180
858.997	14145
859.13	14138
859.263	14164
859.396	14240
859.529	14123
859.662	14115
859.795	14054
859.928	14305
860.061	14343
860.194	14347
860.327	14164
860.46	14123
860.592	14305
860.725	14221
860.858	14237
860.99	14134
861.123	14046
861.256	14168
861.388	14157
861.521	14941
861.653	14046
861.786	13982
861.918	14039
862.05	14100
862.183	14199
862.315	14172
862.447	14172
862.58	14138
862.712	13989
862.844	13909
862.976	14016
863.108	13993
863.24	14309
863.372	13890
863.504	13814
863.636	13959
863.768	14027
863.9	13986
864.032	13917
864.164	13925
864.296	13970
864.428	14134
864.559	14103
864.691	14008
864.823	14058
864.954	14016
865.086	14065
865.217	13913
865.349	13822
865.48	13963
865.612	13986
865.743	14157
865.875	13982
866.006	13967
866.137	13989
866.269	13947
866.4	13936
866.531	13925
866.662	13925
866.793	13856
866.924	13932
867.055	13947
867.186	13917
867.317	13906
867.448	13894
867.579	13864
867.71	13864
867.841	13860
867.972	13909
868.103	13940
868.233	13921
868.364	13997
868.495	13982
868.625	14168
868.756	14176
868.886	14130
869.017	14191
869.147	14320
869.278	14320
869.408	14218
869.539	14237
869.669	14195
869.799	14294
869.929	14259
870.06	14301
870.19	14495
870.32	14583
870.45	14564
870.58	14571
870.71	14659
870.84	14667
870.97	14590
871.1	14556
871.23	14727
871.36	14777
871.489	14625
871.619	14731
871.749	14769
871.879	14804
872.008	14944
872.138	14800
872.267	14834
872.397	14629
872.526	14632
872.656	14712
872.785	14594
872.915	14785
873.044	14906
873.173	14861
873.303	14811
873.432	14918
873.561	15024
873.69	14918
873.819	14796
873.948	14910
874.077	14811
874.206	14807
874.335	14811
874.464	15009
874.593	15169
874.722	15131
874.851	15142
874.979	15169
875.108	15226
875.237	15085
875.365	15104
875.494	15051
875.623	15245
875.751	15104
875.88	15180
876.008	15211
876.136	15412
876.265	15641
876.393	15637
876.521	15656
876.65	15690
876.778	15526
876.906	15462
877.034	15488
877.162	15496
877.29	15424
877.418	15568
877.546	15549
877.674	15538
877.802	15485
877.93	15549
878.058	15511
878.185	15386
878.313	15622
878.441	15568
878.568	15344
878.696	15515
878.824	15557
878.951	15629
879.079	15698
879.206	15854
879.333	15713
879.461	15641
879.588	15656
879.715	15713
879.842	15842
879.97	15614
880.097	15332
880.224	15363
880.351	15515
880.478	15454
880.605	15340
880.732	15496
880.859	15675
880.986	15405
881.112	15355
881.239	15355
881.366	15154
881.493	15176
881.619	15047
881.746	15024
881.872	15093
881.999	15112
882.125	15058
882.252	15161
882.378	15173
882.505	15298
882.631	15051
882.757	14914
882.883	15047
883.01	14914
883.136	14861
883.262	14720
883.388	14727
883.514	14948
883.64	14941
883.766	14910
883.892	14667
884.018	14758
884.143	14895
884.269	14975
884.395	14663
884.52	14644
884.646	14697
884.772	14514
884.897	14461
885.023	14610
885.148	14785
885.274	14800
885.399	14773
885.524	14629
885.65	14579
885.775	14636
885.9	14556
886.025	14708
886.15	14765
886.275	14530
886.4	14560
886.525	14632
886.65	14610
886.775	14606
886.9	14765
887.025	14826
887.149	14590
887.274	14454
887.399	14408
887.523	14488
887.648	14324
887.773	14465
887.897	14480
888.021	14541
888.146	14427
888.27	14484
888.395	14579
888.519	14484
888.643	14556
888.767	14522
888.891	14427
889.015	14355
889.139	14358
889.263	14309
889.387	14442
889.511	14518
889.635	14465
889.759	14389
889.883	14313
890.006	14408
890.13	14419
890.254	14278
890.377	14305
890.501	14206
890.624	14130
890.748	14271
890.871	14123
890.995	13963
891.118	14020
891.241	14054
891.364	13986
891.488	14077
891.611	14012
891.734	14073
891.857	14164
891.98	14073
892.103	14149
892.226	14138
892.349	14050
892.471	13841
892.594	14005
892.717	14008
892.839	14035
892.962	14043
893.085	14031
893.207	14069
893.33	13864
893.452	14020
893.575	14119
893.697	14058
893.819	14183
893.941	14313
894.064	14183
894.186	14005
894.308	13993
894.43	14199
894.552	14210
894.674	14229
894.796	14069
894.918	14062
895.04	13993
895.161	14305
895.283	14157
895.405	14027
895.526	14119
895.648	14202
895.769	14149
895.891	14176
896.012	14252
896.134	14233
896.255	14229
896.376	14183
896.498	14199
896.619	14301
896.74	14301
896.861	14119
896.982	14522
897.103	14674
897.224	14484
897.345	14522
897.466	14400
897.587	14473
897.708	14587
897.828	14518
897.949	14412
898.07	14347
898.19	14533
898.311	14651
898.431	14484
898.552	14594
898.672	14678
898.792	14621
898.913	14754
899.033	14541
899.153	14389
899.273	14298
899.393	14446
899.513	14511
899.633	14385
899.753	14404
899.873	14301
899.993	14454
900.113	14492
900.232	14408
900.352	14438
900.472	14317
900.591	14221
900.711	14275
900.83	14244
900.95	14377
901.069	14530
901.189	14233
901.308	14058
901.427	13917
901.546	13963
901.665	14012
901.784	14035
901.904	13875
902.023	13750
902.141	13624
902.26	13552
902.379	13529
902.498	13552
902.617	13445
902.735	13544
902.854	13525
902.973	13460
903.091	13308
903.21	13289
903.328	13213
903.446	13225
903.565	13114
903.683	13137
903.801	13027
903.919	13145
904.038	13023
904.156	12989
904.274	13023
904.392	12966
904.51	12935
904.627	12878
904.745	12966
904.863	12962
904.981	12829
905.098	12639
905.216	12635
905.334	12684
905.451	12563
905.569	12551
905.686	12650
905.803	12483
905.921	12471
906.038	12631
906.155	12399
906.272	12399
906.389	12323
906.506	12277
906.623	12209
906.74	12167
906.857	12076
906.974	12110
907.091	12258
907.208	12384
907.324	12197
907.441	12114
907.557	11965
907.674	11904
907.79	11908
907.907	11889
908.023	11984
908.139	11977
908.256	11958
908.372	11870
908.488	11767
908.604	11741
908.72	11760
908.836	11745
908.952	11646
909.068	11760
909.184	11798
909.3	11718
909.415	11817
909.531	11718
909.647	11589
909.762	11566
909.878	11410
909.993	11497
910.108	11539
910.224	11497
910.339	11425
910.454	11478
910.57	11315
910.685	11250
910.8	11570
910.915	11482
911.03	11288
911.145	11121
911.259	11170
911.374	11170
911.489	11064
911.604	11018
911.718	10972
911.833	10927
911.947	10892
912.062	10782
912.176	10866
912.291	10927
912.405	10942
912.519	11064
912.633	11147
912.748	11025
912.862	10942
912.976	10801
913.09	10740
913.204	10816
913.318	10752
913.431	10793
913.545	10809
913.659	10934
913.772	10790
913.886	10729
914	10736
914.113	10797
914.226	10755
914.34	10675
914.453	10626
914.566	10748
914.68	10630
914.793	10615
914.906	10523
915.019	10382
915.132	10382
915.245	10394
915.358	10428
915.47	10485
915.583	10421
915.696	10447
915.809	10596
915.921	10683
916.034	10440
916.146	10466
916.259	10371
916.371	10466
916.483	10382
916.595	10421
916.708	10405
916.82	10405
916.932	10291
917.044	10310
917.156	10379
917.268	10230
917.38	10322
917.491	10188
917.603	10257
917.715	10409
917.826	10360
917.938	10261
918.049	10139
918.161	10363
918.272	10398
918.384	10424
918.495	10322
918.606	10154
918.717	10078
918.828	10154
918.939	10192
919.05	10090
919.161	10177
919.272	10059
919.383	9998
919.494	10200
919.604	10363
919.715	10223
919.826	10044
919.936	10150
920.047	10272
920.157	10177
920.267	10394
920.378	10242
920.488	10166
920.598	10436
920.708	10523
920.818	10413
920.928	10360
921.038	10538
921.148	10432
921.258	10223
921.368	10162
921.477	10090
921.587	9964
921.697	9991
921.806	10021
921.916	9907
922.025	9800
922.134	9770
922.244	9679
922.353	9724
922.462	9686
922.571	9629
922.68	9450
922.789	9317
922.898	9435
923.007	9313
923.116	9416
923.224	9382
923.333	9439
923.442	9302
923.55	9325
923.659	9298
923.767	9401
923.876	9321
923.984	9370
924.092	9199
924.201	9291
924.309	9256
924.417	9336
924.525	9157
924.633	9283
924.741	10177
924.849	9074
924.956	9165
925.064	9036
925.172	9001
925.279	9009
925.387	9127
925.494	9089
925.602	9199
925.709	9135
925.816	9051
925.924	9066
926.031	9188
926.138	9047
926.245	9233
926.352	9051
926.459	9142
926.566	9207
926.673	9047
926.779	8967
926.886	8921
926.993	8834
927.099	8762
927.206	8868
927.312	8769
927.419	8849
927.525	8800
927.631	8815
927.737	8689
927.843	8636
927.95	8648
928.056	8716
928.162	8712
928.267	8769
928.373	9287
928.479	8834
928.585	8587
928.69	8640
928.796	8777
928.901	8682
929.007	8480
929.112	8667
929.218	8564
929.323	8518
929.428	8495
929.533	8621
929.638	8412
929.743	8484
929.848	8533
929.953	8545
930.058	8442
930.163	8313
930.267	8298
930.372	8476
930.477	8214
930.581	8499
930.685	8298
930.79	8301
930.894	8275
930.998	8138
931.103	8374
931.207	8054
931.311	8005
931.415	7978
931.519	7795
931.623	7780
