Data from test_V78500241_775.txt Node
Date: Fri Mar 25 14:39:06 CST 2022
User: usil
Spectrometer: V785-0024
Trigger mode: 0
Integration Time (sec): 4.000000E-1
Scans to average: 1
Nonlinearity correction enabled: false
Boxcar width: 0
Storing dark spectrum: false
XAxis mode: Wavelengths
Number of Pixels in Spectrum: 1024
>>>>>Begin Spectral Data<<<<<
801.071	26925
801.214	26701
801.356	26514
801.499	26374
801.641	26237
801.783	26339
801.926	26126
802.068	26145
802.211	26050
802.353	25879
802.496	25826
802.638	25727
802.78	25685
802.923	25643
803.065	25632
803.208	25529
803.35	25628
803.492	25799
803.635	25795
803.777	25632
803.919	25765
804.061	26050
804.204	25928
804.346	25761
804.488	25799
804.63	26005
804.773	25845
804.915	26016
805.057	26142
805.199	26180
805.341	26275
805.483	26393
805.626	26343
805.768	26275
805.91	26343
806.052	26716
806.194	26575
806.336	27062
806.478	27058
806.62	27062
806.762	27283
806.904	27903
807.046	28284
807.188	28630
807.33	29006
807.472	29615
807.614	30251
807.756	30962
807.898	32077
808.04	33348
808.182	35364
808.324	37833
808.465	40576
808.607	43830
808.749	46557
808.891	48087
809.033	48688
809.174	46797
809.316	44126
809.458	40869
809.6	37624
809.741	34987
809.883	32940
810.025	31590
810.166	30452
810.308	29798
810.45	29151
810.591	28519
810.733	28192
810.875	27857
811.016	27530
811.158	27260
811.299	27279
811.441	27226
811.582	27043
811.724	26807
811.865	26609
812.007	26617
812.148	26431
812.29	26450
812.431	26366
812.573	26663
812.714	26564
812.855	26697
812.997	26762
813.138	26880
813.279	26777
813.421	26552
813.562	26423
813.703	26336
813.845	26050
813.986	25868
814.127	25632
814.268	25502
814.41	25476
814.551	25384
814.692	25426
814.833	25225
814.974	25266
815.115	25346
815.256	25110
815.397	25148
815.539	24909
815.68	24954
815.821	24878
815.962	24935
816.103	24848
816.244	24719
816.385	24620
816.526	24566
816.666	24410
816.807	24270
816.948	24357
817.089	24319
817.23	24167
817.371	24144
817.512	24194
817.653	24148
817.793	24114
817.934	24155
818.075	24098
818.216	24178
818.356	24235
818.497	23965
818.638	23760
818.778	23760
818.919	23904
819.06	23832
819.2	23965
819.341	24011
819.481	24038
819.622	24106
819.762	24247
819.903	24133
820.043	24213
820.184	23984
820.324	23863
820.465	24041
820.605	23999
820.746	23969
820.886	23676
821.026	23908
821.167	23802
821.307	23901
821.447	23912
821.588	23794
821.728	23493
821.868	23414
822.008	23425
822.149	23269
822.289	23132
822.429	22919
822.569	22843
822.709	22713
822.849	22763
822.99	22691
823.13	22664
823.27	22546
823.41	22516
823.55	22356
823.69	22531
823.83	22417
823.97	22390
824.11	22177
824.25	22196
824.389	22181
824.529	22196
824.669	22185
824.809	22223
824.949	22287
825.089	22360
825.228	22238
825.368	22070
825.508	22131
825.648	21991
825.787	22021
825.927	22097
826.067	21922
826.206	21915
826.346	21907
826.485	22021
826.625	22029
826.765	22109
826.904	21899
827.044	21747
827.183	21751
827.323	21625
827.462	21720
827.601	21800
827.741	21606
827.88	21625
828.02	21549
828.159	21622
828.298	21656
828.437	21713
828.577	21572
828.716	21724
828.855	21622
828.994	21389
829.134	21298
829.273	21386
829.412	21195
829.551	21256
829.69	21233
829.829	21272
829.968	21313
830.107	21340
830.246	21397
830.385	21287
830.524	21294
830.663	21184
830.802	21043
830.941	20929
831.08	20921
831.219	21081
831.357	21017
831.496	21020
831.635	20830
831.774	20807
831.913	20788
832.051	20777
832.19	20811
832.329	20838
832.467	20853
832.606	20712
832.744	20769
832.883	20758
833.022	20891
833.16	20986
833.299	21100
833.437	21241
833.576	21359
833.714	21542
833.852	21709
833.991	21717
834.129	21705
834.267	21892
834.406	21812
834.544	21781
834.682	21641
834.821	21549
834.959	21568
835.097	21184
835.235	21180
835.373	21028
835.511	21013
835.65	20834
835.788	20727
835.926	20598
836.064	20492
836.202	20476
836.34	20514
836.478	20606
836.615	20499
836.753	20526
836.891	20556
837.029	20503
837.167	20404
837.305	20408
837.443	20282
837.58	20256
837.718	20336
837.856	20290
837.993	20244
838.131	20161
838.269	20187
838.406	20153
838.544	20043
838.681	19913
838.819	19974
838.956	19791
839.094	19795
839.231	19890
839.369	19879
839.506	20069
839.643	20043
839.781	19651
839.918	19635
840.055	19719
840.193	19643
840.33	19674
840.467	19704
840.604	19803
840.742	19917
840.879	19533
841.016	19681
841.153	19552
841.29	19902
841.427	19670
841.564	19742
841.701	19632
841.838	19712
841.975	19548
842.112	19674
842.249	19582
842.385	19533
842.522	19658
842.659	19559
842.796	19613
842.933	19495
843.069	19480
843.206	19533
843.343	19616
843.479	19628
843.616	19696
843.752	19597
843.889	19445
844.025	19818
844.162	19624
844.298	19689
844.435	19906
844.571	20088
844.708	20362
844.844	20716
844.98	21195
845.117	21739
845.253	22561
845.389	24330
845.525	27755
845.661	33070
845.798	39690
845.934	44556
846.07	46284
846.206	44937
846.342	40470
846.478	34017
846.614	28451
846.75	24897
846.886	22862
847.022	21545
847.158	20670
847.294	20122
847.429	19837
847.565	19529
847.701	19639
847.837	18905
847.972	18882
848.108	18989
848.244	18833
848.379	18574
848.515	18616
848.65	18646
848.786	18574
848.921	18532
849.057	18532
849.192	18559
849.328	18563
849.463	18361
849.598	18334
849.734	18311
849.869	18315
850.004	18129
850.14	18194
850.275	18129
850.41	18030
850.545	18068
850.68	18022
850.815	18167
850.95	18030
851.085	18323
851.22	18167
851.355	18117
851.49	18102
851.625	18194
851.76	18068
851.895	18136
852.03	18026
852.165	18030
852.299	18106
852.434	18163
852.569	18182
852.703	18304
852.838	18148
852.973	18338
853.107	18376
853.242	18167
853.376	18171
853.511	18095
853.645	18133
853.78	18281
853.914	18319
854.048	18388
854.183	18407
854.317	18448
854.451	18631
854.585	18315
854.72	18330
854.854	18254
854.988	18049
855.122	18178
855.256	17973
855.39	18159
855.524	18254
855.658	18015
855.792	18121
855.926	18060
856.06	18030
856.194	18125
856.327	18026
856.461	17931
856.595	17977
856.729	17984
856.862	18053
856.996	17935
857.13	18022
857.263	18095
857.397	17977
857.53	17908
857.664	17901
857.797	17973
857.931	17958
858.064	17874
858.197	17961
858.331	17916
858.464	17813
858.597	17684
858.731	17737
858.864	17775
858.997	17764
859.13	17752
859.263	17813
859.396	17847
859.529	17737
859.662	17680
859.795	17665
859.928	17752
860.061	17859
860.194	17912
860.327	17813
860.46	17794
860.592	17935
860.725	17832
860.858	17855
860.99	17847
861.123	17748
861.256	17805
861.388	17722
861.521	18353
861.653	17748
861.786	17497
861.918	17634
862.05	17714
862.183	17714
862.315	17786
862.447	17786
862.58	17714
862.712	17638
862.844	17471
862.976	17558
863.108	17566
863.24	17901
863.372	17406
863.504	17368
863.636	17421
863.768	17509
863.9	17414
864.032	17433
864.164	17425
864.296	17505
864.428	17600
864.559	17486
864.691	17520
864.823	17592
864.954	17440
865.086	17471
865.217	17379
865.349	17288
865.48	17429
865.612	17448
865.743	17505
865.875	17376
866.006	17387
866.137	17334
866.269	17311
866.4	17383
866.531	17395
866.662	17345
866.793	17223
866.924	17360
867.055	17349
867.186	17448
867.317	17330
867.448	17204
867.579	17334
867.71	17315
867.841	17273
867.972	17459
868.103	17341
868.233	17364
868.364	17387
868.495	17467
868.625	17585
868.756	17703
868.886	17520
869.017	17535
869.147	17630
869.278	17737
869.408	17627
869.539	17752
869.669	17703
869.799	17589
869.929	17878
870.06	17817
870.19	18034
870.32	17980
870.45	17999
870.58	18064
870.71	18251
870.84	18144
870.97	18057
871.1	18083
871.23	18369
871.36	18315
871.489	18216
871.619	18285
871.749	18300
871.879	18372
872.008	18460
872.138	18399
872.267	18361
872.397	18300
872.526	18289
872.656	18239
872.785	18323
872.915	18445
873.044	18525
873.173	18597
873.303	18517
873.432	18601
873.561	18677
873.69	18677
873.819	18734
873.948	18764
874.077	18665
874.206	18711
874.335	18669
874.464	18852
874.593	18977
874.722	18935
874.851	19103
874.979	19175
875.108	19050
875.237	19141
875.365	19027
875.494	19225
875.623	19381
875.751	19285
875.88	19278
876.008	19548
876.136	19590
876.265	19856
876.393	19974
876.521	20020
876.65	20092
876.778	20050
876.906	20130
877.034	20069
877.162	20180
877.29	20244
877.418	20336
877.546	20442
877.674	20617
877.802	20686
877.93	20872
878.058	20925
878.185	21013
878.313	21466
878.441	21720
878.568	21835
878.696	22523
878.824	23353
878.951	24483
879.079	25913
879.206	27846
879.333	29699
879.461	31365
879.588	32221
879.715	32385
879.842	31479
879.97	29904
880.097	27774
880.224	26122
880.351	25156
880.478	24285
880.605	23737
880.732	23246
880.859	23292
880.986	22976
881.112	22843
881.239	22710
881.366	22561
881.493	22546
881.619	22314
881.746	22542
881.872	22443
881.999	22542
882.125	22470
882.252	22721
882.378	22592
882.505	22828
882.631	22706
882.757	22649
882.883	22557
883.01	22580
883.136	22462
883.262	22474
883.388	22352
883.514	22428
883.64	22599
883.766	22424
883.892	22333
884.018	22318
884.143	22447
884.269	22554
884.395	22181
884.52	22265
884.646	22272
884.772	22188
884.897	22120
885.023	22192
885.148	22322
885.274	22325
885.399	22166
885.524	22051
885.65	21979
885.775	21774
885.9	21610
886.025	21526
886.15	21317
886.275	21241
886.4	20944
886.525	20960
886.65	20849
886.775	20777
886.9	20739
887.025	20686
887.149	20484
887.274	20202
887.399	20062
887.523	19967
887.648	19967
887.773	19765
887.897	19925
888.021	19753
888.146	19632
888.27	19715
888.395	19651
888.519	19616
888.643	19491
888.767	19365
888.891	19335
889.015	19091
889.139	19251
889.263	19145
889.387	19133
889.511	19297
889.635	19107
889.759	18943
889.883	18875
890.006	18966
890.13	18985
890.254	18711
890.377	18844
890.501	18521
890.624	18479
890.748	18521
890.871	18410
890.995	18342
891.118	18152
891.241	18239
891.364	18300
891.488	18376
891.611	18182
891.734	18144
891.857	18174
891.98	18091
892.103	18057
892.226	18038
892.349	17973
892.471	17893
892.594	18003
892.717	17958
892.839	17889
892.962	17897
893.085	17912
893.207	17866
893.33	17638
893.452	17741
893.575	17813
893.697	17733
893.819	17710
893.941	17927
894.064	17843
894.186	17646
894.308	17562
894.43	17657
894.552	17733
894.674	17726
894.796	17554
894.918	17547
895.04	17573
895.161	17558
895.283	17615
895.405	17391
895.526	17535
895.648	17490
895.769	17486
895.891	17478
896.012	17490
896.134	17505
896.255	17372
896.376	17391
896.498	17425
896.619	17463
896.74	17448
896.861	17455
896.982	17783
897.103	17779
897.224	17646
897.345	17638
897.466	17562
897.587	17672
897.708	17684
897.828	17707
897.949	17600
898.07	17478
898.19	17608
898.311	17653
898.431	17543
898.552	17570
898.672	17687
898.792	17707
898.913	17547
899.033	17558
899.153	17330
899.273	17307
899.393	17341
899.513	17471
899.633	17391
899.753	17364
899.873	17269
899.993	17482
900.113	17284
900.232	17265
900.352	17303
900.472	17296
900.591	17227
900.711	17299
900.83	17200
900.95	17231
901.069	17337
901.189	17071
901.308	16820
901.427	16809
901.546	16831
901.665	16858
901.784	16866
901.904	16660
902.023	16500
902.141	16417
902.26	16325
902.379	16417
902.498	16230
902.617	16188
902.735	16272
902.854	16124
902.973	16158
903.091	15960
903.21	15979
903.328	15899
903.446	15873
903.565	15652
903.683	15724
903.801	15644
903.919	15690
904.038	15709
904.156	15370
904.274	15701
904.392	15530
904.51	15412
904.627	15458
904.745	15492
904.863	15511
904.981	15226
905.098	15070
905.216	15077
905.334	15165
905.451	15211
905.569	15062
905.686	15135
905.803	15112
905.921	14880
906.038	14952
906.155	14819
906.272	14788
906.389	14807
906.506	14617
906.623	14640
906.74	14594
906.857	14522
906.974	14533
907.091	14735
907.208	14785
907.324	14564
907.441	14533
907.557	14355
907.674	14366
907.79	14153
907.907	14294
908.023	14320
908.139	14336
908.256	14320
908.372	14187
908.488	14278
908.604	14126
908.72	14016
908.836	14092
908.952	14111
909.068	14142
909.184	14134
909.3	13955
909.415	14031
909.531	14050
909.647	13795
909.762	13849
909.878	13674
909.993	13837
910.108	13769
910.224	13788
910.339	13750
910.454	13677
910.57	13689
910.685	13605
910.8	13833
910.915	13791
911.03	13605
911.145	13445
911.259	13460
911.374	13468
911.489	13327
911.604	13304
911.718	13190
911.833	13308
911.947	13099
912.062	13118
912.176	13168
912.291	13255
912.405	13114
912.519	13396
912.633	13415
912.748	13156
912.862	13126
912.976	13008
913.09	12970
913.204	13027
913.318	13084
913.431	13209
913.545	13133
913.659	13209
913.772	13019
913.886	12844
914	12909
914.113	12970
914.226	12996
914.34	13034
914.453	12825
914.566	12928
914.68	12852
914.793	12871
914.906	12582
915.019	12620
915.132	12582
915.245	12635
915.358	12646
915.47	12627
915.583	12551
915.696	12604
915.809	12810
915.921	12745
916.034	12669
916.146	12544
916.259	12509
916.371	12593
916.483	12631
916.595	12555
916.708	12654
916.82	12528
916.932	12574
917.044	12608
917.156	12566
917.268	12437
917.38	12445
917.491	12376
917.603	12426
917.715	12422
917.826	12441
917.938	12437
918.049	12266
918.161	12323
918.272	12486
918.384	12475
918.495	12285
918.606	12247
918.717	12019
918.828	12136
918.939	12114
919.05	12110
919.161	12098
919.272	11882
919.383	11954
919.494	12205
919.604	12334
919.715	12110
919.826	12068
919.936	12041
920.047	12296
920.157	12209
920.267	12429
920.378	12194
920.488	12144
920.598	12247
920.708	12517
920.818	12228
920.928	12254
921.038	12456
921.148	12437
921.258	12136
921.368	12049
921.477	11923
921.587	11927
921.697	11821
921.806	11889
921.916	11786
922.025	11634
922.134	11596
922.244	11589
922.353	11611
922.462	11493
922.571	11398
922.68	11273
922.789	11231
922.898	11220
923.007	11124
923.116	11288
923.224	11223
923.333	11216
923.442	11128
923.55	11079
923.659	11064
923.767	11178
923.876	11006
923.984	11151
924.092	11018
924.201	11056
924.309	11003
924.417	11067
924.525	11006
924.633	10980
924.741	11672
924.849	10763
924.956	10881
925.064	10752
925.172	10759
925.279	10755
925.387	10843
925.494	10828
925.602	10938
925.709	10900
925.816	10725
925.924	10759
926.031	10889
926.138	10801
926.245	10847
926.352	10691
926.459	10831
926.566	10850
926.673	10725
926.779	10584
926.886	10550
926.993	10470
927.099	10394
927.206	10428
927.312	10337
927.419	10451
927.525	10371
927.631	10432
927.737	10386
927.843	10325
927.95	10169
928.056	10211
928.162	10276
928.267	10352
928.373	10991
928.479	10405
928.585	10223
928.69	10306
928.796	10314
928.901	10105
929.007	10032
929.112	10158
929.218	10154
929.323	10093
929.428	9991
929.533	10253
929.638	10059
929.743	10051
929.848	10128
929.953	9998
930.058	9922
930.163	9797
930.267	9789
930.372	9979
930.477	9732
930.581	9994
930.685	9831
930.79	9819
930.894	9732
930.998	9728
931.103	9831
931.207	9580
931.311	9447
931.415	9355
931.519	9207
931.623	9100
