Data from test_V78500241_2061.txt Node
Date: Fri Mar 25 14:48:03 CST 2022
User: usil
Spectrometer: V785-0024
Trigger mode: 0
Integration Time (sec): 4.000000E-1
Scans to average: 1
Nonlinearity correction enabled: false
Boxcar width: 0
Storing dark spectrum: false
XAxis mode: Wavelengths
Number of Pixels in Spectrum: 1024
>>>>>Begin Spectral Data<<<<<
801.071	22040
801.214	21998
801.356	21816
801.499	21633
801.641	21583
801.783	21431
801.926	21515
802.068	21507
802.211	21428
802.353	21222
802.496	21055
802.638	20914
802.78	20921
802.923	20842
803.065	20796
803.208	20773
803.35	20758
803.492	20826
803.635	20899
803.777	20693
803.919	20933
804.061	21055
804.204	20948
804.346	20712
804.488	20762
804.63	20765
804.773	20632
804.915	20651
805.057	20781
805.199	20678
805.341	20864
805.483	21001
805.626	20872
805.768	20667
805.91	20815
806.052	20697
806.194	20663
806.336	20823
806.478	20625
806.62	20678
806.762	20842
806.904	20872
807.046	21165
807.188	21028
807.33	21142
807.472	21184
807.614	20986
807.756	20960
807.898	20838
808.04	20796
808.182	20777
808.324	20804
808.465	20861
808.607	20891
808.749	21150
808.891	21203
809.033	21378
809.174	21089
809.316	21058
809.458	21051
809.6	21081
809.741	21146
809.883	21024
810.025	21252
810.166	21336
810.308	21245
810.45	21203
810.591	21123
810.733	21024
810.875	20845
811.016	20845
811.158	20792
811.299	20906
811.441	20975
811.582	20975
811.724	20842
811.865	20921
812.007	20853
812.148	20921
812.29	20891
812.431	20975
812.573	21233
812.714	21173
812.855	21428
812.997	21477
813.138	21564
813.279	21435
813.421	21340
813.562	21283
813.703	21249
813.845	21028
813.986	20689
814.127	20602
814.268	20476
814.41	20469
814.551	20355
814.692	20583
814.833	20339
814.974	20320
815.115	20347
815.256	20252
815.397	20259
815.539	20313
815.68	20206
815.821	20031
815.962	20210
816.103	20199
816.244	19913
816.385	19894
816.526	19811
816.666	19769
816.807	19529
816.948	19620
817.089	19757
817.23	19734
817.371	19575
817.512	19548
817.653	19567
817.793	19525
817.934	19487
818.075	19575
818.216	19506
818.356	19491
818.497	19339
818.638	19179
818.778	19255
818.919	19240
819.06	19247
819.2	19354
819.341	19476
819.481	19499
819.622	19540
819.762	19753
819.903	19647
820.043	19609
820.184	19575
820.324	19597
820.465	19643
820.605	19518
820.746	19434
820.886	19362
821.026	19480
821.167	19506
821.307	19491
821.447	19544
821.588	19358
821.728	19206
821.868	19183
822.008	18935
822.149	18882
822.289	18905
822.429	18688
822.569	18563
822.709	18540
822.849	18456
822.99	18429
823.13	18380
823.27	18334
823.41	18285
823.55	18121
823.69	18308
823.83	18220
823.97	18247
824.11	18034
824.25	17999
824.389	17969
824.529	18114
824.669	17942
824.809	18155
824.949	18057
825.089	18045
825.228	18083
825.368	17798
825.508	17923
825.648	17764
825.787	17786
825.927	17916
826.067	17630
826.206	17741
826.346	17748
826.485	17843
826.625	17672
826.765	17824
826.904	17855
827.044	17547
827.183	17463
827.323	17463
827.462	17600
827.601	17509
827.741	17497
827.88	17455
828.02	17265
828.159	17379
828.298	17528
828.437	17627
828.577	17478
828.716	17668
828.855	17429
828.994	17235
829.134	17242
829.273	17299
829.412	17231
829.551	17220
829.69	17147
829.829	17292
829.968	17395
830.107	17315
830.246	17330
830.385	17170
830.524	17041
830.663	17086
830.802	16919
830.941	16877
831.08	16790
831.219	16927
831.357	16869
831.496	17025
831.635	16816
831.774	16774
831.913	16839
832.051	16622
832.19	16641
832.329	16653
832.467	16626
832.606	16554
832.744	16512
832.883	16497
833.022	16561
833.16	16611
833.299	16573
833.437	16702
833.576	16592
833.714	16580
833.852	16538
833.991	16634
834.129	16672
834.267	16618
834.406	16512
834.544	16653
834.682	16577
834.821	16626
834.959	16778
835.097	16645
835.235	16656
835.373	16611
835.511	16554
835.65	16474
835.788	16485
835.926	16341
836.064	16337
836.202	16333
836.34	16577
836.478	16611
836.615	16421
836.753	16550
836.891	16596
837.029	16592
837.167	16599
837.305	16394
837.443	16459
837.58	16386
837.718	16443
837.856	16432
837.993	16265
838.131	16394
838.269	16299
838.406	16344
838.544	16295
838.681	16063
838.819	16109
838.956	15964
839.094	16025
839.231	16021
839.369	16158
839.506	16341
839.643	16128
839.781	15880
839.918	15823
840.055	15937
840.193	15994
840.33	15899
840.467	15930
840.604	15956
840.742	16158
840.879	15793
841.016	15819
841.153	15922
841.29	16063
841.427	15983
841.564	15994
841.701	16097
841.838	16017
841.975	15903
842.112	15899
842.249	15679
842.385	15690
842.522	15960
842.659	15728
842.796	15660
842.933	15778
843.069	15778
843.206	15660
843.343	15778
843.479	15785
843.616	15625
843.752	15553
843.889	15519
844.025	15625
844.162	15473
844.298	15568
844.435	15504
844.571	15557
844.708	15469
844.844	15686
844.98	15720
845.117	15656
845.253	15370
845.389	15416
845.525	15454
845.661	15393
845.798	15245
845.934	15275
846.07	15252
846.206	15466
846.342	15405
846.478	15283
846.614	15180
846.75	14967
846.886	15070
847.022	15241
847.158	15138
847.294	15104
847.429	15127
847.565	15093
847.701	15348
847.837	14804
847.972	14781
848.108	14785
848.244	14872
848.379	14727
848.515	14701
848.65	14667
848.786	14651
848.921	14629
849.057	14762
849.192	14731
849.328	14712
849.463	14796
849.598	14533
849.734	14670
849.869	14541
850.004	14457
850.14	14484
850.275	14450
850.41	14358
850.545	14389
850.68	14427
850.815	14457
850.95	14385
851.085	14564
851.22	14461
851.355	14454
851.49	14412
851.625	14393
851.76	14461
851.895	14332
852.03	14271
852.165	14415
852.299	14526
852.434	14503
852.569	14488
852.703	14594
852.838	14492
852.973	14598
853.107	14644
853.242	14339
853.376	14370
853.511	14183
853.645	14290
853.78	14488
853.914	14374
854.048	14278
854.183	14233
854.317	14385
854.451	14530
854.585	14278
854.72	14237
854.854	14415
854.988	14225
855.122	14263
855.256	14187
855.39	14305
855.524	14431
855.658	14415
855.792	14259
855.926	14400
856.06	14396
856.194	14408
856.327	14332
856.461	14343
856.595	14206
856.729	14195
856.862	14412
856.996	14263
857.13	14408
857.263	14419
857.397	14492
857.53	14320
857.664	14389
857.797	14320
857.931	14461
858.064	14408
858.197	14465
858.331	14286
858.464	14328
858.597	14195
858.731	14332
858.864	14267
858.997	14385
859.13	14347
859.263	14434
859.396	14370
859.529	14286
859.662	14240
859.795	14229
859.928	14355
860.061	14400
860.194	14503
860.327	14328
860.46	14225
860.592	14423
860.725	14381
860.858	14313
860.99	14290
861.123	14290
861.256	14290
861.388	14362
861.521	15058
861.653	14199
861.786	14065
861.918	14130
862.05	14263
862.183	14259
862.315	14347
862.447	14374
862.58	14229
862.712	14149
862.844	14043
862.976	14115
863.108	14107
863.24	14438
863.372	13947
863.504	14062
863.636	14012
863.768	14058
863.9	14123
864.032	14008
864.164	14096
864.296	14138
864.428	14199
864.559	14305
864.691	14199
864.823	14138
864.954	14123
865.086	14130
865.217	14130
865.349	14035
865.48	14039
865.612	14157
865.743	14244
865.875	14092
866.006	14107
866.137	14069
866.269	14126
866.4	13997
866.531	14119
866.662	14024
866.793	14046
866.924	13989
867.055	14005
867.186	13978
867.317	14046
867.448	13955
867.579	13974
867.71	13875
867.841	14096
867.972	14012
868.103	14062
868.233	14153
868.364	14024
868.495	14168
868.625	14278
868.756	14351
868.886	14324
869.017	14286
869.147	14442
869.278	14507
869.408	14248
869.539	14298
869.669	14450
869.799	14309
869.929	14389
870.06	14385
870.19	14583
870.32	14655
870.45	14579
870.58	14686
870.71	14815
870.84	14781
870.97	14640
871.1	14697
871.23	14830
871.36	14906
871.489	14937
871.619	14876
871.749	14967
871.879	15001
872.008	15036
872.138	14948
872.267	14880
872.397	14701
872.526	14777
872.656	14777
872.785	14762
872.915	14994
873.044	15013
873.173	14952
873.303	15001
873.432	14967
873.561	15017
873.69	15001
873.819	14998
873.948	15058
874.077	15058
874.206	14967
874.335	14979
874.464	15135
874.593	15260
874.722	15207
874.851	15283
874.979	15302
875.108	15344
875.237	15268
875.365	15203
875.494	15260
875.623	15344
875.751	15298
875.88	15340
876.008	15435
876.136	15492
876.265	15743
876.393	15819
876.521	15835
876.65	15804
876.778	15732
876.906	15682
877.034	15648
877.162	15644
877.29	15644
877.418	15694
877.546	15709
877.674	15720
877.802	15675
877.93	15709
878.058	15648
878.185	15603
878.313	15713
878.441	15823
878.568	15580
878.696	15717
878.824	15690
878.951	15800
879.079	15880
879.206	15968
879.333	15907
879.461	15686
879.588	15766
879.715	15880
879.842	16010
879.97	15785
880.097	15618
880.224	15466
880.351	15614
880.478	15622
880.605	15492
880.732	15549
880.859	15743
880.986	15485
881.112	15652
881.239	15435
881.366	15367
881.493	15256
881.619	15199
881.746	15233
881.872	15123
881.999	15237
882.125	15184
882.252	15287
882.378	15188
882.505	15397
882.631	15100
882.757	15013
882.883	15150
883.01	15024
883.136	14963
883.262	14887
883.388	14849
883.514	15104
883.64	15112
883.766	15051
883.892	14910
884.018	14872
884.143	15020
884.269	15119
884.395	14830
884.52	14777
884.646	14800
884.772	14663
884.897	14640
885.023	14739
885.148	14952
885.274	14891
885.399	14788
885.524	14674
885.65	14743
885.775	14697
885.9	14659
886.025	14872
886.15	14811
886.275	14731
886.4	14602
886.525	14720
886.65	14587
886.775	14648
886.9	14807
887.025	14960
887.149	14777
887.274	14564
887.399	14511
887.523	14533
887.648	14438
887.773	14473
887.897	14651
888.021	14606
888.146	14499
888.27	14648
888.395	14701
888.519	14640
888.643	14629
888.767	14621
888.891	14415
889.015	14396
889.139	14488
889.263	14408
889.387	14556
889.511	14625
889.635	14667
889.759	14370
889.883	14404
890.006	14473
890.13	14507
890.254	14385
890.377	14396
890.501	14275
890.624	14210
890.748	14225
890.871	14111
890.995	14138
891.118	14081
891.241	14119
891.364	14157
891.488	14237
891.611	14088
891.734	14164
891.857	14153
891.98	14149
892.103	14259
892.226	14119
892.349	14039
892.471	13951
892.594	14020
892.717	14077
892.839	14084
892.962	14065
893.085	14149
893.207	14142
893.33	13940
893.452	14016
893.575	14096
893.697	14088
893.819	14282
893.941	14240
894.064	14275
894.186	14008
894.308	14088
894.43	14237
894.552	14351
894.674	14229
894.796	14111
894.918	14187
895.04	14206
895.161	14221
895.283	14248
895.405	14134
895.526	14313
895.648	14206
895.769	14149
895.891	14282
896.012	14301
896.134	14336
896.255	14309
896.376	14233
896.498	14278
896.619	14275
896.74	14328
896.861	14328
896.982	14689
897.103	14712
897.224	14571
897.345	14590
897.466	14511
897.587	14621
897.708	14667
897.828	14488
897.949	14552
898.07	14396
898.19	14507
898.311	14632
898.431	14560
898.552	14663
898.672	14735
898.792	14659
898.913	14629
899.033	14632
899.153	14488
899.273	14374
899.393	14419
899.513	14499
899.633	14473
899.753	14560
899.873	14530
899.993	14541
900.113	14552
900.232	14537
900.352	14457
900.472	14313
900.591	14294
900.711	14408
900.83	14263
900.95	14419
901.069	14450
901.189	14240
901.308	14138
901.427	14020
901.546	14005
901.665	14103
901.784	14058
901.904	14039
902.023	13765
902.141	13609
902.26	13559
902.379	13643
902.498	13582
902.617	13594
902.735	13655
902.854	13620
902.973	13537
903.091	13369
903.21	13297
903.328	13297
903.446	13206
903.565	13194
903.683	13194
903.801	13042
903.919	13145
904.038	13114
904.156	12920
904.274	13095
904.392	12996
904.51	12920
904.627	13004
904.745	13034
904.863	13042
904.981	12840
905.098	12692
905.216	12719
905.334	12700
905.451	12681
905.569	12684
905.686	12627
905.803	12627
905.921	12547
906.038	12525
906.155	12525
906.272	12410
906.389	12399
906.506	12338
906.623	12372
906.74	12304
906.857	12178
906.974	12220
907.091	12315
907.208	12380
907.324	12334
907.441	12117
907.557	12110
907.674	11996
907.79	11996
907.907	11946
908.023	12041
908.139	12053
908.256	11939
908.372	11878
908.488	11931
908.604	11836
908.72	11824
908.836	11809
908.952	11783
909.068	11843
909.184	11878
909.3	11764
909.415	11908
909.531	11802
909.647	11649
909.762	11558
909.878	11608
909.993	11589
910.108	11611
910.224	11592
910.339	11615
910.454	11524
910.57	11452
910.685	11337
910.8	11668
910.915	11551
911.03	11425
911.145	11277
911.259	11197
911.374	11220
911.489	11227
911.604	11117
911.718	11102
911.833	11083
911.947	11006
912.062	10850
912.176	11041
912.291	11022
912.405	11022
912.519	11162
912.633	11204
912.748	11193
912.862	11048
912.976	10942
913.09	10866
913.204	10850
913.318	10976
913.431	11071
913.545	10938
913.659	11132
913.772	10949
913.886	10778
914	10801
914.113	10866
914.226	10881
914.34	10911
914.453	10679
914.566	10923
914.68	10759
914.793	10702
914.906	10546
915.019	10512
915.132	10443
915.245	10531
915.358	10546
915.47	10542
915.583	10588
915.696	10634
915.809	10797
915.921	10702
916.034	10519
916.146	10451
916.259	10485
916.371	10523
916.483	10546
916.595	10451
916.708	10516
916.82	10504
916.932	10474
917.044	10489
917.156	10489
917.268	10341
917.38	10402
917.491	10352
917.603	10360
917.715	10462
917.826	10405
917.938	10443
918.049	10303
918.161	10398
918.272	10493
918.384	10481
918.495	10447
918.606	10276
918.717	10177
918.828	10265
918.939	10299
919.05	10147
919.161	10192
919.272	10036
919.383	10147
919.494	10303
919.604	10443
919.715	10318
919.826	10166
919.936	10280
920.047	10341
920.157	10318
920.267	10493
920.378	10386
920.488	10303
920.598	10474
920.708	10599
920.818	10497
920.928	10424
921.038	10645
921.148	10538
921.258	10341
921.368	10185
921.477	10169
921.587	10090
921.697	9964
921.806	10169
921.916	10063
922.025	9838
922.134	9827
922.244	9724
922.353	9823
922.462	9656
922.571	9736
922.68	9557
922.789	9428
922.898	9587
923.007	9447
923.116	9545
923.224	9515
923.333	9504
923.442	9416
923.55	9393
923.659	9408
923.767	9462
923.876	9363
923.984	9492
924.092	9298
924.201	9397
924.309	9374
924.417	9302
924.525	9294
924.633	9355
924.741	10238
924.849	9169
924.956	9279
925.064	9119
925.172	9093
925.279	9131
925.387	9154
925.494	9161
925.602	9321
925.709	9237
925.816	9066
925.924	9142
926.031	9291
926.138	9203
926.245	9272
926.352	9074
926.459	9253
926.566	9294
926.673	9199
926.779	9032
926.886	8960
926.993	8895
927.099	8948
927.206	8902
927.312	8796
927.419	8921
927.525	8899
927.631	8952
927.737	8788
927.843	8804
927.95	8727
928.056	8804
928.162	8792
928.267	8849
928.373	9401
928.479	8887
928.585	8644
928.69	8762
928.796	8785
928.901	8705
929.007	8613
929.112	8781
929.218	8693
929.323	8571
929.428	8655
929.533	8727
929.638	8526
929.743	8545
929.848	8693
929.953	8560
930.058	8511
930.163	8328
930.267	8385
930.372	8537
930.477	8374
930.581	8594
930.685	8465
930.79	8282
930.894	8419
930.998	8275
931.103	8522
931.207	8035
931.311	8039
931.415	7925
931.519	7879
931.623	7792
