Data from test_V78500241_438.txt Node
Date: Fri Mar 25 14:36:46 CST 2022
User: usil
Spectrometer: V785-0024
Trigger mode: 0
Integration Time (sec): 4.000000E-1
Scans to average: 1
Nonlinearity correction enabled: false
Boxcar width: 0
Storing dark spectrum: false
XAxis mode: Wavelengths
Number of Pixels in Spectrum: 1024
>>>>>Begin Spectral Data<<<<<
801.071	26731
801.214	26476
801.356	26263
801.499	26225
801.641	26024
801.783	26001
801.926	26054
802.068	25860
802.211	25959
802.353	25845
802.496	25746
802.638	25655
802.78	25609
802.923	25582
803.065	25491
803.208	25533
803.35	25525
803.492	25594
803.635	25696
803.777	25495
803.919	25548
804.061	25875
804.204	25487
804.346	25491
804.488	25407
804.63	25521
804.773	25285
804.915	25533
805.057	25693
805.199	25559
805.341	25723
805.483	25628
805.626	25571
805.768	25594
805.91	25540
806.052	25632
806.194	25533
806.336	25765
806.478	25502
806.62	25491
806.762	25609
806.904	25860
807.046	25982
807.188	25928
807.33	26008
807.472	25936
807.614	25807
807.756	25795
807.898	25811
808.04	25643
808.182	25578
808.324	25677
808.465	25715
808.607	25947
808.749	26016
808.891	26077
809.033	26096
809.174	26084
809.316	26115
809.458	25997
809.6	26024
809.741	26020
809.883	26111
810.025	26229
810.166	26183
810.308	26100
810.45	26180
810.591	25970
810.733	25879
810.875	25826
811.016	25780
811.158	25913
811.299	25986
811.441	25898
811.582	25944
811.724	25913
811.865	25833
812.007	25799
812.148	25803
812.29	25803
812.431	26062
812.573	26084
812.714	26294
812.855	26278
812.997	26461
813.138	26560
813.279	26404
813.421	26412
813.562	26282
813.703	26221
813.845	26073
813.986	25708
814.127	25616
814.268	25460
814.41	25464
814.551	25533
814.692	25552
814.833	25324
814.974	25373
815.115	25476
815.256	25221
815.397	25354
815.539	25236
815.68	25129
815.821	25141
815.962	25141
816.103	25042
816.244	24954
816.385	24954
816.526	24977
816.666	24589
816.807	24585
816.948	24616
817.089	24776
817.23	24601
817.371	24604
817.512	24616
817.653	24464
817.793	24517
817.934	24452
818.075	24479
818.216	24517
818.356	24471
818.497	24281
818.638	24228
818.778	24209
818.919	24273
819.06	24300
819.2	24391
819.341	24380
819.481	24433
819.622	24688
819.762	24844
819.903	24719
820.043	24498
820.184	24498
820.324	24570
820.465	24532
820.605	24650
820.746	24471
820.886	24410
821.026	24433
821.167	24426
821.307	24566
821.447	24486
821.588	24247
821.728	24190
821.868	24015
822.008	23931
822.149	24011
822.289	23984
822.429	23634
822.569	23551
822.709	23524
822.849	23330
822.99	23315
823.13	23372
823.27	23341
823.41	23212
823.55	23014
823.69	23105
823.83	23174
823.97	23155
824.11	22866
824.25	22961
824.389	22854
824.529	22968
824.669	22934
824.809	23067
824.949	22953
825.089	23025
825.228	22877
825.368	22782
825.508	22725
825.648	22790
825.787	22653
825.927	22759
826.067	22573
826.206	22637
826.346	22702
826.485	22698
826.625	22679
826.765	22786
826.904	22801
827.044	22466
827.183	22462
827.323	22367
827.462	22379
827.601	22303
827.741	22268
827.88	22379
828.02	22215
828.159	22462
828.298	22356
828.437	22455
828.577	22207
828.716	22474
828.855	22177
828.994	22166
829.134	22055
829.273	22124
829.412	22002
829.551	22063
829.69	22013
829.829	22059
829.968	22177
830.107	22082
830.246	22093
830.385	21941
830.524	21869
830.663	21873
830.802	21838
830.941	21705
831.08	21663
831.219	21663
831.357	21736
831.496	21739
831.635	21561
831.774	21428
831.913	21538
832.051	21355
832.19	21336
832.329	21454
832.467	21370
832.606	21298
832.744	21249
832.883	21245
833.022	21211
833.16	21241
833.299	21374
833.437	21119
833.576	21382
833.714	21306
833.852	21348
833.991	21382
834.129	21431
834.267	21378
834.406	21199
834.544	21245
834.682	21378
834.821	21454
834.959	21469
835.097	21252
835.235	21382
835.373	21310
835.511	21321
835.65	21081
835.788	21154
835.926	20967
836.064	21024
836.202	21036
836.34	21214
836.478	21211
836.615	21135
836.753	21093
836.891	21218
837.029	21291
837.167	21077
837.305	21062
837.443	21047
837.58	20952
837.718	20994
837.856	21093
837.993	21024
838.131	21066
838.269	20857
838.406	20842
838.544	20971
838.681	20587
838.819	20564
838.956	20473
839.094	20552
839.231	20537
839.369	20602
839.506	20838
839.643	20716
839.781	20415
839.918	20423
840.055	20427
840.193	20374
840.33	20313
840.467	20351
840.604	20282
840.742	20606
840.879	20214
841.016	20286
841.153	20191
841.29	20419
841.427	20396
841.564	20362
841.701	20374
841.838	20298
841.975	20374
842.112	20214
842.249	20130
842.385	20050
842.522	20347
842.659	20149
842.796	20031
842.933	20100
843.069	20012
843.206	20039
843.343	20062
843.479	20157
843.616	20115
843.752	19959
843.889	19913
844.025	20058
844.162	19879
844.298	19868
844.435	19833
844.571	19890
844.708	19856
844.844	20077
844.98	19944
845.117	19879
845.253	19772
845.389	19860
845.525	19719
845.661	19715
845.798	19693
845.934	19609
846.07	19499
846.206	19674
846.342	19791
846.478	19620
846.614	19373
846.75	19445
846.886	19373
847.022	19411
847.158	19358
847.294	19373
847.429	19324
847.565	19327
847.701	19476
847.837	19122
847.972	18985
848.108	19175
848.244	19027
848.379	18928
848.515	18951
848.65	18905
848.786	18939
848.921	18791
849.057	18909
849.192	18935
849.328	18905
849.463	18901
849.598	18745
849.734	18810
849.869	18650
850.004	18677
850.14	18776
850.275	18631
850.41	18521
850.545	18627
850.68	18570
850.815	18642
850.95	18661
851.085	18783
851.22	18776
851.355	18639
851.49	18601
851.625	18551
851.76	18658
851.895	18433
852.03	18456
852.165	18601
852.299	18585
852.434	18715
852.569	18486
852.703	18521
852.838	18669
852.973	18696
853.107	18741
853.242	18395
853.376	18532
853.511	18273
853.645	18426
853.78	18547
853.914	18380
854.048	18426
854.183	18426
854.317	18403
854.451	18639
854.585	18441
854.72	18376
854.854	18498
854.988	18315
855.122	18342
855.256	18228
855.39	18372
855.524	18490
855.658	18418
855.792	18506
855.926	18399
856.06	18452
856.194	18464
856.327	18391
856.461	18384
856.595	18376
856.729	18471
856.862	18509
856.996	18403
857.13	18445
857.263	18521
857.397	18597
857.53	18353
857.664	18540
857.797	18502
857.931	18502
858.064	18357
858.197	18467
858.331	18277
858.464	18369
858.597	18216
858.731	18323
858.864	18410
858.997	18395
859.13	18251
859.263	18289
859.396	18486
859.529	18190
859.662	18350
859.795	18262
859.928	18426
860.061	18502
860.194	18498
860.327	18266
860.46	18254
860.592	18433
860.725	18532
860.858	18391
860.99	18376
861.123	18319
861.256	18353
861.388	18388
861.521	19076
861.653	18289
861.786	18167
861.918	18304
862.05	18285
862.183	18429
862.315	18437
862.447	18452
862.58	18437
862.712	18087
862.844	18125
862.976	18190
863.108	18148
863.24	18464
863.372	18057
863.504	18091
863.636	18121
863.768	18125
863.9	18098
864.032	17942
864.164	18060
864.296	18072
864.428	18201
864.559	18148
864.691	18136
864.823	18110
864.954	17977
865.086	17977
865.217	18015
865.349	17996
865.48	17931
865.612	17980
865.743	18159
865.875	18015
866.006	17961
866.137	17988
866.269	18011
866.4	17927
866.531	18030
866.662	17889
866.793	17912
866.924	18007
867.055	17878
867.186	17912
867.317	17931
867.448	17779
867.579	17836
867.71	17824
867.841	17836
867.972	17885
868.103	17946
868.233	17992
868.364	17996
868.495	18007
868.625	18136
868.756	18281
868.886	18106
869.017	18155
869.147	18228
869.278	18243
869.408	18121
869.539	18076
869.669	18213
869.799	18167
869.929	18410
870.06	18247
870.19	18479
870.32	18403
870.45	18437
870.58	18612
870.71	18601
870.84	18639
870.97	18559
871.1	18566
871.23	18787
871.36	18726
871.489	18620
871.619	18661
871.749	18722
871.879	18745
872.008	18966
872.138	18787
872.267	18734
872.397	18642
872.526	18563
872.656	18521
872.785	18696
872.915	18703
873.044	18939
873.173	18787
873.303	18947
873.432	18802
873.561	18749
873.69	18791
873.819	18810
873.948	18867
874.077	18798
874.206	18722
874.335	18791
874.464	18920
874.593	19110
874.722	18943
874.851	19118
874.979	19175
875.108	19126
875.237	19057
875.365	19057
875.494	19069
875.623	19129
875.751	19091
875.88	19225
876.008	19114
876.136	19217
876.265	19590
876.393	19628
876.521	19460
876.65	19586
876.778	19499
876.906	19441
877.034	19377
877.162	19434
877.29	19430
877.418	19567
877.546	19556
877.674	19388
877.802	19472
877.93	19449
878.058	19407
878.185	19343
878.313	19499
878.441	19533
878.568	19293
878.696	19346
878.824	19491
878.951	19578
879.079	19620
879.206	19883
879.333	19681
879.461	19460
879.588	19594
879.715	19689
879.842	19830
879.97	19453
880.097	19263
880.224	19259
880.351	19392
880.478	19392
880.605	19354
880.732	19316
880.859	19460
880.986	19346
881.112	19343
881.239	19190
881.366	19053
881.493	18920
881.619	18981
881.746	18993
881.872	18916
881.999	18916
882.125	18852
882.252	18863
882.378	18928
882.505	19072
882.631	18985
882.757	18700
882.883	18798
883.01	18825
883.136	18639
883.262	18635
883.388	18566
883.514	18764
883.64	18753
883.766	18612
883.892	18597
884.018	18608
884.143	18665
884.269	18745
884.395	18471
884.52	18350
884.646	18395
884.772	18342
884.897	18281
885.023	18410
885.148	18395
885.274	18555
885.399	18407
885.524	18365
885.65	18437
885.775	18471
885.9	18372
886.025	18532
886.15	18376
886.275	18292
886.4	18247
886.525	18277
886.65	18190
886.775	18296
886.9	18448
887.025	18506
887.149	18315
887.274	18144
887.399	18125
887.523	18224
887.648	18038
887.773	18045
887.897	18163
888.021	18182
888.146	18125
888.27	18098
888.395	18258
888.519	18220
888.643	18209
888.767	18186
888.891	17992
889.015	17992
889.139	17916
889.263	17863
889.387	18125
889.511	18041
889.635	18186
889.759	17973
889.883	17927
890.006	18022
890.13	18102
890.254	17885
890.377	17904
890.501	17714
890.624	17729
890.748	17836
890.871	17684
890.995	17551
891.118	17433
891.241	17539
891.364	17551
891.488	17729
891.611	17539
891.734	17589
891.857	17570
891.98	17562
892.103	17634
892.226	17630
892.349	17440
892.471	17512
892.594	17429
892.717	17528
892.839	17463
892.962	17471
893.085	17570
893.207	17482
893.33	17379
893.452	17448
893.575	17596
893.697	17509
893.819	17726
893.941	17722
894.064	17657
894.186	17482
894.308	17349
894.43	17661
894.552	17699
894.674	17630
894.796	17627
894.918	17623
895.04	17444
895.161	17649
895.283	17653
895.405	17512
895.526	17554
895.648	17452
895.769	17687
895.891	17505
896.012	17562
896.134	17630
896.255	17615
896.376	17547
896.498	17668
896.619	17558
896.74	17604
896.861	17528
896.982	17931
897.103	18121
897.224	17939
897.345	17866
897.466	17809
897.587	17885
897.708	17954
897.828	17901
897.949	17722
898.07	17771
898.19	17836
898.311	17935
898.431	17733
898.552	17760
898.672	17920
898.792	17996
898.913	17836
899.033	17733
899.153	17672
899.273	17539
899.393	17634
899.513	17547
899.633	17577
899.753	17642
899.873	17638
899.993	17661
900.113	17619
900.232	17649
900.352	17585
900.472	17501
900.591	17372
900.711	17474
900.83	17402
900.95	17570
901.069	17528
901.189	17543
901.308	17124
901.427	17102
901.546	17124
901.665	17022
901.784	17079
901.904	17010
902.023	16923
902.141	16725
902.26	16603
902.379	16660
902.498	16615
902.617	16645
902.735	16588
902.854	16531
902.973	16565
903.091	16337
903.21	16238
903.328	16192
903.446	16280
903.565	16162
903.683	16013
903.801	16029
903.919	16074
904.038	16105
904.156	15861
904.274	15949
904.392	15846
904.51	15926
904.627	15884
904.745	15869
904.863	15838
904.981	15599
905.098	15545
905.216	15622
905.334	15545
905.451	15477
905.569	15496
905.686	15580
905.803	15610
905.921	15329
906.038	15526
906.155	15386
906.272	15291
906.389	15359
906.506	15032
906.623	15116
906.74	15043
906.857	15036
906.974	15013
907.091	15138
907.208	15268
907.324	15051
907.441	14937
907.557	14883
907.674	14796
907.79	14823
907.907	14849
908.023	14758
908.139	14842
908.256	14739
908.372	14746
908.488	14640
908.604	14465
908.72	14522
908.836	14552
908.952	14427
909.068	14587
909.184	14625
909.3	14469
909.415	14560
909.531	14587
909.647	14233
909.762	14294
909.878	14142
909.993	14195
910.108	14157
910.224	14214
910.339	14210
910.454	14134
910.57	14012
910.685	13974
910.8	14332
910.915	14130
911.03	14111
911.145	13947
911.259	13879
911.374	13856
911.489	13845
911.604	13753
911.718	13658
911.833	13655
911.947	13506
912.062	13335
912.176	13571
912.291	13586
912.405	13605
912.519	13822
912.633	13761
912.748	13780
912.862	13582
912.976	13518
913.09	13301
913.204	13445
913.318	13434
913.431	13457
913.545	13525
913.659	13620
913.772	13483
913.886	13362
914	13266
914.113	13430
914.226	13373
914.34	13354
914.453	13244
914.566	13377
914.68	13202
914.793	13118
914.906	13000
915.019	12947
915.132	12958
915.245	12962
915.358	12859
915.47	13076
915.583	12981
915.696	13000
915.809	13122
915.921	13152
916.034	13042
916.146	12962
916.259	12772
916.371	13046
916.483	12886
916.595	12848
916.708	12844
916.82	12882
916.932	12753
917.044	12749
917.156	12897
917.268	12593
917.38	12700
917.491	12711
917.603	12707
917.715	12700
917.826	12753
917.938	12612
918.049	12578
918.161	12620
918.272	12741
918.384	12791
918.495	12700
918.606	12589
918.717	12433
918.828	12566
918.939	12506
919.05	12422
919.161	12422
919.272	12239
919.383	12296
919.494	12498
919.604	12631
919.715	12460
919.826	12372
919.936	12502
920.047	12547
920.157	12517
920.267	12627
920.378	12513
920.488	12467
920.598	12635
920.708	12791
920.818	12608
920.928	12612
921.038	12719
921.148	12700
921.258	12407
921.368	12300
921.477	12273
921.587	12220
921.697	12064
921.806	12281
921.916	12148
922.025	11984
922.134	11935
922.244	11897
922.353	11920
922.462	11809
922.571	11680
922.68	11539
922.789	11611
922.898	11577
923.007	11474
923.116	11566
923.224	11539
923.333	11566
923.442	11509
923.55	11391
923.659	11429
923.767	11444
923.876	11303
923.984	11395
924.092	11334
924.201	11372
924.309	11311
924.417	11429
924.525	11277
924.633	11345
924.741	12289
924.849	11143
924.956	11254
925.064	11132
925.172	10995
925.279	11056
925.387	11197
925.494	11071
925.602	11239
925.709	11067
925.816	11010
925.924	11037
926.031	11102
926.138	11086
926.245	11079
926.352	10949
926.459	11121
926.566	11083
926.673	10946
926.779	10961
926.886	10828
926.993	10778
927.099	10736
927.206	10649
927.312	10660
927.419	10801
927.525	10755
927.631	10786
927.737	10637
927.843	10538
927.95	10561
928.056	10592
928.162	10577
928.267	10683
928.373	11208
928.479	10565
928.585	10386
928.69	10626
928.796	10573
928.901	10459
929.007	10341
929.112	10432
929.218	10462
929.323	10428
929.428	10291
929.533	10516
929.638	10360
929.743	10375
929.848	10352
929.953	10276
930.058	10219
930.163	10120
930.267	10036
930.372	10147
930.477	10002
930.581	10227
930.685	10135
930.79	10071
930.894	10025
930.998	9987
931.103	10147
931.207	9709
931.311	9698
931.415	9690
931.519	9439
931.623	9401
