Data from test_V78500241_2631.txt Node
Date: Fri Mar 25 14:52:02 CST 2022
User: usil
Spectrometer: V785-0024
Trigger mode: 0
Integration Time (sec): 4.000000E-1
Scans to average: 1
Nonlinearity correction enabled: false
Boxcar width: 0
Storing dark spectrum: false
XAxis mode: Wavelengths
Number of Pixels in Spectrum: 1024
>>>>>Begin Spectral Data<<<<<
801.071	21968
801.214	21846
801.356	21755
801.499	21606
801.641	21416
801.783	21336
801.926	21431
802.068	21382
802.211	21157
802.353	21020
802.496	21039
802.638	20921
802.78	20864
802.923	20705
803.065	20701
803.208	20663
803.35	20629
803.492	20807
803.635	20857
803.777	20682
803.919	20731
804.061	20982
804.204	20804
804.346	20552
804.488	20629
804.63	20632
804.773	20560
804.915	20659
805.057	20724
805.199	20552
805.341	20674
805.483	20655
805.626	20785
805.768	20609
805.91	20655
806.052	20533
806.194	20431
806.336	20956
806.478	20514
806.62	20640
806.762	20503
806.904	20731
807.046	21036
807.188	20918
807.33	20944
807.472	20952
807.614	20864
807.756	20937
807.898	20621
808.04	20552
808.182	20556
808.324	20678
808.465	20838
808.607	20910
808.749	20990
808.891	21131
809.033	21116
809.174	20925
809.316	20929
809.458	20944
809.6	20887
809.741	21108
809.883	21013
810.025	21104
810.166	21074
810.308	21024
810.45	21028
810.591	20982
810.733	20811
810.875	20743
811.016	20613
811.158	20632
811.299	20762
811.441	20849
811.582	20765
811.724	20724
811.865	20800
812.007	20823
812.148	20716
812.29	20743
812.431	20918
812.573	20979
812.714	21230
812.855	21351
812.997	21275
813.138	21378
813.279	21321
813.421	21245
813.562	21108
813.703	21058
813.845	20925
813.986	20579
814.127	20328
814.268	20412
814.41	20351
814.551	20351
814.692	20328
814.833	20229
814.974	20164
815.115	20263
815.256	20096
815.397	20202
815.539	20073
815.68	20092
815.821	19879
815.962	20008
816.103	20107
816.244	19826
816.385	19727
816.526	19769
816.666	19609
816.807	19354
816.948	19525
817.089	19533
817.23	19514
817.371	19445
817.512	19422
817.653	19358
817.793	19373
817.934	19285
818.075	19449
818.216	19400
818.356	19335
818.497	19190
818.638	19038
818.778	19034
818.919	19012
819.06	19091
819.2	19236
819.341	19148
819.481	19396
819.622	19419
819.762	19643
819.903	19521
820.043	19472
820.184	19400
820.324	19422
820.465	19419
820.605	19282
820.746	19426
820.886	19274
821.026	19358
821.167	19331
821.307	19476
821.447	19430
821.588	19274
821.728	19095
821.868	18935
822.008	18745
822.149	18783
822.289	18764
822.429	18559
822.569	18441
822.709	18407
822.849	18277
822.99	18224
823.13	18190
823.27	18369
823.41	18098
823.55	18064
823.69	18095
823.83	18159
823.97	18053
824.11	17961
824.25	17874
824.389	17893
824.529	18003
824.669	17843
824.809	18003
824.949	18007
825.089	17977
825.228	17916
825.368	17878
825.508	17653
825.648	17699
825.787	17733
825.927	17767
826.067	17710
826.206	17691
826.346	17661
826.485	17741
826.625	17737
826.765	17779
826.904	17661
827.044	17398
827.183	17474
827.323	17353
827.462	17455
827.601	17433
827.741	17467
827.88	17448
828.02	17330
828.159	17368
828.298	17395
828.437	17478
828.577	17341
828.716	17467
828.855	17356
828.994	17056
829.134	17140
829.273	17277
829.412	17140
829.551	17071
829.69	16995
829.829	17098
829.968	17254
830.107	17136
830.246	17181
830.385	17113
830.524	17006
830.663	16938
830.802	16839
830.941	16797
831.08	16782
831.219	16862
831.357	16820
831.496	16984
831.635	16839
831.774	16634
831.913	16744
832.051	16672
832.19	16569
832.329	16713
832.467	16459
832.606	16424
832.744	16436
832.883	16459
833.022	16432
833.16	16550
833.299	16618
833.437	16474
833.576	16565
833.714	16523
833.852	16554
833.991	16584
834.129	16611
834.267	16618
834.406	16519
834.544	16550
834.682	16523
834.821	16550
834.959	16824
835.097	16542
835.235	16615
835.373	16516
835.511	16516
835.65	16497
835.788	16409
835.926	16360
836.064	16223
836.202	16246
836.34	16485
836.478	16462
836.615	16489
836.753	16466
836.891	16523
837.029	16508
837.167	16436
837.305	16276
837.443	16325
837.58	16318
837.718	16428
837.856	16268
837.993	16337
838.131	16238
838.269	16204
838.406	16211
838.544	16173
838.681	16048
838.819	15991
838.956	15880
839.094	15816
839.231	15884
839.369	16051
839.506	16219
839.643	16147
839.781	15983
839.918	15880
840.055	15831
840.193	15842
840.33	15747
840.467	15793
840.604	15895
840.742	16154
840.879	15774
841.016	15808
841.153	15861
841.29	15903
841.427	15888
841.564	15956
841.701	15926
841.838	15778
841.975	15728
842.112	15831
842.249	15724
842.385	15682
842.522	15751
842.659	15694
842.796	15538
842.933	15713
843.069	15587
843.206	15557
843.343	15690
843.479	15637
843.616	15675
843.752	15523
843.889	15401
844.025	15694
844.162	15325
844.298	15530
844.435	15386
844.571	15454
844.708	15466
844.844	15667
844.98	15618
845.117	15466
845.253	15416
845.389	15279
845.525	15332
845.661	15302
845.798	15184
845.934	15329
846.07	15195
846.206	15321
846.342	15321
846.478	15317
846.614	15039
846.75	15043
846.886	15066
847.022	15024
847.158	15013
847.294	14952
847.429	15032
847.565	14952
847.701	15233
847.837	14815
847.972	14716
848.108	14861
848.244	14773
848.379	14686
848.515	14705
848.65	14587
848.786	14644
848.921	14693
849.057	14758
849.192	14670
849.328	14697
849.463	14682
849.598	14564
849.734	14590
849.869	14549
850.004	14393
850.14	14404
850.275	14419
850.41	14309
850.545	14355
850.68	14415
850.815	14313
850.95	14404
851.085	14484
851.22	14484
851.355	14374
851.49	14374
851.625	14282
851.76	14324
851.895	14229
852.03	14313
852.165	14400
852.299	14317
852.434	14385
852.569	14450
852.703	14423
852.838	14396
852.973	14526
853.107	14438
853.242	14358
853.376	14320
853.511	14062
853.645	14301
853.78	14412
853.914	14256
854.048	14259
854.183	14237
854.317	14282
854.451	14415
854.585	14248
854.72	14221
854.854	14320
854.988	14214
855.122	14237
855.256	14164
855.39	14271
855.524	14301
855.658	14294
855.792	14286
855.926	14355
856.06	14301
856.194	14290
856.327	14328
856.461	14164
856.595	14191
856.729	14229
856.862	14446
856.996	14298
857.13	14370
857.263	14362
857.397	14454
857.53	14298
857.664	14259
857.797	14404
857.931	14461
858.064	14256
858.197	14358
858.331	14225
858.464	14271
858.597	14145
858.731	14290
858.864	14210
858.997	14180
859.13	14298
859.263	14157
859.396	14336
859.529	14145
859.662	14275
859.795	14153
859.928	14286
860.061	14415
860.194	14427
860.327	14229
860.46	14278
860.592	14370
860.725	14408
860.858	14366
860.99	14237
861.123	14172
861.256	14233
861.388	14180
861.521	14864
861.653	14088
861.786	14073
861.918	14088
862.05	14115
862.183	14180
862.315	14290
862.447	14286
862.58	14191
862.712	14031
862.844	13959
862.976	14073
863.108	14046
863.24	14492
863.372	13967
863.504	14027
863.636	13978
863.768	14119
863.9	14012
864.032	13917
864.164	13986
864.296	14142
864.428	14130
864.559	14077
864.691	14168
864.823	14187
864.954	14123
865.086	14031
865.217	14107
865.349	13826
865.48	14031
865.612	14027
865.743	14142
865.875	13925
866.006	13967
866.137	14039
866.269	13967
866.4	14065
866.531	14020
866.662	13917
866.793	13982
866.924	13986
867.055	13898
867.186	14020
867.317	13932
867.448	13883
867.579	13993
867.71	13932
867.841	13928
867.972	14058
868.103	14050
868.233	14020
868.364	14008
868.495	14035
868.625	14187
868.756	14396
868.886	14168
869.017	14290
869.147	14370
869.278	14374
869.408	14290
869.539	14275
869.669	14336
869.799	14347
869.929	14343
870.06	14343
870.19	14625
870.32	14625
870.45	14629
870.58	14552
870.71	14811
870.84	14902
870.97	14644
871.1	14667
871.23	14826
871.36	14769
871.489	14689
871.619	14826
871.749	14769
871.879	14853
872.008	15028
872.138	14838
872.267	14746
872.397	14758
872.526	14648
872.656	14629
872.785	14686
872.915	14864
873.044	14937
873.173	14857
873.303	14971
873.432	14910
873.561	15028
873.69	14857
873.819	14838
873.948	15032
874.077	14857
874.206	14853
874.335	14960
874.464	15085
874.593	15100
874.722	15146
874.851	15252
874.979	15291
875.108	15294
875.237	15169
875.365	15081
875.494	15169
875.623	15252
875.751	15230
875.88	15260
876.008	15450
876.136	15420
876.265	15610
876.393	15762
876.521	15720
876.65	15739
876.778	15591
876.906	15538
877.034	15561
877.162	15614
877.29	15572
877.418	15720
877.546	15568
877.674	15637
877.802	15648
877.93	15686
878.058	15663
878.185	15496
878.313	15519
878.441	15587
878.568	15477
878.696	15591
878.824	15728
878.951	15732
879.079	15808
879.206	16002
879.333	15682
879.461	15641
879.588	15690
879.715	15808
879.842	15884
879.97	15732
880.097	15454
880.224	15416
880.351	15618
880.478	15519
880.605	15466
880.732	15401
880.859	15709
880.986	15606
881.112	15564
881.239	15389
881.366	15260
881.493	15192
881.619	15055
881.746	15192
881.872	15062
881.999	15055
882.125	15104
882.252	15199
882.378	15211
882.505	15256
882.631	14960
882.757	14910
882.883	15005
883.01	15036
883.136	14910
883.262	14921
883.388	14743
883.514	15032
883.64	15032
883.766	14941
883.892	14777
884.018	14838
884.143	15020
884.269	15055
884.395	14796
884.52	14659
884.646	14629
884.772	14648
884.897	14552
885.023	14602
885.148	14769
885.274	14815
885.399	14716
885.524	14629
885.65	14659
885.775	14667
885.9	14727
886.025	14861
886.15	14807
886.275	14598
886.4	14610
886.525	14621
886.65	14533
886.775	14655
886.9	14853
887.025	14842
887.149	14674
887.274	14564
887.399	14511
887.523	14495
887.648	14473
887.773	14377
887.897	14522
888.021	14526
888.146	14454
888.27	14571
888.395	14625
888.519	14514
888.643	14587
888.767	14629
888.891	14469
889.015	14381
889.139	14450
889.263	14385
889.387	14560
889.511	14518
889.635	14480
889.759	14362
889.883	14415
890.006	14343
890.13	14457
890.254	14317
890.377	14366
890.501	14221
890.624	14077
890.748	14252
890.871	14142
890.995	14039
891.118	14005
891.241	14145
891.364	14107
891.488	14134
891.611	14050
891.734	14065
891.857	14259
891.98	14191
892.103	14202
892.226	14081
892.349	14027
892.471	13909
892.594	13989
892.717	14084
892.839	14065
892.962	14183
893.085	14161
893.207	14092
893.33	14016
893.452	14050
893.575	14138
893.697	14005
893.819	14218
893.941	14290
894.064	14168
894.186	14020
894.308	14134
894.43	14221
894.552	14328
894.674	14237
894.796	14062
894.918	14168
895.04	14065
895.161	14317
895.283	14180
895.405	14202
895.526	14252
895.648	14202
895.769	14221
895.891	14202
896.012	14313
896.134	14218
896.255	14206
896.376	14218
896.498	14218
896.619	14282
896.74	14282
896.861	14248
896.982	14507
897.103	14739
897.224	14552
897.345	14469
897.466	14412
897.587	14389
897.708	14701
897.828	14594
897.949	14465
898.07	14336
898.19	14438
898.311	14705
898.431	14530
898.552	14598
898.672	14625
898.792	14629
898.913	14648
899.033	14549
899.153	14351
899.273	14442
899.393	14370
899.513	14446
899.633	14434
899.753	14518
899.873	14419
899.993	14465
900.113	14355
900.232	14530
900.352	14419
900.472	14351
900.591	14164
900.711	14244
900.83	14328
900.95	14469
901.069	14339
901.189	14252
901.308	14069
901.427	14020
901.546	14039
901.665	14043
901.784	13947
901.904	13841
902.023	13784
902.141	13605
902.26	13537
902.379	13620
902.498	13529
902.617	13499
902.735	13586
902.854	13651
902.973	13457
903.091	13171
903.21	13278
903.328	13213
903.446	13194
903.565	13110
903.683	13171
903.801	12951
903.919	13103
904.038	13114
904.156	12996
904.274	13095
904.392	12947
904.51	12924
904.627	13008
904.745	12951
904.863	12962
904.981	12810
905.098	12585
905.216	12582
905.334	12654
905.451	12646
905.569	12585
905.686	12642
905.803	12677
905.921	12494
906.038	12559
906.155	12464
906.272	12388
906.389	12448
906.506	12243
906.623	12308
906.74	12224
906.857	12106
906.974	12247
907.091	12296
907.208	12292
907.324	12209
907.441	12125
907.557	12026
907.674	11984
907.79	11882
907.907	11923
908.023	11961
908.139	11984
908.256	11935
908.372	11923
908.488	11859
908.604	11623
908.72	11756
908.836	11668
908.952	11733
909.068	11783
909.184	11828
909.3	11760
909.415	11695
909.531	11748
909.647	11505
909.762	11524
909.878	11444
909.993	11509
910.108	11444
910.224	11406
910.339	11520
910.454	11353
910.57	11379
910.685	11345
910.8	11577
910.915	11482
911.03	11417
911.145	11204
911.259	11166
911.374	11193
911.489	11071
911.604	11109
911.718	10908
911.833	10991
911.947	10877
912.062	10763
912.176	10915
912.291	10930
912.405	10900
912.519	11121
912.633	11105
912.748	11029
912.862	10968
912.976	10828
913.09	10790
913.204	10793
913.318	10896
913.431	10991
913.545	10953
913.659	10911
913.772	10873
913.886	10691
914	10698
914.113	10793
914.226	10843
914.34	10820
914.453	10634
914.566	10805
914.68	10710
914.793	10634
914.906	10466
915.019	10413
915.132	10360
915.245	10413
915.358	10390
915.47	10493
915.583	10504
915.696	10519
915.809	10580
915.921	10596
916.034	10360
916.146	10386
916.259	10272
916.371	10584
916.483	10470
916.595	10386
916.708	10417
916.82	10394
916.932	10421
917.044	10325
917.156	10382
917.268	10215
917.38	10360
917.491	10234
917.603	10382
917.715	10398
917.826	10424
917.938	10287
918.049	10207
918.161	10314
918.272	10504
918.384	10459
918.495	10310
918.606	10185
918.717	10112
918.828	10166
918.939	10246
919.05	10044
919.161	10131
919.272	9956
919.383	9994
919.494	10230
919.604	10390
919.715	10158
919.826	10101
919.936	10143
920.047	10257
920.157	10158
920.267	10405
920.378	10268
920.488	10207
920.598	10371
920.708	10493
920.818	10443
920.928	10413
921.038	10516
921.148	10436
921.258	10230
921.368	10143
921.477	10093
921.587	10010
921.697	9907
921.806	10124
921.916	9941
922.025	9812
922.134	9747
922.244	9694
922.353	9785
922.462	9591
922.571	9595
922.68	9466
922.789	9439
922.898	9511
923.007	9424
923.116	9435
923.224	9450
923.333	9443
923.442	9359
923.55	9310
923.659	9253
923.767	9363
923.876	9264
923.984	9359
924.092	9256
924.201	9351
924.309	9348
924.417	9317
924.525	9241
924.633	9306
924.741	9998
924.849	9066
924.956	9245
925.064	9020
925.172	8975
925.279	8994
925.387	9089
925.494	9070
925.602	9165
925.709	9131
925.816	9062
925.924	9131
926.031	9218
926.138	9097
926.245	9116
926.352	9127
926.459	9173
926.566	9203
926.673	9085
926.779	9013
926.886	8994
926.993	8781
927.099	8834
927.206	8792
927.312	8735
927.419	8857
927.525	8800
927.631	8899
927.737	8678
927.843	8712
927.95	8590
928.056	8587
928.162	8731
928.267	8720
928.373	9405
928.479	8804
928.585	8545
928.69	8720
928.796	8781
928.901	8594
929.007	8507
929.112	8598
929.218	8625
929.323	8541
929.428	8533
929.533	8674
929.638	8412
929.743	8530
929.848	8655
929.953	8564
930.058	8412
930.163	8275
930.267	8324
930.372	8400
930.477	8248
930.581	8507
930.685	8362
930.79	8225
930.894	8324
930.998	8180
931.103	8381
931.207	8012
931.311	7963
931.415	7913
931.519	7727
931.623	7818
