Data from test_V78500241_1182.txt Node
Date: Fri Mar 25 14:41:56 CST 2022
User: usil
Spectrometer: V785-0024
Trigger mode: 0
Integration Time (sec): 4.000000E-1
Scans to average: 1
Nonlinearity correction enabled: false
Boxcar width: 0
Storing dark spectrum: false
XAxis mode: Wavelengths
Number of Pixels in Spectrum: 1024
>>>>>Begin Spectral Data<<<<<
801.071	22550
801.214	22341
801.356	22051
801.499	22010
801.641	21800
801.783	21793
801.926	21846
802.068	21686
802.211	21755
802.353	21561
802.496	21473
802.638	21302
802.78	21294
802.923	21359
803.065	21184
803.208	21203
803.35	21180
803.492	21294
803.635	21408
803.777	21112
803.919	21233
804.061	21523
804.204	21291
804.346	21226
804.488	21001
804.63	21005
804.773	21009
804.915	21154
805.057	21195
805.199	21116
805.341	21245
805.483	21146
805.626	21180
805.768	21230
805.91	21108
806.052	21047
806.194	21127
806.336	21367
806.478	21123
806.62	21001
806.762	21203
806.904	21226
807.046	21580
807.188	21511
807.33	21370
807.472	21515
807.614	21401
807.756	21405
807.898	21378
808.04	21252
808.182	21245
808.324	21359
808.465	21317
808.607	21462
808.749	21622
808.891	21732
809.033	21812
809.174	21717
809.316	21561
809.458	21622
809.6	21534
809.741	21667
809.883	21614
810.025	21644
810.166	21736
810.308	21705
810.45	21564
810.591	21663
810.733	21507
810.875	21416
811.016	21275
811.158	21252
811.299	21367
811.441	21477
811.582	21450
811.724	21272
811.865	21211
812.007	21268
812.148	21226
812.29	21344
812.431	21481
812.573	21599
812.714	21644
812.855	21800
812.997	21835
813.138	21941
813.279	21876
813.421	21899
813.562	21641
813.703	21564
813.845	21481
813.986	21260
814.127	21001
814.268	20933
814.41	20876
814.551	20952
814.692	20880
814.833	20796
814.974	20765
815.115	20857
815.256	20670
815.397	20689
815.539	20617
815.68	20575
815.821	20495
815.962	20644
816.103	20590
816.244	20480
816.385	20328
816.526	20343
816.666	20214
816.807	19955
816.948	20122
817.089	20081
817.23	20050
817.371	19989
817.512	20130
817.653	19989
817.793	19963
817.934	20043
818.075	19959
818.216	20073
818.356	20039
818.497	19753
818.638	19723
818.778	19727
818.919	19708
819.06	19712
819.2	19788
819.341	19928
819.481	19982
819.622	20031
819.762	20119
819.903	20092
820.043	20138
820.184	19978
820.324	20035
820.465	20126
820.605	19997
820.746	19967
820.886	19791
821.026	19967
821.167	19955
821.307	20100
821.447	20031
821.588	19856
821.728	19582
821.868	19632
822.008	19343
822.149	19457
822.289	19365
822.429	19118
822.569	19042
822.709	19057
822.849	18844
822.99	18882
823.13	18810
823.27	18890
823.41	18601
823.55	18646
823.69	18650
823.83	18677
823.97	18551
824.11	18448
824.25	18452
824.389	18452
824.529	18525
824.669	18384
824.809	18654
824.949	18593
825.089	18426
825.228	18486
825.368	18334
825.508	18300
825.648	18235
825.787	18228
825.927	18258
826.067	18148
826.206	18167
826.346	18251
826.485	18342
826.625	18216
826.765	18403
826.904	18327
827.044	18038
827.183	18045
827.323	17885
827.462	18038
827.601	17904
827.741	17885
827.88	17843
828.02	17999
828.159	17980
828.298	18011
828.437	18026
828.577	17897
828.716	18015
828.855	17809
828.994	17859
829.134	17775
829.273	17733
829.412	17805
829.551	17623
829.69	17764
829.829	17646
829.968	17836
830.107	17805
830.246	17748
830.385	17714
830.524	17657
830.663	17493
830.802	17322
830.941	17322
831.08	17360
831.219	17364
831.357	17353
831.496	17592
831.635	17280
831.774	17242
831.913	17204
832.051	17071
832.19	17128
832.329	17166
832.467	17147
832.606	16984
832.744	17048
832.883	17075
833.022	16919
833.16	17166
833.299	17071
833.437	17022
833.576	17045
833.714	17079
833.852	17113
833.991	17025
834.129	17029
834.267	17147
834.406	17117
834.544	17140
834.682	17128
834.821	17003
834.959	17220
835.097	16976
835.235	17170
835.373	16984
835.511	17094
835.65	17025
835.788	17094
835.926	16889
836.064	16736
836.202	16854
836.34	17086
836.478	17067
836.615	17003
836.753	16927
836.891	17086
837.029	17018
837.167	16938
837.305	16816
837.443	16866
837.58	16801
837.718	16923
837.856	16908
837.993	16759
838.131	16911
838.269	16805
838.406	16733
838.544	16710
838.681	16550
838.819	16512
838.956	16344
839.094	16379
839.231	16375
839.369	16580
839.506	16679
839.643	16626
839.781	16375
839.918	16314
840.055	16367
840.193	16287
840.33	16455
840.467	16242
840.604	16386
840.742	16687
840.879	16265
841.016	16352
841.153	16322
841.29	16462
841.427	16424
841.564	16440
841.701	16386
841.838	16337
841.975	16348
842.112	16329
842.249	16158
842.385	16051
842.522	16303
842.659	16306
842.796	16215
842.933	16173
843.069	16048
843.206	16067
843.343	16215
843.479	16230
843.616	16188
843.752	16013
843.889	15949
844.025	15998
844.162	15964
844.298	16143
844.435	15899
844.571	16048
844.708	15987
844.844	16219
844.98	16082
845.117	16124
845.253	15873
845.389	15903
845.525	15956
845.661	15979
845.798	15895
845.934	15869
846.07	15895
846.206	15987
846.342	15945
846.478	15873
846.614	15538
846.75	15561
846.886	15435
847.022	15667
847.158	15492
847.294	15568
847.429	15526
847.565	15519
847.701	15724
847.837	15325
847.972	15245
848.108	15351
848.244	15370
848.379	15127
848.515	15127
848.65	15081
848.786	15142
848.921	15184
849.057	15203
849.192	15195
849.328	15241
849.463	15150
849.598	15043
849.734	15081
849.869	15074
850.004	15001
850.14	14918
850.275	14925
850.41	14872
850.545	14811
850.68	14845
850.815	15024
850.95	14902
851.085	14982
851.22	14952
851.355	14963
851.49	14975
851.625	14819
851.76	14960
851.895	14785
852.03	14830
852.165	14895
852.299	14937
852.434	14986
852.569	14944
852.703	14941
852.838	15017
852.973	14990
853.107	15043
853.242	14933
853.376	14792
853.511	14693
853.645	14758
853.78	14895
853.914	14804
854.048	14804
854.183	14819
854.317	14781
854.451	14956
854.585	14754
854.72	14758
854.854	14823
854.988	14686
855.122	14727
855.256	14640
855.39	14754
855.524	14788
855.658	14876
855.792	14746
855.926	14861
856.06	14887
856.194	14811
856.327	14625
856.461	14758
856.595	14712
856.729	14777
856.862	14918
856.996	14788
857.13	14868
857.263	14910
857.397	14914
857.53	14815
857.664	14788
857.797	14952
857.931	14876
858.064	14899
858.197	14910
858.331	14800
858.464	14849
858.597	14705
858.731	14708
858.864	14861
858.997	14800
859.13	14781
859.263	14807
859.396	14880
859.529	14781
859.662	14796
859.795	14689
859.928	14838
860.061	14887
860.194	14979
860.327	14868
860.46	14750
860.592	14876
860.725	14857
860.858	14990
860.99	14785
861.123	14682
861.256	14655
861.388	14941
861.521	15500
861.653	14670
861.786	14644
861.918	14674
862.05	14746
862.183	14598
862.315	14758
862.447	14895
862.58	14686
862.712	14545
862.844	14533
862.976	14659
863.108	14663
863.24	15116
863.372	14514
863.504	14549
863.636	14651
863.768	14678
863.9	14545
864.032	14522
864.164	14484
864.296	14610
864.428	14590
864.559	14610
864.691	14610
864.823	14579
864.954	14590
865.086	14560
865.217	14473
865.349	14469
865.48	14571
865.612	14564
865.743	14674
865.875	14488
866.006	14514
866.137	14598
866.269	14575
866.4	14568
866.531	14400
866.662	14358
866.793	14499
866.924	14511
867.055	14427
867.186	14450
867.317	14480
867.448	14454
867.579	14518
867.71	14495
867.841	14374
867.972	14499
868.103	14522
868.233	14511
868.364	14579
868.495	14598
868.625	14769
868.756	14914
868.886	14625
869.017	14811
869.147	14845
869.278	14918
869.408	14853
869.539	14746
869.669	14883
869.799	14739
869.929	14918
870.06	14914
870.19	15100
870.32	15055
870.45	15165
870.58	15199
870.71	15237
870.84	15272
870.97	15161
871.1	15116
871.23	15310
871.36	15378
871.489	15264
871.619	15317
871.749	15348
871.879	15374
872.008	15363
872.138	15378
872.267	15348
872.397	15260
872.526	15154
872.656	15264
872.785	15157
872.915	15416
873.044	15355
873.173	15454
873.303	15412
873.432	15450
873.561	15443
873.69	15325
873.819	15462
873.948	15515
874.077	15462
874.206	15344
874.335	15458
874.464	15557
874.593	15637
874.722	15660
874.851	15774
874.979	15663
875.108	15827
875.237	15720
875.365	15610
875.494	15724
875.623	15884
875.751	15694
875.88	15846
876.008	15880
876.136	15861
876.265	16196
876.393	16310
876.521	16249
876.65	16200
876.778	16177
876.906	16006
877.034	16017
877.162	16147
877.29	16055
877.418	16090
877.546	16090
877.674	16166
877.802	16109
877.93	16124
878.058	16044
878.185	16082
878.313	16135
878.441	16169
878.568	15934
878.696	16067
878.824	16234
878.951	16200
879.079	16356
879.206	16569
879.333	16409
879.461	16234
879.588	16249
879.715	16333
879.842	16561
879.97	16207
880.097	15926
880.224	15937
880.351	16021
880.478	15975
880.605	15895
880.732	15945
880.859	16139
880.986	16105
881.112	16090
881.239	15975
881.366	15819
881.493	15629
881.619	15679
881.746	15724
881.872	15610
881.999	15641
882.125	15526
882.252	15622
882.378	15751
882.505	15739
882.631	15644
882.757	15374
882.883	15401
883.01	15538
883.136	15348
883.262	15382
883.388	15302
883.514	15443
883.64	15481
883.766	15340
883.892	15214
884.018	15203
884.143	15519
884.269	15545
884.395	15321
884.52	15142
884.646	15123
884.772	15123
884.897	15089
885.023	15123
885.148	15275
885.274	15329
885.399	15264
885.524	15203
885.65	15108
885.775	15199
885.9	15093
886.025	15237
886.15	15195
886.275	15093
886.4	14963
886.525	15047
886.65	15028
886.775	15131
886.9	15306
887.025	15359
887.149	15207
887.274	15058
887.399	14967
887.523	14944
887.648	14921
887.773	14792
887.897	15138
888.021	15039
888.146	14876
888.27	15135
888.395	15047
888.519	15013
888.643	15097
888.767	14948
888.891	14918
889.015	14864
889.139	14921
889.263	14724
889.387	14944
889.511	14979
889.635	14967
889.759	14777
889.883	14826
890.006	14876
890.13	14941
890.254	14788
890.377	14773
890.501	14594
890.624	14667
890.748	14750
890.871	14526
890.995	14518
891.118	14385
891.241	14522
891.364	14564
891.488	14682
891.611	14530
891.734	14549
891.857	14469
891.98	14564
892.103	14594
892.226	14465
892.349	14530
892.471	14339
892.594	14427
892.717	14484
892.839	14480
892.962	14495
893.085	14648
893.207	14568
893.33	14442
893.452	14385
893.575	14533
893.697	14381
893.819	14686
893.941	14720
894.064	14617
894.186	14434
894.308	14473
894.43	14659
894.552	14727
894.674	14564
894.796	14503
894.918	14457
895.04	14514
895.161	14678
895.283	14590
895.405	14503
895.526	14568
895.648	14724
895.769	14636
895.891	14659
896.012	14651
896.134	14739
896.255	14674
896.376	14648
896.498	14720
896.619	14708
896.74	14708
896.861	14708
896.982	14990
897.103	15222
897.224	14956
897.345	14941
897.466	14910
897.587	14857
897.708	15043
897.828	15043
897.949	14811
898.07	14899
898.19	14918
898.311	15070
898.431	14880
898.552	14902
898.672	14975
898.792	15005
898.913	15077
899.033	14963
899.153	14883
899.273	14845
899.393	14834
899.513	14876
899.633	14788
899.753	14876
899.873	14712
899.993	14906
900.113	14857
900.232	14811
900.352	14902
900.472	14716
900.591	14674
900.711	14705
900.83	14689
900.95	14842
901.069	14830
901.189	14625
901.308	14476
901.427	14339
901.546	14294
901.665	14389
901.784	14309
901.904	14210
902.023	14191
902.141	13944
902.26	13936
902.379	13993
902.498	13909
902.617	13887
902.735	14081
902.854	14008
902.973	13841
903.091	13674
903.21	13658
903.328	13651
903.446	13628
903.565	13518
903.683	13510
903.801	13403
903.919	13571
904.038	13392
904.156	13331
904.274	13384
904.392	13350
904.51	13369
904.627	13270
904.745	13335
904.863	13381
904.981	13152
905.098	13046
905.216	13015
905.334	13156
905.451	13038
905.569	12996
905.686	13179
905.803	13069
905.921	12890
906.038	12867
906.155	12829
906.272	12662
906.389	12692
906.506	12669
906.623	12642
906.74	12574
906.857	12445
906.974	12502
907.091	12692
907.208	12688
907.324	12517
907.441	12559
907.557	12483
907.674	12308
907.79	12327
907.907	12224
908.023	12277
908.139	12292
908.256	12243
908.372	12205
908.488	12262
908.604	12144
908.72	12026
908.836	12178
908.952	12053
909.068	12098
909.184	12121
909.3	12087
909.415	12129
909.531	12102
909.647	11832
909.762	11813
909.878	11836
909.993	11851
910.108	11889
910.224	11775
910.339	11878
910.454	11745
910.57	11802
910.685	11695
910.8	11897
910.915	11916
911.03	11737
911.145	11505
911.259	11627
911.374	11497
911.489	11509
911.604	11444
911.718	11231
911.833	11269
911.947	11261
912.062	11075
912.176	11246
912.291	11284
912.405	11337
912.519	11573
912.633	11360
912.748	11360
912.862	11261
912.976	11193
913.09	11071
913.204	11105
913.318	11170
913.431	11235
913.545	11231
913.659	11254
913.772	11170
913.886	11098
914	11003
914.113	11147
914.226	11185
914.34	11140
914.453	10934
914.566	11151
914.68	10968
914.793	10927
914.906	10812
915.019	10812
915.132	10691
915.245	10797
915.358	10843
915.47	10805
915.583	10763
915.696	10877
915.809	10892
915.921	10949
916.034	10759
916.146	10782
916.259	10763
916.371	10900
916.483	10843
916.595	10725
916.708	10698
916.82	10721
916.932	10706
917.044	10687
917.156	10660
917.268	10634
917.38	10599
917.491	10523
917.603	10622
917.715	10645
917.826	10668
917.938	10675
918.049	10470
918.161	10607
918.272	10786
918.384	10698
918.495	10630
918.606	10447
918.717	10417
918.828	10569
918.939	10569
919.05	10466
919.161	10504
919.272	10348
919.383	10322
919.494	10577
919.604	10672
919.715	10455
919.826	10455
919.936	10436
920.047	10580
920.157	10447
920.267	10717
920.378	10626
920.488	10424
920.598	10656
920.708	10812
920.818	10698
920.928	10675
921.038	10869
921.148	10778
921.258	10512
921.368	10504
921.477	10344
921.587	10382
921.697	10230
921.806	10428
921.916	10261
922.025	10101
922.134	10017
922.244	10074
922.353	10051
922.462	9949
922.571	9899
922.68	9762
922.789	9747
922.898	9705
923.007	9679
923.116	9759
923.224	9686
923.333	9701
923.442	9580
923.55	9663
923.659	9603
923.767	9679
923.876	9637
923.984	9606
924.092	9500
924.201	9675
924.309	9603
924.417	9610
924.525	9515
924.633	9549
924.741	10360
924.849	9431
924.956	9507
925.064	9363
925.172	9359
925.279	9321
925.387	9424
925.494	9336
925.602	9477
925.709	9393
925.816	9351
925.924	9370
926.031	9420
926.138	9355
926.245	9374
926.352	9294
926.459	9397
926.566	9405
926.673	9367
926.779	9272
926.886	9218
926.993	9066
927.099	9085
927.206	9062
927.312	9058
927.419	9066
927.525	9077
927.631	9116
927.737	8998
927.843	8929
927.95	8830
928.056	8975
928.162	8933
928.267	9055
928.373	9686
928.479	9036
928.585	8842
928.69	8994
928.796	9013
928.901	8918
929.007	8758
929.112	8914
929.218	8849
929.323	8739
929.428	8758
929.533	8941
929.638	8682
929.743	8807
929.848	8838
929.953	8735
930.058	8621
930.163	8575
930.267	8579
930.372	8739
930.477	8556
930.581	8819
930.685	8640
930.79	8465
930.894	8518
930.998	8457
931.103	8678
931.207	8214
931.311	8214
931.415	8233
931.519	8012
931.623	8001
