Data from test_V78500241_3649.txt Node
Date: Fri Mar 25 14:59:07 CST 2022
User: usil
Spectrometer: V785-0024
Trigger mode: 0
Integration Time (sec): 4.000000E-1
Scans to average: 1
Nonlinearity correction enabled: false
Boxcar width: 0
Storing dark spectrum: false
XAxis mode: Wavelengths
Number of Pixels in Spectrum: 1024
>>>>>Begin Spectral Data<<<<<
801.071	21911
801.214	21690
801.356	21515
801.499	21553
801.641	21355
801.783	21306
801.926	21355
802.068	21188
802.211	21108
802.353	21081
802.496	20960
802.638	20781
802.78	20629
802.923	20682
803.065	20511
803.208	20606
803.35	20606
803.492	20701
803.635	20739
803.777	20644
803.919	20613
804.061	20963
804.204	20648
804.346	20533
804.488	20594
804.63	20571
804.773	20545
804.915	20476
805.057	20621
805.199	20423
805.341	20545
805.483	20598
805.626	20568
805.768	20461
805.91	20495
806.052	20495
806.194	20400
806.336	20526
806.478	20549
806.62	20450
806.762	20549
806.904	20659
807.046	20910
807.188	20868
807.33	20834
807.472	20800
807.614	20625
807.756	20811
807.898	20712
808.04	20526
808.182	20583
808.324	20530
808.465	20629
808.607	20834
808.749	20819
808.891	20921
809.033	20990
809.174	20876
809.316	20826
809.458	20750
809.6	20754
809.741	20914
809.883	20956
810.025	20910
810.166	20876
810.308	20906
810.45	20998
810.591	20899
810.733	20724
810.875	20682
811.016	20518
811.158	20571
811.299	20587
811.441	20693
811.582	20762
811.724	20568
811.865	20537
812.007	20663
812.148	20602
812.29	20674
812.431	20807
812.573	20933
812.714	21024
812.855	21184
812.997	21173
813.138	21420
813.279	21241
813.421	21024
813.562	21108
813.703	20925
813.845	20880
813.986	20560
814.127	20298
814.268	20275
814.41	20244
814.551	20153
814.692	20218
814.833	20119
814.974	20088
815.115	20107
815.256	19989
815.397	20111
815.539	20039
815.68	19898
815.821	19727
815.962	19826
816.103	19928
816.244	19628
816.385	19681
816.526	19677
816.666	19411
816.807	19209
816.948	19411
817.089	19339
817.23	19396
817.371	19240
817.512	19251
817.653	19213
817.793	19240
817.934	19354
818.075	19221
818.216	19206
818.356	19190
818.497	18954
818.638	18966
818.778	18962
818.919	19038
819.06	18966
819.2	19194
819.341	19217
819.481	19168
819.622	19274
819.762	19449
819.903	19392
820.043	19350
820.184	19225
820.324	19236
820.465	19384
820.605	19278
820.746	19304
820.886	19129
821.026	19274
821.167	19160
821.307	19278
821.447	19179
821.588	19072
821.728	18943
821.868	18798
822.008	18635
822.149	18673
822.289	18582
822.429	18422
822.569	18395
822.709	18235
822.849	18243
822.99	18083
823.13	18209
823.27	18121
823.41	18007
823.55	17961
823.69	17935
823.83	17923
823.97	17935
824.11	17752
824.25	17817
824.389	17737
824.529	17786
824.669	17783
824.809	17710
824.949	17764
825.089	17901
825.228	17805
825.368	17653
825.508	17532
825.648	17474
825.787	17570
825.927	17547
826.067	17482
826.206	17448
826.346	17512
826.485	17474
826.625	17501
826.765	17623
826.904	17558
827.044	17299
827.183	17239
827.323	17208
827.462	17235
827.601	17311
827.741	17227
827.88	17311
828.02	17083
828.159	17231
828.298	17136
828.437	17246
828.577	17250
828.716	17330
828.855	17159
828.994	16915
829.134	16911
829.273	17071
829.412	16915
829.551	16949
829.69	16900
829.829	17018
829.968	17041
830.107	17048
830.246	17045
830.385	16976
830.524	16820
830.663	16801
830.802	16691
830.941	16664
831.08	16542
831.219	16694
831.357	16622
831.496	16820
831.635	16592
831.774	16466
831.913	16451
832.051	16379
832.19	16284
832.329	16405
832.467	16390
832.606	16223
832.744	16238
832.883	16394
833.022	16261
833.16	16295
833.299	16333
833.437	16291
833.576	16363
833.714	16409
833.852	16386
833.991	16337
834.129	16470
834.267	16360
834.406	16382
834.544	16455
834.682	16436
834.821	16367
834.959	16489
835.097	16371
835.235	16436
835.373	16382
835.511	16371
835.65	16287
835.788	16204
835.926	16253
836.064	16131
836.202	16063
836.34	16299
836.478	16371
836.615	16257
836.753	16246
836.891	16371
837.029	16249
837.167	16215
837.305	16188
837.443	16139
837.58	16048
837.718	16242
837.856	16185
837.993	16120
838.131	16177
838.269	16029
838.406	16116
838.544	16055
838.681	15876
838.819	15876
838.956	15713
839.094	15637
839.231	15732
839.369	15846
839.506	16169
839.643	15987
839.781	15728
839.918	15705
840.055	15648
840.193	15739
840.33	15618
840.467	15686
840.604	15759
840.742	16021
840.879	15610
841.016	15564
841.153	15637
841.29	15808
841.427	15732
841.564	15713
841.701	15816
841.838	15652
841.975	15717
842.112	15709
842.249	15488
842.385	15553
842.522	15701
842.659	15557
842.796	15492
842.933	15515
843.069	15450
843.206	15393
843.343	15557
843.479	15580
843.616	15511
843.752	15313
843.889	15359
844.025	15378
844.162	15218
844.298	15332
844.435	15268
844.571	15211
844.708	15310
844.844	15466
844.98	15462
845.117	15408
845.253	15287
845.389	15131
845.525	15226
845.661	15150
845.798	15017
845.934	15119
846.07	14986
846.206	15074
846.342	15188
846.478	15100
846.614	14944
846.75	14807
846.886	14887
847.022	14872
847.158	14845
847.294	14960
847.429	14937
847.565	14933
847.701	14975
847.837	14667
847.972	14606
848.108	14670
848.244	14724
848.379	14541
848.515	14484
848.65	14461
848.786	14446
848.921	14492
849.057	14568
849.192	14583
849.328	14419
849.463	14469
849.598	14415
849.734	14442
849.869	14328
850.004	14218
850.14	14286
850.275	14271
850.41	14221
850.545	14244
850.68	14153
850.815	14187
850.95	14267
851.085	14377
851.22	14362
851.355	14240
851.49	14164
851.625	14248
851.76	14172
851.895	14065
852.03	14100
852.165	14256
852.299	14199
852.434	14309
852.569	14328
852.703	14278
852.838	14332
852.973	14343
853.107	14454
853.242	14168
853.376	14081
853.511	14035
853.645	14043
853.78	14252
853.914	14081
854.048	14058
854.183	14081
854.317	14126
854.451	14271
854.585	14149
854.72	14024
854.854	14096
854.988	14016
855.122	13982
855.256	13921
855.39	14046
855.524	14138
855.658	14248
855.792	14065
855.926	14157
856.06	14111
856.194	14187
856.327	14058
856.461	14084
856.595	14092
856.729	14103
856.862	14221
856.996	14138
857.13	14244
857.263	14202
857.397	14244
857.53	14100
857.664	14088
857.797	14206
857.931	14240
858.064	14100
858.197	14221
858.331	14100
858.464	14073
858.597	13993
858.731	14081
858.864	14092
858.997	14031
859.13	14221
859.263	14176
859.396	14138
859.529	14119
859.662	14073
859.795	14016
859.928	14191
860.061	14187
860.194	14317
860.327	14164
860.46	14172
860.592	14183
860.725	14256
860.858	14218
860.99	14043
861.123	14035
861.256	14031
861.388	14084
861.521	14750
861.653	13974
861.786	13902
861.918	13993
862.05	13993
862.183	14058
862.315	14119
862.447	14084
862.58	14001
862.712	13921
862.844	13818
862.976	13913
863.108	13944
863.24	14294
863.372	13795
863.504	13791
863.636	13955
863.768	13928
863.9	13894
864.032	13719
864.164	13845
864.296	14012
864.428	13993
864.559	14073
864.691	14020
864.823	13963
864.954	13913
865.086	13986
865.217	13913
865.349	13772
865.48	13875
865.612	13887
865.743	14039
865.875	13925
866.006	13868
866.137	13932
866.269	13788
866.4	13898
866.531	13826
866.662	13791
866.793	13826
866.924	13852
867.055	13978
867.186	13837
867.317	13833
867.448	13723
867.579	13791
867.71	13780
867.841	13738
867.972	13928
868.103	13868
868.233	13822
868.364	13883
868.495	13947
868.625	14119
868.756	14221
868.886	14142
869.017	14001
869.147	14107
869.278	14240
869.408	14130
869.539	14199
869.669	14176
869.799	14142
869.929	14153
870.06	14240
870.19	14412
870.32	14355
870.45	14495
870.58	14476
870.71	14640
870.84	14651
870.97	14552
871.1	14537
871.23	14708
871.36	14701
871.489	14610
871.619	14830
871.749	14712
871.879	14823
872.008	14880
872.138	14735
872.267	14693
872.397	14644
872.526	14571
872.656	14564
872.785	14533
872.915	14792
873.044	14769
873.173	14762
873.303	14746
873.432	14906
873.561	14868
873.69	14792
873.819	14781
873.948	14815
874.077	14804
874.206	14670
874.335	14834
874.464	15020
874.593	15157
874.722	14998
874.851	15119
874.979	15138
875.108	15150
875.237	15108
875.365	15024
875.494	15138
875.623	15119
875.751	15066
875.88	15116
876.008	15252
876.136	15424
876.265	15469
876.393	15622
876.521	15690
876.65	15572
876.778	15595
876.906	15359
877.034	15507
877.162	15492
877.29	15378
877.418	15435
877.546	15591
877.674	15477
877.802	15545
877.93	15564
878.058	15443
878.185	15447
878.313	15538
878.441	15408
878.568	15279
878.696	15458
878.824	15561
878.951	15576
879.079	15637
879.206	15907
879.333	15728
879.461	15633
879.588	15576
879.715	15720
879.842	15819
879.97	15728
880.097	15283
880.224	15313
880.351	15329
880.478	15348
880.605	15454
880.732	15389
880.859	15504
880.986	15450
881.112	15450
881.239	15260
881.366	15108
881.493	15043
881.619	14921
881.746	15097
881.872	15047
881.999	14994
882.125	14960
882.252	15154
882.378	15001
882.505	15108
882.631	14971
882.757	14807
882.883	14849
883.01	14921
883.136	14792
883.262	14765
883.388	14617
883.514	14918
883.64	14819
883.766	14796
883.892	14689
884.018	14674
884.143	14891
884.269	14906
884.395	14590
884.52	14556
884.646	14571
884.772	14473
884.897	14454
885.023	14587
885.148	14697
885.274	14762
885.399	14636
885.524	14579
885.65	14594
885.775	14526
885.9	14492
886.025	14610
886.15	14629
886.275	14526
886.4	14385
886.525	14454
886.65	14446
886.775	14503
886.9	14693
887.025	14674
887.149	14640
887.274	14556
887.399	14366
887.523	14366
887.648	14370
887.773	14290
887.897	14427
888.021	14495
888.146	14343
888.27	14541
888.395	14492
888.519	14377
888.643	14385
888.767	14412
888.891	14298
889.015	14233
889.139	14278
889.263	14206
889.387	14252
889.511	14446
889.635	14374
889.759	14252
889.883	14214
890.006	14298
890.13	14271
890.254	14195
890.377	14142
890.501	13993
890.624	14001
890.748	14119
890.871	13936
890.995	13940
891.118	13814
891.241	13963
891.364	13917
891.488	13963
891.611	13970
891.734	13967
891.857	14039
891.98	14035
892.103	13989
892.226	14050
892.349	13967
892.471	13814
892.594	13894
892.717	13917
892.839	13902
892.962	13947
893.085	14008
893.207	13989
893.33	13772
893.452	13868
893.575	14084
893.697	13913
893.819	14145
893.941	14199
894.064	14145
894.186	13909
894.308	13906
894.43	14012
894.552	14130
894.674	14142
894.796	14058
894.918	13993
895.04	13997
895.161	14092
895.283	14054
895.405	13940
895.526	14088
895.648	14008
895.769	14092
895.891	14084
896.012	14081
896.134	14164
896.255	14126
896.376	14031
896.498	14138
896.619	14221
896.74	14119
896.861	14229
896.982	14511
897.103	14625
897.224	14495
897.345	14320
897.466	14336
897.587	14400
897.708	14511
897.828	14408
897.949	14313
898.07	14199
898.19	14415
898.311	14469
898.431	14336
898.552	14575
898.672	14480
898.792	14495
898.913	14461
899.033	14389
899.153	14347
899.273	14210
899.393	14339
899.513	14374
899.633	14305
899.753	14343
899.873	14324
899.993	14438
900.113	14305
900.232	14301
900.352	14301
900.472	14309
900.591	14111
900.711	14191
900.83	14115
900.95	14358
901.069	14282
901.189	14081
901.308	13936
901.427	13902
901.546	13917
901.665	13868
901.784	13883
901.904	13803
902.023	13685
902.141	13495
902.26	13460
902.379	13472
902.498	13396
902.617	13369
902.735	13533
902.854	13449
902.973	13362
903.091	13103
903.21	13069
903.328	13209
903.446	13110
903.565	13091
903.683	13012
903.801	12878
903.919	13004
904.038	13008
904.156	12875
904.274	12905
904.392	12787
904.51	12882
904.627	12863
904.745	12981
904.863	12897
904.981	12738
905.098	12563
905.216	12528
905.334	12563
905.451	12578
905.569	12528
905.686	12578
905.803	12566
905.921	12380
906.038	12429
906.155	12361
906.272	12209
906.389	12251
906.506	12144
906.623	12053
906.74	12064
906.857	12007
906.974	12057
907.091	12152
907.208	12285
907.324	12148
907.441	12003
907.557	11824
907.674	11821
907.79	11847
907.907	11832
908.023	11920
908.139	11863
908.256	11805
908.372	11828
908.488	11733
908.604	11589
908.72	11630
908.836	11604
908.952	11672
909.068	11649
909.184	11703
909.3	11623
909.415	11657
909.531	11649
909.647	11474
909.762	11433
909.878	11398
909.993	11425
910.108	11459
910.224	11326
910.339	11330
910.454	11239
910.57	11235
910.685	11216
910.8	11455
910.915	11383
911.03	11318
911.145	11155
911.259	11143
911.374	11189
911.489	11045
911.604	11014
911.718	10847
911.833	10843
911.947	10797
912.062	10736
912.176	10843
912.291	10900
912.405	10831
912.519	10991
912.633	11151
912.748	10923
912.862	10942
912.976	10797
913.09	10603
913.204	10626
913.318	10714
913.431	10839
913.545	10847
913.659	10786
913.772	10714
913.886	10599
914	10618
914.113	10729
914.226	10778
914.34	10790
914.453	10554
914.566	10675
914.68	10603
914.793	10561
914.906	10344
915.019	10356
915.132	10299
915.245	10386
915.358	10504
915.47	10424
915.583	10386
915.696	10402
915.809	10489
915.921	10466
916.034	10333
916.146	10325
916.259	10314
916.371	10470
916.483	10390
916.595	10284
916.708	10287
916.82	10344
916.932	10329
917.044	10242
917.156	10295
917.268	10196
917.38	10291
917.491	10185
917.603	10196
917.715	10322
917.826	10333
917.938	10200
918.049	10059
918.161	10188
918.272	10341
918.384	10348
918.495	10204
918.606	10097
918.717	10048
918.828	10086
918.939	10044
919.05	10086
919.161	10071
919.272	9903
919.383	10032
919.494	10135
919.604	10284
919.715	10048
919.826	10040
919.936	10071
920.047	10211
920.157	10147
920.267	10348
920.378	10105
920.488	10131
920.598	10329
920.708	10382
920.818	10333
920.928	10352
921.038	10455
921.148	10432
921.258	10139
921.368	10109
921.477	9991
921.587	10036
921.697	9838
921.806	10013
921.916	9922
922.025	9720
922.134	9622
922.244	9580
922.353	9743
922.462	9553
922.571	9507
922.68	9382
922.789	9466
922.898	9382
923.007	9310
923.116	9431
923.224	9374
923.333	9325
923.442	9226
923.55	9233
923.659	9272
923.767	9329
923.876	9230
923.984	9325
924.092	9211
924.201	9256
924.309	9214
924.417	9302
924.525	9176
924.633	9184
924.741	10055
924.849	9013
924.956	9173
925.064	9055
925.172	8948
925.279	8975
925.387	9093
925.494	9028
925.602	9184
925.709	9154
925.816	8910
925.924	8998
926.031	9138
926.138	9036
926.245	9161
926.352	8895
926.459	9081
926.566	9161
926.673	8998
926.779	8937
926.886	8941
926.993	8708
927.099	8716
927.206	8727
927.312	8739
927.419	8720
927.525	8693
927.631	8804
927.737	8689
927.843	8636
927.95	8564
928.056	8640
928.162	8644
928.267	8743
928.373	9233
928.479	8739
928.585	8522
928.69	8648
928.796	8670
928.901	8575
929.007	8476
929.112	8518
929.218	8537
929.323	8507
929.428	8461
929.533	8579
929.638	8408
929.743	8454
929.848	8446
929.953	8465
930.058	8347
930.163	8218
930.267	8248
930.372	8412
930.477	8176
930.581	8461
930.685	8320
930.79	8191
930.894	8244
930.998	8180
931.103	8290
931.207	8012
931.311	7856
931.415	7841
931.519	7727
931.623	7712
