Data from test_V78500241_2070.txt Node
Date: Fri Mar 25 14:48:07 CST 2022
User: usil
Spectrometer: V785-0024
Trigger mode: 0
Integration Time (sec): 4.000000E-1
Scans to average: 1
Nonlinearity correction enabled: false
Boxcar width: 0
Storing dark spectrum: false
XAxis mode: Wavelengths
Number of Pixels in Spectrum: 1024
>>>>>Begin Spectral Data<<<<<
801.071	22059
801.214	22006
801.356	21785
801.499	21816
801.641	21538
801.783	21534
801.926	21443
802.068	21447
802.211	21355
802.353	21291
802.496	21150
802.638	21096
802.78	21070
802.923	20853
803.065	20731
803.208	20796
803.35	20754
803.492	20979
803.635	20918
803.777	20830
803.919	20929
804.061	21157
804.204	21058
804.346	20758
804.488	20701
804.63	20800
804.773	20651
804.915	20693
805.057	20765
805.199	20762
805.341	20811
805.483	20910
805.626	20845
805.768	20716
805.91	20739
806.052	20777
806.194	20648
806.336	20807
806.478	20651
806.62	20731
806.762	20807
806.904	20967
807.046	21283
807.188	20998
807.33	21047
807.472	21165
807.614	20910
807.756	20906
807.898	20826
808.04	20735
808.182	20724
808.324	20914
808.465	20899
808.607	21207
808.749	21154
808.891	21169
809.033	21420
809.174	21226
809.316	21169
809.458	21089
809.6	21123
809.741	21237
809.883	21218
810.025	21256
810.166	21310
810.308	21302
810.45	21256
810.591	21245
810.733	20842
810.875	21017
811.016	20788
811.158	20769
811.299	20971
811.441	21055
811.582	20967
811.724	20815
811.865	20807
812.007	20902
812.148	20864
812.29	20963
812.431	21070
812.573	21176
812.714	21336
812.855	21458
812.997	21466
813.138	21587
813.279	21519
813.421	21382
813.562	21302
813.703	21138
813.845	21013
813.986	20823
814.127	20571
814.268	20507
814.41	20484
814.551	20415
814.692	20556
814.833	20419
814.974	20442
815.115	20533
815.256	20233
815.397	20263
815.539	20290
815.68	20092
815.821	20069
815.962	20187
816.103	20180
816.244	20058
816.385	19875
816.526	19947
816.666	19620
816.807	19540
816.948	19662
817.089	19704
817.23	19594
817.371	19540
817.512	19613
817.653	19540
817.793	19518
817.934	19609
818.075	19662
818.216	19578
818.356	19449
818.497	19411
818.638	19228
818.778	19217
818.919	19270
819.06	19282
819.2	19400
819.341	19411
819.481	19308
819.622	19563
819.762	19674
819.903	19677
820.043	19586
820.184	19689
820.324	19525
820.465	19643
820.605	19597
820.746	19491
820.886	19422
821.026	19472
821.167	19434
821.307	19518
821.447	19605
821.588	19320
821.728	19289
821.868	19076
822.008	19012
822.149	18989
822.289	18939
822.429	18703
822.569	18547
822.709	18635
822.849	18506
822.99	18513
823.13	18388
823.27	18460
823.41	18254
823.55	18243
823.69	18216
823.83	18171
823.97	18106
824.11	17992
824.25	18049
824.389	17980
824.529	18060
824.669	17927
824.809	18182
824.949	18095
825.089	18159
825.228	18011
825.368	17866
825.508	17672
825.648	17809
825.787	17790
825.927	17855
826.067	17798
826.206	17817
826.346	17897
826.485	17798
826.625	17802
826.765	17920
826.904	17939
827.044	17608
827.183	17623
827.323	17501
827.462	17570
827.601	17459
827.741	17471
827.88	17539
828.02	17372
828.159	17520
828.298	17448
828.437	17535
828.577	17398
828.716	17532
828.855	17471
828.994	17337
829.134	17299
829.273	17265
829.412	17277
829.551	17235
829.69	17242
829.829	17284
829.968	17277
830.107	17360
830.246	17174
830.385	17132
830.524	17136
830.663	17075
830.802	16972
830.941	16908
831.08	16850
831.219	16854
831.357	16995
831.496	17052
831.635	16942
831.774	16828
831.913	16752
832.051	16645
832.19	16725
832.329	16634
832.467	16618
832.606	16516
832.744	16611
832.883	16615
833.022	16451
833.16	16485
833.299	16573
833.437	16493
833.576	16713
833.714	16580
833.852	16603
833.991	16554
834.129	16637
834.267	16698
834.406	16584
834.544	16592
834.682	16618
834.821	16656
834.959	16774
835.097	16603
835.235	16611
835.373	16626
835.511	16622
835.65	16493
835.788	16565
835.926	16421
836.064	16363
836.202	16390
836.34	16470
836.478	16634
836.615	16531
836.753	16519
836.891	16554
837.029	16512
837.167	16596
837.305	16417
837.443	16440
837.58	16382
837.718	16542
837.856	16405
837.993	16352
838.131	16348
838.269	16261
838.406	16272
838.544	16226
838.681	16169
838.819	16082
838.956	16025
839.094	15987
839.231	16032
839.369	16029
839.506	16272
839.643	16135
839.781	16051
839.918	15911
840.055	15964
840.193	15945
840.33	15918
840.467	15953
840.604	15998
840.742	16204
840.879	15865
841.016	15888
841.153	15846
841.29	15972
841.427	15884
841.564	15903
841.701	15975
841.838	15899
841.975	15922
842.112	15880
842.249	15747
842.385	15747
842.522	15953
842.659	15679
842.796	15785
842.933	15751
843.069	15705
843.206	15709
843.343	15751
843.479	15759
843.616	15698
843.752	15682
843.889	15542
844.025	15739
844.162	15458
844.298	15591
844.435	15538
844.571	15496
844.708	15545
844.844	15614
844.98	15739
845.117	15587
845.253	15466
845.389	15313
845.525	15428
845.661	15443
845.798	15310
845.934	15412
846.07	15241
846.206	15287
846.342	15340
846.478	15294
846.614	15131
846.75	15020
846.886	15013
847.022	15154
847.158	15100
847.294	15150
847.429	15055
847.565	15157
847.701	15397
847.837	14868
847.972	14823
848.108	14971
848.244	14883
848.379	14655
848.515	14663
848.65	14625
848.786	14712
848.921	14613
849.057	14750
849.192	14845
849.328	14739
849.463	14720
849.598	14701
849.734	14659
849.869	14473
850.004	14461
850.14	14434
850.275	14427
850.41	14396
850.545	14412
850.68	14492
850.815	14351
850.95	14473
851.085	14644
851.22	14610
851.355	14480
851.49	14469
851.625	14415
851.76	14431
851.895	14385
852.03	14317
852.165	14438
852.299	14484
852.434	14549
852.569	14434
852.703	14465
852.838	14480
852.973	14625
853.107	14560
853.242	14396
853.376	14339
853.511	14142
853.645	14313
853.78	14434
853.914	14385
854.048	14389
854.183	14278
854.317	14332
854.451	14583
854.585	14328
854.72	14332
854.854	14393
854.988	14233
855.122	14218
855.256	14252
855.39	14423
855.524	14434
855.658	14473
855.792	14389
855.926	14347
856.06	14442
856.194	14492
856.327	14396
856.461	14324
856.595	14324
856.729	14351
856.862	14492
856.996	14377
857.13	14400
857.263	14434
857.397	14438
857.53	14355
857.664	14400
857.797	14396
857.931	14415
858.064	14415
858.197	14438
858.331	14339
858.464	14320
858.597	14221
858.731	14332
858.864	14320
858.997	14355
859.13	14461
859.263	14385
859.396	14480
859.529	14278
859.662	14271
859.795	14339
859.928	14393
860.061	14465
860.194	14473
860.327	14385
860.46	14320
860.592	14469
860.725	14434
860.858	14484
860.99	14271
861.123	14210
861.256	14362
861.388	14328
861.521	15043
861.653	14267
861.786	14240
861.918	14244
862.05	14275
862.183	14233
862.315	14370
862.447	14381
862.58	14320
862.712	14153
862.844	14164
862.976	14149
863.108	14130
863.24	14492
863.372	14164
863.504	14081
863.636	14119
863.768	14164
863.9	14092
864.032	14073
864.164	14115
864.296	14187
864.428	14248
864.559	14267
864.691	14206
864.823	14195
864.954	14221
865.086	14153
865.217	14081
865.349	14115
865.48	14050
865.612	14119
865.743	14271
865.875	14153
866.006	14077
866.137	14134
866.269	14096
866.4	14035
866.531	14062
866.662	13989
866.793	14103
866.924	14024
867.055	14187
867.186	14058
867.317	14050
867.448	14039
867.579	13986
867.71	13986
867.841	13921
867.972	14096
868.103	14130
868.233	14240
868.364	14161
868.495	14259
868.625	14313
868.756	14446
868.886	14267
869.017	14298
869.147	14454
869.278	14427
869.408	14343
869.539	14317
869.669	14499
869.799	14336
869.929	14549
870.06	14461
870.19	14629
870.32	14674
870.45	14693
870.58	14750
870.71	14758
870.84	14883
870.97	14800
871.1	14754
871.23	14944
871.36	14929
871.489	14868
871.619	14872
871.749	15036
871.879	15093
872.008	15077
872.138	14952
872.267	14952
872.397	14769
872.526	14769
872.656	14857
872.785	14838
872.915	14910
873.044	15055
873.173	15024
873.303	14990
873.432	15085
873.561	15089
873.69	14975
873.819	14998
873.948	15081
874.077	15009
874.206	14986
874.335	15036
874.464	15165
874.593	15252
874.722	15298
874.851	15291
874.979	15302
875.108	15348
875.237	15226
875.365	15195
875.494	15283
875.623	15408
875.751	15268
875.88	15291
876.008	15492
876.136	15496
876.265	15663
876.393	15808
876.521	15823
876.65	15739
876.778	15778
876.906	15739
877.034	15793
877.162	15774
877.29	15557
877.418	15648
877.546	15797
877.674	15789
877.802	15686
877.93	15610
878.058	15690
878.185	15739
878.313	15603
878.441	15774
878.568	15580
878.696	15679
878.824	15720
878.951	15781
879.079	15865
879.206	16112
879.333	15827
879.461	15797
879.588	15789
879.715	15857
879.842	16002
879.97	15934
880.097	15587
880.224	15557
880.351	15576
880.478	15633
880.605	15576
880.732	15622
880.859	15831
880.986	15561
881.112	15625
881.239	15416
881.366	15401
881.493	15188
881.619	15260
881.746	15241
881.872	15310
881.999	15211
882.125	15104
882.252	15321
882.378	15233
882.505	15351
882.631	15138
882.757	15131
882.883	15154
883.01	15055
883.136	15051
883.262	14956
883.388	14868
883.514	15104
883.64	14986
883.766	14842
883.892	14830
884.018	14933
884.143	15036
884.269	15173
884.395	14800
884.52	14807
884.646	14788
884.772	14769
884.897	14610
885.023	14773
885.148	14842
885.274	14845
885.399	14800
885.524	14743
885.65	14864
885.775	14804
885.9	14758
886.025	14868
886.15	14823
886.275	14674
886.4	14575
886.525	14792
886.65	14659
886.775	14594
886.9	14830
887.025	15001
887.149	14838
887.274	14556
887.399	14545
887.523	14518
887.648	14560
887.773	14438
887.897	14636
888.021	14697
888.146	14549
888.27	14670
888.395	14678
888.519	14560
888.643	14610
888.767	14655
888.891	14552
889.015	14362
889.139	14495
889.263	14328
889.387	14590
889.511	14568
889.635	14598
889.759	14385
889.883	14415
890.006	14473
890.13	14587
890.254	14328
890.377	14400
890.501	14214
890.624	14294
890.748	14339
890.871	14267
890.995	14107
891.118	14027
891.241	14153
891.364	14229
891.488	14256
891.611	14142
891.734	14031
891.857	14229
891.98	14183
892.103	14271
892.226	14134
892.349	14031
892.471	13959
892.594	14062
892.717	14115
892.839	14058
892.962	14149
893.085	14248
893.207	14157
893.33	14062
893.452	14058
893.575	14157
893.697	14103
893.819	14252
893.941	14298
894.064	14358
894.186	14081
894.308	14149
894.43	14305
894.552	14419
894.674	14336
894.796	14191
894.918	14240
895.04	14191
895.161	14271
895.283	14278
895.405	14123
895.526	14168
895.648	14199
895.769	14320
895.891	14389
896.012	14362
896.134	14309
896.255	14351
896.376	14237
896.498	14351
896.619	14396
896.74	14423
896.861	14385
896.982	14587
897.103	14720
897.224	14617
897.345	14552
897.466	14419
897.587	14598
897.708	14621
897.828	14705
897.949	14522
898.07	14442
898.19	14587
898.311	14598
898.431	14495
898.552	14583
898.672	14712
898.792	14731
898.913	14716
899.033	14617
899.153	14412
899.273	14374
899.393	14465
899.513	14473
899.633	14606
899.753	14545
899.873	14454
899.993	14556
900.113	14427
900.232	14594
900.352	14549
900.472	14431
900.591	14336
900.711	14412
900.83	14415
900.95	14442
901.069	14545
901.189	14415
901.308	14164
901.427	14035
901.546	14115
901.665	14134
901.784	14024
901.904	13959
902.023	13818
902.141	13662
902.26	13609
902.379	13753
902.498	13586
902.617	13514
902.735	13662
902.854	13620
902.973	13525
903.091	13422
903.21	13327
903.328	13346
903.446	13240
903.565	13202
903.683	13190
903.801	13080
903.919	13316
904.038	13171
904.156	13008
904.274	13107
904.392	13000
904.51	13008
904.627	12996
904.745	13042
904.863	13122
904.981	12715
905.098	12700
905.216	12715
905.334	12764
905.451	12684
905.569	12616
905.686	12711
905.803	12688
905.921	12410
906.038	12658
906.155	12486
906.272	12418
906.389	12433
906.506	12224
906.623	12266
906.74	12258
906.857	12205
906.974	12220
907.091	12319
907.208	12357
907.324	12289
907.441	12178
907.557	12060
907.674	12057
907.79	11935
907.907	12015
908.023	12057
908.139	12072
908.256	11969
908.372	11965
908.488	11908
908.604	11859
908.72	11748
908.836	11805
908.952	11790
909.068	11745
909.184	11855
909.3	11813
909.415	11882
909.531	11882
909.647	11570
909.762	11581
909.878	11608
909.993	11505
910.108	11509
910.224	11528
910.339	11551
910.454	11482
910.57	11398
910.685	11318
910.8	11703
910.915	11577
911.03	11433
911.145	11299
911.259	11250
911.374	11299
911.489	11117
911.604	11193
911.718	11003
911.833	11094
911.947	10896
912.062	10896
912.176	11083
912.291	11033
912.405	11079
912.519	11250
912.633	11258
912.748	11117
912.862	10984
912.976	10915
913.09	10729
913.204	10900
913.318	10957
913.431	11006
913.545	10908
913.659	11014
913.772	10881
913.886	10752
914	10774
914.113	10835
914.226	10930
914.34	10938
914.453	10641
914.566	10881
914.68	10721
914.793	10717
914.906	10660
915.019	10512
915.132	10470
915.245	10523
915.358	10504
915.47	10451
915.583	10546
915.696	10497
915.809	10675
915.921	10694
916.034	10535
916.146	10459
916.259	10428
916.371	10519
916.483	10531
916.595	10462
916.708	10481
916.82	10493
916.932	10481
917.044	10455
917.156	10398
917.268	10344
917.38	10356
917.491	10280
917.603	10367
917.715	10455
917.826	10382
917.938	10337
918.049	10211
918.161	10402
918.272	10440
918.384	10481
918.495	10428
918.606	10207
918.717	10196
918.828	10223
918.939	10238
919.05	10147
919.161	10257
919.272	10036
919.383	10090
919.494	10318
919.604	10432
919.715	10219
919.826	10169
919.936	10158
920.047	10360
920.157	10276
920.267	10394
920.378	10318
920.488	10207
920.598	10432
920.708	10580
920.818	10440
920.928	10455
921.038	10599
921.148	10546
921.258	10242
921.368	10291
921.477	10147
921.587	10105
921.697	9956
921.806	10112
921.916	9991
922.025	9831
922.134	9732
922.244	9774
922.353	9861
922.462	9682
922.571	9618
922.68	9523
922.789	9504
922.898	9530
923.007	9454
923.116	9534
923.224	9519
923.333	9481
923.442	9401
923.55	9435
923.659	9370
923.767	9469
923.876	9351
923.984	9447
924.092	9264
924.201	9344
924.309	9412
924.417	9397
924.525	9249
924.633	9241
924.741	10219
924.849	9157
924.956	9272
925.064	9123
925.172	9066
925.279	9058
925.387	9264
925.494	9119
925.602	9329
925.709	9249
925.816	9020
925.924	9116
926.031	9188
926.138	9214
926.245	9203
926.352	9104
926.459	9180
926.566	9253
926.673	9062
926.779	9161
926.886	9017
926.993	8864
927.099	8834
927.206	8887
927.312	8735
927.419	8868
927.525	8876
927.631	8887
927.737	8781
927.843	8769
927.95	8655
928.056	8720
928.162	8758
928.267	8773
928.373	9450
928.479	8815
928.585	8606
928.69	8708
928.796	8826
928.901	8617
929.007	8587
929.112	8697
929.218	8667
929.323	8583
929.428	8587
929.533	8651
929.638	8579
929.743	8575
929.848	8659
929.953	8552
930.058	8457
930.163	8286
930.267	8400
930.372	8446
930.477	8305
930.581	8560
930.685	8362
930.79	8210
930.894	8309
930.998	8320
931.103	8434
931.207	8126
931.311	7974
931.415	7936
931.519	7803
931.623	7788
