Data from test_V78500241_1706.txt Node
Date: Fri Mar 25 14:45:35 CST 2022
User: usil
Spectrometer: V785-0024
Trigger mode: 0
Integration Time (sec): 4.000000E-1
Scans to average: 1
Nonlinearity correction enabled: false
Boxcar width: 0
Storing dark spectrum: false
XAxis mode: Wavelengths
Number of Pixels in Spectrum: 1024
>>>>>Begin Spectral Data<<<<<
801.071	22284
801.214	22120
801.356	21819
801.499	21819
801.641	21641
801.783	21637
801.926	21622
802.068	21530
802.211	21492
802.353	21313
802.496	21138
802.638	21180
802.78	21100
802.923	21089
803.065	20941
803.208	20899
803.35	20994
803.492	21131
803.635	21161
803.777	20944
803.919	21001
804.061	21218
804.204	21112
804.346	20910
804.488	20857
804.63	20902
804.773	20762
804.915	20998
805.057	20975
805.199	20826
805.341	20956
805.483	21112
805.626	20887
805.768	20826
805.91	20956
806.052	20971
806.194	20864
806.336	20998
806.478	20804
806.62	20823
806.762	20895
806.904	20963
807.046	21382
807.188	21199
807.33	21184
807.472	21332
807.614	21192
807.756	21135
807.898	21017
808.04	20872
808.182	20963
808.324	20960
808.465	21108
808.607	21222
808.749	21344
808.891	21374
809.033	21348
809.174	21523
809.316	21298
809.458	21329
809.6	21157
809.741	21272
809.883	21306
810.025	21420
810.166	21496
810.308	21401
810.45	21408
810.591	21268
810.733	21184
810.875	21150
811.016	20944
811.158	21028
811.299	21119
811.441	21165
811.582	21218
811.724	21081
811.865	21066
812.007	21047
812.148	21043
812.29	21207
812.431	21230
812.573	21397
812.714	21496
812.855	21591
812.997	21583
813.138	21610
813.279	21739
813.421	21515
813.562	21534
813.703	21351
813.845	21245
813.986	20868
814.127	20712
814.268	20746
814.41	20834
814.551	20758
814.692	20579
814.833	20480
814.974	20518
815.115	20720
815.256	20473
815.397	20469
815.539	20473
815.68	20415
815.821	20202
815.962	20332
816.103	20259
816.244	20187
816.385	20244
816.526	20058
816.666	19883
816.807	19635
816.948	19894
817.089	19731
817.23	19807
817.371	19742
817.512	19769
817.653	19696
817.793	19753
817.934	19746
818.075	19811
818.216	19791
818.356	19818
818.497	19571
818.638	19552
818.778	19438
818.919	19483
819.06	19422
819.2	19559
819.341	19670
819.481	19601
819.622	19742
819.762	19993
819.903	19871
820.043	19776
820.184	19658
820.324	19689
820.465	19799
820.605	19662
820.746	19765
820.886	19643
821.026	19681
821.167	19674
821.307	19674
821.447	19662
821.588	19597
821.728	19434
821.868	19278
822.008	19194
822.149	19190
822.289	19065
822.429	18795
822.569	18840
822.709	18825
822.849	18608
822.99	18540
823.13	18601
823.27	18509
823.41	18384
823.55	18376
823.69	18490
823.83	18566
823.97	18334
824.11	18129
824.25	18140
824.389	18159
824.529	18311
824.669	18270
824.809	18372
824.949	18247
825.089	18182
825.228	18194
825.368	18015
825.508	17973
825.648	18003
825.787	18019
825.927	18034
826.067	17973
826.206	17965
826.346	18049
826.485	18053
826.625	17939
826.765	17950
826.904	18060
827.044	17653
827.183	17714
827.323	17600
827.462	17649
827.601	17646
827.741	17623
827.88	17722
828.02	17592
828.159	17566
828.298	17573
828.437	17665
828.577	17608
828.716	17832
828.855	17657
828.994	17512
829.134	17474
829.273	17440
829.412	17318
829.551	17337
829.69	17467
829.829	17379
829.968	17497
830.107	17478
830.246	17474
830.385	17288
830.524	17318
830.663	17261
830.802	17105
830.941	16987
831.08	16984
831.219	17136
831.357	17006
831.496	17220
831.635	17045
831.774	16877
831.913	16866
832.051	16904
832.19	16740
832.329	16927
832.467	16782
832.606	16733
832.744	16698
832.883	16615
833.022	16675
833.16	16736
833.299	16809
833.437	16782
833.576	16850
833.714	16694
833.852	16725
833.991	16736
834.129	16778
834.267	16854
834.406	16755
834.544	16797
834.682	16793
834.821	16774
834.959	16987
835.097	16797
835.235	16908
835.373	16721
835.511	16763
835.65	16736
835.788	16672
835.926	16561
836.064	16455
836.202	16485
836.34	16645
836.478	16721
836.615	16683
836.753	16675
836.891	16740
837.029	16653
837.167	16634
837.305	16577
837.443	16561
837.58	16493
837.718	16664
837.856	16478
837.993	16440
838.131	16584
838.269	16436
838.406	16478
838.544	16379
838.681	16147
838.819	16341
838.956	16131
839.094	16158
839.231	16021
839.369	16230
839.506	16398
839.643	16280
839.781	16181
839.918	16002
840.055	16109
840.193	16067
840.33	15968
840.467	16006
840.604	16150
840.742	16299
840.879	15941
841.016	15956
841.153	15937
841.29	16135
841.427	16048
841.564	16139
841.701	16067
841.838	16051
841.975	15983
842.112	16044
842.249	15895
842.385	15819
842.522	16074
842.659	15793
842.796	15793
842.933	15842
843.069	15800
843.206	15850
843.343	15922
843.479	15956
843.616	15838
843.752	15644
843.889	15599
844.025	15793
844.162	15686
844.298	15728
844.435	15686
844.571	15701
844.708	15751
844.844	15728
844.98	15770
845.117	15759
845.253	15587
845.389	15515
845.525	15549
845.661	15523
845.798	15447
845.934	15568
846.07	15443
846.206	15523
846.342	15603
846.478	15393
846.614	15207
846.75	15123
846.886	15230
847.022	15321
847.158	15214
847.294	15150
847.429	15275
847.565	15184
847.701	15405
847.837	14960
847.972	14876
848.108	15043
848.244	14979
848.379	14754
848.515	14853
848.65	14819
848.786	14826
848.921	14701
849.057	14914
849.192	14861
849.328	14887
849.463	14834
849.598	14731
849.734	14720
849.869	14678
850.004	14545
850.14	14644
850.275	14549
850.41	14492
850.545	14598
850.68	14533
850.815	14545
850.95	14644
851.085	14815
851.22	14625
851.355	14598
851.49	14629
851.625	14541
851.76	14549
851.895	14469
852.03	14476
852.165	14526
852.299	14575
852.434	14724
852.569	14583
852.703	14659
852.838	14659
852.973	14750
853.107	14587
853.242	14583
853.376	14450
853.511	14339
853.645	14408
853.78	14594
853.914	14465
854.048	14412
854.183	14419
854.317	14503
854.451	14610
854.585	14412
854.72	14427
854.854	14526
854.988	14381
855.122	14355
855.256	14259
855.39	14400
855.524	14423
855.658	14507
855.792	14473
855.926	14625
856.06	14526
856.194	14476
856.327	14454
856.461	14339
856.595	14374
856.729	14339
856.862	14503
856.996	14427
857.13	14533
857.263	14518
857.397	14518
857.53	14332
857.664	14530
857.797	14499
857.931	14530
858.064	14461
858.197	14526
858.331	14503
858.464	14336
858.597	14305
858.731	14484
858.864	14404
858.997	14336
859.13	14480
859.263	14419
859.396	14556
859.529	14434
859.662	14358
859.795	14351
859.928	14412
860.061	14598
860.194	14617
860.327	14434
860.46	14495
860.592	14522
860.725	14533
860.858	14568
860.99	14408
861.123	14370
861.256	14328
861.388	14419
861.521	15032
861.653	14218
861.786	14282
861.918	14313
862.05	14374
862.183	14412
862.315	14465
862.447	14526
862.58	14396
862.712	14218
862.844	14138
862.976	14263
863.108	14286
863.24	14659
863.372	14199
863.504	14157
863.636	14195
863.768	14267
863.9	14320
864.032	14138
864.164	14164
864.296	14126
864.428	14298
864.559	14389
864.691	14240
864.823	14339
864.954	14199
865.086	14202
865.217	14202
865.349	14130
865.48	14221
865.612	14233
865.743	14271
865.875	14191
866.006	14168
866.137	14225
866.269	14237
866.4	14191
866.531	14187
866.662	14176
866.793	14157
866.924	14176
867.055	14191
867.186	14134
867.317	14172
867.448	14062
867.579	14077
867.71	14031
867.841	14119
867.972	14168
868.103	14142
868.233	14180
868.364	14134
868.495	14336
868.625	14469
868.756	14492
868.886	14404
869.017	14434
869.147	14571
869.278	14526
869.408	14465
869.539	14469
869.669	14511
869.799	14526
869.929	14610
870.06	14499
870.19	14777
870.32	14724
870.45	14727
870.58	14937
870.71	14979
870.84	14933
870.97	14826
871.1	14746
871.23	14979
871.36	15112
871.489	14895
871.619	14994
871.749	15017
871.879	15055
872.008	15108
872.138	14994
872.267	14971
872.397	15005
872.526	14857
872.656	14876
872.785	14914
872.915	15116
873.044	15131
873.173	15039
873.303	15047
873.432	15119
873.561	15165
873.69	15062
873.819	15047
873.948	15157
874.077	15154
874.206	15020
874.335	15032
874.464	15252
874.593	15382
874.722	15351
874.851	15431
874.979	15469
875.108	15393
875.237	15268
875.365	15317
875.494	15321
875.623	15458
875.751	15344
875.88	15439
876.008	15545
876.136	15553
876.265	15819
876.393	15880
876.521	15850
876.65	15968
876.778	15903
876.906	15842
877.034	15736
877.162	15797
877.29	15800
877.418	15808
877.546	15747
877.674	15759
877.802	15739
877.93	15682
878.058	15682
878.185	15739
878.313	15778
878.441	15797
878.568	15587
878.696	15751
878.824	15888
878.951	15831
879.079	15960
879.206	16097
879.333	16013
879.461	15926
879.588	15865
879.715	15972
879.842	16158
879.97	15964
880.097	15705
880.224	15561
880.351	15698
880.478	15682
880.605	15671
880.732	15686
880.859	15854
880.986	15671
881.112	15561
881.239	15473
881.366	15481
881.493	15435
881.619	15397
881.746	15405
881.872	15370
881.999	15214
882.125	15188
882.252	15332
882.378	15405
882.505	15401
882.631	15287
882.757	15127
882.883	15306
883.01	15157
883.136	15100
883.262	15032
883.388	15039
883.514	15157
883.64	15142
883.766	15077
883.892	14883
884.018	14929
884.143	15123
884.269	15245
884.395	14880
884.52	14895
884.646	14849
884.772	14800
884.897	14731
885.023	14914
885.148	14921
885.274	15028
885.399	14944
885.524	14769
885.65	14872
885.775	14891
885.9	14845
886.025	14925
886.15	14899
886.275	14876
886.4	14758
886.525	14792
886.65	14811
886.775	14830
886.9	14990
887.025	15093
887.149	14842
887.274	14712
887.399	14556
887.523	14625
887.648	14606
887.773	14537
887.897	14762
888.021	14655
888.146	14568
888.27	14708
888.395	14929
888.519	14750
888.643	14693
888.767	14651
888.891	14693
889.015	14461
889.139	14518
889.263	14473
889.387	14579
889.511	14887
889.635	14617
889.759	14522
889.883	14530
890.006	14503
890.13	14655
890.254	14374
890.377	14446
890.501	14336
890.624	14298
890.748	14374
890.871	14202
890.995	14221
891.118	14149
891.241	14172
891.364	14214
891.488	14396
891.611	14252
891.734	14195
891.857	14263
891.98	14202
892.103	14362
892.226	14267
892.349	14275
892.471	14103
892.594	14256
892.717	14206
892.839	14240
892.962	14233
893.085	14233
893.207	14252
893.33	14107
893.452	14054
893.575	14336
893.697	14214
893.819	14366
893.941	14461
894.064	14381
894.186	14210
894.308	14267
894.43	14381
894.552	14404
894.674	14393
894.796	14168
894.918	14195
895.04	14252
895.161	14389
895.283	14370
895.405	14252
895.526	14275
895.648	14396
895.769	14351
895.891	14465
896.012	14465
896.134	14488
896.255	14336
896.376	14294
896.498	14328
896.619	14492
896.74	14393
896.861	14469
896.982	14621
897.103	14838
897.224	14712
897.345	14724
897.466	14606
897.587	14667
897.708	14769
897.828	14727
897.949	14735
898.07	14511
898.19	14549
898.311	14849
898.431	14663
898.552	14693
898.672	14838
898.792	14819
898.913	14830
899.033	14621
899.153	14575
899.273	14431
899.393	14541
899.513	14625
899.633	14499
899.753	14670
899.873	14537
899.993	14682
900.113	14461
900.232	14602
900.352	14526
900.472	14454
900.591	14484
900.711	14419
900.83	14492
900.95	14480
901.069	14575
901.189	14374
901.308	14237
901.427	14027
901.546	14119
901.665	14233
901.784	14168
901.904	14035
902.023	13947
902.141	13712
902.26	13708
902.379	13769
902.498	13609
902.617	13609
902.735	13757
902.854	13643
902.973	13620
903.091	13449
903.21	13426
903.328	13472
903.446	13304
903.565	13324
903.683	13289
903.801	13236
903.919	13225
904.038	13187
904.156	13065
904.274	13221
904.392	13175
904.51	13099
904.627	13076
904.745	13099
904.863	13095
904.981	12928
905.098	12738
905.216	12810
905.334	12798
905.451	12779
905.569	12768
905.686	12810
905.803	12806
905.921	12486
906.038	12623
906.155	12639
906.272	12513
906.389	12433
906.506	12376
906.623	12330
906.74	12308
906.857	12296
906.974	12330
907.091	12388
907.208	12456
907.324	12380
907.441	12262
907.557	12159
907.674	12121
907.79	11999
907.907	12110
908.023	12106
908.139	12076
908.256	12102
908.372	12007
908.488	12011
908.604	11889
908.72	11855
908.836	11885
908.952	11866
909.068	11832
909.184	12015
909.3	11897
909.415	11992
909.531	11931
909.647	11695
909.762	11680
909.878	11615
909.993	11573
910.108	11657
910.224	11627
910.339	11551
910.454	11585
910.57	11452
910.685	11345
910.8	11741
910.915	11676
911.03	11558
911.145	11311
911.259	11299
911.374	11383
911.489	11288
911.604	11204
911.718	11014
911.833	11083
911.947	10946
912.062	10965
912.176	11029
912.291	11037
912.405	11056
912.519	11235
912.633	11277
912.748	11105
912.862	11151
912.976	10972
913.09	10816
913.204	10828
913.318	10946
913.431	10987
913.545	11090
913.659	11067
913.772	11033
913.886	10809
914	10831
914.113	10885
914.226	10961
914.34	10877
914.453	10744
914.566	10847
914.68	10881
914.793	10744
914.906	10611
915.019	10440
915.132	10531
915.245	10516
915.358	10637
915.47	10603
915.583	10584
915.696	10618
915.809	10782
915.921	10733
916.034	10573
916.146	10466
916.259	10497
916.371	10622
916.483	10626
916.595	10527
916.708	10462
916.82	10565
916.932	10538
917.044	10478
917.156	10500
917.268	10424
917.38	10318
917.491	10421
917.603	10375
917.715	10489
917.826	10550
917.938	10398
918.049	10348
918.161	10421
918.272	10516
918.384	10592
918.495	10512
918.606	10291
918.717	10135
918.828	10268
918.939	10303
919.05	10173
919.161	10276
919.272	10124
919.383	10147
919.494	10466
919.604	10519
919.715	10306
919.826	10257
919.936	10272
920.047	10344
920.157	10325
920.267	10500
920.378	10440
920.488	10356
920.598	10459
920.708	10645
920.818	10611
920.928	10470
921.038	10672
921.148	10641
921.258	10405
921.368	10227
921.477	10147
921.587	10086
921.697	10051
921.806	10135
921.916	10105
922.025	9854
922.134	9846
922.244	9846
922.353	9899
922.462	9797
922.571	9743
922.68	9523
922.789	9458
922.898	9576
923.007	9420
923.116	9606
923.224	9538
923.333	9485
923.442	9435
923.55	9405
923.659	9428
923.767	9496
923.876	9447
923.984	9450
924.092	9313
924.201	9405
924.309	9439
924.417	9443
924.525	9389
924.633	9325
924.741	10314
924.849	9176
924.956	9287
925.064	9245
925.172	9116
925.279	9176
925.387	9272
925.494	9279
925.602	9355
925.709	9230
925.816	9184
925.924	9199
926.031	9283
926.138	9192
926.245	9260
926.352	9131
926.459	9291
926.566	9268
926.673	9097
926.779	9142
926.886	9070
926.993	8876
927.099	8956
927.206	8800
927.312	8914
927.419	9017
927.525	8933
927.631	8948
927.737	8834
927.843	8785
927.95	8731
928.056	8769
928.162	8842
928.267	8891
928.373	9473
928.479	8921
928.585	8659
928.69	8788
928.796	8887
928.901	8716
929.007	8530
929.112	8796
929.218	8754
929.323	8617
929.428	8598
929.533	8800
929.638	8583
929.743	8541
929.848	8651
929.953	8621
930.058	8514
930.163	8377
930.267	8400
930.372	8492
930.477	8351
930.581	8568
930.685	8457
930.79	8328
930.894	8374
930.998	8290
931.103	8465
931.207	8077
931.311	8134
931.415	8024
931.519	7799
931.623	7906
