Data from test_V78500241_1538.txt Node
Date: Fri Mar 25 14:44:25 CST 2022
User: usil
Spectrometer: V785-0024
Trigger mode: 0
Integration Time (sec): 4.000000E-1
Scans to average: 1
Nonlinearity correction enabled: false
Boxcar width: 0
Storing dark spectrum: false
XAxis mode: Wavelengths
Number of Pixels in Spectrum: 1024
>>>>>Begin Spectral Data<<<<<
801.071	22382
801.214	22405
801.356	21926
801.499	21953
801.641	21774
801.783	21747
801.926	21865
802.068	21660
802.211	21625
802.353	21561
802.496	21340
802.638	21233
802.78	21184
802.923	21157
803.065	21043
803.208	21043
803.35	21108
803.492	21222
803.635	21321
803.777	21146
803.919	21157
804.061	21496
804.204	21317
804.346	21100
804.488	20933
804.63	21062
804.773	20921
804.915	21077
805.057	21260
805.199	21039
805.341	21226
805.483	21214
805.626	21081
805.768	20918
805.91	21131
806.052	21024
806.194	21005
806.336	21123
806.478	20986
806.62	21112
806.762	21127
806.904	21199
807.046	21443
807.188	21363
807.33	21420
807.472	21469
807.614	21313
807.756	21378
807.898	21332
808.04	21100
808.182	21081
808.324	21176
808.465	21237
808.607	21492
808.749	21424
808.891	21690
809.033	21709
809.174	21652
809.316	21519
809.458	21492
809.6	21416
809.741	21549
809.883	21599
810.025	21663
810.166	21698
810.308	21724
810.45	21595
810.591	21336
810.733	21367
810.875	21310
811.016	21241
811.158	21146
811.299	21329
811.441	21363
811.582	21378
811.724	21157
811.865	21214
812.007	21233
812.148	21150
812.29	21344
812.431	21408
812.573	21576
812.714	21701
812.855	21660
812.997	21785
813.138	21953
813.279	21812
813.421	21595
813.562	21675
813.703	21424
813.845	21340
813.986	21089
814.127	20819
814.268	20743
814.41	20811
814.551	20842
814.692	20845
814.833	20651
814.974	20613
815.115	20655
815.256	20583
815.397	20651
815.539	20571
815.68	20583
815.821	20495
815.962	20495
816.103	20473
816.244	20301
816.385	20324
816.526	20218
816.666	20077
816.807	19852
816.948	20031
817.089	19974
817.23	20012
817.371	19909
817.512	19837
817.653	19814
817.793	19852
817.934	19955
818.075	19921
818.216	20054
818.356	19856
818.497	19696
818.638	19552
818.778	19540
818.919	19586
819.06	19624
819.2	19704
819.341	19822
819.481	19811
819.622	19959
819.762	20054
819.903	20054
820.043	19959
820.184	19883
820.324	19883
820.465	19811
820.605	19883
820.746	19814
820.886	19628
821.026	19944
821.167	19818
821.307	19906
821.447	19822
821.588	19761
821.728	19529
821.868	19407
822.008	19289
822.149	19194
822.289	19339
822.429	19099
822.569	19023
822.709	18928
822.849	18741
822.99	18726
823.13	18677
823.27	18730
823.41	18544
823.55	18563
823.69	18631
823.83	18601
823.97	18494
824.11	18395
824.25	18361
824.389	18372
824.529	18433
824.669	18311
824.809	18578
824.949	18528
825.089	18372
825.228	18395
825.368	18186
825.508	18213
825.648	18174
825.787	18209
825.927	18232
826.067	18174
826.206	18026
826.346	18129
826.485	18262
826.625	18102
826.765	18273
826.904	18114
827.044	17931
827.183	17882
827.323	17916
827.462	17965
827.601	17821
827.741	17802
827.88	17882
828.02	17707
828.159	17813
828.298	17859
828.437	17878
828.577	17783
828.716	17942
828.855	17798
828.994	17646
829.134	17646
829.273	17661
829.412	17570
829.551	17497
829.69	17596
829.829	17532
829.968	17661
830.107	17657
830.246	17695
830.385	17532
830.524	17512
830.663	17356
830.802	17277
830.941	17212
831.08	17181
831.219	17239
831.357	17280
831.496	17410
831.635	17326
831.774	17102
831.913	17147
832.051	17037
832.19	16991
832.329	17045
832.467	16889
832.606	16847
832.744	16942
832.883	16900
833.022	16854
833.16	16896
833.299	16866
833.437	16881
833.576	16866
833.714	16904
833.852	17022
833.991	17048
834.129	17037
834.267	17071
834.406	16949
834.544	16938
834.682	16961
834.821	16991
834.959	17090
835.097	16858
835.235	16953
835.373	16908
835.511	16965
835.65	16812
835.788	16831
835.926	16630
836.064	16672
836.202	16710
836.34	16854
836.478	17010
836.615	16767
836.753	16854
836.891	16999
837.029	16885
837.167	16835
837.305	16831
837.443	16713
837.58	16687
837.718	16687
837.856	16729
837.993	16637
838.131	16630
838.269	16596
838.406	16596
838.544	16634
838.681	16390
838.819	16322
838.956	16246
839.094	16135
839.231	16337
839.369	16432
839.506	16752
839.643	16443
839.781	16207
839.918	16204
840.055	16173
840.193	16284
840.33	16268
840.467	16265
840.604	16291
840.742	16523
840.879	16074
841.016	16246
841.153	16147
841.29	16329
841.427	16363
841.564	16363
841.701	16306
841.838	16173
841.975	16154
842.112	16166
842.249	16059
842.385	15956
842.522	16147
842.659	16036
842.796	15941
842.933	16063
843.069	15888
843.206	15968
843.343	16071
843.479	15987
843.616	16025
843.752	15778
843.889	15770
844.025	15953
844.162	15698
844.298	15899
844.435	15823
844.571	15747
844.708	15869
844.844	15941
844.98	15945
845.117	15941
845.253	15759
845.389	15663
845.525	15819
845.661	15785
845.798	15739
845.934	15819
846.07	15827
846.206	15831
846.342	16002
846.478	15580
846.614	15549
846.75	15302
846.886	15291
847.022	15431
847.158	15348
847.294	15458
847.429	15382
847.565	15378
847.701	15572
847.837	15089
847.972	15077
848.108	15157
848.244	15074
848.379	14910
848.515	14944
848.65	14921
848.786	14986
848.921	15001
849.057	14990
849.192	15051
849.328	15005
849.463	15020
849.598	14876
849.734	14948
849.869	14842
850.004	14743
850.14	14765
850.275	14644
850.41	14678
850.545	14648
850.68	14705
850.815	14769
850.95	14610
851.085	14937
851.22	14906
851.355	14765
851.49	14720
851.625	14678
851.76	14720
851.895	14617
852.03	14613
852.165	14602
852.299	14773
852.434	14697
852.569	14754
852.703	14788
852.838	14819
852.973	14849
853.107	14804
853.242	14686
853.376	14629
853.511	14503
853.645	14610
853.78	14777
853.914	14583
854.048	14613
854.183	14541
854.317	14598
854.451	14758
854.585	14537
854.72	14560
854.854	14686
854.988	14469
855.122	14556
855.256	14450
855.39	14560
855.524	14632
855.658	14575
855.792	14640
855.926	14488
856.06	14689
856.194	14712
856.327	14590
856.461	14552
856.595	14564
856.729	14507
856.862	14644
856.996	14511
857.13	14686
857.263	14617
857.397	14701
857.53	14495
857.664	14621
857.797	14659
857.931	14651
858.064	14659
858.197	14716
858.331	14583
858.464	14522
858.597	14476
858.731	14457
858.864	14598
858.997	14644
859.13	14552
859.263	14629
859.396	14598
859.529	14511
859.662	14507
859.795	14537
859.928	14648
860.061	14796
860.194	14720
860.327	14537
860.46	14571
860.592	14712
860.725	14689
860.858	14731
860.99	14606
861.123	14655
861.256	14594
861.388	14663
861.521	15154
861.653	14427
861.786	14476
861.918	14404
862.05	14514
862.183	14507
862.315	14545
862.447	14556
862.58	14530
862.712	14400
862.844	14366
862.976	14492
863.108	14343
863.24	14815
863.372	14355
863.504	14320
863.636	14313
863.768	14473
863.9	14377
864.032	14301
864.164	14195
864.296	14427
864.428	14381
864.559	14446
864.691	14450
864.823	14370
864.954	14381
865.086	14408
865.217	14290
865.349	14233
865.48	14324
865.612	14461
865.743	14450
865.875	14317
866.006	14339
866.137	14374
866.269	14389
866.4	14267
866.531	14282
866.662	14206
866.793	14286
866.924	14313
867.055	14355
867.186	14393
867.317	14351
867.448	14275
867.579	14332
867.71	14221
867.841	14263
867.972	14271
868.103	14328
868.233	14301
868.364	14415
868.495	14370
868.625	14469
868.756	14655
868.886	14545
869.017	14575
869.147	14644
869.278	14724
869.408	14594
869.539	14655
869.669	14651
869.799	14678
869.929	14625
870.06	14720
870.19	14883
870.32	14826
870.45	14925
870.58	14902
870.71	15043
870.84	15013
870.97	14933
871.1	15017
871.23	15188
871.36	15165
871.489	15024
871.619	15195
871.749	15211
871.879	15142
872.008	15336
872.138	15245
872.267	15135
872.397	15062
872.526	14944
872.656	15013
872.785	15024
872.915	15184
873.044	15306
873.173	15264
873.303	15237
873.432	15340
873.561	15302
873.69	15203
873.819	15306
873.948	15302
874.077	15241
874.206	15298
874.335	15291
874.464	15458
874.593	15625
874.722	15393
874.851	15504
874.979	15473
875.108	15641
875.237	15469
875.365	15545
875.494	15492
875.623	15572
875.751	15515
875.88	15515
876.008	15648
876.136	15713
876.265	15827
876.393	15968
876.521	15949
876.65	16048
876.778	15991
876.906	15857
877.034	15827
877.162	15949
877.29	15846
877.418	16013
877.546	15903
877.674	16010
877.802	15907
877.93	15964
878.058	15876
878.185	15907
878.313	15876
878.441	15972
878.568	15762
878.696	15884
878.824	15922
878.951	16128
879.079	16078
879.206	16398
879.333	16188
879.461	16074
879.588	16147
879.715	16166
879.842	16219
879.97	16128
880.097	15854
880.224	15774
880.351	15880
880.478	15835
880.605	15747
880.732	15793
880.859	15975
880.986	15747
881.112	15842
881.239	15614
881.366	15648
881.493	15496
881.619	15488
881.746	15443
881.872	15386
881.999	15370
882.125	15359
882.252	15507
882.378	15454
882.505	15660
882.631	15496
882.757	15256
882.883	15428
883.01	15283
883.136	15173
883.262	15252
883.388	15154
883.514	15317
883.64	15351
883.766	15226
883.892	15169
884.018	15195
884.143	15264
884.269	15435
884.395	14979
884.52	14967
884.646	14960
884.772	15028
884.897	14979
885.023	15032
885.148	15024
885.274	15131
885.399	15142
885.524	14979
885.65	15055
885.775	14937
885.9	15077
886.025	15055
886.15	15116
886.275	14887
886.4	14918
886.525	14994
886.65	14906
886.775	14826
886.9	15165
887.025	15142
887.149	15017
887.274	14815
887.399	14750
887.523	14842
887.648	14670
887.773	14697
887.897	14807
888.021	14883
888.146	14701
888.27	14895
888.395	14933
888.519	14724
888.643	14830
888.767	14906
888.891	14678
889.015	14697
889.139	14758
889.263	14522
889.387	14819
889.511	14807
889.635	14845
889.759	14705
889.883	14701
890.006	14667
890.13	14811
890.254	14587
890.377	14644
890.501	14423
890.624	14419
890.748	14507
890.871	14473
890.995	14313
891.118	14271
891.241	14309
891.364	14358
891.488	14415
891.611	14328
891.734	14275
891.857	14442
891.98	14358
892.103	14404
892.226	14419
892.349	14271
892.471	14275
892.594	14214
892.717	14351
892.839	14313
892.962	14434
893.085	14374
893.207	14358
893.33	14237
893.452	14214
893.575	14408
893.697	14339
893.819	14503
893.941	14503
894.064	14476
894.186	14298
894.308	14298
894.43	14564
894.552	14640
894.674	14427
894.796	14271
894.918	14374
895.04	14328
895.161	14522
895.283	14389
895.405	14370
895.526	14404
895.648	14480
895.769	14442
895.891	14492
896.012	14526
896.134	14469
896.255	14499
896.376	14499
896.498	14450
896.619	14571
896.74	14564
896.861	14549
896.982	14826
897.103	14952
897.224	14754
897.345	14762
897.466	14819
897.587	14693
897.708	14811
897.828	14762
897.949	14796
898.07	14640
898.19	14743
898.311	14918
898.431	14800
898.552	14956
898.672	14819
898.792	14918
898.913	14868
899.033	14758
899.153	14838
899.273	14590
899.393	14826
899.513	14579
899.633	14720
899.753	14659
899.873	14708
899.993	14731
900.113	14701
900.232	14712
900.352	14682
900.472	14655
900.591	14492
900.711	14606
900.83	14499
900.95	14682
901.069	14568
901.189	14431
901.308	14317
901.427	14149
901.546	14278
901.665	14233
901.784	14263
901.904	14168
902.023	14008
902.141	13887
902.26	13917
902.379	13898
902.498	13757
902.617	13856
902.735	13780
902.854	13727
902.973	13757
903.091	13563
903.21	13537
903.328	13548
903.446	13499
903.565	13369
903.683	13320
903.801	13225
903.919	13289
904.038	13278
904.156	13179
904.274	13217
904.392	13221
904.51	13141
904.627	13255
904.745	13236
904.863	13240
904.981	12958
905.098	12875
905.216	12882
905.334	12875
905.451	12890
905.569	12913
905.686	12932
905.803	12856
905.921	12703
906.038	12856
906.155	12749
906.272	12665
906.389	12593
906.506	12498
906.623	12445
906.74	12475
906.857	12330
906.974	12327
907.091	12604
907.208	12589
907.324	12448
907.441	12372
907.557	12292
907.674	12152
907.79	12197
907.907	12155
908.023	12190
908.139	12209
908.256	12133
908.372	12186
908.488	12140
908.604	12030
908.72	11893
908.836	11927
908.952	11904
909.068	11935
909.184	12022
909.3	11969
909.415	11950
909.531	11977
909.647	11790
909.762	11752
909.878	11668
909.993	11676
910.108	11771
910.224	11623
910.339	11760
910.454	11581
910.57	11516
910.685	11509
910.8	11752
910.915	11722
911.03	11577
911.145	11395
911.259	11421
911.374	11444
911.489	11356
911.604	11326
911.718	11174
911.833	11155
911.947	11124
912.062	10991
912.176	11155
912.291	11143
912.405	11113
912.519	11303
912.633	11379
912.748	11254
912.862	11128
912.976	11105
913.09	10980
913.204	11006
913.318	11105
913.431	11174
913.545	11098
913.659	11155
913.772	11041
913.886	10934
914	10908
914.113	11098
914.226	11086
914.34	10984
914.453	10847
914.566	11056
914.68	10843
914.793	10896
914.906	10744
915.019	10603
915.132	10603
915.245	10687
915.358	10694
915.47	10675
915.583	10725
915.696	10683
915.809	10767
915.921	10816
916.034	10675
916.146	10675
916.259	10641
916.371	10653
916.483	10683
916.595	10565
916.708	10588
916.82	10577
916.932	10580
917.044	10603
917.156	10569
917.268	10390
917.38	10542
917.491	10500
917.603	10508
917.715	10588
917.826	10607
917.938	10432
918.049	10356
918.161	10459
918.272	10668
918.384	10611
918.495	10508
918.606	10394
918.717	10280
918.828	10390
918.939	10394
919.05	10261
919.161	10325
919.272	10166
919.383	10276
919.494	10375
919.604	10645
919.715	10455
919.826	10238
919.936	10367
920.047	10459
920.157	10348
920.267	10672
920.378	10466
920.488	10432
920.598	10535
920.708	10714
920.818	10546
920.928	10558
921.038	10683
921.148	10675
921.258	10382
921.368	10360
921.477	10207
921.587	10234
921.697	10124
921.806	10230
921.916	10013
922.025	9998
922.134	9907
922.244	9915
922.353	10002
922.462	9800
922.571	9804
922.68	9652
922.789	9561
922.898	9743
923.007	9656
923.116	9667
923.224	9660
923.333	9663
923.442	9576
923.55	9435
923.659	9526
923.767	9564
923.876	9462
923.984	9614
924.092	9412
924.201	9473
924.309	9511
924.417	9439
924.525	9397
924.633	9431
924.741	10386
924.849	9329
924.956	9378
925.064	9317
925.172	9218
925.279	9203
925.387	9321
925.494	9306
925.602	9405
925.709	9382
925.816	9199
925.924	9241
926.031	9374
926.138	9321
926.245	9291
926.352	9138
926.459	9424
926.566	9344
926.673	9226
926.779	9112
926.886	9169
926.993	8933
927.099	9013
927.206	8937
927.312	8929
927.419	9013
927.525	8941
927.631	9074
927.737	8914
927.843	8883
927.95	8750
928.056	8842
928.162	8906
928.267	8861
928.373	9454
928.479	8960
928.585	8678
928.69	8823
928.796	8921
928.901	8735
929.007	8739
929.112	8746
929.218	8769
929.323	8712
929.428	8651
929.533	8781
929.638	8613
929.743	8689
929.848	8708
929.953	8644
930.058	8663
930.163	8480
930.267	8450
930.372	8689
930.477	8415
930.581	8651
930.685	8514
930.79	8358
930.894	8438
930.998	8423
931.103	8571
931.207	8202
931.311	8096
931.415	8069
931.519	7902
931.623	7864
