Data from test_V78500241_214.txt Node
Date: Fri Mar 25 14:35:12 CST 2022
User: usil
Spectrometer: V785-0024
Trigger mode: 0
Integration Time (sec): 4.000000E-1
Scans to average: 1
Nonlinearity correction enabled: false
Boxcar width: 0
Storing dark spectrum: false
XAxis mode: Wavelengths
Number of Pixels in Spectrum: 1024
>>>>>Begin Spectral Data<<<<<
801.071	27930
801.214	27804
801.356	27618
801.499	27507
801.641	27427
801.783	27275
801.926	27378
802.068	27252
802.211	27203
802.353	27180
802.496	26971
802.638	27039
802.78	26914
802.923	26785
803.065	26621
803.208	26750
803.35	26929
803.492	26781
803.635	27062
803.777	26921
803.919	26979
804.061	27180
804.204	26834
804.346	26773
804.488	26849
804.63	26823
804.773	26686
804.915	26826
805.057	26792
805.199	26781
805.341	26887
805.483	26868
805.626	26891
805.768	26754
805.91	26918
806.052	26902
806.194	26804
806.336	27062
806.478	26830
806.62	26830
806.762	26998
806.904	27207
807.046	27348
807.188	27283
807.33	27325
807.472	27367
807.614	27397
807.756	27416
807.898	27237
808.04	27051
808.182	27370
808.324	27363
808.465	27332
808.607	27671
808.749	27873
808.891	27895
809.033	27994
809.174	27876
809.316	27804
809.458	27770
809.6	27724
809.741	27641
809.883	27690
810.025	27682
810.166	27682
810.308	27785
810.45	27759
810.591	27469
810.733	27378
810.875	27393
811.016	27154
811.158	27195
811.299	27359
811.441	27420
811.582	27344
811.724	27348
811.865	27218
812.007	27294
812.148	27222
812.29	27283
812.431	27389
812.573	27420
812.714	27618
812.855	27671
812.997	27854
813.138	27975
813.279	27876
813.421	27762
813.562	27667
813.703	27485
813.845	27462
813.986	27218
814.127	27001
814.268	26796
814.41	26845
814.551	26815
814.692	27032
814.833	26781
814.974	26716
815.115	26667
815.256	26473
815.397	26651
815.539	26636
815.68	26457
815.821	26324
815.962	26625
816.103	26488
816.244	26366
816.385	26370
816.526	26134
816.666	26149
816.807	25966
816.948	26039
817.089	26027
817.23	25955
817.371	25921
817.512	25906
817.653	25906
817.793	25932
817.934	25974
818.075	25894
818.216	25875
818.356	25875
818.497	25818
818.638	25590
818.778	25491
818.919	25616
819.06	25651
819.2	25826
819.341	25841
819.481	25814
819.622	25928
819.762	26081
819.903	25936
820.043	25959
820.184	25830
820.324	25761
820.465	25890
820.605	25871
820.746	25814
820.886	25609
821.026	25765
821.167	25719
821.307	25906
821.447	25826
821.588	25765
821.728	25586
821.868	25320
822.008	25213
822.149	25236
822.289	25126
822.429	24867
822.569	24962
822.709	24814
822.849	24768
822.99	24639
823.13	24654
823.27	24513
823.41	24410
823.55	24342
823.69	24357
823.83	24388
823.97	24498
824.11	24190
824.25	24209
824.389	24243
824.529	24361
824.669	24277
824.809	24346
824.949	24399
825.089	24289
825.228	24247
825.368	24102
825.508	24178
825.648	24022
825.787	24136
825.927	24201
826.067	23992
826.206	24076
826.346	24159
826.485	24121
826.625	24076
826.765	24224
826.904	24186
827.044	23851
827.183	23878
827.323	23695
827.462	23714
827.601	23790
827.741	23707
827.88	23748
828.02	23623
828.159	23600
828.298	23638
828.437	23798
828.577	23687
828.716	23794
828.855	23646
828.994	23425
829.134	23448
829.273	23455
829.412	23376
829.551	23337
829.69	23353
829.829	23486
829.968	23471
830.107	23353
830.246	23227
830.385	23235
830.524	23330
830.663	23086
830.802	23124
830.941	22991
831.08	22980
831.219	23143
831.357	22984
831.496	23197
831.635	22942
831.774	22938
831.913	22713
832.051	22698
832.19	22694
832.329	22706
832.467	22645
832.606	22504
832.744	22573
832.883	22493
833.022	22569
833.16	22706
833.299	22641
833.437	22634
833.576	22622
833.714	22493
833.852	22592
833.991	22649
834.129	22687
834.267	22675
834.406	22569
834.544	22618
834.682	22618
834.821	22668
834.959	22664
835.097	22546
835.235	22675
835.373	22599
835.511	22405
835.65	22421
835.788	22466
835.926	22356
836.064	22291
836.202	22306
836.34	22580
836.478	22363
836.615	22303
836.753	22481
836.891	22398
837.029	22443
837.167	22363
837.305	22352
837.443	22314
837.58	22265
837.718	22280
837.856	22356
837.993	22192
838.131	22356
838.269	22154
838.406	22177
838.544	22154
838.681	21918
838.819	21812
838.956	21656
839.094	21724
839.231	21736
839.369	21895
839.506	22162
839.643	21907
839.781	21728
839.918	21603
840.055	21572
840.193	21583
840.33	21595
840.467	21545
840.604	21557
840.742	21812
840.879	21450
841.016	21530
841.153	21496
841.29	21576
841.427	21500
841.564	21553
841.701	21557
841.838	21466
841.975	21530
842.112	21473
842.249	21367
842.385	21329
842.522	21534
842.659	21416
842.796	21260
842.933	21416
843.069	21245
843.206	21192
843.343	21359
843.479	21310
843.616	21184
843.752	21051
843.889	21028
844.025	21226
844.162	21039
844.298	21249
844.435	21074
844.571	20960
844.708	21119
844.844	21096
844.98	21310
845.117	21188
845.253	21055
845.389	20933
845.525	21081
845.661	21211
845.798	21317
845.934	21477
846.07	21458
846.206	21428
846.342	21450
846.478	21218
846.614	20868
846.75	20632
846.886	20625
847.022	20587
847.158	20609
847.294	20499
847.429	20598
847.565	20434
847.701	20564
847.837	20343
847.972	20225
848.108	20225
848.244	20320
848.379	20092
848.515	19974
848.65	19982
848.786	19997
848.921	20005
849.057	20202
849.192	20214
849.328	20027
849.463	20096
849.598	19997
849.734	19940
849.869	19921
850.004	19765
850.14	19803
850.275	19761
850.41	19677
850.545	19727
850.68	19689
850.815	19742
850.95	19632
851.085	19959
851.22	19807
851.355	19719
851.49	19746
851.625	19685
851.76	19784
851.895	19677
852.03	19666
852.165	19674
852.299	19890
852.434	19837
852.569	19727
852.703	19689
852.838	19788
852.973	19925
853.107	19776
853.242	19734
853.376	19510
853.511	19411
853.645	19419
853.78	19643
853.914	19548
854.048	19594
854.183	19594
854.317	19609
854.451	19791
854.585	19594
854.72	19609
854.854	19597
854.988	19388
855.122	19537
855.256	19373
855.39	19518
855.524	19533
855.658	19616
855.792	19529
855.926	19544
856.06	19639
856.194	19727
856.327	19487
856.461	19460
856.595	19502
856.729	19552
856.862	19643
856.996	19537
857.13	19563
857.263	19746
857.397	19689
857.53	19571
857.664	19571
857.797	19632
857.931	19628
858.064	19460
858.197	19578
858.331	19544
858.464	19434
858.597	19354
858.731	19453
858.864	19499
858.997	19449
859.13	19457
859.263	19495
859.396	19499
859.529	19381
859.662	19457
859.795	19403
859.928	19407
860.061	19525
860.194	19670
860.327	19521
860.46	19381
860.592	19605
860.725	19540
860.858	19537
860.99	19460
861.123	19343
861.256	19358
861.388	19506
861.521	19986
861.653	19350
861.786	19365
861.918	19362
862.05	19510
862.183	19495
862.315	19537
862.447	19510
862.58	19400
862.712	19228
862.844	19217
862.976	19384
863.108	19168
863.24	19605
863.372	19122
863.504	19152
863.636	19179
863.768	19316
863.9	19061
864.032	19080
864.164	19091
864.296	19247
864.428	19221
864.559	19297
864.691	19206
864.823	19168
864.954	19198
865.086	19065
865.217	19065
865.349	19038
865.48	19171
865.612	19088
865.743	19225
865.875	19114
866.006	19038
866.137	19084
866.269	19053
866.4	19072
866.531	19019
866.662	19114
866.793	18966
866.924	18993
867.055	18947
867.186	19065
867.317	18985
867.448	18886
867.579	19042
867.71	19031
867.841	18970
867.972	19088
868.103	19012
868.233	19156
868.364	19088
868.495	19122
868.625	19221
868.756	19240
868.886	19114
869.017	19293
869.147	19392
869.278	19362
869.408	19228
869.539	19316
869.669	19213
869.799	19388
869.929	19369
870.06	19346
870.19	19552
870.32	19567
870.45	19616
870.58	19575
870.71	19670
870.84	19670
870.97	19544
871.1	19597
871.23	19784
871.36	19788
871.489	19753
871.619	19826
871.749	19769
871.879	19997
872.008	20073
872.138	19784
872.267	19898
872.397	19761
872.526	19540
872.656	19628
872.785	19601
872.915	19928
873.044	19986
873.173	19818
873.303	19811
873.432	19906
873.561	20016
873.69	19963
873.819	19978
873.948	19970
874.077	19890
874.206	19909
874.335	19883
874.464	19989
874.593	20119
874.722	20229
874.851	20172
874.979	20229
875.108	20233
875.237	20172
875.365	20122
875.494	20111
875.623	20233
875.751	20054
875.88	20191
876.008	20294
876.136	20305
876.265	20571
876.393	20727
876.521	20579
876.65	20659
876.778	20514
876.906	20530
877.034	20632
877.162	20499
877.29	20488
877.418	20568
877.546	20667
877.674	20560
877.802	20495
877.93	20625
878.058	20549
878.185	20465
878.313	20454
878.441	20564
878.568	20545
878.696	20541
878.824	20617
878.951	20724
879.079	20891
879.206	20975
879.333	20963
879.461	20876
879.588	21013
879.715	21074
879.842	21146
879.97	20937
880.097	20564
880.224	20522
880.351	20632
880.478	20617
880.605	20374
880.732	20492
880.859	20796
880.986	20465
881.112	20484
881.239	20423
881.366	20191
881.493	20126
881.619	20077
881.746	20107
881.872	20122
881.999	19993
882.125	20020
882.252	20172
882.378	20050
882.505	20100
882.631	20031
882.757	19776
882.883	19944
883.01	19803
883.136	19750
883.262	19742
883.388	19666
883.514	19780
883.64	19830
883.766	19753
883.892	19601
884.018	19632
884.143	19753
884.269	19818
884.395	19616
884.52	19472
884.646	19422
884.772	19476
884.897	19487
885.023	19384
885.148	19525
885.274	19655
885.399	19556
885.524	19533
885.65	19460
885.775	19506
885.9	19441
886.025	19533
886.15	19529
886.275	19297
886.4	19259
886.525	19411
886.65	19362
886.775	19369
886.9	19445
887.025	19738
887.149	19426
887.274	19244
887.399	19255
887.523	19129
887.648	19171
887.773	19053
887.897	19320
888.021	19232
888.146	19084
888.27	19320
888.395	19304
888.519	19088
888.643	19061
888.767	19244
888.891	19141
889.015	18901
889.139	18935
889.263	18939
889.387	19027
889.511	19061
889.635	19000
889.759	19004
889.883	18802
890.006	18981
890.13	19057
890.254	18867
890.377	18871
890.501	18779
890.624	18722
890.748	18871
890.871	18623
890.995	18681
891.118	18422
891.241	18616
891.364	18639
891.488	18741
891.611	18555
891.734	18547
891.857	18646
891.98	18608
892.103	18509
892.226	18589
892.349	18471
892.471	18475
892.594	18490
892.717	18525
892.839	18555
892.962	18350
893.085	18448
893.207	18471
893.33	18395
893.452	18471
893.575	18471
893.697	18426
893.819	18532
893.941	18688
894.064	18471
894.186	18433
894.308	18414
894.43	18604
894.552	18722
894.674	18486
894.796	18357
894.918	18494
895.04	18456
895.161	18536
895.283	18585
895.405	18452
895.526	18574
895.648	18502
895.769	18445
895.891	18597
896.012	18635
896.134	18574
896.255	18578
896.376	18384
896.498	18570
896.619	18559
896.74	18513
896.861	18684
896.982	18928
897.103	18890
897.224	18882
897.345	18825
897.466	18700
897.587	18802
897.708	18814
897.828	18920
897.949	18741
898.07	18715
898.19	18779
898.311	18890
898.431	18696
898.552	18768
898.672	18928
898.792	18875
898.913	18779
899.033	18654
899.153	18620
899.273	18502
899.393	18521
899.513	18555
899.633	18528
899.753	18479
899.873	18506
899.993	18521
900.113	18502
900.232	18551
900.352	18559
900.472	18429
900.591	18338
900.711	18319
900.83	18376
900.95	18448
901.069	18475
901.189	18220
901.308	18102
901.427	18087
901.546	17980
901.665	17999
901.784	17954
901.904	17767
902.023	17707
902.141	17547
902.26	17391
902.379	17558
902.498	17448
902.617	17493
902.735	17482
902.854	17372
902.973	17376
903.091	17212
903.21	17235
903.328	17212
903.446	17094
903.565	17056
903.683	16873
903.801	16869
903.919	16961
904.038	16892
904.156	16831
904.274	16790
904.392	16702
904.51	16706
904.627	16721
904.745	16771
904.863	16759
904.981	16481
905.098	16303
905.216	16417
905.334	16306
905.451	16379
905.569	16284
905.686	16417
905.803	16394
905.921	16169
906.038	16272
906.155	16223
906.272	16055
906.389	15972
906.506	15876
906.623	15930
906.74	15975
906.857	15785
906.974	15918
907.091	15922
907.208	16013
907.324	16002
907.441	15873
907.557	15682
907.674	15637
907.79	15576
907.907	15557
908.023	15587
908.139	15614
908.256	15504
908.372	15420
908.488	15519
908.604	15412
908.72	15287
908.836	15374
908.952	15302
909.068	15241
909.184	15344
909.3	15313
909.415	15321
909.531	15180
909.647	15043
909.762	15051
909.878	14971
909.993	15020
910.108	15013
910.224	14967
910.339	15009
910.454	14906
910.57	14815
910.685	14746
910.8	14990
910.915	14971
911.03	14792
911.145	14697
911.259	14606
911.374	14537
911.489	14488
911.604	14511
911.718	14377
911.833	14431
911.947	14244
912.062	14123
912.176	14320
912.291	14256
912.405	14240
912.519	14541
912.633	14473
912.748	14313
912.862	14294
912.976	14214
913.09	14058
913.204	14138
913.318	14088
913.431	14180
913.545	14256
913.659	14248
913.772	14157
913.886	14043
914	14005
914.113	14001
914.226	14081
914.34	14084
914.453	13898
914.566	14115
914.68	13883
914.793	13864
914.906	13723
915.019	13647
915.132	13647
915.245	13708
915.358	13696
915.47	13731
915.583	13696
915.696	13696
915.809	13731
915.921	13666
916.034	13685
916.146	13628
916.259	13495
916.371	13674
916.483	13514
916.595	13582
916.708	13529
916.82	13506
916.932	13506
917.044	13552
917.156	13438
917.268	13346
917.38	13407
917.491	13358
917.603	13270
917.715	13502
917.826	13369
917.938	13320
918.049	13209
918.161	13282
918.272	13392
918.384	13491
918.495	13381
918.606	13206
918.717	13012
918.828	13103
918.939	13103
919.05	13072
919.161	13088
919.272	12966
919.383	12973
919.494	13126
919.604	13255
919.715	13156
919.826	12996
919.936	13042
920.047	13152
920.157	13149
920.267	13217
920.378	13118
920.488	13019
920.598	13217
920.708	13388
920.818	13217
920.928	13247
921.038	13384
921.148	13285
921.258	13065
921.368	12875
921.477	12844
921.587	12700
921.697	12711
921.806	12875
921.916	12711
922.025	12585
922.134	12502
922.244	12448
922.353	12551
922.462	12334
922.571	12426
922.68	12083
922.789	12159
922.898	12140
923.007	12072
923.116	12148
923.224	12133
923.333	12155
923.442	12140
923.55	11920
923.659	12045
923.767	12091
923.876	11992
923.984	12098
924.092	11992
924.201	11954
924.309	11908
924.417	11908
924.525	11878
924.633	11916
924.741	12837
924.849	11646
924.956	11775
925.064	11775
925.172	11596
925.279	11539
925.387	11707
925.494	11729
925.602	11748
925.709	11733
925.816	11577
925.924	11604
926.031	11752
926.138	11573
926.245	11718
926.352	11512
926.459	11581
926.566	11661
926.673	11512
926.779	11410
926.886	11421
926.993	11280
927.099	11299
927.206	11239
927.312	11212
927.419	11258
927.525	11216
927.631	11246
927.737	11155
927.843	11155
927.95	11003
928.056	11033
928.162	11151
928.267	11132
928.373	11767
928.479	11105
928.585	10930
928.69	11010
928.796	11128
928.901	10889
929.007	10839
929.112	11025
929.218	10987
929.323	10866
929.428	10778
929.533	11010
929.638	10729
929.743	10759
929.848	10866
929.953	10759
930.058	10710
930.163	10584
930.267	10565
930.372	10672
930.477	10519
930.581	10755
930.685	10554
930.79	10436
930.894	10569
930.998	10451
931.103	10618
931.207	10268
931.311	10090
931.415	10147
931.519	9899
931.623	9888
