Data from test_V78500241_984.txt Node
Date: Fri Mar 25 14:40:34 CST 2022
User: usil
Spectrometer: V785-0024
Trigger mode: 0
Integration Time (sec): 4.000000E-1
Scans to average: 1
Nonlinearity correction enabled: false
Boxcar width: 0
Storing dark spectrum: false
XAxis mode: Wavelengths
Number of Pixels in Spectrum: 1024
>>>>>Begin Spectral Data<<<<<
801.071	23349
801.214	23181
801.356	22839
801.499	22824
801.641	22679
801.783	22569
801.926	22660
802.068	22527
802.211	22386
802.353	22226
802.496	22150
802.638	22147
802.78	22006
802.923	22074
803.065	21983
803.208	21911
803.35	21918
803.492	22013
803.635	22032
803.777	21949
803.919	22013
804.061	22143
804.204	22128
804.346	22036
804.488	21816
804.63	21979
804.773	21831
804.915	21945
805.057	22044
805.199	21857
805.341	21918
805.483	22013
805.626	21991
805.768	21827
805.91	21884
806.052	21907
806.194	21808
806.336	22097
806.478	22112
806.62	21854
806.762	22124
806.904	22105
807.046	22455
807.188	22417
807.33	22489
807.472	22546
807.614	22466
807.756	22516
807.898	22580
808.04	22451
808.182	22653
808.324	22828
808.465	23094
808.607	23482
808.749	23775
808.891	23935
809.033	24015
809.174	23695
809.316	23440
809.458	23368
809.6	23098
809.741	22965
809.883	22831
810.025	22812
810.166	22774
810.308	22763
810.45	22698
810.591	22538
810.733	22421
810.875	22242
811.016	22124
811.158	22078
811.299	22211
811.441	22394
811.582	22284
811.724	22230
811.865	22112
812.007	22082
812.148	22131
812.29	22116
812.431	22333
812.573	22512
812.714	22577
812.855	22622
812.997	22729
813.138	22938
813.279	22706
813.421	22675
813.562	22519
813.703	22402
813.845	22363
813.986	22116
814.127	21831
814.268	21766
814.41	21667
814.551	21671
814.692	21671
814.833	21717
814.974	21572
815.115	21644
815.256	21447
815.397	21447
815.539	21549
815.68	21443
815.821	21332
815.962	21466
816.103	21351
816.244	21374
816.385	21089
816.526	21066
816.666	20842
816.807	20845
816.948	20853
817.089	20994
817.23	20929
817.371	20750
817.512	20815
817.653	20853
817.793	20777
817.934	20868
818.075	20693
818.216	20746
818.356	20773
818.497	20632
818.638	20503
818.778	20526
818.919	20450
819.06	20522
819.2	20655
819.341	20743
819.481	20701
819.622	20819
819.762	20960
819.903	20826
820.043	20800
820.184	20807
820.324	20830
820.465	20750
820.605	20834
820.746	20739
820.886	20556
821.026	20670
821.167	20663
821.307	20796
821.447	20689
821.588	20484
821.728	20434
821.868	20446
822.008	20119
822.149	20248
822.289	20069
822.429	19974
822.569	19947
822.709	19963
822.849	19620
822.99	19632
823.13	19537
823.27	19605
823.41	19487
823.55	19476
823.69	19460
823.83	19396
823.97	19304
824.11	19179
824.25	19285
824.389	19251
824.529	19285
824.669	19270
824.809	19365
824.949	19308
825.089	19187
825.228	19251
825.368	19133
825.508	18958
825.648	19141
825.787	18993
825.927	19072
826.067	18928
826.206	18905
826.346	19034
826.485	18970
826.625	18970
826.765	19053
826.904	18966
827.044	18677
827.183	18795
827.323	18673
827.462	18757
827.601	18536
827.741	18658
827.88	18730
828.02	18620
828.159	18616
828.298	18692
828.437	18768
828.577	18612
828.716	18715
828.855	18536
828.994	18395
829.134	18467
829.273	18429
829.412	18441
829.551	18391
829.69	18483
829.829	18483
829.968	18517
830.107	18441
830.246	18357
830.385	18445
830.524	18205
830.663	18213
830.802	18182
830.941	18038
831.08	17958
831.219	18110
831.357	18129
831.496	18213
831.635	18038
831.774	17935
831.913	17927
832.051	17703
832.19	17672
832.329	17790
832.467	17699
832.606	17745
832.744	17684
832.883	17718
833.022	17596
833.16	17737
833.299	17821
833.437	17824
833.576	17836
833.714	17771
833.852	17863
833.991	17832
834.129	17893
834.267	17927
834.406	17817
834.544	17840
834.682	17870
834.821	17821
834.959	17946
835.097	17836
835.235	17767
835.373	17828
835.511	17809
835.65	17722
835.788	17646
835.926	17638
836.064	17459
836.202	17493
836.34	17729
836.478	17779
836.615	17535
836.753	17684
836.891	17805
837.029	17661
837.167	17585
837.305	17615
837.443	17524
837.58	17528
837.718	17657
837.856	17509
837.993	17505
838.131	17592
838.269	17429
838.406	17433
838.544	17246
838.681	17105
838.819	17178
838.956	16980
839.094	17025
839.231	16980
839.369	17151
839.506	17459
839.643	17330
839.781	17014
839.918	17014
840.055	17033
840.193	16999
840.33	16957
840.467	17037
840.604	17025
840.742	17269
840.879	16892
841.016	16900
841.153	16877
841.29	17098
841.427	17105
841.564	17022
841.701	17098
841.838	16942
841.975	16748
842.112	16915
842.249	16740
842.385	16839
842.522	17010
842.659	16877
842.796	16843
842.933	16805
843.069	16782
843.206	16725
843.343	16752
843.479	16801
843.616	16759
843.752	16512
843.889	16664
844.025	16717
844.162	16607
844.298	16622
844.435	16596
844.571	16626
844.708	16641
844.844	16793
844.98	16869
845.117	16938
845.253	16622
845.389	16759
845.525	16961
845.661	17322
845.798	17756
845.934	18114
846.07	18019
846.206	18171
846.342	17999
846.478	17471
846.614	16915
846.75	16466
846.886	16398
847.022	16352
847.158	16211
847.294	16226
847.429	16234
847.565	16059
847.701	16314
847.837	15941
847.972	15770
848.108	15911
848.244	15926
848.379	15819
848.515	15770
848.65	15728
848.786	15705
848.921	15743
849.057	15789
849.192	15789
849.328	15743
849.463	15709
849.598	15682
849.734	15580
849.869	15534
850.004	15519
850.14	15553
850.275	15545
850.41	15340
850.545	15386
850.68	15485
850.815	15511
850.95	15454
851.085	15667
851.22	15595
851.355	15500
851.49	15401
851.625	15363
851.76	15374
851.895	15355
852.03	15401
852.165	15443
852.299	15504
852.434	15622
852.569	15492
852.703	15591
852.838	15576
852.973	15595
853.107	15580
853.242	15420
853.376	15412
853.511	15287
853.645	15340
853.78	15431
853.914	15359
854.048	15264
854.183	15351
854.317	15332
854.451	15599
854.585	15226
854.72	15329
854.854	15317
854.988	15207
855.122	15351
855.256	15192
855.39	15283
855.524	15420
855.658	15466
855.792	15291
855.926	15462
856.06	15325
856.194	15321
856.327	15302
856.461	15313
856.595	15348
856.729	15321
856.862	15477
856.996	15374
857.13	15424
857.263	15526
857.397	15340
857.53	15260
857.664	15420
857.797	15435
857.931	15454
858.064	15431
858.197	15336
858.331	15363
858.464	15374
858.597	15180
858.731	15340
858.864	15264
858.997	15184
859.13	15363
859.263	15397
859.396	15405
859.529	15325
859.662	15226
859.795	15325
859.928	15298
860.061	15462
860.194	15485
860.327	15272
860.46	15298
860.592	15496
860.725	15458
860.858	15420
860.99	15291
861.123	15245
861.256	15199
861.388	15310
861.521	15846
861.653	15245
861.786	15058
861.918	15192
862.05	15146
862.183	15264
862.315	15283
862.447	15424
862.58	15359
862.712	15127
862.844	15017
862.976	15089
863.108	15077
863.24	15622
863.372	14990
863.504	15097
863.636	15154
863.768	15157
863.9	15028
864.032	15017
864.164	15032
864.296	15169
864.428	15207
864.559	15138
864.691	15199
864.823	15024
864.954	15089
865.086	15077
865.217	15024
865.349	14960
865.48	15074
865.612	15062
865.743	15214
865.875	14998
866.006	15047
866.137	15089
866.269	15146
866.4	15017
866.531	14998
866.662	15085
866.793	15036
866.924	15070
867.055	15112
867.186	15020
867.317	14933
867.448	15020
867.579	15005
867.71	15013
867.841	14967
867.972	15009
868.103	15085
868.233	15009
868.364	15074
868.495	15192
868.625	15321
868.756	15496
868.886	15252
869.017	15336
869.147	15359
869.278	15374
869.408	15325
869.539	15359
869.669	15329
869.799	15367
869.929	15492
870.06	15393
870.19	15675
870.32	15694
870.45	15610
870.58	15660
870.71	15865
870.84	15823
870.97	15739
871.1	15698
871.23	15956
871.36	15880
871.489	15781
871.619	15831
871.749	15956
871.879	15899
872.008	16055
872.138	15964
872.267	15842
872.397	15724
872.526	15785
872.656	15762
872.785	15709
872.915	15789
873.044	16055
873.173	15960
873.303	16025
873.432	15994
873.561	16051
873.69	15979
873.819	15895
873.948	16082
874.077	15972
874.206	15926
874.335	15975
874.464	15998
874.593	16291
874.722	16246
874.851	16341
874.979	16310
875.108	16299
875.237	16219
875.365	16253
875.494	16226
875.623	16428
875.751	16299
875.88	16432
876.008	16432
876.136	16565
876.265	16683
876.393	16858
876.521	16736
876.65	16835
876.778	16824
876.906	16710
877.034	16592
877.162	16767
877.29	16607
877.418	16759
877.546	16790
877.674	16721
877.802	16717
877.93	16862
878.058	16740
878.185	16596
878.313	16786
878.441	16820
878.568	16694
878.696	16824
878.824	17060
878.951	16999
879.079	17273
879.206	17604
879.333	17493
879.461	17448
879.588	17657
879.715	17684
879.842	17634
879.97	17520
880.097	17064
880.224	17052
880.351	16976
880.478	16965
880.605	16828
880.732	16812
880.859	17022
880.986	16782
881.112	16672
881.239	16721
881.366	16516
881.493	16432
881.619	16390
881.746	16504
881.872	16497
881.999	16428
882.125	16405
882.252	16462
882.378	16371
882.505	16493
882.631	16333
882.757	16253
882.883	16348
883.01	16204
883.136	16147
883.262	16109
883.388	16002
883.514	16280
883.64	16360
883.766	16200
883.892	16029
884.018	16093
884.143	16284
884.269	16322
884.395	16036
884.52	15922
884.646	15880
884.772	15937
884.897	15751
885.023	15968
885.148	16082
885.274	16059
885.399	15979
885.524	15983
885.65	15899
885.775	15861
885.9	15816
886.025	15964
886.15	15934
886.275	15762
886.4	15770
886.525	15827
886.65	15781
886.775	15755
886.9	15949
887.025	15953
887.149	15823
887.274	15584
887.399	15713
887.523	15523
887.648	15587
887.773	15587
887.897	15679
888.021	15675
888.146	15462
888.27	15682
888.395	15732
888.519	15652
888.643	15625
888.767	15648
888.891	15584
889.015	15435
889.139	15492
889.263	15378
889.387	15545
889.511	15538
889.635	15553
889.759	15382
889.883	15348
890.006	15435
890.13	15462
890.254	15351
890.377	15336
890.501	15249
890.624	15237
890.748	15275
890.871	15161
890.995	15085
891.118	15005
891.241	15161
891.364	15081
891.488	15260
891.611	14952
891.734	15131
891.857	15135
891.98	15131
892.103	15154
892.226	15074
892.349	15020
892.471	14963
892.594	15047
892.717	15055
892.839	15074
892.962	15074
893.085	15104
893.207	14990
893.33	14963
893.452	15024
893.575	15112
893.697	15013
893.819	15233
893.941	15203
894.064	15127
894.186	15058
894.308	14971
894.43	15127
894.552	15176
894.674	15184
894.796	15039
894.918	15108
895.04	15047
895.161	15154
895.283	15138
895.405	15108
895.526	15180
895.648	15180
895.769	15169
895.891	15131
896.012	15127
896.134	15100
896.255	15207
896.376	15192
896.498	15207
896.619	15195
896.74	15192
896.861	15241
896.982	15526
897.103	15732
897.224	15526
897.345	15420
897.466	15275
897.587	15393
897.708	15603
897.828	15538
897.949	15424
898.07	15329
898.19	15477
898.311	15561
898.431	15447
898.552	15450
898.672	15542
898.792	15618
898.913	15557
899.033	15481
899.153	15424
899.273	15275
899.393	15370
899.513	15382
899.633	15454
899.753	15401
899.873	15291
899.993	15351
900.113	15283
900.232	15416
900.352	15370
900.472	15233
900.591	15211
900.711	15222
900.83	15287
900.95	15207
901.069	15313
901.189	15157
901.308	14944
901.427	14880
901.546	14902
901.665	14948
901.784	14853
901.904	14758
902.023	14659
902.141	14442
902.26	14442
902.379	14541
902.498	14461
902.617	14343
902.735	14431
902.854	14431
902.973	14358
903.091	14111
903.21	14088
903.328	14195
903.446	14054
903.565	14046
903.683	13947
903.801	13780
903.919	13963
904.038	14024
904.156	13757
904.274	13765
904.392	13776
904.51	13689
904.627	13696
904.745	13788
904.863	13814
904.981	13563
905.098	13449
905.216	13548
905.334	13472
905.451	13483
905.569	13438
905.686	13476
905.803	13441
905.921	13228
906.038	13346
906.155	13255
906.272	13259
906.389	13156
906.506	13008
906.623	13050
906.74	13031
906.857	12905
906.974	12901
907.091	13084
907.208	13175
907.324	13072
907.441	12897
907.557	12741
907.674	12802
907.79	12768
907.907	12757
908.023	12741
908.139	12745
908.256	12711
908.372	12604
908.488	12627
908.604	12506
908.72	12369
908.836	12540
908.952	12467
909.068	12422
909.184	12551
909.3	12483
909.415	12563
909.531	12532
909.647	12201
909.762	12254
909.878	12247
909.993	12258
910.108	12281
910.224	12159
910.339	12243
910.454	12190
910.57	12102
910.685	12015
910.8	12311
910.915	12262
911.03	12098
911.145	11927
911.259	11897
911.374	11923
911.489	11779
911.604	11832
911.718	11630
911.833	11642
911.947	11604
912.062	11501
912.176	11615
912.291	11699
912.405	11748
912.519	11859
912.633	11920
912.748	11710
912.862	11688
912.976	11493
913.09	11398
913.204	11543
913.318	11532
913.431	11680
913.545	11589
913.659	11703
913.772	11482
913.886	11356
914	11368
914.113	11532
914.226	11535
914.34	11493
914.453	11353
914.566	11417
914.68	11376
914.793	11280
914.906	11223
915.019	11159
915.132	11060
915.245	11094
915.358	11140
915.47	11185
915.583	11242
915.696	11201
915.809	11349
915.921	11360
916.034	11109
916.146	11064
916.259	11045
916.371	11197
916.483	11155
916.595	11018
916.708	11098
916.82	11083
916.932	11029
917.044	11083
917.156	11079
917.268	10984
917.38	10976
917.491	10873
917.603	10953
917.715	11006
917.826	10957
917.938	10904
918.049	10809
918.161	10915
918.272	11113
918.384	11060
918.495	10972
918.606	10801
918.717	10691
918.828	10809
918.939	10847
919.05	10767
919.161	10812
919.272	10542
919.383	10622
919.494	10923
919.604	11006
919.715	10820
919.826	10797
919.936	10828
920.047	10946
920.157	10805
920.267	10927
920.378	10889
920.488	10908
920.598	11025
920.708	11201
920.818	11025
920.928	10980
921.038	11147
921.148	11181
921.258	10828
921.368	10736
921.477	10706
921.587	10645
921.697	10588
921.806	10706
921.916	10634
922.025	10459
922.134	10352
922.244	10333
922.353	10337
922.462	10223
922.571	10276
922.68	10101
922.789	10017
922.898	10059
923.007	10055
923.116	10078
923.224	10063
923.333	10071
923.442	9975
923.55	9888
923.659	9934
923.767	9979
923.876	9835
923.984	9941
924.092	9743
924.201	9911
924.309	9918
924.417	9895
924.525	9861
924.633	9770
924.741	10767
924.849	9599
924.956	9781
925.064	9599
925.172	9599
925.279	9584
925.387	9667
925.494	9694
925.602	9789
925.709	9698
925.816	9545
925.924	9656
926.031	9766
926.138	9644
926.245	9732
926.352	9580
926.459	9667
926.566	9804
926.673	9622
926.779	9447
926.886	9500
926.993	9378
927.099	9340
927.206	9313
927.312	9268
927.419	9435
927.525	9367
927.631	9386
927.737	9184
927.843	9230
927.95	9169
928.056	9173
928.162	9275
928.267	9256
928.373	9819
928.479	9367
928.585	9131
928.69	9218
928.796	9237
928.901	9195
929.007	9043
929.112	9169
929.218	9119
929.323	9039
929.428	9005
929.533	9146
929.638	9066
929.743	9070
929.848	9085
929.953	9043
930.058	8914
930.163	8766
930.267	8849
930.372	8899
930.477	8823
930.581	8986
930.685	8910
930.79	8785
930.894	8807
930.998	8754
931.103	8861
931.207	8514
931.311	8488
931.415	8480
931.519	8328
931.623	8256
