Data from test_V78500241_3103.txt Node
Date: Fri Mar 25 14:55:19 CST 2022
User: usil
Spectrometer: V785-0024
Trigger mode: 0
Integration Time (sec): 4.000000E-1
Scans to average: 1
Nonlinearity correction enabled: false
Boxcar width: 0
Storing dark spectrum: false
XAxis mode: Wavelengths
Number of Pixels in Spectrum: 1024
>>>>>Begin Spectral Data<<<<<
801.071	22143
801.214	21960
801.356	21732
801.499	21739
801.641	21572
801.783	21412
801.926	21473
802.068	21435
802.211	21397
802.353	21154
802.496	21135
802.638	20975
802.78	20902
802.923	20864
803.065	20693
803.208	20781
803.35	20701
803.492	20785
803.635	20880
803.777	20804
803.919	20842
804.061	20948
804.204	20815
804.346	20609
804.488	20640
804.63	20826
804.773	20609
804.915	20663
805.057	20731
805.199	20697
805.341	20716
805.483	20727
805.626	20689
805.768	20598
805.91	20621
806.052	20765
806.194	20545
806.336	20739
806.478	20625
806.62	20568
806.762	20663
806.904	20864
807.046	21055
807.188	20952
807.33	21001
807.472	21066
807.614	20880
807.756	21036
807.898	20750
808.04	20583
808.182	20777
808.324	20769
808.465	20834
808.607	20834
808.749	21077
808.891	21226
809.033	21123
809.174	21131
809.316	20941
809.458	20967
809.6	21005
809.741	21051
809.883	21207
810.025	21176
810.166	21135
810.308	21241
810.45	20994
810.591	21051
810.733	20921
810.875	20838
811.016	20857
811.158	20834
811.299	20823
811.441	20887
811.582	20887
811.724	20811
811.865	20781
812.007	20762
812.148	20754
812.29	20891
812.431	21047
812.573	21062
812.714	21154
812.855	21150
812.997	21458
813.138	21526
813.279	21367
813.421	21245
813.562	21218
813.703	21184
813.845	20921
813.986	20609
814.127	20579
814.268	20358
814.41	20358
814.551	20366
814.692	20389
814.833	20282
814.974	20309
815.115	20366
815.256	20142
815.397	20275
815.539	20218
815.68	20168
815.821	19955
815.962	20172
816.103	20084
816.244	19906
816.385	19906
816.526	19830
816.666	19715
816.807	19552
816.948	19632
817.089	19499
817.23	19396
817.371	19597
817.512	19518
817.653	19487
817.793	19335
817.934	19441
818.075	19457
818.216	19430
818.356	19457
818.497	19179
818.638	19148
818.778	19137
818.919	19095
819.06	19289
819.2	19293
819.341	19419
819.481	19316
819.622	19525
819.762	19578
819.903	19628
820.043	19430
820.184	19445
820.324	19487
820.465	19514
820.605	19502
820.746	19411
820.886	19293
821.026	19381
821.167	19327
821.307	19441
821.447	19350
821.588	19270
821.728	19114
821.868	18916
822.008	18924
822.149	18859
822.289	18863
822.429	18601
822.569	18547
822.709	18525
822.849	18319
822.99	18372
823.13	18285
823.27	18273
823.41	18159
823.55	18190
823.69	18026
823.83	18114
823.97	18102
824.11	17950
824.25	17893
824.389	17950
824.529	17851
824.669	17935
824.809	18057
824.949	17939
825.089	17923
825.228	17939
825.368	17714
825.508	17726
825.648	17733
825.787	17604
825.927	17714
826.067	17657
826.206	17589
826.346	17703
826.485	17707
826.625	17684
826.765	17882
826.904	17764
827.044	17410
827.183	17467
827.323	17277
827.462	17429
827.601	17414
827.741	17376
827.88	17459
828.02	17318
828.159	17379
828.298	17376
828.437	17410
828.577	17406
828.716	17532
828.855	17337
828.994	17117
829.134	17113
829.273	17216
829.412	17117
829.551	17060
829.69	17136
829.829	17105
829.968	17136
830.107	17223
830.246	17258
830.385	17094
830.524	17033
830.663	16953
830.802	16923
830.941	16843
831.08	16653
831.219	16771
831.357	16824
831.496	16942
831.635	16767
831.774	16672
831.913	16675
832.051	16558
832.19	16470
832.329	16577
832.467	16504
832.606	16432
832.744	16504
832.883	16451
833.022	16428
833.16	16455
833.299	16660
833.437	16554
833.576	16577
833.714	16519
833.852	16607
833.991	16588
834.129	16596
834.267	16542
834.406	16561
834.544	16588
834.682	16516
834.821	16558
834.959	16679
835.097	16421
835.235	16588
835.373	16622
835.511	16508
835.65	16318
835.788	16466
835.926	16371
836.064	16234
836.202	16265
836.34	16489
836.478	16451
836.615	16299
836.753	16443
836.891	16519
837.029	16497
837.167	16314
837.305	16382
837.443	16329
837.58	16253
837.718	16360
837.856	16322
837.993	16299
838.131	16360
838.269	16242
838.406	16211
838.544	16230
838.681	16021
838.819	15922
838.956	15857
839.094	15861
839.231	15835
839.369	15918
839.506	16207
839.643	16093
839.781	15888
839.918	15823
840.055	15857
840.193	15888
840.33	15751
840.467	15686
840.604	15804
840.742	16147
840.879	15736
841.016	15717
841.153	15736
841.29	15953
841.427	15831
841.564	15876
841.701	15774
841.838	15831
841.975	15751
842.112	15743
842.249	15564
842.385	15625
842.522	15812
842.659	15686
842.796	15576
842.933	15576
843.069	15553
843.206	15538
843.343	15637
843.479	15633
843.616	15652
843.752	15454
843.889	15424
844.025	15549
844.162	15351
844.298	15507
844.435	15412
844.571	15363
844.708	15488
844.844	15561
844.98	15686
845.117	15462
845.253	15336
845.389	15268
845.525	15256
845.661	15252
845.798	15131
845.934	15336
846.07	15207
846.206	15161
846.342	15294
846.478	15207
846.614	15020
846.75	14933
846.886	14948
847.022	15066
847.158	14910
847.294	14925
847.429	15001
847.565	15032
847.701	15222
847.837	14758
847.972	14720
848.108	14800
848.244	14796
848.379	14632
848.515	14583
848.65	14533
848.786	14583
848.921	14575
849.057	14606
849.192	14640
849.328	14575
849.463	14651
849.598	14583
849.734	14427
849.869	14438
850.004	14408
850.14	14336
850.275	14358
850.41	14237
850.545	14221
850.68	14351
850.815	14290
850.95	14286
851.085	14488
851.22	14298
851.355	14366
851.49	14332
851.625	14351
851.76	14271
851.895	14164
852.03	14218
852.165	14309
852.299	14317
852.434	14434
852.569	14419
852.703	14313
852.838	14381
852.973	14530
853.107	14571
853.242	14343
853.376	14202
853.511	14138
853.645	14115
853.78	14240
853.914	14157
854.048	14195
854.183	14145
854.317	14221
854.451	14320
854.585	14153
854.72	14130
854.854	14282
854.988	14058
855.122	14172
855.256	14077
855.39	14191
855.524	14278
855.658	14225
855.792	14290
855.926	14172
856.06	14218
856.194	14343
856.327	14202
856.461	14168
856.595	14172
856.729	14134
856.862	14309
856.996	14233
857.13	14263
857.263	14313
857.397	14339
857.53	14218
857.664	14305
857.797	14328
857.931	14309
858.064	14164
858.197	14305
858.331	14229
858.464	14062
858.597	14084
858.731	14119
858.864	14199
858.997	14134
859.13	14244
859.263	14282
859.396	14210
859.529	14145
859.662	14073
859.795	14176
859.928	14248
860.061	14374
860.194	14370
860.327	14176
860.46	14180
860.592	14248
860.725	14343
860.858	14278
860.99	14278
861.123	14062
861.256	14058
861.388	14134
861.521	14750
861.653	14027
861.786	13993
861.918	14092
862.05	14115
862.183	14092
862.315	14134
862.447	14233
862.58	14103
862.712	13909
862.844	13944
862.976	14027
863.108	14005
863.24	14233
863.372	13856
863.504	13947
863.636	13970
863.768	14043
863.9	14016
864.032	13932
864.164	13868
864.296	13974
864.428	14062
864.559	14039
864.691	13974
864.823	13909
864.954	13982
865.086	14035
865.217	13993
865.349	13959
865.48	13932
865.612	13986
865.743	14100
865.875	13963
866.006	13917
866.137	13951
866.269	14043
866.4	13898
866.531	13906
866.662	13822
866.793	13890
866.924	13898
867.055	14024
867.186	14008
867.317	13963
867.448	13864
867.579	13974
867.71	13860
867.841	13925
867.972	13928
868.103	14012
868.233	13887
868.364	14046
868.495	14077
868.625	14123
868.756	14320
868.886	14107
869.017	14138
869.147	14263
869.278	14298
869.408	14229
869.539	14259
869.669	14229
869.799	14240
869.929	14332
870.06	14358
870.19	14457
870.32	14480
870.45	14617
870.58	14629
870.71	14754
870.84	14686
870.97	14583
871.1	14629
871.23	14792
871.36	14765
871.489	14731
871.619	14743
871.749	14769
871.879	14872
872.008	14933
872.138	14777
872.267	14758
872.397	14670
872.526	14644
872.656	14659
872.785	14621
872.915	14815
873.044	15020
873.173	14830
873.303	14948
873.432	14910
873.561	14872
873.69	14902
873.819	14872
873.948	14948
874.077	14868
874.206	14868
874.335	14883
874.464	14971
874.593	15085
874.722	15089
874.851	15207
874.979	15123
875.108	15192
875.237	15108
875.365	15070
875.494	15066
875.623	15382
875.751	15077
875.88	15214
876.008	15336
876.136	15306
876.265	15618
876.393	15736
876.521	15641
876.65	15572
876.778	15603
876.906	15526
877.034	15568
877.162	15545
877.29	15534
877.418	15534
877.546	15561
877.674	15564
877.802	15644
877.93	15610
878.058	15515
878.185	15473
878.313	15584
878.441	15561
878.568	15507
878.696	15591
878.824	15633
878.951	15679
879.079	15739
879.206	15907
879.333	15717
879.461	15564
879.588	15797
879.715	15770
879.842	15911
879.97	15618
880.097	15481
880.224	15428
880.351	15439
880.478	15420
880.605	15443
880.732	15450
880.859	15549
880.986	15473
881.112	15439
881.239	15344
881.366	15249
881.493	15150
881.619	15051
881.746	15093
881.872	15104
881.999	15058
882.125	15070
882.252	15226
882.378	15020
882.505	15237
882.631	15081
882.757	14948
882.883	14982
883.01	14785
883.136	14872
883.262	14792
883.388	14716
883.514	14910
883.64	14906
883.766	14853
883.892	14663
884.018	14705
884.143	14902
884.269	14921
884.395	14598
884.52	14575
884.646	14697
884.772	14514
884.897	14514
885.023	14571
885.148	14769
885.274	14754
885.399	14659
885.524	14598
885.65	14640
885.775	14556
885.9	14632
886.025	14758
886.15	14674
886.275	14518
886.4	14606
886.525	14610
886.65	14526
886.775	14533
886.9	14720
887.025	14842
887.149	14606
887.274	14492
887.399	14362
887.523	14503
887.648	14404
887.773	14339
887.897	14594
888.021	14537
888.146	14317
888.27	14560
888.395	14606
888.519	14518
888.643	14579
888.767	14438
888.891	14381
889.015	14324
889.139	14320
889.263	14172
889.387	14263
889.511	14377
889.635	14503
889.759	14358
889.883	14263
890.006	14358
890.13	14495
890.254	14275
890.377	14286
890.501	14115
890.624	14115
890.748	14134
890.871	14035
890.995	13951
891.118	13852
891.241	13887
891.364	14016
891.488	14092
891.611	14069
891.734	13947
891.857	14077
891.98	14035
892.103	14119
892.226	14001
892.349	14005
892.471	13871
892.594	13974
892.717	14065
892.839	14012
892.962	13986
893.085	14100
893.207	14020
893.33	13928
893.452	13986
893.575	14043
893.697	14027
893.819	14164
893.941	14210
894.064	14100
894.186	13993
894.308	14016
894.43	14123
894.552	14290
894.674	14142
894.796	14005
894.918	14050
895.04	14016
895.161	14161
895.283	14172
895.405	14134
895.526	14096
895.648	14202
895.769	14218
895.891	14157
896.012	14214
896.134	14176
896.255	14233
896.376	14214
896.498	14218
896.619	14157
896.74	14221
896.861	14278
896.982	14526
897.103	14636
897.224	14549
897.345	14366
897.466	14393
897.587	14442
897.708	14530
897.828	14518
897.949	14473
898.07	14324
898.19	14339
898.311	14473
898.431	14404
898.552	14476
898.672	14530
898.792	14686
898.913	14446
899.033	14526
899.153	14324
899.273	14271
899.393	14301
899.513	14320
899.633	14511
899.753	14434
899.873	14400
899.993	14454
900.113	14503
900.232	14393
900.352	14385
900.472	14339
900.591	14252
900.711	14423
900.83	14202
900.95	14442
901.069	14377
901.189	14172
901.308	14001
901.427	13841
901.546	13951
901.665	13944
901.784	14008
901.904	13852
902.023	13738
902.141	13590
902.26	13544
902.379	13723
902.498	13449
902.617	13514
902.735	13616
902.854	13518
902.973	13449
903.091	13266
903.21	13221
903.328	13228
903.446	13240
903.565	13065
903.683	13160
903.801	13110
903.919	13053
904.038	13114
904.156	12924
904.274	12943
904.392	12886
904.51	12973
904.627	12848
904.745	12920
904.863	13008
904.981	12692
905.098	12566
905.216	12555
905.334	12646
905.451	12669
905.569	12540
905.686	12639
905.803	12612
905.921	12509
906.038	12506
906.155	12502
906.272	12304
906.389	12357
906.506	12152
906.623	12175
906.74	12175
906.857	12114
906.974	12064
907.091	12232
907.208	12346
907.324	12159
907.441	12178
907.557	12011
907.674	11961
907.79	11783
907.907	11958
908.023	11988
908.139	11961
908.256	11893
908.372	11863
908.488	11832
908.604	11802
908.72	11668
908.836	11672
908.952	11680
909.068	11726
909.184	11764
909.3	11710
909.415	11775
909.531	11672
909.647	11459
909.762	11474
909.878	11532
909.993	11516
910.108	11558
910.224	11406
910.339	11459
910.454	11368
910.57	11334
910.685	11326
910.8	11592
910.915	11493
911.03	11345
911.145	11239
911.259	11208
911.374	11216
911.489	11121
911.604	11029
911.718	10934
911.833	11045
911.947	10885
912.062	10740
912.176	10889
912.291	10957
912.405	10896
912.519	11143
912.633	11159
912.748	11075
912.862	10908
912.976	10839
913.09	10679
913.204	10710
913.318	10774
913.431	10968
913.545	10896
913.659	10995
913.772	10778
913.886	10683
914	10687
914.113	10843
914.226	10881
914.34	10850
914.453	10603
914.566	10793
914.68	10664
914.793	10611
914.906	10421
915.019	10417
915.132	10371
915.245	10382
915.358	10474
915.47	10462
915.583	10519
915.696	10489
915.809	10592
915.921	10538
916.034	10455
916.146	10344
916.259	10382
916.371	10516
916.483	10489
916.595	10409
916.708	10421
916.82	10344
916.932	10451
917.044	10413
917.156	10337
917.268	10291
917.38	10318
917.491	10272
917.603	10276
917.715	10382
917.826	10363
917.938	10295
918.049	10177
918.161	10310
918.272	10432
918.384	10428
918.495	10303
918.606	10128
918.717	10059
918.828	10158
918.939	10238
919.05	10105
919.161	10158
919.272	9941
919.383	10017
919.494	10173
919.604	10413
919.715	10150
919.826	10074
919.936	10158
920.047	10261
920.157	10173
920.267	10386
920.378	10204
920.488	10223
920.598	10398
920.708	10455
920.818	10314
920.928	10287
921.038	10577
921.148	10470
921.258	10265
921.368	10116
921.477	10013
921.587	10017
921.697	9987
921.806	9998
921.916	10006
922.025	9778
922.134	9713
922.244	9671
922.353	9785
922.462	9686
922.571	9534
922.68	9507
922.789	9397
922.898	9496
923.007	9431
923.116	9454
923.224	9454
923.333	9450
923.442	9367
923.55	9302
923.659	9382
923.767	9370
923.876	9287
923.984	9378
924.092	9218
924.201	9294
924.309	9310
924.417	9298
924.525	9211
924.633	9291
924.741	10158
924.849	9066
924.956	9249
925.064	9036
925.172	8998
925.279	9058
925.387	9127
925.494	9146
925.602	9211
925.709	9100
925.816	9058
925.924	9047
926.031	9199
926.138	9104
926.245	9154
926.352	9036
926.459	9135
926.566	9188
926.673	9039
926.779	8925
926.886	8967
926.993	8754
927.099	8800
927.206	8792
927.312	8788
927.419	8796
927.525	8773
927.631	8849
927.737	8785
927.843	8625
927.95	8533
928.056	8743
928.162	8670
928.267	8811
928.373	9268
928.479	8773
928.585	8545
928.69	8701
928.796	8708
928.901	8610
929.007	8484
929.112	8575
929.218	8610
929.323	8552
929.428	8442
929.533	8674
929.638	8518
929.743	8480
929.848	8606
929.953	8560
930.058	8415
930.163	8317
930.267	8320
930.372	8461
930.477	8286
930.581	8594
930.685	8309
930.79	8176
930.894	8298
930.998	8294
931.103	8400
931.207	8043
931.311	7978
931.415	7940
931.519	7723
931.623	7727
