Data from test_V78500241_2510.txt Node
Date: Fri Mar 25 14:51:11 CST 2022
User: usil
Spectrometer: V785-0024
Trigger mode: 0
Integration Time (sec): 4.000000E-1
Scans to average: 1
Nonlinearity correction enabled: false
Boxcar width: 0
Storing dark spectrum: false
XAxis mode: Wavelengths
Number of Pixels in Spectrum: 1024
>>>>>Begin Spectral Data<<<<<
801.071	21945
801.214	21865
801.356	21720
801.499	21572
801.641	21397
801.783	21447
801.926	21488
802.068	21416
802.211	21386
802.353	21230
802.496	21116
802.638	20887
802.78	20842
802.923	20800
803.065	20769
803.208	20598
803.35	20823
803.492	20967
803.635	20937
803.777	20716
803.919	20849
804.061	21108
804.204	20849
804.346	20708
804.488	20560
804.63	20655
804.773	20659
804.915	20712
805.057	20712
805.199	20587
805.341	20739
805.483	20724
805.626	20727
805.768	20689
805.91	20613
806.052	20777
806.194	20579
806.336	20826
806.478	20602
806.62	20609
806.762	20705
806.904	20826
807.046	21062
807.188	20963
807.33	20944
807.472	20944
807.614	20891
807.756	20819
807.898	20724
808.04	20746
808.182	20651
808.324	20712
808.465	20762
808.607	20952
808.749	21001
808.891	21119
809.033	21093
809.174	21013
809.316	20979
809.458	21009
809.6	20910
809.741	21066
809.883	21157
810.025	21237
810.166	21230
810.308	21135
810.45	21096
810.591	21051
810.733	20914
810.875	20716
811.016	20667
811.158	20720
811.299	20735
811.441	20899
811.582	20891
811.724	20674
811.865	20834
812.007	20716
812.148	20712
812.29	20811
812.431	20933
812.573	21093
812.714	21138
812.855	21268
812.997	21466
813.138	21542
813.279	21435
813.421	21272
813.562	21180
813.703	21096
813.845	20925
813.986	20617
814.127	20518
814.268	20377
814.41	20358
814.551	20366
814.692	20385
814.833	20206
814.974	20389
815.115	20233
815.256	20164
815.397	20149
815.539	20206
815.68	20077
815.821	20050
815.962	20073
816.103	19986
816.244	20027
816.385	19830
816.526	19807
816.666	19628
816.807	19388
816.948	19594
817.089	19468
817.23	19540
817.371	19384
817.512	19434
817.653	19422
817.793	19422
817.934	19510
818.075	19525
818.216	19480
818.356	19510
818.497	19354
818.638	19118
818.778	19152
818.919	19179
819.06	19012
819.2	19301
819.341	19190
819.481	19297
819.622	19506
819.762	19563
819.903	19594
820.043	19487
820.184	19472
820.324	19422
820.465	19559
820.605	19449
820.746	19354
820.886	19308
821.026	19415
821.167	19403
821.307	19350
821.447	19179
821.588	19289
821.728	19110
821.868	18989
822.008	18905
822.149	18875
822.289	18871
822.429	18574
822.569	18517
822.709	18612
822.849	18319
822.99	18395
823.13	18342
823.27	18285
823.41	18117
823.55	18072
823.69	18182
823.83	18095
823.97	18133
824.11	17931
824.25	17790
824.389	17897
824.529	17988
824.669	17931
824.809	18114
824.949	18064
825.089	18022
825.228	17931
825.368	17745
825.508	17767
825.648	17836
825.787	17783
825.927	17760
826.067	17661
826.206	17665
826.346	17821
826.485	17710
826.625	17741
826.765	17790
826.904	17775
827.044	17554
827.183	17505
827.323	17356
827.462	17474
827.601	17436
827.741	17334
827.88	17455
828.02	17303
828.159	17425
828.298	17341
828.437	17486
828.577	17406
828.716	17512
828.855	17402
828.994	17185
829.134	17265
829.273	17212
829.412	17079
829.551	17140
829.69	17140
829.829	17231
829.968	17277
830.107	17273
830.246	17280
830.385	16995
830.524	17113
830.663	16938
830.802	16915
830.941	16862
831.08	16691
831.219	16946
831.357	16904
831.496	17014
831.635	16809
831.774	16805
831.913	16717
832.051	16542
832.19	16725
832.329	16672
832.467	16550
832.606	16577
832.744	16504
832.883	16428
833.022	16516
833.16	16538
833.299	16500
833.437	16569
833.576	16462
833.714	16554
833.852	16558
833.991	16531
834.129	16679
834.267	16672
834.406	16523
834.544	16546
834.682	16622
834.821	16607
834.959	16588
835.097	16519
835.235	16649
835.373	16569
835.511	16584
835.65	16481
835.788	16417
835.926	16379
836.064	16268
836.202	16234
836.34	16527
836.478	16634
836.615	16481
836.753	16455
836.891	16535
837.029	16546
837.167	16584
837.305	16440
837.443	16443
837.58	16367
837.718	16394
837.856	16363
837.993	16238
838.131	16318
838.269	16295
838.406	16322
838.544	16166
838.681	16017
838.819	15964
838.956	15964
839.094	15835
839.231	15861
839.369	15979
839.506	16310
839.643	16097
839.781	15876
839.918	15838
840.055	15930
840.193	15895
840.33	15975
840.467	15861
840.604	15934
840.742	16143
840.879	15793
841.016	15747
841.153	15774
841.29	15903
841.427	15994
841.564	15869
841.701	15922
841.838	15922
841.975	15804
842.112	15800
842.249	15743
842.385	15675
842.522	15861
842.659	15770
842.796	15545
842.933	15698
843.069	15679
843.206	15633
843.343	15690
843.479	15648
843.616	15705
843.752	15462
843.889	15511
844.025	15530
844.162	15408
844.298	15435
844.435	15473
844.571	15351
844.708	15424
844.844	15545
844.98	15603
845.117	15431
845.253	15401
845.389	15237
845.525	15325
845.661	15389
845.798	15279
845.934	15310
846.07	15165
846.206	15252
846.342	15256
846.478	15233
846.614	15047
846.75	15013
846.886	14975
847.022	15131
847.158	14967
847.294	15070
847.429	15108
847.565	15066
847.701	15306
847.837	14807
847.972	14754
848.108	14880
848.244	14773
848.379	14712
848.515	14621
848.65	14522
848.786	14594
848.921	14522
849.057	14765
849.192	14716
849.328	14750
849.463	14667
849.598	14617
849.734	14537
849.869	14499
850.004	14366
850.14	14450
850.275	14427
850.41	14282
850.545	14415
850.68	14385
850.815	14427
850.95	14343
851.085	14606
851.22	14503
851.355	14355
851.49	14408
851.625	14351
851.76	14328
851.895	14286
852.03	14313
852.165	14400
852.299	14381
852.434	14408
852.569	14404
852.703	14408
852.838	14499
852.973	14511
853.107	14488
853.242	14309
853.376	14244
853.511	14142
853.645	14225
853.78	14309
853.914	14282
854.048	14244
854.183	14248
854.317	14183
854.451	14465
854.585	14237
854.72	14282
854.854	14278
854.988	14103
855.122	14237
855.256	14065
855.39	14225
855.524	14309
855.658	14317
855.792	14259
855.926	14434
856.06	14301
856.194	14347
856.327	14290
856.461	14225
856.595	14191
856.729	14259
856.862	14195
856.996	14336
857.13	14218
857.263	14415
857.397	14366
857.53	14240
857.664	14298
857.797	14332
857.931	14332
858.064	14351
858.197	14362
858.331	14294
858.464	14183
858.597	14176
858.731	14191
858.864	14172
858.997	14237
859.13	14317
859.263	14278
859.396	14309
859.529	14164
859.662	14180
859.795	14168
859.928	14294
860.061	14465
860.194	14412
860.327	14248
860.46	14149
860.592	14339
860.725	14484
860.858	14374
860.99	14233
861.123	14176
861.256	14225
861.388	14168
861.521	14845
861.653	14111
861.786	14126
861.918	14088
862.05	14138
862.183	14187
862.315	14275
862.447	14240
862.58	14195
862.712	14046
862.844	13936
862.976	14145
863.108	14130
863.24	14377
863.372	13944
863.504	14062
863.636	14103
863.768	14031
863.9	14077
864.032	13932
864.164	14092
864.296	14103
864.428	14050
864.559	14153
864.691	14069
864.823	14054
864.954	14050
865.086	14092
865.217	14069
865.349	13940
865.48	14008
865.612	13955
865.743	14187
865.875	14100
866.006	14054
866.137	14012
866.269	14024
866.4	14065
866.531	13982
866.662	13913
866.793	13887
866.924	13944
867.055	14103
867.186	13997
867.317	14027
867.448	13921
867.579	13993
867.71	13928
867.841	13909
867.972	14046
868.103	14012
868.233	14046
868.364	14073
868.495	14126
868.625	14263
868.756	14393
868.886	14180
869.017	14294
869.147	14389
869.278	14385
869.408	14324
869.539	14290
869.669	14332
869.799	14290
869.929	14438
870.06	14328
870.19	14590
870.32	14636
870.45	14556
870.58	14689
870.71	14773
870.84	14754
870.97	14735
871.1	14674
871.23	14826
871.36	14960
871.489	14720
871.619	14880
871.749	14842
871.879	14872
872.008	14990
872.138	14872
872.267	14804
872.397	14724
872.526	14697
872.656	14689
872.785	14701
872.915	14956
873.044	14899
873.173	14826
873.303	14941
873.432	14895
873.561	14929
873.69	14948
873.819	15017
873.948	15032
874.077	14929
874.206	14906
874.335	14971
874.464	15146
874.593	15218
874.722	15119
874.851	15218
874.979	15207
875.108	15340
875.237	15264
875.365	15154
875.494	15298
875.623	15283
875.751	15199
875.88	15249
876.008	15298
876.136	15378
876.265	15682
876.393	15789
876.521	15690
876.65	15736
876.778	15648
876.906	15564
877.034	15576
877.162	15564
877.29	15584
877.418	15694
877.546	15622
877.674	15614
877.802	15755
877.93	15663
878.058	15671
878.185	15538
878.313	15690
878.441	15698
878.568	15530
878.696	15580
878.824	15671
878.951	15576
879.079	15865
879.206	15991
879.333	15778
879.461	15686
879.588	15774
879.715	15816
879.842	16021
879.97	15778
880.097	15469
880.224	15515
880.351	15519
880.478	15443
880.605	15500
880.732	15496
880.859	15755
880.986	15606
881.112	15504
881.239	15420
881.366	15272
881.493	15211
881.619	15260
881.746	15249
881.872	15100
881.999	15272
882.125	15005
882.252	15260
882.378	15272
882.505	15325
882.631	15138
882.757	14960
882.883	15081
883.01	14986
883.136	15074
883.262	14769
883.388	14807
883.514	14986
883.64	15028
883.766	14944
883.892	14845
884.018	14720
884.143	15039
884.269	15036
884.395	14724
884.52	14682
884.646	14670
884.772	14644
884.897	14651
885.023	14689
885.148	14724
885.274	14941
885.399	14724
885.524	14648
885.65	14735
885.775	14762
885.9	14564
886.025	14701
886.15	14731
886.275	14659
886.4	14537
886.525	14640
886.65	14556
886.775	14697
886.9	14762
887.025	14937
887.149	14663
887.274	14473
887.399	14492
887.523	14465
887.648	14419
887.773	14473
887.897	14549
888.021	14571
888.146	14465
888.27	14568
888.395	14648
888.519	14484
888.643	14545
888.767	14575
888.891	14446
889.015	14370
889.139	14332
889.263	14298
889.387	14446
889.511	14545
889.635	14461
889.759	14309
889.883	14336
890.006	14370
890.13	14530
890.254	14191
890.377	14290
890.501	14126
890.624	14153
890.748	14157
890.871	14035
890.995	14065
891.118	13947
891.241	14073
891.364	14081
891.488	14176
891.611	14027
891.734	14103
891.857	14145
891.98	14092
892.103	14191
892.226	14054
892.349	14096
892.471	13921
892.594	14005
892.717	14077
892.839	14016
892.962	14077
893.085	14058
893.207	14005
893.33	13967
893.452	14039
893.575	14153
893.697	14043
893.819	14157
893.941	14320
894.064	14267
894.186	14024
894.308	13986
894.43	14229
894.552	14301
894.674	14240
894.796	14115
894.918	14058
895.04	14115
895.161	14191
895.283	14202
895.405	14054
895.526	14084
895.648	14298
895.769	14161
895.891	14206
896.012	14244
896.134	14183
896.255	14206
896.376	14218
896.498	14275
896.619	14336
896.74	14278
896.861	14423
896.982	14613
897.103	14670
897.224	14556
897.345	14427
897.466	14476
897.587	14537
897.708	14594
897.828	14465
897.949	14446
898.07	14427
898.19	14442
898.311	14617
898.431	14625
898.552	14530
898.672	14632
898.792	14636
898.913	14674
899.033	14484
899.153	14518
899.273	14336
899.393	14393
899.513	14362
899.633	14465
899.753	14419
899.873	14370
899.993	14442
900.113	14526
900.232	14476
900.352	14427
900.472	14450
900.591	14317
900.711	14290
900.83	14259
900.95	14415
901.069	14423
901.189	14267
901.308	14069
901.427	13940
901.546	14096
901.665	14001
901.784	14020
901.904	13932
902.023	13803
902.141	13597
902.26	13540
902.379	13601
902.498	13559
902.617	13430
902.735	13556
902.854	13525
902.973	13411
903.091	13236
903.21	13232
903.328	13312
903.446	13164
903.565	13141
903.683	13183
903.801	13023
903.919	13050
904.038	13057
904.156	12954
904.274	12951
904.392	12977
904.51	12909
904.627	12989
904.745	12993
904.863	12932
904.981	12741
905.098	12616
905.216	12616
905.334	12642
905.451	12566
905.569	12536
905.686	12700
905.803	12631
905.921	12361
906.038	12486
906.155	12513
906.272	12327
906.389	12380
906.506	12239
906.623	12247
906.74	12182
906.857	12133
906.974	12045
907.091	12266
907.208	12395
907.324	12216
907.441	12182
907.557	12007
907.674	12102
907.79	11912
907.907	11942
908.023	12064
908.139	11958
908.256	11908
908.372	11935
908.488	11851
908.604	11737
908.72	11684
908.836	11707
908.952	11707
909.068	11790
909.184	11836
909.3	11707
909.415	11752
909.531	11760
909.647	11505
909.762	11554
909.878	11467
909.993	11482
910.108	11448
910.224	11490
910.339	11566
910.454	11414
910.57	11398
910.685	11261
910.8	11596
910.915	11455
911.03	11322
911.145	11181
911.259	11227
911.374	11204
911.489	11105
911.604	11067
911.718	10957
911.833	10984
911.947	10911
912.062	10755
912.176	10946
912.291	10881
912.405	11003
912.519	11132
912.633	11151
912.748	11018
912.862	11018
912.976	10904
913.09	10691
913.204	10812
913.318	10866
913.431	10957
913.545	10930
913.659	10953
913.772	10801
913.886	10634
914	10649
914.113	10816
914.226	10858
914.34	10828
914.453	10725
914.566	10782
914.68	10630
914.793	10698
914.906	10428
915.019	10386
915.132	10386
915.245	10500
915.358	10470
915.47	10474
915.583	10580
915.696	10596
915.809	10569
915.921	10622
916.034	10440
916.146	10375
916.259	10455
916.371	10447
916.483	10500
916.595	10306
916.708	10390
916.82	10409
916.932	10402
917.044	10413
917.156	10268
917.268	10268
917.38	10341
917.491	10333
917.603	10329
917.715	10379
917.826	10348
917.938	10306
918.049	10227
918.161	10303
918.272	10424
918.384	10478
918.495	10306
918.606	10219
918.717	10112
918.828	10215
918.939	10143
919.05	10135
919.161	10158
919.272	9964
919.383	10090
919.494	10249
919.604	10417
919.715	10246
919.826	10109
919.936	10223
920.047	10253
920.157	10238
920.267	10348
920.378	10227
920.488	10169
920.598	10432
920.708	10504
920.818	10379
920.928	10341
921.038	10592
921.148	10504
921.258	10219
921.368	10147
921.477	10150
921.587	10074
921.697	9884
921.806	10078
921.916	9960
922.025	9797
922.134	9759
922.244	9648
922.353	9774
922.462	9660
922.571	9557
922.68	9439
922.789	9420
922.898	9492
923.007	9336
923.116	9488
923.224	9435
923.333	9496
923.442	9272
923.55	9245
923.659	9332
923.767	9378
923.876	9393
923.984	9405
924.092	9173
924.201	9310
924.309	9302
924.417	9370
924.525	9256
924.633	9302
924.741	10227
924.849	9154
924.956	9264
925.064	9146
925.172	8963
925.279	9051
925.387	9150
925.494	9135
925.602	9287
925.709	9226
925.816	9020
925.924	9108
926.031	9230
926.138	9165
926.245	9123
926.352	9070
926.459	9176
926.566	9230
926.673	9112
926.779	9013
926.886	8929
926.993	8872
927.099	8781
927.206	8762
927.312	8716
927.419	8823
927.525	8804
927.631	8823
927.737	8701
927.843	8686
927.95	8568
928.056	8766
928.162	8724
928.267	8750
928.373	9363
928.479	8830
928.585	8541
928.69	8689
928.796	8686
928.901	8621
929.007	8495
929.112	8678
929.218	8594
929.323	8495
929.428	8511
929.533	8716
929.638	8499
929.743	8545
929.848	8602
929.953	8507
930.058	8377
930.163	8298
930.267	8317
930.372	8389
930.477	8286
930.581	8541
930.685	8400
930.79	8210
930.894	8317
930.998	8199
931.103	8362
931.207	8050
931.311	7947
931.415	7936
931.519	7784
931.623	7795
