Data from test_V78500241_2446.txt Node
Date: Fri Mar 25 14:50:44 CST 2022
User: usil
Spectrometer: V785-0024
Trigger mode: 0
Integration Time (sec): 4.000000E-1
Scans to average: 1
Nonlinearity correction enabled: false
Boxcar width: 0
Storing dark spectrum: false
XAxis mode: Wavelengths
Number of Pixels in Spectrum: 1024
>>>>>Begin Spectral Data<<<<<
801.071	22135
801.214	21998
801.356	21755
801.499	21610
801.641	21534
801.783	21416
801.926	21412
802.068	21511
802.211	21283
802.353	21218
802.496	21039
802.638	20998
802.78	20815
802.923	20857
803.065	20785
803.208	20720
803.35	20823
803.492	20800
803.635	20952
803.777	20777
803.919	20895
804.061	21074
804.204	20834
804.346	20746
804.488	20758
804.63	20693
804.773	20701
804.915	20811
805.057	20857
805.199	20769
805.341	20693
805.483	20712
805.626	20952
805.768	20686
805.91	20724
806.052	20765
806.194	20541
806.336	20933
806.478	20678
806.62	20689
806.762	20716
806.904	20872
807.046	21001
807.188	21112
807.33	21096
807.472	21077
807.614	20902
807.756	20967
807.898	20849
808.04	20678
808.182	20815
808.324	20849
808.465	20792
808.607	21005
808.749	21047
808.891	21116
809.033	21279
809.174	21157
809.316	21005
809.458	21005
809.6	21005
809.741	21096
809.883	21043
810.025	21207
810.166	21279
810.308	21188
810.45	21146
810.591	21150
810.733	20960
810.875	20853
811.016	20765
811.158	20834
811.299	20876
811.441	21020
811.582	20914
811.724	20785
811.865	20857
812.007	20857
812.148	20815
812.29	20918
812.431	21058
812.573	21176
812.714	21150
812.855	21332
812.997	21321
813.138	21511
813.279	21420
813.421	21275
813.562	21260
813.703	21081
813.845	21009
813.986	20773
814.127	20678
814.268	20374
814.41	20400
814.551	20499
814.692	20442
814.833	20294
814.974	20275
815.115	20362
815.256	20278
815.397	20309
815.539	20332
815.68	20126
815.821	20084
815.962	20240
816.103	19978
816.244	19902
816.385	19830
816.526	19826
816.666	19731
816.807	19510
816.948	19620
817.089	19620
817.23	19597
817.371	19578
817.512	19594
817.653	19544
817.793	19350
817.934	19495
818.075	19559
818.216	19495
818.356	19460
818.497	19346
818.638	19266
818.778	19202
818.919	19274
819.06	19259
819.2	19419
819.341	19430
819.481	19453
819.622	19586
819.762	19769
819.903	19727
820.043	19552
820.184	19495
820.324	19487
820.465	19651
820.605	19480
820.746	19460
820.886	19358
821.026	19635
821.167	19400
821.307	19537
821.447	19445
821.588	19362
821.728	19171
821.868	18977
822.008	19038
822.149	18943
822.289	18806
822.429	18604
822.569	18642
822.709	18559
822.849	18467
822.99	18395
823.13	18384
823.27	18525
823.41	18209
823.55	18194
823.69	18194
823.83	18239
823.97	18106
824.11	18091
824.25	17939
824.389	17977
824.529	18026
824.669	17977
824.809	18106
824.949	18015
825.089	18133
825.228	18064
825.368	17863
825.508	17878
825.648	17817
825.787	17790
825.927	17851
826.067	17687
826.206	17786
826.346	17863
826.485	17680
826.625	17718
826.765	17821
826.904	17767
827.044	17520
827.183	17459
827.323	17402
827.462	17509
827.601	17429
827.741	17383
827.88	17497
828.02	17330
828.159	17406
828.298	17440
828.437	17627
828.577	17376
828.716	17573
828.855	17341
828.994	17231
829.134	17189
829.273	17212
829.412	17189
829.551	17151
829.69	17170
829.829	17162
829.968	17315
830.107	17303
830.246	17265
830.385	17124
830.524	17094
830.663	16946
830.802	16942
830.941	16778
831.08	16877
831.219	16961
831.357	16885
831.496	17052
831.635	16717
831.774	16713
831.913	16679
832.051	16603
832.19	16683
832.329	16618
832.467	16611
832.606	16455
832.744	16531
832.883	16447
833.022	16535
833.16	16436
833.299	16691
833.437	16535
833.576	16527
833.714	16577
833.852	16481
833.991	16710
834.129	16634
834.267	16721
834.406	16527
834.544	16660
834.682	16470
834.821	16554
834.959	16755
835.097	16546
835.235	16668
835.373	16558
835.511	16508
835.65	16497
835.788	16516
835.926	16325
836.064	16246
836.202	16333
836.34	16447
836.478	16577
836.615	16424
836.753	16489
836.891	16558
837.029	16455
837.167	16352
837.305	16390
837.443	16360
837.58	16329
837.718	16341
837.856	16325
837.993	16249
838.131	16211
838.269	16196
838.406	16162
838.544	16230
838.681	15979
838.819	15983
838.956	15854
839.094	15789
839.231	15861
839.369	15983
839.506	16318
839.643	16219
839.781	15884
839.918	15873
840.055	15987
840.193	15865
840.33	15827
840.467	15915
840.604	15930
840.742	16067
840.879	15778
841.016	15778
841.153	15804
841.29	15972
841.427	15816
841.564	15922
841.701	15842
841.838	15873
841.975	15770
842.112	15842
842.249	15622
842.385	15572
842.522	15850
842.659	15686
842.796	15580
842.933	15694
843.069	15603
843.206	15591
843.343	15705
843.479	15705
843.616	15778
843.752	15557
843.889	15500
844.025	15580
844.162	15348
844.298	15526
844.435	15553
844.571	15374
844.708	15469
844.844	15652
844.98	15641
845.117	15648
845.253	15321
845.389	15389
845.525	15405
845.661	15302
845.798	15195
845.934	15351
846.07	15245
846.206	15294
846.342	15389
846.478	15226
846.614	15039
846.75	14986
846.886	14982
847.022	15081
847.158	14952
847.294	15013
847.429	15017
847.565	14967
847.701	15218
847.837	14724
847.972	14777
848.108	14811
848.244	14880
848.379	14701
848.515	14594
848.65	14560
848.786	14625
848.921	14587
849.057	14743
849.192	14785
849.328	14655
849.463	14625
849.598	14594
849.734	14564
849.869	14511
850.004	14358
850.14	14442
850.275	14305
850.41	14301
850.545	14313
850.68	14370
850.815	14286
850.95	14377
851.085	14640
851.22	14442
851.355	14457
851.49	14419
851.625	14370
851.76	14351
851.895	14320
852.03	14259
852.165	14389
852.299	14457
852.434	14549
852.569	14358
852.703	14408
852.838	14457
852.973	14537
853.107	14484
853.242	14332
853.376	14320
853.511	14153
853.645	14202
853.78	14313
853.914	14305
854.048	14149
854.183	14221
854.317	14252
854.451	14408
854.585	14218
854.72	14252
854.854	14298
854.988	14092
855.122	14263
855.256	14084
855.39	14142
855.524	14305
855.658	14317
855.792	14240
855.926	14324
856.06	14286
856.194	14256
856.327	14199
856.461	14180
856.595	14237
856.729	14214
856.862	14377
856.996	14278
857.13	14324
857.263	14377
857.397	14370
857.53	14294
857.664	14229
857.797	14328
857.931	14351
858.064	14252
858.197	14434
858.331	14309
858.464	14282
858.597	14115
858.731	14199
858.864	14282
858.997	14263
859.13	14278
859.263	14233
859.396	14282
859.529	14298
859.662	14149
859.795	14195
859.928	14275
860.061	14381
860.194	14404
860.327	14343
860.46	14309
860.592	14332
860.725	14415
860.858	14377
860.99	14320
861.123	14202
861.256	14103
861.388	14237
861.521	14914
861.653	14191
861.786	14081
861.918	14084
862.05	14214
862.183	14202
862.315	14199
862.447	14362
862.58	14206
862.712	14039
862.844	13951
862.976	14054
863.108	14005
863.24	14320
863.372	13921
863.504	14046
863.636	13959
863.768	14069
863.9	14103
864.032	14016
864.164	14001
864.296	13951
864.428	14195
864.559	14077
864.691	14020
864.823	14092
864.954	14054
865.086	14039
865.217	14084
865.349	13887
865.48	13993
865.612	14111
865.743	14153
865.875	14027
866.006	13963
866.137	13989
866.269	14008
866.4	13894
866.531	13925
866.662	13993
866.793	13936
866.924	13963
867.055	14092
867.186	13967
867.317	14008
867.448	13970
867.579	14005
867.71	13974
867.841	13928
867.972	14046
868.103	14050
868.233	13997
868.364	14012
868.495	14100
868.625	14328
868.756	14278
868.886	14267
869.017	14256
869.147	14332
869.278	14328
869.408	14339
869.539	14278
869.669	14370
869.799	14358
869.929	14400
870.06	14374
870.19	14587
870.32	14678
870.45	14568
870.58	14590
870.71	14667
870.84	14861
870.97	14712
871.1	14648
871.23	14826
871.36	14868
871.489	14716
871.619	14868
871.749	14811
871.879	14937
872.008	14933
872.138	14914
872.267	14883
872.397	14739
872.526	14682
872.656	14739
872.785	14693
872.915	14921
873.044	14994
873.173	14944
873.303	14986
873.432	14994
873.561	15005
873.69	14971
873.819	14857
873.948	14872
874.077	14990
874.206	14918
874.335	14906
874.464	15017
874.593	15195
874.722	15157
874.851	15252
874.979	15245
875.108	15287
875.237	15214
875.365	15017
875.494	15173
875.623	15279
875.751	15207
875.88	15252
876.008	15412
876.136	15462
876.265	15690
876.393	15926
876.521	15789
876.65	15762
876.778	15709
876.906	15675
877.034	15584
877.162	15625
877.29	15595
877.418	15637
877.546	15637
877.674	15675
877.802	15705
877.93	15633
878.058	15614
878.185	15576
878.313	15755
878.441	15641
878.568	15500
878.696	15587
878.824	15675
878.951	15641
879.079	15804
879.206	15945
879.333	15907
879.461	15663
879.588	15660
879.715	15812
879.842	15876
879.97	15553
880.097	15462
880.224	15511
880.351	15466
880.478	15447
880.605	15485
880.732	15473
880.859	15789
880.986	15568
881.112	15481
881.239	15389
881.366	15283
881.493	15233
881.619	15058
881.746	15119
881.872	15138
881.999	15131
882.125	15154
882.252	15176
882.378	15192
882.505	15412
882.631	15093
882.757	14975
882.883	14979
883.01	14899
883.136	14937
883.262	14849
883.388	14845
883.514	14982
883.64	14986
883.766	14918
883.892	14826
884.018	14796
884.143	14880
884.269	14963
884.395	14815
884.52	14541
884.646	14712
884.772	14606
884.897	14579
885.023	14678
885.148	14796
885.274	14834
885.399	14689
885.524	14697
885.65	14727
885.775	14644
885.9	14636
886.025	14769
886.15	14777
886.275	14693
886.4	14560
886.525	14568
886.65	14552
886.775	14610
886.9	14815
887.025	14845
887.149	14613
887.274	14492
887.399	14503
887.523	14492
887.648	14518
887.773	14328
887.897	14610
888.021	14545
888.146	14545
888.27	14594
888.395	14587
888.519	14613
888.643	14545
888.767	14587
888.891	14457
889.015	14351
889.139	14396
889.263	14347
889.387	14454
889.511	14579
889.635	14465
889.759	14271
889.883	14263
890.006	14419
890.13	14450
890.254	14267
890.377	14309
890.501	14229
890.624	14206
890.748	14233
890.871	14161
890.995	14012
891.118	13845
891.241	14054
891.364	14046
891.488	14221
891.611	14043
891.734	14031
891.857	14111
891.98	14123
892.103	14123
892.226	14062
892.349	14100
892.471	13890
892.594	13989
892.717	14073
892.839	14077
892.962	14077
893.085	14081
893.207	14077
893.33	14035
893.452	13967
893.575	14084
893.697	14096
893.819	14240
893.941	14263
894.064	14218
894.186	14092
894.308	14027
894.43	14218
894.552	14233
894.674	14210
894.796	14043
894.918	14058
895.04	14142
895.161	14202
895.283	14195
895.405	14050
895.526	14214
895.648	14176
895.769	14278
895.891	14271
896.012	14244
896.134	14256
896.255	14172
896.376	14229
896.498	14214
896.619	14294
896.74	14176
896.861	14263
896.982	14678
897.103	14777
897.224	14564
897.345	14522
897.466	14400
897.587	14571
897.708	14613
897.828	14530
897.949	14465
898.07	14461
898.19	14499
898.311	14693
898.431	14564
898.552	14625
898.672	14689
898.792	14636
898.913	14621
899.033	14526
899.153	14499
899.273	14305
899.393	14393
899.513	14492
899.633	14419
899.753	14454
899.873	14461
899.993	14511
900.113	14434
900.232	14492
900.352	14442
900.472	14431
900.591	14271
900.711	14389
900.83	14343
900.95	14431
901.069	14537
901.189	14259
901.308	14126
901.427	14020
901.546	14012
901.665	14035
901.784	14008
901.904	13849
902.023	13830
902.141	13624
902.26	13544
902.379	13605
902.498	13624
902.617	13480
902.735	13628
902.854	13556
902.973	13548
903.091	13354
903.21	13327
903.328	13236
903.446	13168
903.565	13202
903.683	13080
903.801	13000
903.919	13072
904.038	13133
904.156	12951
904.274	12977
904.392	12947
904.51	12894
904.627	12981
904.745	13004
904.863	13027
904.981	12738
905.098	12642
905.216	12650
905.334	12681
905.451	12597
905.569	12654
905.686	12635
905.803	12658
905.921	12483
906.038	12654
906.155	12559
906.272	12391
906.389	12441
906.506	12235
906.623	12148
906.74	12152
906.857	12129
906.974	12194
907.091	12205
907.208	12311
907.324	12209
907.441	12144
907.557	12007
907.674	11920
907.79	11927
907.907	12003
908.023	12041
908.139	12049
908.256	11954
908.372	11939
908.488	11908
908.604	11760
908.72	11649
908.836	11726
908.952	11722
909.068	11764
909.184	11821
909.3	11745
909.415	11684
909.531	11688
909.647	11505
909.762	11471
909.878	11509
909.993	11497
910.108	11501
910.224	11471
910.339	11505
910.454	11429
910.57	11436
910.685	11273
910.8	11695
910.915	11551
911.03	11372
911.145	11204
911.259	11246
911.374	11132
911.489	11105
911.604	11102
911.718	10942
911.833	10953
911.947	10877
912.062	10793
912.176	10908
912.291	10946
912.405	10862
912.519	11147
912.633	11136
912.748	11033
912.862	11025
912.976	10812
913.09	10694
913.204	10885
913.318	10862
913.431	10904
913.545	10885
913.659	10972
913.772	10850
913.886	10736
914	10782
914.113	10835
914.226	10873
914.34	10809
914.453	10694
914.566	10786
914.68	10615
914.793	10675
914.906	10497
915.019	10489
915.132	10405
915.245	10447
915.358	10523
915.47	10481
915.583	10440
915.696	10497
915.809	10603
915.921	10630
916.034	10493
916.146	10352
916.259	10367
916.371	10504
916.483	10405
916.595	10375
916.708	10348
916.82	10379
916.932	10348
917.044	10333
917.156	10322
917.268	10310
917.38	10280
917.491	10242
917.603	10337
917.715	10375
917.826	10405
917.938	10284
918.049	10124
918.161	10253
918.272	10402
918.384	10417
918.495	10318
918.606	10162
918.717	10173
918.828	10162
918.939	10143
919.05	10109
919.161	10162
919.272	10074
919.383	10040
919.494	10169
919.604	10394
919.715	10207
919.826	10116
919.936	10227
920.047	10314
920.157	10257
920.267	10421
920.378	10234
920.488	10219
920.598	10367
920.708	10550
920.818	10402
920.928	10405
921.038	10588
921.148	10538
921.258	10303
921.368	10230
921.477	9994
921.587	10067
921.697	9869
921.806	10082
921.916	9854
922.025	9831
922.134	9785
922.244	9781
922.353	9838
922.462	9660
922.571	9606
922.68	9523
922.789	9412
922.898	9408
923.007	9397
923.116	9454
923.224	9359
923.333	9447
923.442	9325
923.55	9279
923.659	9397
923.767	9397
923.876	9268
923.984	9408
924.092	9184
924.201	9260
924.309	9321
924.417	9340
924.525	9264
924.633	9180
924.741	9994
924.849	9062
924.956	9226
925.064	9074
925.172	8979
925.279	9074
925.387	9154
925.494	9108
925.602	9260
925.709	9199
925.816	9028
925.924	9165
926.031	9222
926.138	9135
926.245	9112
926.352	9013
926.459	9127
926.566	9230
926.673	9062
926.779	9001
926.886	8979
926.993	8891
927.099	8796
927.206	8724
927.312	8777
927.419	8830
927.525	8826
927.631	8864
927.737	8792
927.843	8712
927.95	8575
928.056	8651
928.162	8727
928.267	8857
928.373	9363
928.479	8815
928.585	8579
928.69	8720
928.796	8708
928.901	8579
929.007	8484
929.112	8754
929.218	8655
929.323	8636
929.428	8549
929.533	8587
929.638	8503
929.743	8549
929.848	8606
929.953	8579
930.058	8507
930.163	8263
930.267	8309
930.372	8457
930.477	8301
930.581	8488
930.685	8339
930.79	8180
930.894	8271
930.998	8305
931.103	8469
931.207	8081
931.311	7978
931.415	7963
931.519	7750
931.623	7769
