Data from test_V78500241_442.txt Node
Date: Fri Mar 25 14:36:47 CST 2022
User: usil
Spectrometer: V785-0024
Trigger mode: 0
Integration Time (sec): 4.000000E-1
Scans to average: 1
Nonlinearity correction enabled: false
Boxcar width: 0
Storing dark spectrum: false
XAxis mode: Wavelengths
Number of Pixels in Spectrum: 1024
>>>>>Begin Spectral Data<<<<<
801.071	26499
801.214	26503
801.356	26385
801.499	26248
801.641	26001
801.783	26039
801.926	25925
802.068	25833
802.211	25871
802.353	25822
802.496	25590
802.638	25643
802.78	25548
802.923	25548
803.065	25419
803.208	25460
803.35	25575
803.492	25620
803.635	25719
803.777	25521
803.919	25647
804.061	25925
804.204	25537
804.346	25525
804.488	25457
804.63	25457
804.773	25369
804.915	25537
805.057	25567
805.199	25445
805.341	25613
805.483	25559
805.626	25502
805.768	25415
805.91	25529
806.052	25495
806.194	25510
806.336	25791
806.478	25525
806.62	25651
806.762	25689
806.904	25799
807.046	26130
807.188	25909
807.33	26126
807.472	26119
807.614	25685
807.756	25772
807.898	25719
808.04	25552
808.182	25651
808.324	25761
808.465	25605
808.607	25833
808.749	26027
808.891	26134
809.033	26119
809.174	26058
809.316	25955
809.458	26054
809.6	25951
809.741	25963
809.883	25989
810.025	26172
810.166	26259
810.308	26275
810.45	25974
810.591	26103
810.733	25970
810.875	25856
811.016	25791
811.158	25772
811.299	25974
811.441	25947
811.582	26058
811.724	25921
811.865	25909
812.007	25936
812.148	25822
812.29	25906
812.431	26024
812.573	26134
812.714	26149
812.855	26332
812.997	26419
813.138	26682
813.279	26492
813.421	26252
813.562	26233
813.703	26191
813.845	26088
813.986	25864
814.127	25506
814.268	25388
814.41	25495
814.551	25339
814.692	25358
814.833	25331
814.974	25232
815.115	25285
815.256	25175
815.397	25202
815.539	25282
815.68	25057
815.821	25103
815.962	25190
816.103	25148
816.244	24939
816.385	24924
816.526	24825
816.666	24772
816.807	24608
816.948	24601
817.089	24711
817.23	24601
817.371	24536
817.512	24490
817.653	24429
817.793	24589
817.934	24464
818.075	24654
818.216	24582
818.356	24517
818.497	24391
818.638	24239
818.778	24213
818.919	24258
819.06	24220
819.2	24254
819.341	24418
819.481	24330
819.622	24566
819.762	24696
819.903	24791
820.043	24589
820.184	24601
820.324	24646
820.465	24730
820.605	24582
820.746	24376
820.886	24296
821.026	24566
821.167	24422
821.307	24612
821.447	24410
821.588	24369
821.728	24144
821.868	24057
822.008	23950
822.149	23893
822.289	23954
822.429	23604
822.569	23516
822.709	23646
822.849	23296
822.99	23345
823.13	23391
823.27	23265
823.41	23098
823.55	23094
823.69	23014
823.83	23056
823.97	23128
824.11	22938
824.25	22991
824.389	22805
824.529	22889
824.669	22873
824.809	23025
824.949	22942
825.089	22923
825.228	22820
825.368	22660
825.508	22645
825.648	22596
825.787	22752
825.927	22592
826.067	22565
826.206	22592
826.346	22713
826.485	22702
826.625	22748
826.765	22733
826.904	22752
827.044	22459
827.183	22489
827.323	22375
827.462	22413
827.601	22363
827.741	22379
827.88	22398
828.02	22249
828.159	22363
828.298	22299
828.437	22390
828.577	22344
828.716	22390
828.855	22280
828.994	22070
829.134	21991
829.273	22093
829.412	22048
829.551	21994
829.69	22029
829.829	22097
829.968	22188
830.107	22090
830.246	22124
830.385	22002
830.524	21911
830.663	21918
830.802	21835
830.941	21648
831.08	21663
831.219	21682
831.357	21679
831.496	21899
831.635	21561
831.774	21576
831.913	21439
832.051	21485
832.19	21416
832.329	21447
832.467	21256
832.606	21386
832.744	21283
832.883	21279
833.022	21241
833.16	21192
833.299	21199
833.437	21173
833.576	21321
833.714	21298
833.852	21370
833.991	21332
834.129	21481
834.267	21325
834.406	21329
834.544	21310
834.682	21268
834.821	21340
834.959	21325
835.097	21237
835.235	21378
835.373	21245
835.511	21367
835.65	21116
835.788	21135
835.926	21188
836.064	20979
836.202	21024
836.34	21093
836.478	21077
836.615	21192
836.753	21169
836.891	21176
837.029	21237
837.167	21226
837.305	20998
837.443	21089
837.58	21039
837.718	20982
837.856	20891
837.993	20921
838.131	20906
838.269	20864
838.406	20891
838.544	20921
838.681	20590
838.819	20587
838.956	20598
839.094	20492
839.231	20560
839.369	20499
839.506	20788
839.643	20655
839.781	20514
839.918	20431
840.055	20446
840.193	20393
840.33	20377
840.467	20339
840.604	20374
840.742	20575
840.879	20301
841.016	20267
841.153	20164
841.29	20434
841.427	20381
841.564	20404
841.701	20267
841.838	20248
841.975	20183
842.112	20176
842.249	20069
842.385	20046
842.522	20347
842.659	20031
842.796	19944
842.933	20031
843.069	20069
843.206	19951
843.343	20183
843.479	20058
843.616	20088
843.752	19822
843.889	19868
844.025	19959
844.162	19803
844.298	19993
844.435	19906
844.571	19742
844.708	19902
844.844	19989
844.98	19974
845.117	19928
845.253	19811
845.389	19818
845.525	19765
845.661	19696
845.798	19586
845.934	19616
846.07	19605
846.206	19696
846.342	19765
846.478	19548
846.614	19327
846.75	19324
846.886	19335
847.022	19312
847.158	19278
847.294	19228
847.429	19282
847.565	19240
847.701	19449
847.837	18970
847.972	19084
848.108	19194
848.244	19240
848.379	18859
848.515	18878
848.65	18779
848.786	18932
848.921	18810
849.057	18901
849.192	18958
849.328	18840
849.463	18829
849.598	18715
849.734	18703
849.869	18711
850.004	18642
850.14	18620
850.275	18700
850.41	18559
850.545	18608
850.68	18631
850.815	18631
850.95	18681
851.085	18738
851.22	18612
851.355	18578
851.49	18616
851.625	18498
851.76	18555
851.895	18498
852.03	18525
852.165	18532
852.299	18631
852.434	18589
852.569	18642
852.703	18540
852.838	18563
852.973	18692
853.107	18597
853.242	18540
853.376	18433
853.511	18178
853.645	18327
853.78	18513
853.914	18448
854.048	18418
854.183	18395
854.317	18388
854.451	18604
854.585	18426
854.72	18399
854.854	18502
854.988	18391
855.122	18353
855.256	18338
855.39	18376
855.524	18490
855.658	18426
855.792	18395
855.926	18486
856.06	18330
856.194	18525
856.327	18399
856.461	18350
856.595	18365
856.729	18410
856.862	18509
856.996	18452
857.13	18494
857.263	18456
857.397	18471
857.53	18403
857.664	18399
857.797	18441
857.931	18422
858.064	18471
858.197	18532
858.331	18342
858.464	18304
858.597	18186
858.731	18247
858.864	18304
858.997	18361
859.13	18292
859.263	18433
859.396	18365
859.529	18327
859.662	18376
859.795	18178
859.928	18338
860.061	18452
860.194	18361
860.327	18346
860.46	18266
860.592	18262
860.725	18475
860.858	18418
860.99	18369
861.123	18342
861.256	18216
861.388	18357
861.521	19118
861.653	18258
861.786	18129
861.918	18300
862.05	18281
862.183	18380
862.315	18350
862.447	18475
862.58	18289
862.712	18167
862.844	18068
862.976	18228
863.108	18072
863.24	18475
863.372	17961
863.504	17954
863.636	18121
863.768	18186
863.9	18102
864.032	18140
864.164	18007
864.296	18003
864.428	18186
864.559	18152
864.691	18167
864.823	18098
864.954	18053
865.086	18079
865.217	18083
865.349	17904
865.48	17950
865.612	18087
865.743	18174
865.875	17992
866.006	17954
866.137	18026
866.269	18007
866.4	18060
866.531	17889
866.662	17973
866.793	17999
866.924	17942
867.055	17939
867.186	17874
867.317	17954
867.448	17935
867.579	17897
867.71	17843
867.841	17775
867.972	17958
868.103	17920
868.233	17904
868.364	18015
868.495	18019
868.625	18178
868.756	18247
868.886	18110
869.017	18106
869.147	18273
869.278	18262
869.408	18235
869.539	18285
869.669	18330
869.799	18254
869.929	18220
870.06	18281
870.19	18467
870.32	18460
870.45	18566
870.58	18513
870.71	18791
870.84	18681
870.97	18517
871.1	18563
871.23	18654
871.36	18730
871.489	18787
871.619	18817
871.749	18802
871.879	18776
872.008	18894
872.138	18730
872.267	18741
872.397	18734
872.526	18525
872.656	18574
872.785	18612
872.915	18798
873.044	18776
873.173	18764
873.303	18711
873.432	18787
873.561	18932
873.69	18814
873.819	18730
873.948	18867
874.077	18791
874.206	18760
874.335	18787
874.464	18875
874.593	19069
874.722	18989
874.851	19084
874.979	19019
875.108	19179
875.237	18932
875.365	19008
875.494	19129
875.623	19084
875.751	19031
875.88	19084
876.008	19282
876.136	19236
876.265	19381
876.393	19556
876.521	19487
876.65	19590
876.778	19460
876.906	19476
877.034	19426
877.162	19468
877.29	19400
877.418	19441
877.546	19533
877.674	19422
877.802	19491
877.93	19339
878.058	19434
878.185	19343
878.313	19590
878.441	19476
878.568	19400
878.696	19396
878.824	19415
878.951	19464
879.079	19624
879.206	19814
879.333	19696
879.461	19449
879.588	19521
879.715	19753
879.842	19750
879.97	19499
880.097	19225
880.224	19213
880.351	19240
880.478	19392
880.605	19388
880.732	19312
880.859	19575
880.986	19441
881.112	19362
881.239	19213
881.366	19209
881.493	19008
881.619	18939
881.746	18981
881.872	18939
881.999	18943
882.125	18840
882.252	18985
882.378	18939
882.505	19004
882.631	18810
882.757	18764
882.883	18825
883.01	18764
883.136	18589
883.262	18532
883.388	18612
883.514	18639
883.64	18802
883.766	18703
883.892	18486
884.018	18566
884.143	18745
884.269	18787
884.395	18369
884.52	18433
884.646	18384
884.772	18213
884.897	18388
885.023	18372
885.148	18483
885.274	18665
885.399	18395
885.524	18281
885.65	18452
885.775	18342
885.9	18319
886.025	18445
886.15	18304
886.275	18277
886.4	18323
886.525	18407
886.65	18273
886.775	18190
886.9	18376
887.025	18684
887.149	18365
887.274	18213
887.399	18155
887.523	18197
887.648	18019
887.773	18038
887.897	18182
888.021	18148
888.146	18076
888.27	18186
888.395	18129
888.519	18201
888.643	18083
888.767	18209
888.891	18079
889.015	18030
889.139	18079
889.263	17916
889.387	18011
889.511	18182
889.635	18019
889.759	17973
889.883	17904
890.006	17939
890.13	18045
890.254	17855
890.377	17843
890.501	17661
890.624	17638
890.748	17703
890.871	17623
890.995	17649
891.118	17497
891.241	17615
891.364	17501
891.488	17760
891.611	17592
891.734	17551
891.857	17707
891.98	17589
892.103	17608
892.226	17520
892.349	17501
892.471	17436
892.594	17493
892.717	17440
892.839	17467
892.962	17581
893.085	17505
893.207	17471
893.33	17421
893.452	17459
893.575	17699
893.697	17497
893.819	17710
893.941	17805
894.064	17707
894.186	17551
894.308	17379
894.43	17520
894.552	17649
894.674	17665
894.796	17463
894.918	17535
895.04	17520
895.161	17600
895.283	17486
895.405	17467
895.526	17596
895.648	17452
895.769	17600
895.891	17611
896.012	17547
896.134	17562
896.255	17642
896.376	17566
896.498	17623
896.619	17680
896.74	17672
896.861	17805
896.982	17923
897.103	18041
897.224	17942
897.345	17794
897.466	17790
897.587	17802
897.708	17866
897.828	17767
897.949	17726
898.07	17627
898.19	17817
898.311	17882
898.431	17707
898.552	17790
898.672	17889
898.792	17840
898.913	17897
899.033	17741
899.153	17653
899.273	17535
899.393	17520
899.513	17714
899.633	17547
899.753	17596
899.873	17619
899.993	17551
900.113	17543
900.232	17577
900.352	17539
900.472	17436
900.591	17421
900.711	17558
900.83	17391
900.95	17512
901.069	17573
901.189	17334
901.308	17162
901.427	17075
901.546	17064
901.665	17151
901.784	17155
901.904	16908
902.023	16854
902.141	16607
902.26	16653
902.379	16736
902.498	16573
902.617	16550
902.735	16664
902.854	16504
902.973	16508
903.091	16287
903.21	16329
903.328	16238
903.446	16162
903.565	16071
903.683	16067
903.801	16071
903.919	16124
904.038	16093
904.156	15861
904.274	15934
904.392	15827
904.51	15941
904.627	15926
904.745	15842
904.863	16006
904.981	15618
905.098	15576
905.216	15595
905.334	15595
905.451	15595
905.569	15568
905.686	15679
905.803	15553
905.921	15218
906.038	15435
906.155	15370
906.272	15264
906.389	15245
906.506	15150
906.623	15222
906.74	15005
906.857	14925
906.974	14944
907.091	15081
907.208	15294
907.324	15077
907.441	14986
907.557	14883
907.674	14823
907.79	14735
907.907	14773
908.023	14785
908.139	14727
908.256	14849
908.372	14655
908.488	14724
908.604	14594
908.72	14473
908.836	14549
908.952	14442
909.068	14583
909.184	14530
909.3	14503
909.415	14522
909.531	14469
909.647	14191
909.762	14183
909.878	14259
909.993	14275
910.108	14275
910.224	14142
910.339	14164
910.454	14214
910.57	14100
910.685	13932
910.8	14259
910.915	14267
911.03	13993
911.145	13909
911.259	13883
911.374	13757
911.489	13765
911.604	13658
911.718	13666
911.833	13597
911.947	13506
912.062	13400
912.176	13586
912.291	13666
912.405	13552
912.519	13769
912.633	13757
912.748	13670
912.862	13643
912.976	13426
913.09	13297
913.204	13449
913.318	13491
913.431	13537
913.545	13563
913.659	13548
913.772	13419
913.886	13266
914	13232
914.113	13289
914.226	13365
914.34	13415
914.453	13179
914.566	13377
914.68	13244
914.793	13232
914.906	12989
915.019	12924
915.132	12810
915.245	12928
915.358	12973
915.47	12981
915.583	12947
915.696	12977
915.809	13057
915.921	13103
916.034	12935
916.146	12905
916.259	12806
916.371	12878
916.483	12977
916.595	12757
916.708	12882
916.82	12757
916.932	12810
917.044	12749
917.156	12825
917.268	12665
917.38	12692
917.491	12642
917.603	12814
917.715	12753
917.826	12810
917.938	12604
918.049	12540
918.161	12688
918.272	12795
918.384	12711
918.495	12623
918.606	12486
918.717	12334
918.828	12650
918.939	12460
919.05	12498
919.161	12460
919.272	12266
919.383	12315
919.494	12566
919.604	12635
919.715	12506
919.826	12410
919.936	12391
920.047	12578
920.157	12361
920.267	12673
920.378	12494
920.488	12410
920.598	12536
920.708	12852
920.818	12559
920.928	12639
921.038	12745
921.148	12681
921.258	12433
921.368	12395
921.477	12289
921.587	12213
921.697	12129
921.806	12266
921.916	12083
922.025	11980
922.134	11889
922.244	11851
922.353	11980
922.462	11741
922.571	11695
922.68	11600
922.789	11592
922.898	11566
923.007	11604
923.116	11566
923.224	11615
923.333	11509
923.442	11337
923.55	11383
923.659	11410
923.767	11474
923.876	11398
923.984	11376
924.092	11337
924.201	11360
924.309	11395
924.417	11425
924.525	11307
924.633	11261
924.741	12194
924.849	11048
924.956	11254
925.064	11041
925.172	11033
925.279	11086
925.387	11166
925.494	11079
925.602	11212
925.709	11117
925.816	10984
925.924	11124
926.031	11151
926.138	11140
926.245	11128
926.352	10938
926.459	11162
926.566	11170
926.673	10972
926.779	10885
926.886	10927
926.993	10824
927.099	10717
927.206	10698
927.312	10744
927.419	10725
927.525	10656
927.631	10786
927.737	10641
927.843	10542
927.95	10527
928.056	10519
928.162	10653
928.267	10653
928.373	11273
928.479	10611
928.585	10466
928.69	10531
928.796	10584
928.901	10390
929.007	10261
929.112	10462
929.218	10504
929.323	10379
929.428	10280
929.533	10508
929.638	10227
929.743	10322
929.848	10356
929.953	10284
930.058	10268
930.163	10051
930.267	10055
930.372	10234
930.477	10013
930.581	10314
930.685	10135
930.79	9945
930.894	10029
930.998	9915
931.103	10078
931.207	9759
931.311	9682
931.415	9663
931.519	9378
931.623	9405
