Data from test_V78500241_1639.txt Node
Date: Fri Mar 25 14:45:07 CST 2022
User: usil
Spectrometer: V785-0024
Trigger mode: 0
Integration Time (sec): 4.000000E-1
Scans to average: 1
Nonlinearity correction enabled: false
Boxcar width: 0
Storing dark spectrum: false
XAxis mode: Wavelengths
Number of Pixels in Spectrum: 1024
>>>>>Begin Spectral Data<<<<<
801.071	22306
801.214	22204
801.356	21979
801.499	21793
801.641	21629
801.783	21743
801.926	21747
802.068	21641
802.211	21762
802.353	21454
802.496	21268
802.638	21203
802.78	21138
802.923	21081
803.065	20883
803.208	20887
803.35	21085
803.492	21100
803.635	21173
803.777	21051
803.919	21188
804.061	21294
804.204	21100
804.346	21104
804.488	20941
804.63	21039
804.773	20906
804.915	20960
805.057	21024
805.199	20868
805.341	20963
805.483	21047
805.626	21135
805.768	20948
805.91	20941
806.052	20956
806.194	20781
806.336	21192
806.478	20933
806.62	20956
806.762	21005
806.904	21138
807.046	21389
807.188	21264
807.33	21150
807.472	21264
807.614	21222
807.756	21222
807.898	21302
808.04	20975
808.182	21017
808.324	21135
808.465	21104
808.607	21294
808.749	21519
808.891	21450
809.033	21591
809.174	21591
809.316	21447
809.458	21374
809.6	21279
809.741	21393
809.883	21420
810.025	21492
810.166	21603
810.308	21515
810.45	21405
810.591	21370
810.733	21192
810.875	21176
811.016	21070
811.158	21081
811.299	21207
811.441	21256
811.582	21302
811.724	21119
811.865	21150
812.007	21188
812.148	21218
812.29	21264
812.431	21287
812.573	21428
812.714	21622
812.855	21622
812.997	21774
813.138	21823
813.279	21618
813.421	21644
813.562	21587
813.703	21363
813.845	21275
813.986	21058
814.127	20769
814.268	20667
814.41	20667
814.551	20663
814.692	20629
814.833	20655
814.974	20705
815.115	20575
815.256	20590
815.397	20499
815.539	20511
815.68	20396
815.821	20465
815.962	20415
816.103	20313
816.244	20244
816.385	20134
816.526	20119
816.666	19849
816.807	19871
816.948	19849
817.089	19955
817.23	19887
817.371	19909
817.512	19738
817.653	19761
817.793	19712
817.934	19830
818.075	19788
818.216	19837
818.356	19727
818.497	19578
818.638	19457
818.778	19441
818.919	19434
819.06	19609
819.2	19670
819.341	19632
819.481	19662
819.622	19689
819.762	20031
819.903	20012
820.043	19833
820.184	19811
820.324	19780
820.465	19738
820.605	19784
820.746	19811
820.886	19693
821.026	19826
821.167	19791
821.307	19799
821.447	19628
821.588	19537
821.728	19400
821.868	19343
822.008	19168
822.149	19187
822.289	19206
822.429	18840
822.569	18856
822.709	18935
822.849	18738
822.99	18772
823.13	18711
823.27	18665
823.41	18536
823.55	18506
823.69	18460
823.83	18445
823.97	18395
824.11	18281
824.25	18232
824.389	18353
824.529	18319
824.669	18319
824.809	18407
824.949	18445
825.089	18369
825.228	18399
825.368	18019
825.508	17984
825.648	18091
825.787	18098
825.927	18079
826.067	18041
826.206	17954
826.346	18030
826.485	18038
826.625	18041
826.765	18148
826.904	18007
827.044	17863
827.183	17718
827.323	17733
827.462	17726
827.601	17665
827.741	17726
827.88	17687
828.02	17638
828.159	17687
828.298	17752
828.437	17824
828.577	17775
828.716	17840
828.855	17767
828.994	17410
829.134	17417
829.273	17417
829.412	17535
829.551	17448
829.69	17482
829.829	17463
829.968	17532
830.107	17463
830.246	17463
830.385	17353
830.524	17376
830.663	17311
830.802	17174
830.941	17204
831.08	17162
831.219	17105
831.357	17143
831.496	17269
831.635	17025
831.774	16987
831.913	16965
832.051	16869
832.19	16839
832.329	16885
832.467	16774
832.606	16755
832.744	16771
832.883	16771
833.022	16717
833.16	16736
833.299	16748
833.437	16801
833.576	16862
833.714	16869
833.852	16866
833.991	16938
834.129	16847
834.267	16972
834.406	16877
834.544	16828
834.682	16816
834.821	16835
834.959	16904
835.097	16805
835.235	16774
835.373	16858
835.511	16763
835.65	16759
835.788	16710
835.926	16535
836.064	16569
836.202	16519
836.34	16637
836.478	16839
836.615	16698
836.753	16668
836.891	16908
837.029	16820
837.167	16755
837.305	16565
837.443	16531
837.58	16535
837.718	16615
837.856	16580
837.993	16660
838.131	16519
838.269	16455
838.406	16584
838.544	16500
838.681	16360
838.819	16268
838.956	16131
839.094	16040
839.231	16120
839.369	16287
839.506	16478
839.643	16367
839.781	16173
839.918	16063
840.055	16131
840.193	16139
840.33	16040
840.467	16101
840.604	16071
840.742	16413
840.879	16006
841.016	16044
841.153	15956
841.29	16363
841.427	16063
841.564	16143
841.701	16116
841.838	16029
841.975	16021
842.112	16029
842.249	15873
842.385	15854
842.522	16109
842.659	15937
842.796	15819
842.933	15857
843.069	15857
843.206	15808
843.343	15861
843.479	15857
843.616	15907
843.752	15766
843.889	15698
844.025	15827
844.162	15622
844.298	15808
844.435	15679
844.571	15720
844.708	15713
844.844	15804
844.98	15831
845.117	15823
845.253	15545
845.389	15500
845.525	15694
845.661	15584
845.798	15492
845.934	15549
846.07	15515
846.206	15530
846.342	15648
846.478	15504
846.614	15317
846.75	15294
846.886	15218
847.022	15439
847.158	15283
847.294	15237
847.429	15424
847.565	15161
847.701	15458
847.837	14887
847.972	14944
848.108	15028
848.244	15039
848.379	14880
848.515	14800
848.65	14826
848.786	14834
848.921	14864
849.057	14937
849.192	14868
849.328	14788
849.463	14864
849.598	14845
849.734	14708
849.869	14686
850.004	14651
850.14	14636
850.275	14610
850.41	14579
850.545	14507
850.68	14621
850.815	14590
850.95	14594
851.085	14731
851.22	14743
851.355	14556
851.49	14575
851.625	14579
851.76	14659
851.895	14476
852.03	14587
852.165	14541
852.299	14625
852.434	14648
852.569	14602
852.703	14682
852.838	14655
852.973	14811
853.107	14743
853.242	14560
853.376	14507
853.511	14431
853.645	14355
853.78	14571
853.914	14606
854.048	14480
854.183	14393
854.317	14514
854.451	14678
854.585	14507
854.72	14393
854.854	14495
854.988	14423
855.122	14495
855.256	14298
855.39	14332
855.524	14549
855.658	14457
855.792	14533
855.926	14552
856.06	14484
856.194	14545
856.327	14400
856.461	14446
856.595	14389
856.729	14484
856.862	14537
856.996	14495
857.13	14495
857.263	14583
857.397	14651
857.53	14427
857.664	14575
857.797	14587
857.931	14682
858.064	14579
858.197	14556
858.331	14511
858.464	14533
858.597	14393
858.731	14522
858.864	14511
858.997	14427
859.13	14511
859.263	14442
859.396	14488
859.529	14366
859.662	14454
859.795	14404
859.928	14492
860.061	14667
860.194	14765
860.327	14442
860.46	14423
860.592	14537
860.725	14533
860.858	14575
860.99	14469
861.123	14427
861.256	14389
861.388	14442
861.521	15340
861.653	14317
861.786	14309
861.918	14419
862.05	14473
862.183	14473
862.315	14514
862.447	14465
862.58	14282
862.712	14183
862.844	14168
862.976	14454
863.108	14259
863.24	14648
863.372	14149
863.504	14275
863.636	14195
863.768	14248
863.9	14256
864.032	14145
864.164	14282
864.296	14183
864.428	14351
864.559	14389
864.691	14347
864.823	14301
864.954	14233
865.086	14286
865.217	14298
865.349	14145
865.48	14180
865.612	14126
865.743	14286
865.875	14248
866.006	14240
866.137	14225
866.269	14305
866.4	14202
866.531	14301
866.662	14111
866.793	14168
866.924	14134
867.055	14210
867.186	14225
867.317	14221
867.448	14199
867.579	14138
867.71	14218
867.841	14119
867.972	14157
868.103	14240
868.233	14202
868.364	14252
868.495	14229
868.625	14484
868.756	14632
868.886	14404
869.017	14461
869.147	14522
869.278	14564
869.408	14560
869.539	14469
869.669	14606
869.799	14564
869.929	14670
870.06	14579
870.19	14762
870.32	14720
870.45	14815
870.58	14815
870.71	14952
870.84	14944
870.97	14861
871.1	14899
871.23	14982
871.36	15089
871.489	14952
871.619	15020
871.749	15047
871.879	15074
872.008	15146
872.138	15047
872.267	15036
872.397	14941
872.526	14880
872.656	14902
872.785	14895
872.915	15043
873.044	15138
873.173	15157
873.303	15184
873.432	15230
873.561	15222
873.69	15252
873.819	15108
873.948	15252
874.077	15161
874.206	15173
874.335	15100
874.464	15146
874.593	15405
874.722	15279
874.851	15367
874.979	15515
875.108	15450
875.237	15233
875.365	15302
875.494	15321
875.623	15549
875.751	15408
875.88	15443
876.008	15614
876.136	15732
876.265	15827
876.393	16002
876.521	15892
876.65	15850
876.778	15907
876.906	15831
877.034	15838
877.162	15880
877.29	15808
877.418	15869
877.546	15861
877.674	15774
877.802	15888
877.93	15785
878.058	15793
878.185	15797
878.313	15846
878.441	15880
878.568	15766
878.696	15797
878.824	15937
878.951	15964
879.079	16078
879.206	16211
879.333	16040
879.461	15937
879.588	16078
879.715	16143
879.842	16112
879.97	15949
880.097	15686
880.224	15720
880.351	15644
880.478	15679
880.605	15614
880.732	15606
880.859	15960
880.986	15762
881.112	15739
881.239	15595
881.366	15443
881.493	15412
881.619	15272
881.746	15462
881.872	15420
881.999	15355
882.125	15355
882.252	15386
882.378	15374
882.505	15511
882.631	15211
882.757	15150
882.883	15218
883.01	15180
883.136	15013
883.262	15039
883.388	15047
883.514	15230
883.64	15176
883.766	15085
883.892	15055
884.018	15024
884.143	15146
884.269	15169
884.395	14944
884.52	14883
884.646	14902
884.772	14826
884.897	14842
885.023	14891
885.148	14967
885.274	15070
885.399	14895
885.524	14857
885.65	14895
885.775	14819
885.9	14921
886.025	14960
886.15	14891
886.275	14910
886.4	14727
886.525	14804
886.65	14834
886.775	14800
886.9	15062
887.025	15013
887.149	14842
887.274	14674
887.399	14697
887.523	14686
887.648	14640
887.773	14613
887.897	14819
888.021	14830
888.146	14689
888.27	14750
888.395	14785
888.519	14785
888.643	14697
888.767	14815
888.891	14583
889.015	14568
889.139	14682
889.263	14568
889.387	14678
889.511	14701
889.635	14583
889.759	14575
889.883	14461
890.006	14678
890.13	14682
890.254	14488
890.377	14507
890.501	14400
890.624	14381
890.748	14358
890.871	14286
890.995	14145
891.118	14206
891.241	14313
891.364	14263
891.488	14408
891.611	14218
891.734	14271
891.857	14305
891.98	14366
892.103	14282
892.226	14218
892.349	14328
892.471	14084
892.594	14225
892.717	14206
892.839	14286
892.962	14168
893.085	14332
893.207	14172
893.33	14119
893.452	14142
893.575	14290
893.697	14221
893.819	14476
893.941	14511
894.064	14343
894.186	14202
894.308	14138
894.43	14408
894.552	14480
894.674	14476
894.796	14233
894.918	14324
895.04	14267
895.161	14351
895.283	14301
895.405	14252
895.526	14339
895.648	14385
895.769	14404
895.891	14400
896.012	14473
896.134	14419
896.255	14431
896.376	14434
896.498	14454
896.619	14381
896.74	14431
896.861	14423
896.982	14887
897.103	14849
897.224	14617
897.345	14651
897.466	14644
897.587	14598
897.708	14823
897.828	14716
897.949	14651
898.07	14651
898.19	14743
898.311	14838
898.431	14663
898.552	14746
898.672	14853
898.792	14876
898.913	14826
899.033	14678
899.153	14610
899.273	14492
899.393	14560
899.513	14617
899.633	14625
899.753	14587
899.873	14503
899.993	14682
900.113	14530
900.232	14636
900.352	14552
900.472	14431
900.591	14442
900.711	14450
900.83	14446
900.95	14682
901.069	14667
901.189	14465
901.308	14077
901.427	14214
901.546	14176
901.665	14191
901.784	14153
901.904	14081
902.023	13997
902.141	13731
902.26	13780
902.379	13807
902.498	13693
902.617	13643
902.735	13807
902.854	13719
902.973	13719
903.091	13476
903.21	13350
903.328	13487
903.446	13369
903.565	13282
903.683	13381
903.801	13236
903.919	13179
904.038	13247
904.156	13179
904.274	13228
904.392	13034
904.51	13160
904.627	13023
904.745	13263
904.863	13164
904.981	12909
905.098	12783
905.216	12859
905.334	12924
905.451	12817
905.569	12825
905.686	12863
905.803	12867
905.921	12593
906.038	12741
906.155	12578
906.272	12452
906.389	12597
906.506	12456
906.623	12445
906.74	12338
906.857	12228
906.974	12216
907.091	12426
907.208	12540
907.324	12391
907.441	12308
907.557	12167
907.674	12163
907.79	12102
907.907	12087
908.023	12163
908.139	12114
908.256	12053
908.372	12148
908.488	12019
908.604	11893
908.72	11908
908.836	11828
908.952	11870
909.068	11897
909.184	11885
909.3	11828
909.415	11969
909.531	11916
909.647	11726
909.762	11653
909.878	11551
909.993	11627
910.108	11581
910.224	11581
910.339	11684
910.454	11577
910.57	11467
910.685	11448
910.8	11764
910.915	11665
911.03	11581
911.145	11337
911.259	11391
911.374	11395
911.489	11311
911.604	11242
911.718	11113
911.833	11083
911.947	10953
912.062	10908
912.176	11094
912.291	11041
912.405	11128
912.519	11334
912.633	11292
912.748	11204
912.862	11102
912.976	10987
913.09	10885
913.204	10908
913.318	11003
913.431	11117
913.545	11029
913.659	11109
913.772	10991
913.886	10801
914	10812
914.113	10976
914.226	11022
914.34	10980
914.453	10782
914.566	11071
914.68	10755
914.793	10736
914.906	10622
915.019	10599
915.132	10516
915.245	10550
915.358	10645
915.47	10637
915.583	10561
915.696	10573
915.809	10736
915.921	10797
916.034	10668
916.146	10580
916.259	10550
916.371	10729
916.483	10687
916.595	10527
916.708	10546
916.82	10512
916.932	10459
917.044	10497
917.156	10497
917.268	10470
917.38	10489
917.491	10405
917.603	10443
917.715	10443
917.826	10512
917.938	10424
918.049	10303
918.161	10493
918.272	10558
918.384	10535
918.495	10478
918.606	10375
918.717	10196
918.828	10303
918.939	10360
919.05	10204
919.161	10276
919.272	10059
919.383	10177
919.494	10329
919.604	10554
919.715	10417
919.826	10268
919.936	10234
920.047	10443
920.157	10360
920.267	10527
920.378	10333
920.488	10265
920.598	10535
920.708	10611
920.818	10485
920.928	10493
921.038	10679
921.148	10630
921.258	10352
921.368	10276
921.477	10291
921.587	10147
921.697	10086
921.806	10215
921.916	10059
922.025	9899
922.134	9880
922.244	9819
922.353	9937
922.462	9831
922.571	9747
922.68	9614
922.789	9530
922.898	9660
923.007	9504
923.116	9587
923.224	9591
923.333	9477
923.442	9443
923.55	9481
923.659	9435
923.767	9488
923.876	9431
923.984	9485
924.092	9431
924.201	9397
924.309	9367
924.417	9408
924.525	9424
924.633	9466
924.741	10188
924.849	9340
924.956	9378
925.064	9233
925.172	9112
925.279	9176
925.387	9233
925.494	9260
925.602	9355
925.709	9302
925.816	9100
925.924	9226
926.031	9298
926.138	9233
926.245	9233
926.352	9108
926.459	9298
926.566	9370
926.673	9211
926.779	9051
926.886	9089
926.993	8899
927.099	8906
927.206	8868
927.312	8872
927.419	8956
927.525	8895
927.631	8918
927.737	8804
927.843	8845
927.95	8750
928.056	8861
928.162	8834
928.267	8914
928.373	9370
928.479	8933
928.585	8670
928.69	8849
928.796	8876
928.901	8785
929.007	8648
929.112	8720
929.218	8788
929.323	8682
929.428	8606
929.533	8819
929.638	8571
929.743	8564
929.848	8651
929.953	8541
930.058	8579
930.163	8400
930.267	8438
930.372	8545
930.477	8358
930.581	8606
930.685	8454
930.79	8389
930.894	8385
930.998	8279
931.103	8480
931.207	8153
931.311	8103
931.415	8073
931.519	7852
931.623	7841
