Data from test_V78500241_2265.txt Node
Date: Fri Mar 25 14:49:29 CST 2022
User: usil
Spectrometer: V785-0024
Trigger mode: 0
Integration Time (sec): 4.000000E-1
Scans to average: 1
Nonlinearity correction enabled: false
Boxcar width: 0
Storing dark spectrum: false
XAxis mode: Wavelengths
Number of Pixels in Spectrum: 1024
>>>>>Begin Spectral Data<<<<<
801.071	22169
801.214	22040
801.356	21759
801.499	21759
801.641	21660
801.783	21618
801.926	21614
802.068	21477
802.211	21416
802.353	21405
802.496	21119
802.638	21055
802.78	21127
802.923	20899
803.065	20929
803.208	20872
803.35	20876
803.492	20906
803.635	20994
803.777	20804
803.919	21009
804.061	21116
804.204	20914
804.346	20849
804.488	20705
804.63	20887
804.773	20731
804.915	20731
805.057	20864
805.199	20807
805.341	20834
805.483	20990
805.626	20895
805.768	20781
805.91	20864
806.052	20815
806.194	20750
806.336	20910
806.478	20765
806.62	20762
806.762	20777
806.904	21074
807.046	21169
807.188	21116
807.33	21051
807.472	21161
807.614	21058
807.756	21112
807.898	20914
808.04	20891
808.182	20815
808.324	20842
808.465	20918
808.607	21081
808.749	21226
808.891	21245
809.033	21363
809.174	21230
809.316	21325
809.458	21131
809.6	21176
809.741	21207
809.883	21245
810.025	21321
810.166	21439
810.308	21363
810.45	21199
810.591	21222
810.733	20990
810.875	21009
811.016	20857
811.158	20960
811.299	20910
811.441	21043
811.582	21074
811.724	20956
811.865	20891
812.007	20796
812.148	20929
812.29	20918
812.431	21138
812.573	21302
812.714	21332
812.855	21431
812.997	21595
813.138	21686
813.279	21553
813.421	21488
813.562	21443
813.703	21180
813.845	21077
813.986	20819
814.127	20705
814.268	20587
814.41	20556
814.551	20609
814.692	20579
814.833	20457
814.974	20434
815.115	20579
815.256	20298
815.397	20473
815.539	20355
815.68	20259
815.821	20172
815.962	20225
816.103	20294
816.244	20134
816.385	19928
816.526	19906
816.666	19795
816.807	19620
816.948	19864
817.089	19811
817.23	19738
817.371	19662
817.512	19601
817.653	19666
817.793	19491
817.934	19708
818.075	19597
818.216	19693
818.356	19616
818.497	19441
818.638	19331
818.778	19282
818.919	19228
819.06	19312
819.2	19506
819.341	19578
819.481	19483
819.622	19616
819.762	19898
819.903	19719
820.043	19689
820.184	19753
820.324	19624
820.465	19727
820.605	19594
820.746	19597
820.886	19575
821.026	19518
821.167	19548
821.307	19628
821.447	19571
821.588	19396
821.728	19285
821.868	19324
822.008	19004
822.149	19023
822.289	19023
822.429	18707
822.569	18711
822.709	18719
822.849	18597
822.99	18330
823.13	18509
823.27	18551
823.41	18353
823.55	18277
823.69	18228
823.83	18384
823.97	18213
824.11	18190
824.25	18022
824.389	18083
824.529	18186
824.669	18026
824.809	18148
824.949	18125
825.089	18030
825.228	18209
825.368	17840
825.508	17893
825.648	17832
825.787	17927
825.927	17931
826.067	17847
826.206	17859
826.346	18022
826.485	17992
826.625	17901
826.765	17946
826.904	17707
827.044	17562
827.183	17680
827.323	17551
827.462	17680
827.601	17448
827.741	17436
827.88	17703
828.02	17459
828.159	17463
828.298	17547
828.437	17554
828.577	17516
828.716	17638
828.855	17608
828.994	17417
829.134	17414
829.273	17318
829.412	17269
829.551	17303
829.69	17284
829.829	17292
829.968	17307
830.107	17334
830.246	17383
830.385	17220
830.524	17185
830.663	17193
830.802	17018
830.941	16885
831.08	16915
831.219	17022
831.357	17006
831.496	17109
831.635	16889
831.774	16847
831.913	16736
832.051	16675
832.19	16679
832.329	16687
832.467	16588
832.606	16550
832.744	16611
832.883	16558
833.022	16478
833.16	16580
833.299	16634
833.437	16588
833.576	16664
833.714	16561
833.852	16656
833.991	16713
834.129	16744
834.267	16622
834.406	16759
834.544	16630
834.682	16740
834.821	16577
834.959	16782
835.097	16649
835.235	16748
835.373	16637
835.511	16588
835.65	16516
835.788	16630
835.926	16417
836.064	16527
836.202	16322
836.34	16531
836.478	16668
836.615	16523
836.753	16523
836.891	16519
837.029	16584
837.167	16474
837.305	16394
837.443	16394
837.58	16421
837.718	16622
837.856	16314
837.993	16428
838.131	16329
838.269	16253
838.406	16314
838.544	16352
838.681	16135
838.819	16082
838.956	15899
839.094	15895
839.231	15968
839.369	16093
839.506	16363
839.643	16188
839.781	15899
839.918	15861
840.055	15960
840.193	15857
840.33	15907
840.467	15964
840.604	15873
840.742	16086
840.879	15789
841.016	15800
841.153	15781
841.29	15964
841.427	15922
841.564	15937
841.701	15987
841.838	15850
841.975	15785
842.112	15861
842.249	15823
842.385	15739
842.522	15922
842.659	15679
842.796	15652
842.933	15747
843.069	15606
843.206	15679
843.343	15789
843.479	15652
843.616	15766
843.752	15557
843.889	15428
844.025	15610
844.162	15428
844.298	15545
844.435	15580
844.571	15458
844.708	15485
844.844	15671
844.98	15644
845.117	15561
845.253	15511
845.389	15348
845.525	15439
845.661	15416
845.798	15306
845.934	15237
846.07	15195
846.206	15275
846.342	15393
846.478	15241
846.614	15074
846.75	15077
846.886	15001
847.022	15142
847.158	15157
847.294	15036
847.429	15116
847.565	15017
847.701	15310
847.837	14773
847.972	14746
848.108	14963
848.244	14941
848.379	14758
848.515	14541
848.65	14678
848.786	14659
848.921	14686
849.057	14762
849.192	14659
849.328	14590
849.463	14613
849.598	14667
849.734	14610
849.869	14552
850.004	14480
850.14	14438
850.275	14492
850.41	14385
850.545	14320
850.68	14328
850.815	14419
850.95	14450
851.085	14579
851.22	14541
851.355	14408
851.49	14454
851.625	14404
851.76	14495
851.895	14328
852.03	14400
852.165	14408
852.299	14446
852.434	14484
852.569	14484
852.703	14381
852.838	14377
852.973	14594
853.107	14564
853.242	14336
853.376	14328
853.511	14221
853.645	14221
853.78	14374
853.914	14244
854.048	14259
854.183	14206
854.317	14275
854.451	14511
854.585	14301
854.72	14237
854.854	14400
854.988	14195
855.122	14233
855.256	14157
855.39	14214
855.524	14336
855.658	14362
855.792	14332
855.926	14324
856.06	14301
856.194	14332
856.327	14309
856.461	14240
856.595	14336
856.729	14248
856.862	14389
856.996	14278
857.13	14408
857.263	14400
857.397	14400
857.53	14320
857.664	14473
857.797	14339
857.931	14389
858.064	14355
858.197	14514
858.331	14305
858.464	14248
858.597	14149
858.731	14282
858.864	14214
858.997	14240
859.13	14393
859.263	14332
859.396	14328
859.529	14301
859.662	14199
859.795	14317
859.928	14336
860.061	14438
860.194	14579
860.327	14400
860.46	14320
860.592	14412
860.725	14385
860.858	14412
860.99	14290
861.123	14294
861.256	14259
861.388	14259
861.521	14857
861.653	14229
861.786	14103
861.918	14210
862.05	14202
862.183	14317
862.315	14286
862.447	14336
862.58	14244
862.712	14069
862.844	13978
862.976	14134
863.108	14161
863.24	14461
863.372	13963
863.504	14046
863.636	14054
863.768	14065
863.9	14005
864.032	13993
864.164	13940
864.296	14050
864.428	14267
864.559	14138
864.691	14084
864.823	14176
864.954	14020
865.086	14130
865.217	14077
865.349	14008
865.48	14111
865.612	13982
865.743	14164
865.875	14100
866.006	14119
866.137	14092
866.269	14161
866.4	14100
866.531	13978
866.662	14012
866.793	13879
866.924	14020
867.055	14050
867.186	14115
867.317	14024
867.448	13967
867.579	14012
867.71	14039
867.841	13997
867.972	14092
868.103	14123
868.233	14035
868.364	14016
868.495	14058
868.625	14313
868.756	14423
868.886	14168
869.017	14320
869.147	14450
869.278	14370
869.408	14221
869.539	14294
869.669	14400
869.799	14282
869.929	14522
870.06	14427
870.19	14655
870.32	14556
870.45	14617
870.58	14758
870.71	14769
870.84	14678
870.97	14659
871.1	14708
871.23	14857
871.36	14921
871.489	14765
871.619	14887
871.749	14948
871.879	14967
872.008	14979
872.138	14986
872.267	14952
872.397	14804
872.526	14731
872.656	14762
872.785	14727
872.915	14861
873.044	14960
873.173	14910
873.303	15017
873.432	15123
873.561	15066
873.69	15017
873.819	14929
873.948	15020
874.077	14883
874.206	14925
874.335	15005
874.464	15036
874.593	15222
874.722	15214
874.851	15195
874.979	15260
875.108	15340
875.237	15241
875.365	15127
875.494	15203
875.623	15340
875.751	15283
875.88	15264
876.008	15351
876.136	15523
876.265	15671
876.393	15888
876.521	15743
876.65	15804
876.778	15690
876.906	15648
877.034	15625
877.162	15705
877.29	15610
877.418	15682
877.546	15724
877.674	15622
877.802	15637
877.93	15713
878.058	15553
878.185	15469
878.313	15679
878.441	15652
878.568	15530
878.696	15564
878.824	15743
878.951	15797
879.079	15865
879.206	15937
879.333	15720
879.461	15724
879.588	15884
879.715	15922
879.842	16074
879.97	15717
880.097	15500
880.224	15557
880.351	15603
880.478	15557
880.605	15568
880.732	15553
880.859	15778
880.986	15500
881.112	15469
881.239	15363
881.366	15348
881.493	15302
881.619	15192
881.746	15195
881.872	15165
881.999	15097
882.125	15173
882.252	15192
882.378	15161
882.505	15344
882.631	15104
882.757	14933
882.883	15093
883.01	14982
883.136	14910
883.262	14864
883.388	14830
883.514	15047
883.64	15085
883.766	14994
883.892	14861
884.018	14823
884.143	14971
884.269	15077
884.395	14815
884.52	14701
884.646	14651
884.772	14663
884.897	14575
885.023	14705
885.148	14769
885.274	14796
885.399	14838
885.524	14716
885.65	14720
885.775	14735
885.9	14746
886.025	14743
886.15	14777
886.275	14571
886.4	14560
886.525	14697
886.65	14640
886.775	14610
886.9	14788
887.025	14948
887.149	14667
887.274	14651
887.399	14457
887.523	14583
887.648	14431
887.773	14412
887.897	14594
888.021	14629
888.146	14503
888.27	14663
888.395	14720
888.519	14541
888.643	14587
888.767	14636
888.891	14476
889.015	14309
889.139	14404
889.263	14408
889.387	14457
889.511	14530
889.635	14396
889.759	14362
889.883	14332
890.006	14518
890.13	14495
890.254	14275
890.377	14332
890.501	14164
890.624	14195
890.748	14275
890.871	14199
890.995	14077
891.118	13986
891.241	14088
891.364	14111
891.488	14161
891.611	13993
891.734	14088
891.857	14062
891.98	14191
892.103	14111
892.226	14134
892.349	14069
892.471	13921
892.594	14134
892.717	13978
892.839	14138
892.962	14081
893.085	14077
893.207	14130
893.33	14001
893.452	13974
893.575	14199
893.697	13982
893.819	14195
893.941	14298
894.064	14206
894.186	14100
894.308	14126
894.43	14225
894.552	14324
894.674	14172
894.796	14088
894.918	14058
895.04	14084
895.161	14290
895.283	14210
895.405	14126
895.526	14237
895.648	14259
895.769	14214
895.891	14271
896.012	14294
896.134	14240
896.255	14183
896.376	14240
896.498	14248
896.619	14271
896.74	14210
896.861	14396
896.982	14587
897.103	14678
897.224	14617
897.345	14476
897.466	14419
897.587	14594
897.708	14701
897.828	14514
897.949	14507
898.07	14393
898.19	14522
898.311	14689
898.431	14583
898.552	14663
898.672	14697
898.792	14693
898.913	14621
899.033	14545
899.153	14556
899.273	14381
899.393	14351
899.513	14594
899.633	14396
899.753	14469
899.873	14355
899.993	14556
900.113	14518
900.232	14568
900.352	14374
900.472	14370
900.591	14248
900.711	14480
900.83	14320
900.95	14495
901.069	14503
901.189	14324
901.308	14043
901.427	14020
901.546	14103
901.665	14069
901.784	14016
901.904	13883
902.023	13864
902.141	13639
902.26	13521
902.379	13636
902.498	13613
902.617	13556
902.735	13601
902.854	13559
902.973	13529
903.091	13301
903.21	13358
903.328	13343
903.446	13339
903.565	13183
903.683	13145
903.801	13137
903.919	13190
904.038	13126
904.156	13027
904.274	13004
904.392	12954
904.51	12993
904.627	13038
904.745	13008
904.863	13065
904.981	12772
905.098	12688
905.216	12639
905.334	12814
905.451	12662
905.569	12665
905.686	12669
905.803	12722
905.921	12464
906.038	12608
906.155	12494
906.272	12323
906.389	12441
906.506	12346
906.623	12289
906.74	12262
906.857	12163
906.974	12167
907.091	12460
907.208	12410
907.324	12319
907.441	12057
907.557	12060
907.674	11980
907.79	11961
907.907	12038
908.023	12038
908.139	12083
908.256	11946
908.372	11988
908.488	11954
908.604	11786
908.72	11752
908.836	11832
908.952	11718
909.068	11809
909.184	11855
909.3	11794
909.415	11805
909.531	11752
909.647	11623
909.762	11535
909.878	11493
909.993	11630
910.108	11501
910.224	11573
910.339	11585
910.454	11501
910.57	11376
910.685	11452
910.8	11600
910.915	11554
911.03	11360
911.145	11288
911.259	11307
911.374	11250
911.489	11151
911.604	11151
911.718	11006
911.833	10999
911.947	10919
912.062	10843
912.176	10919
912.291	11102
912.405	10961
912.519	11159
912.633	11250
912.748	11048
912.862	11045
912.976	10877
913.09	10881
913.204	10854
913.318	10873
913.431	11025
913.545	10938
913.659	11006
913.772	10934
913.886	10767
914	10820
914.113	10885
914.226	10953
914.34	10908
914.453	10771
914.566	10965
914.68	10679
914.793	10763
914.906	10634
915.019	10519
915.132	10394
915.245	10542
915.358	10626
915.47	10615
915.583	10645
915.696	10512
915.809	10622
915.921	10717
916.034	10596
916.146	10558
916.259	10462
916.371	10607
916.483	10538
916.595	10447
916.708	10440
916.82	10500
916.932	10428
917.044	10432
917.156	10424
917.268	10390
917.38	10386
917.491	10379
917.603	10417
917.715	10379
917.826	10504
917.938	10230
918.049	10265
918.161	10348
918.272	10504
918.384	10516
918.495	10424
918.606	10276
918.717	10143
918.828	10223
918.939	10234
919.05	10166
919.161	10173
919.272	9968
919.383	10044
919.494	10268
919.604	10447
919.715	10268
919.826	10215
919.936	10238
920.047	10386
920.157	10265
920.267	10455
920.378	10314
920.488	10215
920.598	10447
920.708	10675
920.818	10405
920.928	10424
921.038	10645
921.148	10474
921.258	10344
921.368	10211
921.477	10139
921.587	10006
921.697	9922
921.806	10166
921.916	9994
922.025	9857
922.134	9755
922.244	9789
922.353	9831
922.462	9698
922.571	9660
922.68	9511
922.789	9526
922.898	9549
923.007	9450
923.116	9504
923.224	9507
923.333	9454
923.442	9416
923.55	9458
923.659	9424
923.767	9443
923.876	9363
923.984	9431
924.092	9310
924.201	9401
924.309	9325
924.417	9447
924.525	9340
924.633	9306
924.741	10227
924.849	9131
924.956	9317
925.064	9157
925.172	9074
925.279	9097
925.387	9157
925.494	9169
925.602	9317
925.709	9279
925.816	9077
925.924	9138
926.031	9188
926.138	9169
926.245	9199
926.352	9150
926.459	9260
926.566	9268
926.673	9161
926.779	9039
926.886	9024
926.993	8910
927.099	8876
927.206	8785
927.312	8845
927.419	8872
927.525	8914
927.631	8864
927.737	8769
927.843	8834
927.95	8617
928.056	8720
928.162	8796
928.267	8849
928.373	9435
928.479	8933
928.585	8670
928.69	8762
928.796	8788
928.901	8693
929.007	8587
929.112	8701
929.218	8708
929.323	8636
929.428	8594
929.533	8735
929.638	8492
929.743	8579
929.848	8625
929.953	8610
930.058	8488
930.163	8301
930.267	8442
930.372	8530
930.477	8351
930.581	8583
930.685	8457
930.79	8244
930.894	8347
930.998	8320
931.103	8503
931.207	8096
931.311	8092
931.415	7955
931.519	7792
931.623	7818
