Data from test_V78500241_2999.txt Node
Date: Fri Mar 25 14:54:35 CST 2022
User: usil
Spectrometer: V785-0024
Trigger mode: 0
Integration Time (sec): 4.000000E-1
Scans to average: 1
Nonlinearity correction enabled: false
Boxcar width: 0
Storing dark spectrum: false
XAxis mode: Wavelengths
Number of Pixels in Spectrum: 1024
>>>>>Begin Spectral Data<<<<<
801.071	22051
801.214	22029
801.356	21739
801.499	21587
801.641	21519
801.783	21443
801.926	21386
802.068	21355
802.211	21355
802.353	21264
802.496	20998
802.638	20952
802.78	20834
802.923	20758
803.065	20758
803.208	20788
803.35	20823
803.492	20853
803.635	20902
803.777	20640
803.919	20838
804.061	21108
804.204	20765
804.346	20648
804.488	20682
804.63	20697
804.773	20648
804.915	20724
805.057	20796
805.199	20659
805.341	20724
805.483	20895
805.626	20785
805.768	20659
805.91	20678
806.052	20743
806.194	20629
806.336	20746
806.478	20667
806.62	20587
806.762	20781
806.904	20952
807.046	21013
807.188	21020
807.33	21058
807.472	21127
807.614	20975
807.756	20937
807.898	20777
808.04	20796
808.182	20663
808.324	20746
808.465	20765
808.607	20971
808.749	21119
808.891	21074
809.033	21203
809.174	21176
809.316	20994
809.458	21024
809.6	21005
809.741	21169
809.883	21131
810.025	21302
810.166	21256
810.308	21199
810.45	21260
810.591	21024
810.733	20925
810.875	20834
811.016	20811
811.158	20785
811.299	20933
811.441	20960
811.582	20925
811.724	20815
811.865	20899
812.007	20826
812.148	20834
812.29	20815
812.431	21017
812.573	21013
812.714	21199
812.855	21389
812.997	21439
813.138	21675
813.279	21367
813.421	21348
813.562	21313
813.703	21058
813.845	21039
813.986	20708
814.127	20484
814.268	20476
814.41	20385
814.551	20434
814.692	20522
814.833	20263
814.974	20393
815.115	20370
815.256	20282
815.397	20168
815.539	20256
815.68	20130
815.821	19993
815.962	20107
816.103	20149
816.244	19947
816.385	19887
816.526	19799
816.666	19769
816.807	19510
816.948	19624
817.089	19655
817.23	19521
817.371	19506
817.512	19464
817.653	19537
817.793	19605
817.934	19464
818.075	19601
818.216	19544
818.356	19601
818.497	19346
818.638	19095
818.778	19175
818.919	19160
819.06	19381
819.2	19388
819.341	19362
819.481	19285
819.622	19582
819.762	19727
819.903	19628
820.043	19525
820.184	19544
820.324	19445
820.465	19533
820.605	19453
820.746	19495
820.886	19373
821.026	19502
821.167	19392
821.307	19609
821.447	19438
821.588	19270
821.728	19107
821.868	19095
822.008	18859
822.149	18939
822.289	18817
822.429	18642
822.569	18483
822.709	18582
822.849	18380
822.99	18445
823.13	18319
823.27	18376
823.41	18174
823.55	18216
823.69	18247
823.83	18277
823.97	18087
824.11	18083
824.25	17942
824.389	18049
824.529	17958
824.669	17973
824.809	18174
824.949	18125
825.089	18015
825.228	18030
825.368	17859
825.508	17821
825.648	17764
825.787	17790
825.927	17802
826.067	17653
826.206	17775
826.346	17718
826.485	17707
826.625	17783
826.765	17866
826.904	17779
827.044	17627
827.183	17653
827.323	17292
827.462	17547
827.601	17387
827.741	17471
827.88	17524
828.02	17330
828.159	17444
828.298	17478
828.437	17516
828.577	17436
828.716	17604
828.855	17307
828.994	17288
829.134	17200
829.273	17185
829.412	17227
829.551	17113
829.69	17132
829.829	17376
829.968	17288
830.107	17273
830.246	17147
830.385	17124
830.524	17151
830.663	17079
830.802	16984
830.941	16847
831.08	16847
831.219	16889
831.357	16919
831.496	17029
831.635	16782
831.774	16698
831.913	16767
832.051	16683
832.19	16580
832.329	16615
832.467	16451
832.606	16447
832.744	16451
832.883	16466
833.022	16382
833.16	16516
833.299	16424
833.437	16519
833.576	16516
833.714	16500
833.852	16512
833.991	16485
834.129	16607
834.267	16535
834.406	16535
834.544	16603
834.682	16493
834.821	16626
834.959	16763
835.097	16405
835.235	16561
835.373	16622
835.511	16565
835.65	16443
835.788	16440
835.926	16352
836.064	16375
836.202	16306
836.34	16497
836.478	16584
836.615	16466
836.753	16455
836.891	16489
837.029	16497
837.167	16314
837.305	16363
837.443	16344
837.58	16306
837.718	16405
837.856	16348
837.993	16234
838.131	16394
838.269	16234
838.406	16257
838.544	16215
838.681	16025
838.819	15895
838.956	15945
839.094	15873
839.231	15941
839.369	15987
839.506	16246
839.643	16196
839.781	15903
839.918	15865
840.055	15857
840.193	15911
840.33	15755
840.467	15865
840.604	15934
840.742	16158
840.879	15736
841.016	15743
841.153	15774
841.29	15994
841.427	15937
841.564	15846
841.701	15861
841.838	15732
841.975	15705
842.112	15770
842.249	15614
842.385	15732
842.522	15732
842.659	15652
842.796	15641
842.933	15698
843.069	15523
843.206	15553
843.343	15663
843.479	15724
843.616	15667
843.752	15500
843.889	15382
844.025	15591
844.162	15374
844.298	15591
844.435	15389
844.571	15382
844.708	15401
844.844	15549
844.98	15553
845.117	15610
845.253	15294
845.389	15477
845.525	15370
845.661	15348
845.798	15157
845.934	15161
846.07	15165
846.206	15256
846.342	15340
846.478	15173
846.614	15104
846.75	14960
846.886	14967
847.022	15005
847.158	14975
847.294	15081
847.429	14986
847.565	14960
847.701	15283
847.837	14807
847.972	14655
848.108	14857
848.244	14674
848.379	14689
848.515	14530
848.65	14571
848.786	14598
848.921	14632
849.057	14667
849.192	14682
849.328	14644
849.463	14613
849.598	14556
849.734	14552
849.869	14389
850.004	14423
850.14	14480
850.275	14351
850.41	14172
850.545	14317
850.68	14313
850.815	14355
850.95	14450
851.085	14514
851.22	14438
851.355	14355
851.49	14385
851.625	14271
851.76	14176
851.895	14202
852.03	14301
852.165	14336
852.299	14271
852.434	14396
852.569	14404
852.703	14431
852.838	14457
852.973	14511
853.107	14473
853.242	14309
853.376	14214
853.511	14138
853.645	14111
853.78	14278
853.914	14256
854.048	14275
854.183	14195
854.317	14244
854.451	14370
854.585	14176
854.72	14256
854.854	14298
854.988	14176
855.122	14191
855.256	14126
855.39	14168
855.524	14294
855.658	14320
855.792	14187
855.926	14183
856.06	14267
856.194	14339
856.327	14229
856.461	14062
856.595	14149
856.729	14256
856.862	14377
856.996	14290
857.13	14259
857.263	14336
857.397	14263
857.53	14218
857.664	14240
857.797	14256
857.931	14282
858.064	14244
858.197	14267
858.331	14202
858.464	14153
858.597	14119
858.731	14240
858.864	14248
858.997	14172
859.13	14199
859.263	14149
859.396	14282
859.529	14130
859.662	14259
859.795	14221
859.928	14195
860.061	14389
860.194	14366
860.327	14278
860.46	14240
860.592	14290
860.725	14358
860.858	14324
860.99	14237
861.123	14092
861.256	14096
861.388	14229
861.521	14921
861.653	14115
861.786	14084
861.918	14092
862.05	14077
862.183	14229
862.315	14103
862.447	14248
862.58	14218
862.712	13940
862.844	13978
862.976	13989
863.108	13978
863.24	14434
863.372	13928
863.504	13917
863.636	14050
863.768	14043
863.9	13986
864.032	13936
864.164	13978
864.296	14031
864.428	14123
864.559	14123
864.691	13993
864.823	14073
864.954	13989
865.086	13951
865.217	13963
865.349	13814
865.48	13974
865.612	13928
865.743	14058
865.875	14065
866.006	13936
866.137	14005
866.269	13970
866.4	13902
866.531	13913
866.662	13921
866.793	13871
866.924	13887
867.055	14008
867.186	13982
867.317	13944
867.448	13879
867.579	13913
867.71	13814
867.841	13921
867.972	14027
868.103	13959
868.233	13936
868.364	13986
868.495	14054
868.625	14176
868.756	14252
868.886	14164
869.017	14172
869.147	14294
869.278	14294
869.408	14271
869.539	14320
869.669	14358
869.799	14138
869.929	14385
870.06	14404
870.19	14583
870.32	14560
870.45	14549
870.58	14640
870.71	14708
870.84	14724
870.97	14636
871.1	14636
871.23	14758
871.36	14731
871.489	14746
871.619	14762
871.749	14842
871.879	14804
872.008	14960
872.138	14864
872.267	14777
872.397	14708
872.526	14663
872.656	14629
872.785	14693
872.915	14842
873.044	14914
873.173	14842
873.303	14849
873.432	14887
873.561	14952
873.69	14883
873.819	14971
873.948	14941
874.077	14906
874.206	14773
874.335	14952
874.464	15039
874.593	15150
874.722	15085
874.851	15131
874.979	15104
875.108	15203
875.237	15104
875.365	15077
875.494	15135
875.623	15218
875.751	15188
875.88	15180
876.008	15283
876.136	15431
876.265	15549
876.393	15694
876.521	15663
876.65	15774
876.778	15511
876.906	15526
877.034	15519
877.162	15542
877.29	15477
877.418	15637
877.546	15637
877.674	15705
877.802	15625
877.93	15580
878.058	15485
878.185	15477
878.313	15580
878.441	15542
878.568	15454
878.696	15606
878.824	15717
878.951	15694
879.079	15717
879.206	15880
879.333	15724
879.461	15652
879.588	15793
879.715	15823
879.842	15819
879.97	15679
880.097	15466
880.224	15393
880.351	15458
880.478	15435
880.605	15420
880.732	15431
880.859	15656
880.986	15519
881.112	15477
881.239	15310
881.366	15176
881.493	15165
881.619	15116
881.746	15028
881.872	15093
881.999	15039
882.125	15070
882.252	15138
882.378	15188
882.505	15287
882.631	15173
882.757	15013
882.883	14887
883.01	14971
883.136	14933
883.262	14800
883.388	14716
883.514	14899
883.64	15112
883.766	14933
883.892	14735
884.018	14731
884.143	14880
884.269	14998
884.395	14648
884.52	14545
884.646	14579
884.772	14537
884.897	14644
885.023	14640
885.148	14739
885.274	14720
885.399	14632
885.524	14598
885.65	14674
885.775	14651
885.9	14564
886.025	14735
886.15	14667
886.275	14564
886.4	14537
886.525	14568
886.65	14617
886.775	14606
886.9	14804
887.025	14933
887.149	14632
887.274	14518
887.399	14415
887.523	14454
887.648	14404
887.773	14320
887.897	14514
888.021	14461
888.146	14450
888.27	14415
888.395	14556
888.519	14503
888.643	14492
888.767	14564
888.891	14320
889.015	14381
889.139	14358
889.263	14320
889.387	14461
889.511	14514
889.635	14427
889.759	14290
889.883	14229
890.006	14408
890.13	14488
890.254	14343
890.377	14278
890.501	14168
890.624	14168
890.748	14168
890.871	14130
890.995	13997
891.118	13947
891.241	13921
891.364	14008
891.488	14172
891.611	14027
891.734	13997
891.857	14046
891.98	14012
892.103	14031
892.226	14050
892.349	13997
892.471	13928
892.594	13944
892.717	14115
892.839	14035
892.962	13989
893.085	14103
893.207	13978
893.33	13936
893.452	14012
893.575	14103
893.697	13928
893.819	14126
893.941	14240
894.064	14172
894.186	13917
894.308	14016
894.43	14145
894.552	14252
894.674	14191
894.796	13909
894.918	14035
895.04	14043
895.161	14164
895.283	14088
895.405	14077
895.526	14149
895.648	14096
895.769	14107
895.891	14123
896.012	14176
896.134	14252
896.255	14153
896.376	14130
896.498	14164
896.619	14267
896.74	14221
896.861	14206
896.982	14587
897.103	14682
897.224	14545
897.345	14381
897.466	14320
897.587	14385
897.708	14541
897.828	14533
897.949	14358
898.07	14263
898.19	14385
898.311	14590
898.431	14381
898.552	14549
898.672	14598
898.792	14602
898.913	14602
899.033	14446
899.153	14400
899.273	14294
899.393	14366
899.513	14320
899.633	14389
899.753	14484
899.873	14385
899.993	14488
900.113	14343
900.232	14503
900.352	14450
900.472	14362
900.591	14248
900.711	14252
900.83	14244
900.95	14415
901.069	14454
901.189	14183
901.308	14027
901.427	13967
901.546	13921
901.665	13997
901.784	14024
901.904	13849
902.023	13753
902.141	13609
902.26	13521
902.379	13712
902.498	13567
902.617	13529
902.735	13491
902.854	13476
902.973	13472
903.091	13369
903.21	13206
903.328	13270
903.446	13187
903.565	13061
903.683	13103
903.801	12973
903.919	13103
904.038	13000
904.156	12924
904.274	12970
904.392	12920
904.51	12924
904.627	12977
904.745	12962
904.863	13012
904.981	12669
905.098	12585
905.216	12631
905.334	12703
905.451	12616
905.569	12574
905.686	12578
905.803	12582
905.921	12388
906.038	12467
906.155	12445
906.272	12300
906.389	12308
906.506	12133
906.623	12117
906.74	12285
906.857	12091
906.974	12072
907.091	12270
907.208	12262
907.324	12228
907.441	12152
907.557	11954
907.674	11893
907.79	11866
907.907	11859
908.023	11996
908.139	11954
908.256	11851
908.372	11805
908.488	11870
908.604	11710
908.72	11665
908.836	11707
908.952	11699
909.068	11608
909.184	11805
909.3	11684
909.415	11745
909.531	11710
909.647	11467
909.762	11410
909.878	11299
909.993	11448
910.108	11391
910.224	11459
910.339	11402
910.454	11334
910.57	11303
910.685	11231
910.8	11539
910.915	11440
911.03	11349
911.145	11136
911.259	11086
911.374	11151
911.489	11117
911.604	11014
911.718	10930
911.833	10934
911.947	10759
912.062	10752
912.176	10869
912.291	10908
912.405	10957
912.519	11094
912.633	11109
912.748	10995
912.862	10816
912.976	10869
913.09	10736
913.204	10660
913.318	10835
913.431	10877
913.545	10881
913.659	10957
913.772	10774
913.886	10717
914	10653
914.113	10706
914.226	10797
914.34	10801
914.453	10588
914.566	10710
914.68	10580
914.793	10637
914.906	10485
915.019	10470
915.132	10318
915.245	10333
915.358	10481
915.47	10508
915.583	10443
915.696	10504
915.809	10653
915.921	10607
916.034	10417
916.146	10306
916.259	10348
916.371	10386
916.483	10455
916.595	10367
916.708	10363
916.82	10360
916.932	10306
917.044	10261
917.156	10352
917.268	10306
917.38	10314
917.491	10287
917.603	10242
917.715	10356
917.826	10299
917.938	10280
918.049	10192
918.161	10333
918.272	10440
918.384	10409
918.495	10257
918.606	10200
918.717	10051
918.828	10093
918.939	10166
919.05	10048
919.161	10150
919.272	9953
919.383	10067
919.494	10227
919.604	10398
919.715	10265
919.826	10071
919.936	10101
920.047	10303
920.157	10154
920.267	10322
920.378	10230
920.488	10215
920.598	10367
920.708	10516
920.818	10436
920.928	10360
921.038	10577
921.148	10478
921.258	10227
921.368	10086
921.477	10006
921.587	9945
921.697	9956
921.806	10021
921.916	9956
922.025	9686
922.134	9751
922.244	9679
922.353	9743
922.462	9557
922.571	9641
922.68	9428
922.789	9435
922.898	9492
923.007	9374
923.116	9492
923.224	9450
923.333	9458
923.442	9344
923.55	9275
923.659	9367
923.767	9302
923.876	9165
923.984	9363
924.092	9249
924.201	9329
924.309	9351
924.417	9321
924.525	9237
924.633	9302
924.741	10166
924.849	9077
924.956	9268
925.064	9062
925.172	9066
925.279	9013
925.387	9116
925.494	9039
925.602	9218
925.709	9173
925.816	8994
925.924	9085
926.031	9146
926.138	9161
926.245	9074
926.352	9074
926.459	9116
926.566	9154
926.673	9028
926.779	8982
926.886	8918
926.993	8826
927.099	8781
927.206	8773
927.312	8769
927.419	8910
927.525	8785
927.631	8842
927.737	8766
927.843	8705
927.95	8590
928.056	8689
928.162	8693
928.267	8788
928.373	9275
928.479	8781
928.585	8583
928.69	8590
928.796	8777
928.901	8629
929.007	8469
929.112	8651
929.218	8617
929.323	8522
929.428	8480
929.533	8670
929.638	8415
929.743	8507
929.848	8530
929.953	8549
930.058	8423
930.163	8298
930.267	8309
930.372	8389
930.477	8252
930.581	8488
930.685	8328
930.79	8202
930.894	8267
930.998	8244
931.103	8309
931.207	8008
931.311	7993
931.415	7898
931.519	7681
931.623	7734
