Data from test_V78500241_3260.txt Node
Date: Fri Mar 25 14:56:25 CST 2022
User: usil
Spectrometer: V785-0024
Trigger mode: 0
Integration Time (sec): 4.000000E-1
Scans to average: 1
Nonlinearity correction enabled: false
Boxcar width: 0
Storing dark spectrum: false
XAxis mode: Wavelengths
Number of Pixels in Spectrum: 1024
>>>>>Begin Spectral Data<<<<<
801.071	21892
801.214	21915
801.356	21637
801.499	21458
801.641	21370
801.783	21374
801.926	21382
802.068	21310
802.211	21077
802.353	21264
802.496	20868
802.638	20819
802.78	20708
802.923	20796
803.065	20708
803.208	20621
803.35	20765
803.492	20735
803.635	20804
803.777	20689
803.919	20716
804.061	20994
804.204	20686
804.346	20670
804.488	20480
804.63	20564
804.773	20545
804.915	20663
805.057	20689
805.199	20537
805.341	20568
805.483	20724
805.626	20712
805.768	20522
805.91	20667
806.052	20716
806.194	20434
806.336	20613
806.478	20651
806.62	20530
806.762	20571
806.904	20773
807.046	20914
807.188	20800
807.33	20861
807.472	20891
807.614	20876
807.756	20876
807.898	20712
808.04	20693
808.182	20735
808.324	20670
808.465	20640
808.607	20815
808.749	20921
808.891	21001
809.033	21081
809.174	20925
809.316	20895
809.458	20975
809.6	20899
809.741	21036
809.883	20956
810.025	21009
810.166	21047
810.308	21108
810.45	21051
810.591	20941
810.733	20796
810.875	20804
811.016	20629
811.158	20522
811.299	20560
811.441	20819
811.582	20811
811.724	20663
811.865	20667
812.007	20480
812.148	20682
812.29	20731
812.431	20724
812.573	20979
812.714	21104
812.855	21199
812.997	21351
813.138	21355
813.279	21386
813.421	21188
813.562	21176
813.703	20872
813.845	20830
813.986	20560
814.127	20389
814.268	20324
814.41	20400
814.551	20256
814.692	20385
814.833	20267
814.974	20103
815.115	20145
815.256	20111
815.397	20115
815.539	20138
815.68	19940
815.821	19928
815.962	19959
816.103	19921
816.244	19693
816.385	19696
816.526	19651
816.666	19609
816.807	19384
816.948	19537
817.089	19460
817.23	19438
817.371	19411
817.512	19289
817.653	19312
817.793	19278
817.934	19270
818.075	19403
818.216	19422
818.356	19289
818.497	19175
818.638	18989
818.778	19027
818.919	18897
819.06	19038
819.2	19213
819.341	19274
819.481	19206
819.622	19457
819.762	19613
819.903	19548
820.043	19365
820.184	19346
820.324	19441
820.465	19335
820.605	19365
820.746	19335
820.886	19156
821.026	19240
821.167	19331
821.307	19270
821.447	19190
821.588	19148
821.728	19190
821.868	18833
822.008	18779
822.149	18753
822.289	18661
822.429	18471
822.569	18403
822.709	18388
822.849	18224
822.99	18361
823.13	18106
823.27	18235
823.41	18034
823.55	18022
823.69	18030
823.83	18167
823.97	17996
824.11	17790
824.25	17798
824.389	17779
824.529	17794
824.669	17802
824.809	17897
824.949	17939
825.089	17904
825.228	17882
825.368	17665
825.508	17592
825.648	17710
825.787	17634
825.927	17710
826.067	17532
826.206	17589
826.346	17566
826.485	17592
826.625	17695
826.765	17699
826.904	17604
827.044	17345
827.183	17493
827.323	17349
827.462	17368
827.601	17326
827.741	17265
827.88	17368
828.02	17197
828.159	17151
828.298	17356
828.437	17322
828.577	17227
828.716	17474
828.855	17284
828.994	17067
829.134	17105
829.273	17048
829.412	16995
829.551	16980
829.69	17071
829.829	17132
829.968	17220
830.107	17071
830.246	17056
830.385	16854
830.524	17010
830.663	16816
830.802	16839
830.941	16733
831.08	16538
831.219	16793
831.357	16774
831.496	16896
831.635	16607
831.774	16577
831.913	16474
832.051	16405
832.19	16462
832.329	16451
832.467	16504
832.606	16333
832.744	16360
832.883	16291
833.022	16329
833.16	16337
833.299	16413
833.437	16478
833.576	16363
833.714	16428
833.852	16394
833.991	16512
834.129	16504
834.267	16481
834.406	16466
834.544	16474
834.682	16508
834.821	16417
834.959	16649
835.097	16363
835.235	16405
835.373	16402
835.511	16474
835.65	16337
835.788	16344
835.926	16268
836.064	16173
836.202	16158
836.34	16356
836.478	16424
836.615	16268
836.753	16295
836.891	16470
837.029	16367
837.167	16276
837.305	16344
837.443	16261
837.58	16287
837.718	16352
837.856	16188
837.993	16112
838.131	16303
838.269	16093
838.406	16112
838.544	16139
838.681	15964
838.819	15953
838.956	15915
839.094	15800
839.231	15884
839.369	15994
839.506	16135
839.643	16040
839.781	15899
839.918	15698
840.055	15831
840.193	15766
840.33	15724
840.467	15660
840.604	15732
840.742	16090
840.879	15660
841.016	15667
841.153	15690
841.29	15895
841.427	15876
841.564	15781
841.701	15774
841.838	15759
841.975	15629
842.112	15679
842.249	15595
842.385	15526
842.522	15717
842.659	15553
842.796	15587
842.933	15496
843.069	15523
843.206	15481
843.343	15633
843.479	15606
843.616	15534
843.752	15287
843.889	15306
844.025	15507
844.162	15306
844.298	15481
844.435	15359
844.571	15298
844.708	15424
844.844	15557
844.98	15515
845.117	15397
845.253	15279
845.389	15176
845.525	15310
845.661	15245
845.798	15169
845.934	15192
846.07	15024
846.206	15104
846.342	15211
846.478	15154
846.614	14948
846.75	14937
846.886	14849
847.022	15005
847.158	14982
847.294	15043
847.429	14902
847.565	14960
847.701	15188
847.837	14651
847.972	14739
848.108	14693
848.244	14716
848.379	14499
848.515	14575
848.65	14507
848.786	14480
848.921	14522
849.057	14663
849.192	14651
849.328	14476
849.463	14594
849.598	14484
849.734	14412
849.869	14423
850.004	14313
850.14	14347
850.275	14313
850.41	14221
850.545	14195
850.68	14240
850.815	14233
850.95	14240
851.085	14431
851.22	14393
851.355	14259
851.49	14294
851.625	14206
851.76	14218
851.895	14240
852.03	14130
852.165	14252
852.299	14313
852.434	14305
852.569	14263
852.703	14256
852.838	14351
852.973	14343
853.107	14431
853.242	14237
853.376	14134
853.511	14058
853.645	14100
853.78	14313
853.914	14134
854.048	14096
854.183	14164
854.317	14153
854.451	14233
854.585	14084
854.72	14039
854.854	14191
854.988	13989
855.122	14100
855.256	14062
855.39	14054
855.524	14161
855.658	14168
855.792	14149
855.926	14100
856.06	14210
856.194	14355
856.327	14168
856.461	14115
856.595	14043
856.729	14161
856.862	14237
856.996	14183
857.13	14286
857.263	14218
857.397	14237
857.53	14210
857.664	14206
857.797	14237
857.931	14343
858.064	14214
858.197	14286
858.331	14130
858.464	14138
858.597	14046
858.731	14138
858.864	14100
858.997	14084
859.13	14123
859.263	14168
859.396	14248
859.529	14157
859.662	14016
859.795	14153
859.928	14138
860.061	14320
860.194	14355
860.327	14248
860.46	14138
860.592	14332
860.725	14263
860.858	14282
860.99	14107
861.123	14001
861.256	14149
861.388	14111
861.521	14887
861.653	14077
861.786	13967
861.918	14020
862.05	14031
862.183	14145
862.315	14096
862.447	14206
862.58	14096
862.712	13951
862.844	13963
862.976	14027
863.108	13974
863.24	14298
863.372	13879
863.504	13921
863.636	13875
863.768	13982
863.9	13898
864.032	13822
864.164	13864
864.296	14016
864.428	14035
864.559	14092
864.691	14043
864.823	13944
864.954	13913
865.086	14035
865.217	13921
865.349	13811
865.48	13887
865.612	14005
865.743	14077
865.875	13921
866.006	13921
866.137	13921
866.269	13902
866.4	13967
866.531	13837
866.662	13807
866.793	13791
866.924	13913
867.055	13989
867.186	14020
867.317	13967
867.448	13883
867.579	13807
867.71	13864
867.841	13841
867.972	13989
868.103	13967
868.233	13913
868.364	13959
868.495	13978
868.625	14164
868.756	14202
868.886	14214
869.017	14161
869.147	14233
869.278	14305
869.408	14218
869.539	14168
869.669	14259
869.799	14187
869.929	14313
870.06	14263
870.19	14480
870.32	14461
870.45	14484
870.58	14640
870.71	14613
870.84	14682
870.97	14579
871.1	14537
871.23	14804
871.36	14746
871.489	14758
871.619	14720
871.749	14773
871.879	14883
872.008	14872
872.138	14823
872.267	14743
872.397	14648
872.526	14667
872.656	14560
872.785	14571
872.915	14727
873.044	14929
873.173	14750
873.303	14921
873.432	14861
873.561	14929
873.69	14845
873.819	14804
873.948	14857
874.077	14914
874.206	14731
874.335	14811
874.464	14910
874.593	15142
874.722	14994
874.851	15230
874.979	15249
875.108	15222
875.237	15104
875.365	15013
875.494	15161
875.623	15127
875.751	15093
875.88	15173
876.008	15252
876.136	15241
876.265	15530
876.393	15720
876.521	15584
876.65	15648
876.778	15545
876.906	15568
877.034	15492
877.162	15401
877.29	15466
877.418	15584
877.546	15507
877.674	15572
877.802	15553
877.93	15564
878.058	15511
878.185	15435
878.313	15557
878.441	15576
878.568	15473
878.696	15538
878.824	15603
878.951	15561
879.079	15797
879.206	15793
879.333	15701
879.461	15542
879.588	15698
879.715	15759
879.842	15747
879.97	15682
880.097	15367
880.224	15485
880.351	15454
880.478	15412
880.605	15454
880.732	15359
880.859	15663
880.986	15462
881.112	15488
881.239	15260
881.366	15211
881.493	15100
881.619	15039
881.746	15112
881.872	15081
881.999	15051
882.125	15062
882.252	15100
882.378	15058
882.505	15226
882.631	14971
882.757	14804
882.883	14899
883.01	14781
883.136	14887
883.262	14781
883.388	14712
883.514	14975
883.64	14998
883.766	14773
883.892	14602
884.018	14724
884.143	14857
884.269	14967
884.395	14636
884.52	14495
884.646	14613
884.772	14499
884.897	14446
885.023	14613
885.148	14701
885.274	14773
885.399	14739
885.524	14606
885.65	14610
885.775	14602
885.9	14518
886.025	14758
886.15	14663
886.275	14587
886.4	14507
886.525	14469
886.65	14476
886.775	14495
886.9	14777
887.025	14838
887.149	14648
887.274	14465
887.399	14412
887.523	14362
887.648	14370
887.773	14438
887.897	14408
888.021	14507
888.146	14298
888.27	14457
888.395	14552
888.519	14404
888.643	14469
888.767	14503
888.891	14336
889.015	14221
889.139	14286
889.263	14286
889.387	14431
889.511	14442
889.635	14408
889.759	14339
889.883	14252
890.006	14320
890.13	14374
890.254	14210
890.377	14256
890.501	14164
890.624	14069
890.748	14168
890.871	14016
890.995	13909
891.118	13791
891.241	13936
891.364	13947
891.488	14020
891.611	13925
891.734	13989
891.857	14016
891.98	14020
892.103	14065
892.226	14024
892.349	13951
892.471	13814
892.594	13879
892.717	14050
892.839	13982
892.962	13997
893.085	14054
893.207	13989
893.33	13898
893.452	13864
893.575	14058
893.697	13898
893.819	14161
893.941	14214
894.064	14107
894.186	14012
894.308	13925
894.43	14138
894.552	14187
894.674	14119
894.796	13932
894.918	13997
895.04	13997
895.161	14210
895.283	14123
895.405	14046
895.526	14164
895.648	14058
895.769	14138
895.891	14130
896.012	14088
896.134	14183
896.255	14107
896.376	14100
896.498	14138
896.619	14153
896.74	14229
896.861	14240
896.982	14526
897.103	14587
897.224	14549
897.345	14396
897.466	14305
897.587	14408
897.708	14533
897.828	14537
897.949	14374
898.07	14183
898.19	14366
898.311	14541
898.431	14374
898.552	14488
898.672	14541
898.792	14583
898.913	14644
899.033	14522
899.153	14286
899.273	14278
899.393	14377
899.513	14377
899.633	14332
899.753	14461
899.873	14336
899.993	14412
900.113	14271
900.232	14351
900.352	14263
900.472	14317
900.591	14282
900.711	14218
900.83	14088
900.95	14309
901.069	14362
901.189	14130
901.308	13970
901.427	13864
901.546	13902
901.665	13921
901.784	14020
901.904	13788
902.023	13738
902.141	13491
902.26	13434
902.379	13468
902.498	13441
902.617	13422
902.735	13563
902.854	13472
902.973	13426
903.091	13247
903.21	13225
903.328	13183
903.446	13091
903.565	13183
903.683	13023
903.801	12901
903.919	13034
904.038	13034
904.156	12852
904.274	12829
904.392	12833
904.51	12772
904.627	12932
904.745	12901
904.863	12871
904.981	12669
905.098	12673
905.216	12502
905.334	12486
905.451	12612
905.569	12483
905.686	12551
905.803	12566
905.921	12346
906.038	12490
906.155	12410
906.272	12334
906.389	12273
906.506	12178
906.623	12136
906.74	12129
906.857	12083
906.974	11988
907.091	12235
907.208	12292
907.324	12136
907.441	12110
907.557	11866
907.674	11920
907.79	11786
907.907	11897
908.023	11874
908.139	11878
908.256	11897
908.372	11840
908.488	11794
908.604	11688
908.72	11577
908.836	11592
908.952	11585
909.068	11657
909.184	11752
909.3	11615
909.415	11665
909.531	11680
909.647	11402
909.762	11345
909.878	11444
909.993	11448
910.108	11383
910.224	11376
910.339	11368
910.454	11353
910.57	11284
910.685	11250
910.8	11440
910.915	11444
911.03	11273
911.145	11094
911.259	11181
911.374	11113
911.489	11041
911.604	11025
911.718	10911
911.833	10908
911.947	10778
912.062	10744
912.176	10900
912.291	10949
912.405	10839
912.519	11014
912.633	11098
912.748	10953
912.862	10850
912.976	10774
913.09	10527
913.204	10691
913.318	10736
913.431	10889
913.545	10892
913.659	10885
913.772	10816
913.886	10694
914	10630
914.113	10733
914.226	10725
914.34	10641
914.453	10565
914.566	10694
914.68	10599
914.793	10558
914.906	10440
915.019	10398
915.132	10265
915.245	10367
915.358	10363
915.47	10428
915.583	10500
915.696	10443
915.809	10504
915.921	10565
916.034	10417
916.146	10299
916.259	10280
916.371	10466
916.483	10394
916.595	10341
916.708	10314
916.82	10318
916.932	10325
917.044	10333
917.156	10268
917.268	10207
917.38	10284
917.491	10257
917.603	10295
917.715	10314
917.826	10325
917.938	10234
918.049	10109
918.161	10295
918.272	10405
918.384	10333
918.495	10318
918.606	10150
918.717	10124
918.828	10166
918.939	10166
919.05	10025
919.161	10147
919.272	9975
919.383	9953
919.494	10192
919.604	10371
919.715	10188
919.826	10101
919.936	10086
920.047	10310
920.157	10173
920.267	10382
920.378	10188
920.488	10177
920.598	10394
920.708	10573
920.818	10337
920.928	10386
921.038	10489
921.148	10588
921.258	10230
921.368	10124
921.477	10147
921.587	10101
921.697	9968
921.806	10067
921.916	9907
922.025	9728
922.134	9759
922.244	9751
922.353	9724
922.462	9614
922.571	9599
922.68	9412
922.789	9462
922.898	9492
923.007	9389
923.116	9507
923.224	9519
923.333	9408
923.442	9313
923.55	9325
923.659	9329
923.767	9389
923.876	9325
923.984	9386
924.092	9233
924.201	9340
924.309	9207
924.417	9351
924.525	9260
924.633	9241
924.741	10158
924.849	9043
924.956	9256
925.064	9097
925.172	9032
925.279	9070
925.387	9138
925.494	9161
925.602	9249
925.709	9146
925.816	9036
925.924	9097
926.031	9157
926.138	9070
926.245	9150
926.352	9013
926.459	9104
926.566	9173
926.673	9032
926.779	8956
926.886	8944
926.993	8899
927.099	8895
927.206	8746
927.312	8773
927.419	8830
927.525	8834
927.631	8857
927.737	8754
927.843	8727
927.95	8575
928.056	8743
928.162	8724
928.267	8842
928.373	9256
928.479	8861
928.585	8537
928.69	8712
928.796	8754
928.901	8651
929.007	8476
929.112	8651
929.218	8575
929.323	8568
929.428	8552
929.533	8636
929.638	8480
929.743	8564
929.848	8571
929.953	8579
930.058	8415
930.163	8244
930.267	8332
930.372	8495
930.477	8347
930.581	8522
930.685	8358
930.79	8199
930.894	8248
930.998	8298
931.103	8366
931.207	8069
931.311	7932
931.415	7917
931.519	7734
931.623	7742
