Data from test_V78500241_887.txt Node
Date: Fri Mar 25 14:39:53 CST 2022
User: usil
Spectrometer: V785-0024
Trigger mode: 0
Integration Time (sec): 4.000000E-1
Scans to average: 1
Nonlinearity correction enabled: false
Boxcar width: 0
Storing dark spectrum: false
XAxis mode: Wavelengths
Number of Pixels in Spectrum: 1024
>>>>>Begin Spectral Data<<<<<
801.071	25266
801.214	25278
801.356	25008
801.499	24970
801.641	24738
801.783	24681
801.926	24806
802.068	24574
802.211	24509
802.353	24429
802.496	24186
802.638	24228
802.78	24133
802.923	24072
803.065	24057
803.208	24034
803.35	24022
803.492	24064
803.635	24159
803.777	24060
803.919	24087
804.061	24388
804.204	24235
804.346	24129
804.488	23977
804.63	24117
804.773	24057
804.915	23961
805.057	24163
805.199	24167
805.341	24262
805.483	24376
805.626	24319
805.768	24155
805.91	24174
806.052	24388
806.194	24243
806.336	24658
806.478	24498
806.62	24471
806.762	24631
806.904	24764
807.046	25255
807.188	25228
807.33	25415
807.472	25525
807.614	25582
807.756	26008
807.898	26225
808.04	26590
808.182	27062
808.324	27701
808.465	28622
808.607	29805
808.749	30620
808.891	31198
809.033	31118
809.174	30418
809.316	29794
809.458	28694
809.6	27819
809.741	27150
809.883	26427
810.025	26172
810.166	25940
810.308	25704
810.45	25647
810.591	25270
810.733	24966
810.875	24821
811.016	24673
811.158	24684
811.299	24844
811.441	24703
811.582	24776
811.724	24570
811.865	24498
812.007	24467
812.148	24410
812.29	24479
812.431	24570
812.573	24703
812.714	24795
812.855	24867
812.997	25038
813.138	25114
813.279	25034
813.421	24783
813.562	24806
813.703	24585
813.845	24658
813.986	24117
814.127	24041
814.268	23847
814.41	23809
814.551	23961
814.692	23950
814.833	23695
814.974	23802
815.115	23855
815.256	23668
815.397	23745
815.539	23665
815.68	23581
815.821	23501
815.962	23455
816.103	23452
816.244	23425
816.385	23246
816.526	23105
816.666	23170
816.807	22896
816.948	23105
817.089	23025
817.23	23014
817.371	22961
817.512	22858
817.653	22828
817.793	22927
817.934	22778
818.075	22782
818.216	22900
818.356	22710
818.497	22679
818.638	22459
818.778	22573
818.919	22421
819.06	22683
819.2	22679
819.341	22565
819.481	22797
819.622	22889
819.762	23102
819.903	23037
820.043	22847
820.184	22881
820.324	22668
820.465	22801
820.605	22942
820.746	22816
820.886	22546
821.026	22774
821.167	22717
821.307	22759
821.447	22816
821.588	22538
821.728	22474
821.868	22265
822.008	22082
822.149	22048
822.289	22131
822.429	21937
822.569	21850
822.709	21797
822.849	21682
822.99	21644
823.13	21603
823.27	21481
823.41	21447
823.55	21332
823.69	21447
823.83	21351
823.97	21310
824.11	21241
824.25	21184
824.389	21169
824.529	21351
824.669	21218
824.809	21279
824.949	21218
825.089	21291
825.228	21192
825.368	20971
825.508	21066
825.648	21051
825.787	21032
825.927	21039
826.067	20880
826.206	20872
826.346	20876
826.485	20944
826.625	20952
826.765	21062
826.904	20952
827.044	20712
827.183	20788
827.323	20480
827.462	20678
827.601	20537
827.741	20480
827.88	20571
828.02	20503
828.159	20454
828.298	20648
828.437	20636
828.577	20606
828.716	20735
828.855	20571
828.994	20275
829.134	20370
829.273	20427
829.412	20267
829.551	20202
829.69	20294
829.829	20294
829.968	20336
830.107	20282
830.246	20282
830.385	20256
830.524	20103
830.663	20050
830.802	20031
830.941	19814
831.08	19830
831.219	19894
831.357	19951
831.496	20001
831.635	19963
831.774	19837
831.913	19731
832.051	19761
832.19	19693
832.329	19769
832.467	19700
832.606	19540
832.744	19525
832.883	19647
833.022	19658
833.16	19753
833.299	19791
833.437	19814
833.576	19970
833.714	19849
833.852	19818
833.991	19890
834.129	20005
834.267	19997
834.406	19944
834.544	20005
834.682	19765
834.821	19761
834.959	19887
835.097	19620
835.235	19788
835.373	19715
835.511	19681
835.65	19540
835.788	19529
835.926	19369
836.064	19339
836.202	19301
836.34	19506
836.478	19533
836.615	19426
836.753	19563
836.891	19521
837.029	19480
837.167	19381
837.305	19419
837.443	19206
837.58	19175
837.718	19373
837.856	19263
837.993	19266
838.131	19251
838.269	19126
838.406	19160
838.544	19076
838.681	19023
838.819	18810
838.956	18711
839.094	18696
839.231	18776
839.369	18859
839.506	19065
839.643	19034
839.781	18776
839.918	18646
840.055	18814
840.193	18688
840.33	18688
840.467	18760
840.604	18783
840.742	18943
840.879	18452
841.016	18608
841.153	18601
841.29	18863
841.427	18726
841.564	18715
841.701	18791
841.838	18604
841.975	18555
842.112	18589
842.249	18540
842.385	18391
842.522	18707
842.659	18445
842.796	18506
842.933	18418
843.069	18346
843.206	18433
843.343	18574
843.479	18490
843.616	18498
843.752	18266
843.889	18323
844.025	18308
844.162	18342
844.298	18315
844.435	18479
844.571	18395
844.708	18513
844.844	18886
844.98	18741
845.117	18939
845.253	19008
845.389	19540
845.525	20492
845.661	21956
845.798	23745
845.934	25354
846.07	25894
846.206	25780
846.342	24646
846.478	22713
846.614	20948
846.75	19597
846.886	18977
847.022	18597
847.158	18296
847.294	18121
847.429	18136
847.565	18019
847.701	18140
847.837	17528
847.972	17535
848.108	17680
848.244	17703
848.379	17387
848.515	17258
848.65	17341
848.786	17429
848.921	17250
849.057	17395
849.192	17383
849.328	17444
849.463	17391
849.598	17269
849.734	17178
849.869	17193
850.004	16999
850.14	17121
850.275	17147
850.41	17041
850.545	17033
850.68	16953
850.815	17052
850.95	17037
851.085	17197
851.22	17143
851.355	17052
851.49	16942
851.625	17094
851.76	17006
851.895	16923
852.03	16987
852.165	17033
852.299	17102
852.434	17105
852.569	17086
852.703	17075
852.838	17136
852.973	17147
853.107	17178
853.242	16965
853.376	16984
853.511	16752
853.645	16946
853.78	17018
853.914	17029
854.048	16953
854.183	16911
854.317	16991
854.451	17109
854.585	16908
854.72	16934
854.854	17018
854.988	16908
855.122	16911
855.256	16820
855.39	16755
855.524	16984
855.658	16995
855.792	16869
855.926	17056
856.06	16911
856.194	17010
856.327	16862
856.461	16820
856.595	16835
856.729	16885
856.862	16927
856.996	16915
857.13	16930
857.263	16930
857.397	17014
857.53	16835
857.664	16934
857.797	16927
857.931	16991
858.064	16946
858.197	16908
858.331	16881
858.464	16717
858.597	16748
858.731	16877
858.864	16847
858.997	16812
859.13	16847
859.263	16767
859.396	16869
859.529	16824
859.662	16759
859.795	16702
859.928	16869
860.061	16938
860.194	17014
860.327	16759
860.46	16835
860.592	16896
860.725	16961
860.858	16957
860.99	16763
861.123	16786
861.256	16698
861.388	16892
861.521	17520
861.653	16649
861.786	16687
861.918	16588
862.05	16550
862.183	16733
862.315	16862
862.447	16790
862.58	16809
862.712	16637
862.844	16474
862.976	16512
863.108	16599
863.24	16995
863.372	16592
863.504	16447
863.636	16542
863.768	16577
863.9	16573
864.032	16390
864.164	16413
864.296	16558
864.428	16611
864.559	16561
864.691	16580
864.823	16561
864.954	16538
865.086	16519
865.217	16573
865.349	16363
865.48	16470
865.612	16455
865.743	16653
865.875	16512
866.006	16451
866.137	16546
866.269	16485
866.4	16481
866.531	16367
866.662	16329
866.793	16409
866.924	16466
867.055	16436
867.186	16428
867.317	16363
867.448	16363
867.579	16341
867.71	16299
867.841	16432
867.972	16440
868.103	16379
868.233	16535
868.364	16500
868.495	16504
868.625	16672
868.756	16774
868.886	16550
869.017	16679
869.147	16824
869.278	16850
869.408	16603
869.539	16672
869.669	16790
869.799	16778
869.929	16831
870.06	16778
870.19	17037
870.32	16987
870.45	17025
870.58	17124
870.71	17181
870.84	17185
870.97	17067
871.1	17124
871.23	17231
871.36	17273
871.489	17242
871.619	17261
871.749	17372
871.879	17368
872.008	17486
872.138	17280
872.267	17265
872.397	17227
872.526	17208
872.656	17162
872.785	17140
872.915	17330
873.044	17478
873.173	17315
873.303	17436
873.432	17421
873.561	17551
873.69	17425
873.819	17372
873.948	17520
874.077	17459
874.206	17372
874.335	17509
874.464	17528
874.593	17760
874.722	17733
874.851	17817
874.979	17657
875.108	17897
875.237	17775
875.365	17756
875.494	17745
875.623	17946
875.751	17805
875.88	17836
876.008	18064
876.136	18057
876.265	18144
876.393	18479
876.521	18281
876.65	18346
876.778	18494
876.906	18327
877.034	18262
877.162	18323
877.29	18346
877.418	18414
877.546	18437
877.674	18441
877.802	18563
877.93	18563
878.058	18582
878.185	18627
878.313	18650
878.441	18878
878.568	18867
878.696	19034
878.824	19346
878.951	19704
879.079	20088
879.206	20758
879.333	21279
879.461	21705
879.588	22090
879.715	22086
879.842	22055
879.97	21313
880.097	20476
880.224	19955
880.351	19681
880.478	19381
880.605	19270
880.732	19141
880.859	19403
880.986	19046
881.112	19076
881.239	18935
881.366	18890
881.493	18734
881.619	18757
881.746	18646
881.872	18627
881.999	18620
882.125	18635
882.252	18791
882.378	18578
882.505	18928
882.631	18627
882.757	18502
882.883	18627
883.01	18585
883.136	18456
883.262	18441
883.388	18342
883.514	18509
883.64	18509
883.766	18281
883.892	18277
884.018	18281
884.143	18467
884.269	18589
884.395	18281
884.52	18098
884.646	18136
884.772	18163
884.897	18068
885.023	18174
885.148	18273
885.274	18273
885.399	18239
885.524	18163
885.65	18213
885.775	18110
885.9	18049
886.025	17992
886.15	18068
886.275	17882
886.4	17786
886.525	17775
886.65	17771
886.775	17790
886.9	17840
887.025	18011
887.149	17756
887.274	17478
887.399	17379
887.523	17467
887.648	17395
887.773	17296
887.897	17372
888.021	17349
888.146	17303
888.27	17395
888.395	17353
888.519	17318
888.643	17307
888.767	17269
888.891	17208
889.015	17052
889.139	17109
889.263	16911
889.387	17162
889.511	17280
889.635	17204
889.759	16934
889.883	16911
890.006	17022
890.13	16984
890.254	16938
890.377	16881
890.501	16706
890.624	16656
890.748	16923
890.871	16721
890.995	16626
891.118	16569
891.241	16622
891.364	16634
891.488	16626
891.611	16519
891.734	16565
891.857	16596
891.98	16546
892.103	16656
892.226	16535
892.349	16455
892.471	16455
892.594	16573
892.717	16459
892.839	16371
892.962	16462
893.085	16451
893.207	16360
893.33	16314
893.452	16352
893.575	16519
893.697	16402
893.819	16580
893.941	16656
894.064	16542
894.186	16291
894.308	16394
894.43	16512
894.552	16504
894.674	16398
894.796	16356
894.918	16451
895.04	16257
895.161	16531
895.283	16436
895.405	16356
895.526	16352
895.648	16310
895.769	16455
895.891	16542
896.012	16455
896.134	16459
896.255	16478
896.376	16363
896.498	16565
896.619	16497
896.74	16424
896.861	16569
896.982	16820
897.103	16957
897.224	16698
897.345	16675
897.466	16588
897.587	16744
897.708	16812
897.828	16801
897.949	16641
898.07	16580
898.19	16611
898.311	16801
898.431	16668
898.552	16744
898.672	16850
898.792	16843
898.913	16702
899.033	16664
899.153	16592
899.273	16474
899.393	16573
899.513	16645
899.633	16664
899.753	16588
899.873	16672
899.993	16622
900.113	16538
900.232	16634
900.352	16485
900.472	16470
900.591	16367
900.711	16489
900.83	16421
900.95	16637
901.069	16497
901.189	16402
901.308	16185
901.427	16055
901.546	16063
901.665	16097
901.784	16116
901.904	15915
902.023	15869
902.141	15713
902.26	15633
902.379	15591
902.498	15580
902.617	15511
902.735	15618
902.854	15564
902.973	15462
903.091	15310
903.21	15161
903.328	15230
903.446	15112
903.565	15077
903.683	15138
903.801	15020
903.919	15043
904.038	15055
904.156	14838
904.274	14994
904.392	14743
904.51	14899
904.627	14830
904.745	14849
904.863	14876
904.981	14549
905.098	14454
905.216	14476
905.334	14480
905.451	14366
905.569	14377
905.686	14465
905.803	14419
905.921	14362
906.038	14400
906.155	14400
906.272	14187
906.389	14107
906.506	14077
906.623	14043
906.74	14024
906.857	13875
906.974	14031
907.091	14157
907.208	14187
907.324	14073
907.441	14001
907.557	13731
907.674	13765
907.79	13731
907.907	13700
908.023	13807
908.139	13696
908.256	13723
908.372	13674
908.488	13643
908.604	13480
908.72	13483
908.836	13453
908.952	13445
909.068	13502
909.184	13624
909.3	13377
909.415	13472
909.531	13415
909.647	13240
909.762	13266
909.878	13114
909.993	13206
910.108	13187
910.224	13107
910.339	13088
910.454	13114
910.57	12981
910.685	13046
910.8	13282
910.915	13202
911.03	13004
911.145	12810
911.259	12753
911.374	12909
911.489	12795
911.604	12798
911.718	12604
911.833	12650
911.947	12475
912.062	12445
912.176	12612
912.291	12574
912.405	12479
912.519	12802
912.633	12703
912.748	12654
912.862	12589
912.976	12467
913.09	12296
913.204	12384
913.318	12467
913.431	12551
913.545	12540
913.659	12521
913.772	12426
913.886	12323
914	12311
914.113	12300
914.226	12414
914.34	12330
914.453	12129
914.566	12357
914.68	12258
914.793	12262
914.906	12034
915.019	12041
915.132	11882
915.245	12015
915.358	11980
915.47	12064
915.583	12136
915.696	12057
915.809	12140
915.921	12190
916.034	11927
916.146	11908
916.259	11920
916.371	11961
916.483	12015
916.595	11954
916.708	11939
916.82	11946
916.932	11874
917.044	11920
917.156	11771
917.268	11832
917.38	11771
917.491	11771
917.603	11783
917.715	11843
917.826	11897
917.938	11726
918.049	11501
918.161	11805
918.272	11882
918.384	11908
918.495	11737
918.606	11653
918.717	11509
918.828	11703
918.939	11581
919.05	11501
919.161	11581
919.272	11417
919.383	11516
919.494	11634
919.604	11790
919.715	11649
919.826	11467
919.936	11589
920.047	11630
920.157	11562
920.267	11863
920.378	11600
920.488	11532
920.598	11741
920.708	11851
920.818	11707
920.928	11722
921.038	11916
921.148	11893
921.258	11623
921.368	11528
921.477	11349
921.587	11356
921.697	11223
921.806	11376
921.916	11273
922.025	11155
922.134	11060
922.244	11071
922.353	11147
922.462	10930
922.571	10900
922.68	10809
922.789	10771
922.898	10725
923.007	10752
923.116	10717
923.224	10786
923.333	10702
923.442	10630
923.55	10550
923.659	10634
923.767	10668
923.876	10645
923.984	10637
924.092	10451
924.201	10611
924.309	10634
924.417	10584
924.525	10485
924.633	10577
924.741	11231
924.849	10310
924.956	10481
925.064	10375
925.172	10200
925.279	10314
925.387	10329
925.494	10295
925.602	10481
925.709	10417
925.816	10249
925.924	10363
926.031	10341
926.138	10329
926.245	10325
926.352	10234
926.459	10409
926.566	10405
926.673	10223
926.779	10188
926.886	10219
926.993	9975
927.099	10010
927.206	9972
927.312	9960
927.419	10036
927.525	9979
927.631	10002
927.737	9880
927.843	9873
927.95	9774
928.056	9835
928.162	9876
928.267	9972
928.373	10527
928.479	9956
928.585	9759
928.69	9778
928.796	9926
928.901	9797
929.007	9690
929.112	9789
929.218	9762
929.323	9705
929.428	9713
929.533	9797
929.638	9610
929.743	9622
929.848	9774
929.953	9603
930.058	9542
930.163	9382
930.267	9431
930.372	9564
930.477	9374
930.581	9595
930.685	9557
930.79	9306
930.894	9397
930.998	9378
931.103	9428
931.207	9051
931.311	9097
931.415	8944
931.519	8762
931.623	8842
