Data from test_V78500241_1837.txt Node
Date: Fri Mar 25 14:46:30 CST 2022
User: usil
Spectrometer: V785-0024
Trigger mode: 0
Integration Time (sec): 4.000000E-1
Scans to average: 1
Nonlinearity correction enabled: false
Boxcar width: 0
Storing dark spectrum: false
XAxis mode: Wavelengths
Number of Pixels in Spectrum: 1024
>>>>>Begin Spectral Data<<<<<
801.071	22234
801.214	22055
801.356	21819
801.499	21709
801.641	21481
801.783	21496
801.926	21523
802.068	21504
802.211	21405
802.353	21321
802.496	21036
802.638	21039
802.78	20975
802.923	20853
803.065	20845
803.208	20705
803.35	20762
803.492	20914
803.635	20956
803.777	20891
803.919	20861
804.061	21150
804.204	20910
804.346	20762
804.488	20663
804.63	20883
804.773	20762
804.915	20864
805.057	20910
805.199	20785
805.341	20750
805.483	20956
805.626	20750
805.768	20765
805.91	20834
806.052	20781
806.194	20746
806.336	20876
806.478	20773
806.62	20682
806.762	20792
806.904	20952
807.046	21226
807.188	21089
807.33	21154
807.472	21142
807.614	21074
807.756	21051
807.898	20899
808.04	20937
808.182	20724
808.324	20811
808.465	20921
808.607	21089
808.749	21150
808.891	21291
809.033	21321
809.174	21332
809.316	21154
809.458	21173
809.6	21024
809.741	21154
809.883	21195
810.025	21298
810.166	21363
810.308	21298
810.45	21325
810.591	21252
810.733	20910
810.875	21081
811.016	20804
811.158	20739
811.299	21070
811.441	20986
811.582	21039
811.724	20941
811.865	20880
812.007	20944
812.148	20910
812.29	21017
812.431	21093
812.573	21184
812.714	21332
812.855	21359
812.997	21504
813.138	21591
813.279	21557
813.421	21386
813.562	21412
813.703	21157
813.845	21043
813.986	20834
814.127	20689
814.268	20579
814.41	20499
814.551	20454
814.692	20526
814.833	20514
814.974	20419
815.115	20461
815.256	20233
815.397	20381
815.539	20244
815.68	20240
815.821	20130
815.962	20263
816.103	20084
816.244	20054
816.385	19940
816.526	19951
816.666	19734
816.807	19601
816.948	19590
817.089	19757
817.23	19696
817.371	19662
817.512	19628
817.653	19609
817.793	19616
817.934	19689
818.075	19540
818.216	19601
818.356	19571
818.497	19426
818.638	19209
818.778	19274
818.919	19236
819.06	19301
819.2	19415
819.341	19499
819.481	19449
819.622	19590
819.762	19719
819.903	19833
820.043	19624
820.184	19548
820.324	19616
820.465	19582
820.605	19521
820.746	19609
820.886	19381
821.026	19567
821.167	19616
821.307	19601
821.447	19419
821.588	19422
821.728	19137
821.868	19103
822.008	18905
822.149	19023
822.289	19019
822.429	18738
822.569	18696
822.709	18730
822.849	18532
822.99	18528
823.13	18418
823.27	18350
823.41	18311
823.55	18273
823.69	18315
823.83	18285
823.97	18281
824.11	18102
824.25	18076
824.389	18079
824.529	18167
824.669	18038
824.809	18251
824.949	18190
825.089	18136
825.228	18064
825.368	17790
825.508	17897
825.648	17821
825.787	17916
825.927	17954
826.067	17794
826.206	17707
826.346	17847
826.485	17828
826.625	17813
826.765	17977
826.904	17824
827.044	17501
827.183	17585
827.323	17452
827.462	17714
827.601	17501
827.741	17497
827.88	17604
828.02	17337
828.159	17509
828.298	17501
828.437	17558
828.577	17512
828.716	17661
828.855	17493
828.994	17284
829.134	17334
829.273	17383
829.412	17265
829.551	17254
829.69	17235
829.829	17299
829.968	17368
830.107	17353
830.246	17254
830.385	17269
830.524	17277
830.663	17216
830.802	17010
830.941	16877
831.08	16847
831.219	16942
831.357	16946
831.496	17105
831.635	16915
831.774	16839
831.913	16805
832.051	16778
832.19	16683
832.329	16767
832.467	16672
832.606	16538
832.744	16599
832.883	16664
833.022	16641
833.16	16660
833.299	16717
833.437	16569
833.576	16592
833.714	16577
833.852	16569
833.991	16611
834.129	16679
834.267	16793
834.406	16675
834.544	16687
834.682	16577
834.821	16615
834.959	16683
835.097	16637
835.235	16748
835.373	16755
835.511	16698
835.65	16546
835.788	16603
835.926	16424
836.064	16375
836.202	16485
836.34	16622
836.478	16645
836.615	16569
836.753	16584
836.891	16599
837.029	16721
837.167	16611
837.305	16550
837.443	16497
837.58	16306
837.718	16561
837.856	16428
837.993	16348
838.131	16424
838.269	16402
838.406	16375
838.544	16352
838.681	16139
838.819	16086
838.956	16017
839.094	15926
839.231	15998
839.369	16124
839.506	16363
839.643	16341
839.781	16078
839.918	15918
840.055	15930
840.193	15991
840.33	15998
840.467	15972
840.604	15926
840.742	16230
840.879	15835
841.016	15937
841.153	15850
841.29	16090
841.427	16025
841.564	15968
841.701	15964
841.838	15941
841.975	16006
842.112	15926
842.249	15804
842.385	15717
842.522	15998
842.659	15819
842.796	15713
842.933	15751
843.069	15686
843.206	15656
843.343	15804
843.479	15766
843.616	15732
843.752	15595
843.889	15511
844.025	15736
844.162	15561
844.298	15774
844.435	15545
844.571	15625
844.708	15682
844.844	15774
844.98	15701
845.117	15732
845.253	15526
845.389	15549
845.525	15538
845.661	15450
845.798	15344
845.934	15294
846.07	15313
846.206	15397
846.342	15412
846.478	15306
846.614	15161
846.75	15039
846.886	14982
847.022	15203
847.158	15176
847.294	15043
847.429	15180
847.565	15081
847.701	15161
847.837	14929
847.972	14864
848.108	15005
848.244	14792
848.379	14777
848.515	14762
848.65	14781
848.786	14731
848.921	14724
849.057	14902
849.192	14746
849.328	14758
849.463	14667
849.598	14689
849.734	14587
849.869	14507
850.004	14545
850.14	14457
850.275	14446
850.41	14461
850.545	14438
850.68	14381
850.815	14556
850.95	14541
851.085	14731
851.22	14568
851.355	14530
851.49	14465
851.625	14465
851.76	14541
851.895	14324
852.03	14358
852.165	14396
852.299	14492
852.434	14617
852.569	14473
852.703	14518
852.838	14556
852.973	14613
853.107	14621
853.242	14423
853.376	14320
853.511	14278
853.645	14298
853.78	14522
853.914	14419
854.048	14317
854.183	14271
854.317	14393
854.451	14560
854.585	14385
854.72	14317
854.854	14415
854.988	14259
855.122	14393
855.256	14309
855.39	14301
855.524	14419
855.658	14408
855.792	14499
855.926	14278
856.06	14377
856.194	14533
856.327	14362
856.461	14351
856.595	14248
856.729	14305
856.862	14511
856.996	14404
857.13	14442
857.263	14393
857.397	14571
857.53	14404
857.664	14362
857.797	14339
857.931	14537
858.064	14389
858.197	14465
858.331	14317
858.464	14225
858.597	14328
858.731	14374
858.864	14374
858.997	14275
859.13	14415
859.263	14400
859.396	14423
859.529	14332
859.662	14271
859.795	14252
859.928	14415
860.061	14518
860.194	14571
860.327	14286
860.46	14309
860.592	14499
860.725	14518
860.858	14408
860.99	14377
861.123	14320
861.256	14286
861.388	14431
861.521	15077
861.653	14256
861.786	14180
861.918	14202
862.05	14229
862.183	14324
862.315	14332
862.447	14370
862.58	14206
862.712	14107
862.844	14016
862.976	14214
863.108	14225
863.24	14434
863.372	14088
863.504	14153
863.636	14149
863.768	14145
863.9	14168
864.032	14202
864.164	14145
864.296	14157
864.428	14195
864.559	14237
864.691	14233
864.823	14218
864.954	14153
865.086	14115
865.217	14084
865.349	14123
865.48	14180
865.612	14130
865.743	14256
865.875	14107
866.006	14115
866.137	14092
866.269	14081
866.4	14054
866.531	13989
866.662	14123
866.793	14088
866.924	14005
867.055	14153
867.186	14153
867.317	14069
867.448	14024
867.579	14081
867.71	14073
867.841	14005
867.972	14039
868.103	14183
868.233	14107
868.364	14145
868.495	14126
868.625	14309
868.756	14442
868.886	14362
869.017	14351
869.147	14560
869.278	14495
869.408	14381
869.539	14434
869.669	14374
869.799	14423
869.929	14541
870.06	14423
870.19	14644
870.32	14651
870.45	14701
870.58	14823
870.71	14948
870.84	14826
870.97	14823
871.1	14701
871.23	14933
871.36	15055
871.489	14815
871.619	14956
871.749	15058
871.879	15005
872.008	15062
872.138	14937
872.267	14982
872.397	14906
872.526	14823
872.656	14708
872.785	14910
872.915	15062
873.044	15119
873.173	14975
873.303	15028
873.432	15074
873.561	15146
873.69	15039
873.819	15005
873.948	15104
874.077	15195
874.206	14986
874.335	15020
874.464	15138
874.593	15298
874.722	15199
874.851	15454
874.979	15306
875.108	15260
875.237	15287
875.365	15302
875.494	15329
875.623	15424
875.751	15245
875.88	15439
876.008	15420
876.136	15644
876.265	15751
876.393	15846
876.521	15793
876.65	15812
876.778	15857
876.906	15701
877.034	15660
877.162	15770
877.29	15694
877.418	15770
877.546	15747
877.674	15759
877.802	15717
877.93	15759
878.058	15705
878.185	15694
878.313	15800
878.441	15800
878.568	15587
878.696	15686
878.824	15701
878.951	15690
879.079	15854
879.206	15991
879.333	15934
879.461	15766
879.588	15918
879.715	15873
879.842	16032
879.97	15854
880.097	15675
880.224	15545
880.351	15568
880.478	15663
880.605	15538
880.732	15500
880.859	15728
880.986	15542
881.112	15591
881.239	15523
881.366	15359
881.493	15302
881.619	15370
881.746	15199
881.872	15245
881.999	15291
882.125	15294
882.252	15298
882.378	15272
882.505	15428
882.631	15127
882.757	15001
882.883	15138
883.01	15180
883.136	15039
883.262	15013
883.388	15001
883.514	15020
883.64	15089
883.766	15039
883.892	14796
884.018	14986
884.143	15009
884.269	15199
884.395	14895
884.52	14811
884.646	14800
884.772	14689
884.897	14693
885.023	14788
885.148	14834
885.274	14887
885.399	14891
885.524	14864
885.65	14777
885.775	14769
885.9	14769
886.025	14864
886.15	14819
886.275	14659
886.4	14674
886.525	14727
886.65	14792
886.775	14720
886.9	14853
887.025	14925
887.149	14731
887.274	14674
887.399	14655
887.523	14552
887.648	14549
887.773	14568
887.897	14746
888.021	14674
888.146	14602
888.27	14708
888.395	14758
888.519	14651
888.643	14659
888.767	14762
888.891	14587
889.015	14427
889.139	14530
889.263	14389
889.387	14594
889.511	14716
889.635	14503
889.759	14431
889.883	14412
890.006	14556
890.13	14552
890.254	14351
890.377	14438
890.501	14271
890.624	14286
890.748	14343
890.871	14320
890.995	14126
891.118	14058
891.241	14138
891.364	14199
891.488	14305
891.611	14225
891.734	14138
891.857	14183
891.98	14214
892.103	14332
892.226	14275
892.349	14145
892.471	14020
892.594	14088
892.717	14237
892.839	14172
892.962	14229
893.085	14240
893.207	14206
893.33	13986
893.452	14111
893.575	14172
893.697	14183
893.819	14320
893.941	14214
894.064	14347
894.186	14103
894.308	14153
894.43	14229
894.552	14431
894.674	14244
894.796	14073
894.918	14183
895.04	14172
895.161	14294
895.283	14278
895.405	14210
895.526	14282
895.648	14259
895.769	14290
895.891	14358
896.012	14404
896.134	14381
896.255	14362
896.376	14290
896.498	14278
896.619	14408
896.74	14313
896.861	14393
896.982	14670
897.103	14883
897.224	14655
897.345	14549
897.466	14526
897.587	14564
897.708	14712
897.828	14686
897.949	14564
898.07	14533
898.19	14598
898.311	14739
898.431	14655
898.552	14689
898.672	14735
898.792	14788
898.913	14693
899.033	14693
899.153	14594
899.273	14442
899.393	14541
899.513	14541
899.633	14518
899.753	14484
899.873	14476
899.993	14655
900.113	14552
900.232	14579
900.352	14495
900.472	14469
900.591	14465
900.711	14431
900.83	14324
900.95	14495
901.069	14503
901.189	14366
901.308	14107
901.427	14058
901.546	14046
901.665	14172
901.784	14012
901.904	13928
902.023	13864
902.141	13689
902.26	13590
902.379	13700
902.498	13636
902.617	13533
902.735	13655
902.854	13616
902.973	13487
903.091	13282
903.21	13354
903.328	13369
903.446	13327
903.565	13244
903.683	13217
903.801	13103
903.919	13190
904.038	13175
904.156	13023
904.274	13057
904.392	12993
904.51	13000
904.627	12977
904.745	13084
904.863	13152
904.981	12802
905.098	12745
905.216	12692
905.334	12817
905.451	12741
905.569	12681
905.686	12779
905.803	12715
905.921	12566
906.038	12730
906.155	12566
906.272	12475
906.389	12467
906.506	12323
906.623	12361
906.74	12323
906.857	12190
906.974	12216
907.091	12403
907.208	12467
907.324	12311
907.441	12323
907.557	12140
907.674	12030
907.79	11988
907.907	11920
908.023	12133
908.139	11999
908.256	11973
908.372	12034
908.488	11813
908.604	11832
908.72	11802
908.836	11874
908.952	11794
909.068	11843
909.184	11882
909.3	11885
909.415	11821
909.531	11901
909.647	11649
909.762	11551
909.878	11524
909.993	11604
910.108	11554
910.224	11482
910.339	11577
910.454	11490
910.57	11425
910.685	11387
910.8	11642
910.915	11543
911.03	11452
911.145	11265
911.259	11315
911.374	11292
911.489	11216
911.604	11098
911.718	11003
911.833	11018
911.947	10965
912.062	10824
912.176	11033
912.291	11075
912.405	11083
912.519	11258
912.633	11193
912.748	11181
912.862	11014
912.976	10885
913.09	10854
913.204	10843
913.318	10972
913.431	10968
913.545	11041
913.659	11136
913.772	11014
913.886	10843
914	10710
914.113	10862
914.226	10961
914.34	10919
914.453	10771
914.566	10831
914.68	10759
914.793	10736
914.906	10497
915.019	10466
915.132	10440
915.245	10512
915.358	10516
915.47	10580
915.583	10527
915.696	10649
915.809	10721
915.921	10675
916.034	10596
916.146	10485
916.259	10462
916.371	10622
916.483	10565
916.595	10478
916.708	10596
916.82	10523
916.932	10481
917.044	10455
917.156	10386
917.268	10325
917.38	10363
917.491	10367
917.603	10428
917.715	10382
917.826	10512
917.938	10341
918.049	10246
918.161	10287
918.272	10493
918.384	10466
918.495	10398
918.606	10265
918.717	10154
918.828	10234
918.939	10310
919.05	10158
919.161	10158
919.272	10036
919.383	10078
919.494	10276
919.604	10440
919.715	10360
919.826	10181
919.936	10173
920.047	10348
920.157	10249
920.267	10459
920.378	10295
920.488	10200
920.598	10489
920.708	10531
920.818	10405
920.928	10405
921.038	10626
921.148	10584
921.258	10249
921.368	10177
921.477	10074
921.587	10067
921.697	9968
921.806	10120
921.916	9968
922.025	9816
922.134	9812
922.244	9755
922.353	9861
922.462	9759
922.571	9587
922.68	9595
922.789	9492
922.898	9496
923.007	9428
923.116	9469
923.224	9462
923.333	9447
923.442	9412
923.55	9408
923.659	9389
923.767	9428
923.876	9412
923.984	9458
924.092	9348
924.201	9416
924.309	9370
924.417	9374
924.525	9302
924.633	9291
924.741	10257
924.849	9142
924.956	9310
925.064	9123
925.172	9066
925.279	9127
925.387	9161
925.494	9165
925.602	9256
925.709	9138
925.816	9108
925.924	9180
926.031	9249
926.138	9226
926.245	9203
926.352	9138
926.459	9211
926.566	9264
926.673	9108
926.779	9032
926.886	9032
926.993	8944
927.099	8838
927.206	8807
927.312	8853
927.419	8921
927.525	8937
927.631	8971
927.737	8842
927.843	8807
927.95	8663
928.056	8746
928.162	8769
928.267	8815
928.373	9355
928.479	8887
928.585	8560
928.69	8758
928.796	8785
928.901	8674
929.007	8552
929.112	8648
929.218	8625
929.323	8602
929.428	8640
929.533	8693
929.638	8533
929.743	8537
929.848	8598
929.953	8663
930.058	8507
930.163	8377
930.267	8374
930.372	8533
930.477	8377
930.581	8571
930.685	8385
930.79	8328
930.894	8374
930.998	8252
931.103	8492
931.207	8138
931.311	8020
931.415	7951
931.519	7803
931.623	7856
