Data from test_V78500241_2062.txt Node
Date: Fri Mar 25 14:48:04 CST 2022
User: usil
Spectrometer: V785-0024
Trigger mode: 0
Integration Time (sec): 4.000000E-1
Scans to average: 1
Nonlinearity correction enabled: false
Boxcar width: 0
Storing dark spectrum: false
XAxis mode: Wavelengths
Number of Pixels in Spectrum: 1024
>>>>>Begin Spectral Data<<<<<
801.071	22074
801.214	22036
801.356	21641
801.499	21561
801.641	21511
801.783	21370
801.926	21454
802.068	21420
802.211	21420
802.353	21207
802.496	21123
802.638	21013
802.78	20944
802.923	20811
803.065	20804
803.208	20686
803.35	20678
803.492	20880
803.635	20876
803.777	20788
803.919	20765
804.061	21157
804.204	20804
804.346	20636
804.488	20727
804.63	20716
804.773	20682
804.915	20807
805.057	20883
805.199	20758
805.341	20781
805.483	20811
805.626	20758
805.768	20731
805.91	20796
806.052	20769
806.194	20674
806.336	20781
806.478	20743
806.62	20663
806.762	20743
806.904	20800
807.046	21226
807.188	21032
807.33	21119
807.472	21142
807.614	20857
807.756	20948
807.898	20891
808.04	20727
808.182	20743
808.324	20777
808.465	20830
808.607	20948
808.749	21077
808.891	21188
809.033	21241
809.174	21195
809.316	21104
809.458	21116
809.6	21077
809.741	21176
809.883	21138
810.025	21336
810.166	21287
810.308	21180
810.45	21279
810.591	21013
810.733	20910
810.875	20876
811.016	20807
811.158	20739
811.299	20868
811.441	20971
811.582	20979
811.724	20769
811.865	20800
812.007	20819
812.148	20861
812.29	20880
812.431	21001
812.573	21135
812.714	21279
812.855	21374
812.997	21515
813.138	21557
813.279	21477
813.421	21355
813.562	21283
813.703	21165
813.845	21055
813.986	20750
814.127	20560
814.268	20366
814.41	20450
814.551	20286
814.692	20446
814.833	20347
814.974	20377
815.115	20362
815.256	20317
815.397	20275
815.539	20252
815.68	20077
815.821	20149
815.962	20119
816.103	20119
816.244	20020
816.385	19883
816.526	19921
816.666	19742
816.807	19529
816.948	19765
817.089	19712
817.23	19537
817.371	19525
817.512	19559
817.653	19544
817.793	19506
817.934	19502
818.075	19571
818.216	19476
818.356	19460
818.497	19396
818.638	19194
818.778	19145
818.919	19209
819.06	19228
819.2	19301
819.341	19407
819.481	19441
819.622	19476
819.762	19727
819.903	19575
820.043	19628
820.184	19651
820.324	19518
820.465	19525
820.605	19499
820.746	19537
820.886	19297
821.026	19518
821.167	19434
821.307	19662
821.447	19411
821.588	19274
821.728	19301
821.868	18977
822.008	18958
822.149	18833
822.289	18909
822.429	18650
822.569	18601
822.709	18563
822.849	18467
822.99	18460
823.13	18410
823.27	18426
823.41	18205
823.55	18243
823.69	18270
823.83	18273
823.97	18083
824.11	18038
824.25	17988
824.389	18034
824.529	18114
824.669	17969
824.809	18030
824.949	17996
825.089	18057
825.228	17988
825.368	17832
825.508	17828
825.648	17767
825.787	17794
825.927	17866
826.067	17691
826.206	17707
826.346	17760
826.485	17741
826.625	17813
826.765	17984
826.904	17760
827.044	17566
827.183	17512
827.323	17471
827.462	17684
827.601	17452
827.741	17509
827.88	17539
828.02	17387
828.159	17471
828.298	17509
828.437	17471
828.577	17505
828.716	17634
828.855	17383
828.994	17277
829.134	17254
829.273	17273
829.412	17181
829.551	17022
829.69	17200
829.829	17322
829.968	17239
830.107	17235
830.246	17261
830.385	17235
830.524	17170
830.663	16999
830.802	16923
830.941	16771
831.08	16881
831.219	16911
831.357	16942
831.496	17045
831.635	16908
831.774	16782
831.913	16721
832.051	16649
832.19	16679
832.329	16588
832.467	16710
832.606	16550
832.744	16542
832.883	16607
833.022	16558
833.16	16512
833.299	16603
833.437	16542
833.576	16611
833.714	16523
833.852	16599
833.991	16649
834.129	16679
834.267	16630
834.406	16462
834.544	16596
834.682	16573
834.821	16554
834.959	16744
835.097	16462
835.235	16778
835.373	16554
835.511	16622
835.65	16440
835.788	16421
835.926	16398
836.064	16238
836.202	16246
836.34	16455
836.478	16569
836.615	16500
836.753	16569
836.891	16542
837.029	16561
837.167	16470
837.305	16489
837.443	16310
837.58	16325
837.718	16386
837.856	16375
837.993	16318
838.131	16272
838.269	16219
838.406	16348
838.544	16196
838.681	16112
838.819	16097
838.956	15945
839.094	15941
839.231	15884
839.369	16032
839.506	16306
839.643	16246
839.781	15899
839.918	15884
840.055	15949
840.193	15903
840.33	15918
840.467	15892
840.604	15994
840.742	16265
840.879	15857
841.016	15800
841.153	15911
841.29	15972
841.427	15956
841.564	16032
841.701	15937
841.838	15998
841.975	15823
842.112	15831
842.249	15766
842.385	15793
842.522	15934
842.659	15781
842.796	15739
842.933	15732
843.069	15637
843.206	15606
843.343	15633
843.479	15778
843.616	15720
843.752	15458
843.889	15530
844.025	15614
844.162	15450
844.298	15660
844.435	15477
844.571	15420
844.708	15473
844.844	15682
844.98	15747
845.117	15644
845.253	15454
845.389	15378
845.525	15431
845.661	15477
845.798	15275
845.934	15370
846.07	15260
846.206	15272
846.342	15473
846.478	15272
846.614	15135
846.75	15062
846.886	15104
847.022	15108
847.158	15005
847.294	15039
847.429	15123
847.565	15047
847.701	15256
847.837	14792
847.972	14845
848.108	14914
848.244	14895
848.379	14667
848.515	14636
848.65	14571
848.786	14686
848.921	14739
849.057	14796
849.192	14724
849.328	14670
849.463	14804
849.598	14598
849.734	14594
849.869	14511
850.004	14415
850.14	14541
850.275	14438
850.41	14309
850.545	14343
850.68	14339
850.815	14381
850.95	14362
851.085	14606
851.22	14556
851.355	14450
851.49	14415
851.625	14396
851.76	14427
851.895	14282
852.03	14294
852.165	14343
852.299	14434
852.434	14549
852.569	14358
852.703	14457
852.838	14621
852.973	14522
853.107	14556
853.242	14484
853.376	14374
853.511	14092
853.645	14202
853.78	14385
853.914	14309
854.048	14256
854.183	14351
854.317	14343
854.451	14476
854.585	14404
854.72	14275
854.854	14362
854.988	14252
855.122	14282
855.256	14153
855.39	14298
855.524	14393
855.658	14377
855.792	14336
855.926	14358
856.06	14324
856.194	14442
856.327	14298
856.461	14240
856.595	14225
856.729	14396
856.862	14442
856.996	14301
857.13	14336
857.263	14404
857.397	14473
857.53	14336
857.664	14320
857.797	14412
857.931	14393
858.064	14377
858.197	14396
858.331	14320
858.464	14271
858.597	14187
858.731	14240
858.864	14362
858.997	14267
859.13	14362
859.263	14252
859.396	14381
859.529	14225
859.662	14206
859.795	14343
859.928	14381
860.061	14404
860.194	14454
860.327	14305
860.46	14351
860.592	14355
860.725	14408
860.858	14404
860.99	14343
861.123	14180
861.256	14294
861.388	14298
861.521	15036
861.653	14138
861.786	14145
861.918	14202
862.05	14191
862.183	14305
862.315	14309
862.447	14336
862.58	14294
862.712	14138
862.844	14046
862.976	14210
863.108	14027
863.24	14541
863.372	13951
863.504	14039
863.636	14027
863.768	14256
863.9	14149
864.032	13989
864.164	14100
864.296	14119
864.428	14309
864.559	14161
864.691	14187
864.823	14191
864.954	14180
865.086	14081
865.217	14084
865.349	14054
865.48	14027
865.612	14119
865.743	14275
865.875	14123
866.006	14115
866.137	14005
866.269	14142
866.4	14130
866.531	14073
866.662	13879
866.793	14050
866.924	13978
867.055	14081
867.186	14005
867.317	14035
867.448	14031
867.579	14035
867.71	13993
867.841	13887
867.972	14100
868.103	14043
868.233	14149
868.364	14012
868.495	14172
868.625	14206
868.756	14404
868.886	14180
869.017	14240
869.147	14396
869.278	14469
869.408	14339
869.539	14320
869.669	14514
869.799	14355
869.929	14465
870.06	14454
870.19	14568
870.32	14716
870.45	14598
870.58	14724
870.71	14762
870.84	14804
870.97	14762
871.1	14712
871.23	14826
871.36	14979
871.489	14834
871.619	14804
871.749	14937
871.879	14929
872.008	14982
872.138	14933
872.267	14925
872.397	14750
872.526	14682
872.656	14708
872.785	14800
872.915	14880
873.044	15066
873.173	14937
873.303	14933
873.432	15047
873.561	14986
873.69	15005
873.819	14963
873.948	15028
874.077	14929
874.206	14899
874.335	14906
874.464	15100
874.593	15214
874.722	15138
874.851	15336
874.979	15351
875.108	15393
875.237	15211
875.365	15043
875.494	15272
875.623	15325
875.751	15272
875.88	15252
876.008	15450
876.136	15473
876.265	15694
876.393	15835
876.521	15823
876.65	15762
876.778	15614
876.906	15606
877.034	15686
877.162	15618
877.29	15679
877.418	15686
877.546	15720
877.674	15812
877.802	15675
877.93	15785
878.058	15610
878.185	15504
878.313	15686
878.441	15705
878.568	15580
878.696	15663
878.824	15728
878.951	15739
879.079	15781
879.206	15968
879.333	15869
879.461	15793
879.588	15819
879.715	15945
879.842	15926
879.97	15770
880.097	15481
880.224	15462
880.351	15538
880.478	15515
880.605	15564
880.732	15428
880.859	15755
880.986	15633
881.112	15545
881.239	15530
881.366	15397
881.493	15207
881.619	15195
881.746	15180
881.872	15218
881.999	15264
882.125	15264
882.252	15165
882.378	15313
882.505	15348
882.631	15176
882.757	15009
882.883	15135
883.01	15074
883.136	14910
883.262	14826
883.388	14811
883.514	15093
883.64	15176
883.766	14914
883.892	14845
884.018	14804
884.143	15028
884.269	15028
884.395	14815
884.52	14697
884.646	14716
884.772	14720
884.897	14644
885.023	14724
885.148	14765
885.274	14891
885.399	14891
885.524	14777
885.65	14777
885.775	14762
885.9	14724
886.025	14899
886.15	14830
886.275	14689
886.4	14644
886.525	14659
886.65	14667
886.775	14724
886.9	14929
887.025	14971
887.149	14670
887.274	14575
887.399	14537
887.523	14594
887.648	14465
887.773	14492
887.897	14701
888.021	14625
888.146	14625
888.27	14575
888.395	14651
888.519	14610
888.643	14568
888.767	14587
888.891	14476
889.015	14389
889.139	14461
889.263	14400
889.387	14465
889.511	14648
889.635	14613
889.759	14423
889.883	14370
890.006	14507
890.13	14560
890.254	14412
890.377	14442
890.501	14191
890.624	14142
890.748	14271
890.871	14183
890.995	14123
891.118	14130
891.241	14073
891.364	14123
891.488	14256
891.611	14134
891.734	14164
891.857	14149
891.98	14107
892.103	14161
892.226	14134
892.349	14119
892.471	14016
892.594	14119
892.717	14073
892.839	14126
892.962	14084
893.085	14115
893.207	14043
893.33	14073
893.452	14020
893.575	14119
893.697	14149
893.819	14305
893.941	14389
894.064	14358
894.186	14096
894.308	14039
894.43	14191
894.552	14336
894.674	14256
894.796	14149
894.918	14214
895.04	14214
895.161	14317
895.283	14233
895.405	14164
895.526	14282
895.648	14271
895.769	14278
895.891	14221
896.012	14366
896.134	14339
896.255	14309
896.376	14275
896.498	14263
896.619	14309
896.74	14256
896.861	14389
896.982	14587
897.103	14807
897.224	14587
897.345	14522
897.466	14476
897.587	14541
897.708	14644
897.828	14579
897.949	14389
898.07	14423
898.19	14511
898.311	14800
898.431	14667
898.552	14575
898.672	14754
898.792	14693
898.913	14621
899.033	14655
899.153	14442
899.273	14446
899.393	14480
899.513	14495
899.633	14488
899.753	14480
899.873	14396
899.993	14533
900.113	14358
900.232	14476
900.352	14454
900.472	14377
900.591	14278
900.711	14343
900.83	14298
900.95	14480
901.069	14419
901.189	14275
901.308	14134
901.427	14065
901.546	13906
901.665	14043
901.784	14062
901.904	13856
902.023	13830
902.141	13571
902.26	13548
902.379	13681
902.498	13616
902.617	13491
902.735	13651
902.854	13575
902.973	13540
903.091	13285
903.21	13373
903.328	13358
903.446	13297
903.565	13202
903.683	13110
903.801	13050
903.919	13149
904.038	13122
904.156	12935
904.274	13072
904.392	12962
904.51	13053
904.627	12939
904.745	13008
904.863	13053
904.981	12787
905.098	12616
905.216	12612
905.334	12700
905.451	12719
905.569	12642
905.686	12810
905.803	12669
905.921	12433
906.038	12593
906.155	12593
906.272	12380
906.389	12372
906.506	12262
906.623	12243
906.74	12270
906.857	12155
906.974	12235
907.091	12334
907.208	12353
907.324	12308
907.441	12228
907.557	12064
907.674	12076
907.79	11882
907.907	11992
908.023	12015
908.139	12060
908.256	11931
908.372	11931
908.488	11946
908.604	11828
908.72	11710
908.836	11824
908.952	11783
909.068	11802
909.184	11908
909.3	11718
909.415	11809
909.531	11775
909.647	11573
909.762	11642
909.878	11532
909.993	11695
910.108	11570
910.224	11604
910.339	11535
910.454	11524
910.57	11478
910.685	11334
910.8	11710
910.915	11619
911.03	11421
911.145	11303
911.259	11372
911.374	11311
911.489	11178
911.604	11174
911.718	11132
911.833	11045
911.947	10904
912.062	10911
912.176	10995
912.291	11098
912.405	10999
912.519	11250
912.633	11269
912.748	11064
912.862	11102
912.976	10946
913.09	10873
913.204	10930
913.318	10862
913.431	10972
913.545	10995
913.659	11136
913.772	11014
913.886	10881
914	10706
914.113	10934
914.226	10972
914.34	10976
914.453	10714
914.566	10858
914.68	10740
914.793	10755
914.906	10637
915.019	10531
915.132	10519
915.245	10542
915.358	10489
915.47	10538
915.583	10592
915.696	10603
915.809	10672
915.921	10637
916.034	10588
916.146	10523
916.259	10462
916.371	10611
916.483	10596
916.595	10413
916.708	10500
916.82	10550
916.932	10527
917.044	10470
917.156	10386
917.268	10310
917.38	10405
917.491	10329
917.603	10398
917.715	10493
917.826	10459
917.938	10348
918.049	10295
918.161	10421
918.272	10527
918.384	10527
918.495	10432
918.606	10268
918.717	10162
918.828	10276
918.939	10192
919.05	10090
919.161	10246
919.272	10063
919.383	10128
919.494	10363
919.604	10360
919.715	10261
919.826	10173
919.936	10196
920.047	10367
920.157	10280
920.267	10451
920.378	10367
920.488	10280
920.598	10489
920.708	10615
920.818	10409
920.928	10504
921.038	10626
921.148	10580
921.258	10341
921.368	10246
921.477	10143
921.587	10116
921.697	10063
921.806	10154
921.916	10036
922.025	9789
922.134	9785
922.244	9789
922.353	9816
922.462	9755
922.571	9667
922.68	9526
922.789	9511
922.898	9500
923.007	9439
923.116	9545
923.224	9507
923.333	9534
923.442	9378
923.55	9340
923.659	9450
923.767	9450
923.876	9325
923.984	9466
924.092	9332
924.201	9401
924.309	9382
924.417	9412
924.525	9363
924.633	9355
924.741	10196
924.849	9161
924.956	9287
925.064	9112
925.172	9036
925.279	9123
925.387	9195
925.494	9195
925.602	9256
925.709	9218
925.816	9180
925.924	9165
926.031	9294
926.138	9123
926.245	9264
926.352	9108
926.459	9264
926.566	9241
926.673	9127
926.779	9077
926.886	9039
926.993	8933
927.099	8838
927.206	8800
927.312	8796
927.419	8956
927.525	8880
927.631	9024
927.737	8849
927.843	8823
927.95	8697
928.056	8769
928.162	8819
928.267	8807
928.373	9466
928.479	8864
928.585	8629
928.69	8811
928.796	8743
928.901	8697
929.007	8549
929.112	8724
929.218	8606
929.323	8606
929.428	8629
929.533	8731
929.638	8556
929.743	8583
929.848	8556
929.953	8564
930.058	8469
930.163	8389
930.267	8313
930.372	8450
930.477	8381
930.581	8583
930.685	8469
930.79	8305
930.894	8317
930.998	8286
931.103	8480
931.207	8123
931.311	8111
931.415	8046
931.519	7837
931.623	7814
