Data from test_V78500241_2291.txt Node
Date: Fri Mar 25 14:49:39 CST 2022
User: usil
Spectrometer: V785-0024
Trigger mode: 0
Integration Time (sec): 4.000000E-1
Scans to average: 1
Nonlinearity correction enabled: false
Boxcar width: 0
Storing dark spectrum: false
XAxis mode: Wavelengths
Number of Pixels in Spectrum: 1024
>>>>>Begin Spectral Data<<<<<
801.071	22230
801.214	22013
801.356	21793
801.499	21743
801.641	21622
801.783	21557
801.926	21500
802.068	21504
802.211	21530
802.353	21367
802.496	21081
802.638	20998
802.78	21104
802.923	21028
803.065	20762
803.208	20834
803.35	20906
803.492	21001
803.635	21009
803.777	20925
803.919	21005
804.061	21157
804.204	20910
804.346	20830
804.488	20750
804.63	20929
804.773	20785
804.915	20758
805.057	21005
805.199	20708
805.341	20902
805.483	21036
805.626	20864
805.768	20834
805.91	20887
806.052	20769
806.194	20667
806.336	20967
806.478	20811
806.62	20727
806.762	20842
806.904	20944
807.046	21138
807.188	21218
807.33	21123
807.472	21020
807.614	21039
807.756	21066
807.898	20765
808.04	20880
808.182	20796
808.324	20864
808.465	20963
808.607	21157
808.749	21089
808.891	21321
809.033	21325
809.174	21195
809.316	21077
809.458	21237
809.6	21077
809.741	21218
809.883	21264
810.025	21279
810.166	21340
810.308	21298
810.45	21207
810.591	21226
810.733	21047
810.875	20948
811.016	20872
811.158	20880
811.299	20921
811.441	21112
811.582	20979
811.724	21005
811.865	20952
812.007	20838
812.148	20937
812.29	21013
812.431	21233
812.573	21195
812.714	21283
812.855	21545
812.997	21542
813.138	21652
813.279	21576
813.421	21367
813.562	21291
813.703	21241
813.845	21135
813.986	20838
814.127	20606
814.268	20606
814.41	20560
814.551	20484
814.692	20609
814.833	20332
814.974	20461
815.115	20613
815.256	20278
815.397	20408
815.539	20366
815.68	20278
815.821	20290
815.962	20259
816.103	20180
816.244	20027
816.385	19940
816.526	19989
816.666	19791
816.807	19613
816.948	19662
817.089	19693
817.23	19715
817.371	19613
817.512	19674
817.653	19620
817.793	19529
817.934	19582
818.075	19514
818.216	19537
818.356	19609
818.497	19457
818.638	19278
818.778	19198
818.919	19255
819.06	19327
819.2	19419
819.341	19502
819.481	19616
819.622	19696
819.762	19708
819.903	19681
820.043	19708
820.184	19525
820.324	19620
820.465	19578
820.605	19556
820.746	19609
820.886	19453
821.026	19601
821.167	19544
821.307	19658
821.447	19571
821.588	19381
821.728	19282
821.868	19244
822.008	19000
822.149	18924
822.289	18954
822.429	18749
822.569	18654
822.709	18665
822.849	18407
822.99	18437
823.13	18589
823.27	18391
823.41	18323
823.55	18228
823.69	18300
823.83	18357
823.97	18163
824.11	18117
824.25	18060
824.389	18091
824.529	18148
824.669	18155
824.809	18258
824.949	18171
825.089	18041
825.228	18053
825.368	17870
825.508	17786
825.648	17904
825.787	17885
825.927	17874
826.067	17752
826.206	17745
826.346	17764
826.485	17912
826.625	17748
826.765	17920
826.904	17965
827.044	17505
827.183	17551
827.323	17379
827.462	17634
827.601	17509
827.741	17463
827.88	17467
828.02	17429
828.159	17543
828.298	17493
828.437	17600
828.577	17315
828.716	17627
828.855	17444
828.994	17341
829.134	17208
829.273	17322
829.412	17220
829.551	17143
829.69	17246
829.829	17303
829.968	17372
830.107	17311
830.246	17303
830.385	17204
830.524	17216
830.663	17052
830.802	16957
830.941	16934
831.08	16774
831.219	17067
831.357	16881
831.496	17037
831.635	16835
831.774	16790
831.913	16847
832.051	16698
832.19	16736
832.329	16694
832.467	16660
832.606	16459
832.744	16527
832.883	16588
833.022	16542
833.16	16516
833.299	16561
833.437	16592
833.576	16531
833.714	16618
833.852	16592
833.991	16618
834.129	16637
834.267	16668
834.406	16603
834.544	16691
834.682	16550
834.821	16569
834.959	16729
835.097	16558
835.235	16672
835.373	16580
835.511	16512
835.65	16432
835.788	16538
835.926	16493
836.064	16356
836.202	16432
836.34	16500
836.478	16649
836.615	16432
836.753	16481
836.891	16656
837.029	16527
837.167	16443
837.305	16436
837.443	16367
837.58	16360
837.718	16413
837.856	16398
837.993	16325
838.131	16276
838.269	16253
838.406	16234
838.544	16242
838.681	16101
838.819	16063
838.956	15895
839.094	15987
839.231	15956
839.369	16097
839.506	16234
839.643	16207
839.781	15873
839.918	15907
840.055	15915
840.193	15873
840.33	15873
840.467	15884
840.604	16010
840.742	16105
840.879	15751
841.016	15869
841.153	15857
841.29	15945
841.427	15892
841.564	15907
841.701	15903
841.838	15899
841.975	15736
842.112	15816
842.249	15770
842.385	15644
842.522	15823
842.659	15698
842.796	15694
842.933	15701
843.069	15736
843.206	15526
843.343	15755
843.479	15610
843.616	15663
843.752	15496
843.889	15416
844.025	15641
844.162	15435
844.298	15591
844.435	15496
844.571	15374
844.708	15386
844.844	15614
844.98	15648
845.117	15507
845.253	15492
845.389	15469
845.525	15393
845.661	15340
845.798	15268
845.934	15313
846.07	15237
846.206	15287
846.342	15397
846.478	15256
846.614	15127
846.75	14986
846.886	14967
847.022	15180
847.158	15001
847.294	15077
847.429	15085
847.565	14941
847.701	15237
847.837	14826
847.972	14724
848.108	14899
848.244	14838
848.379	14663
848.515	14720
848.65	14632
848.786	14594
848.921	14777
849.057	14697
849.192	14765
849.328	14648
849.463	14743
849.598	14621
849.734	14651
849.869	14454
850.004	14434
850.14	14541
850.275	14282
850.41	14389
850.545	14309
850.68	14317
850.815	14427
850.95	14370
851.085	14590
851.22	14571
851.355	14377
851.49	14336
851.625	14301
851.76	14377
851.895	14282
852.03	14278
852.165	14374
852.299	14518
852.434	14484
852.569	14457
852.703	14434
852.838	14415
852.973	14514
853.107	14552
853.242	14343
853.376	14377
853.511	14161
853.645	14126
853.78	14442
853.914	14259
854.048	14298
854.183	14301
854.317	14225
854.451	14423
854.585	14294
854.72	14183
854.854	14381
854.988	14172
855.122	14237
855.256	14081
855.39	14202
855.524	14286
855.658	14313
855.792	14290
855.926	14290
856.06	14317
856.194	14396
856.327	14214
856.461	14286
856.595	14259
856.729	14240
856.862	14328
856.996	14256
857.13	14415
857.263	14412
857.397	14358
857.53	14298
857.664	14362
857.797	14351
857.931	14343
858.064	14237
858.197	14336
858.331	14294
858.464	14202
858.597	14320
858.731	14248
858.864	14233
858.997	14328
859.13	14252
859.263	14305
859.396	14351
859.529	14263
859.662	14229
859.795	14168
859.928	14248
860.061	14427
860.194	14408
860.327	14294
860.46	14195
860.592	14267
860.725	14396
860.858	14450
860.99	14248
861.123	14153
861.256	14221
861.388	14336
861.521	14834
861.653	14202
861.786	14103
861.918	14081
862.05	14096
862.183	14221
862.315	14282
862.447	14313
862.58	14195
862.712	14039
862.844	13993
862.976	14077
863.108	14119
863.24	14404
863.372	13993
863.504	14073
863.636	14107
863.768	14016
863.9	14134
864.032	13947
864.164	14084
864.296	14046
864.428	14157
864.559	14058
864.691	14176
864.823	14103
864.954	14225
865.086	14005
865.217	14069
865.349	13928
865.48	14069
865.612	14100
865.743	14191
865.875	14005
866.006	13932
866.137	14001
866.269	14027
866.4	14012
866.531	13982
866.662	13978
866.793	14001
866.924	14050
867.055	14058
867.186	14050
867.317	13940
867.448	13959
867.579	14012
867.71	13856
867.841	13936
867.972	14073
868.103	14043
868.233	14050
868.364	14016
868.495	14111
868.625	14381
868.756	14347
868.886	14225
869.017	14313
869.147	14336
869.278	14385
869.408	14259
869.539	14339
869.669	14358
869.799	14400
869.929	14415
870.06	14362
870.19	14587
870.32	14480
870.45	14514
870.58	14617
870.71	14838
870.84	14804
870.97	14655
871.1	14533
871.23	14929
871.36	14823
871.489	14743
871.619	14880
871.749	14872
871.879	14769
872.008	14967
872.138	14868
872.267	14842
872.397	14720
872.526	14613
872.656	14682
872.785	14731
872.915	14895
873.044	14990
873.173	14914
873.303	14990
873.432	15005
873.561	14979
873.69	14948
873.819	14811
873.948	15017
874.077	14845
874.206	14830
874.335	14910
874.464	15138
874.593	15249
874.722	15058
874.851	15272
874.979	15264
875.108	15249
875.237	15154
875.365	15097
875.494	15138
875.623	15272
875.751	15260
875.88	15211
876.008	15348
876.136	15477
876.265	15633
876.393	15682
876.521	15751
876.65	15766
876.778	15656
876.906	15667
877.034	15545
877.162	15538
877.29	15603
877.418	15679
877.546	15728
877.674	15648
877.802	15610
877.93	15500
878.058	15576
878.185	15599
878.313	15641
878.441	15648
878.568	15534
878.696	15530
878.824	15694
878.951	15778
879.079	15819
879.206	15991
879.333	15778
879.461	15705
879.588	15759
879.715	15903
879.842	15964
879.97	15789
880.097	15511
880.224	15511
880.351	15401
880.478	15530
880.605	15382
880.732	15401
880.859	15675
880.986	15504
881.112	15515
881.239	15279
881.366	15230
881.493	15146
881.619	15100
881.746	15097
881.872	15211
881.999	15150
882.125	15169
882.252	15218
882.378	15218
882.505	15298
882.631	15150
882.757	15062
882.883	14986
883.01	15043
883.136	14857
883.262	14845
883.388	14845
883.514	15024
883.64	15127
883.766	15001
883.892	14853
884.018	14781
884.143	15005
884.269	15077
884.395	14925
884.52	14754
884.646	14750
884.772	14613
884.897	14530
885.023	14758
885.148	14826
885.274	14868
885.399	14731
885.524	14754
885.65	14716
885.775	14720
885.9	14750
886.025	14804
886.15	14765
886.275	14564
886.4	14587
886.525	14648
886.65	14590
886.775	14758
886.9	14819
887.025	14990
887.149	14826
887.274	14533
887.399	14514
887.523	14556
887.648	14495
887.773	14412
887.897	14518
888.021	14568
888.146	14526
888.27	14613
888.395	14610
888.519	14583
888.643	14651
888.767	14594
888.891	14507
889.015	14423
889.139	14431
889.263	14381
889.387	14552
889.511	14613
889.635	14446
889.759	14370
889.883	14343
890.006	14366
890.13	14552
890.254	14381
890.377	14339
890.501	14240
890.624	14172
890.748	14389
890.871	14130
890.995	14077
891.118	14027
891.241	14138
891.364	14187
891.488	14195
891.611	14119
891.734	14168
891.857	14161
891.98	14103
892.103	14214
892.226	14168
892.349	14187
892.471	13963
892.594	14035
892.717	14100
892.839	14069
892.962	14107
893.085	14240
893.207	14096
893.33	14012
893.452	14088
893.575	14149
893.697	14157
893.819	14240
893.941	14275
894.064	14385
894.186	14050
894.308	14058
894.43	14248
894.552	14256
894.674	14256
894.796	14065
894.918	14244
895.04	14240
895.161	14294
895.283	14301
895.405	14214
895.526	14229
895.648	14233
895.769	14218
895.891	14347
896.012	14419
896.134	14275
896.255	14244
896.376	14233
896.498	14305
896.619	14324
896.74	14301
896.861	14305
896.982	14648
897.103	14693
897.224	14587
897.345	14537
897.466	14476
897.587	14518
897.708	14758
897.828	14610
897.949	14568
898.07	14450
898.19	14514
898.311	14693
898.431	14514
898.552	14678
898.672	14785
898.792	14651
898.913	14651
899.033	14579
899.153	14549
899.273	14419
899.393	14381
899.513	14522
899.633	14549
899.753	14571
899.873	14343
899.993	14560
900.113	14393
900.232	14457
900.352	14511
900.472	14419
900.591	14339
900.711	14427
900.83	14320
900.95	14419
901.069	14503
901.189	14290
901.308	14050
901.427	14027
901.546	14096
901.665	14081
901.784	14065
901.904	13947
902.023	13902
902.141	13666
902.26	13609
902.379	13670
902.498	13658
902.617	13601
902.735	13605
902.854	13590
902.973	13597
903.091	13369
903.21	13308
903.328	13384
903.446	13259
903.565	13225
903.683	13171
903.801	13110
903.919	13255
904.038	13122
904.156	12973
904.274	12993
904.392	12897
904.51	13012
904.627	13057
904.745	13012
904.863	13031
904.981	12825
905.098	12692
905.216	12787
905.334	12722
905.451	12631
905.569	12616
905.686	12757
905.803	12635
905.921	12536
906.038	12642
906.155	12509
906.272	12395
906.389	12395
906.506	12315
906.623	12270
906.74	12327
906.857	12155
906.974	12133
907.091	12376
907.208	12437
907.324	12334
907.441	12140
907.557	11942
907.674	12022
907.79	11988
907.907	11973
908.023	12053
908.139	11950
908.256	11954
908.372	11904
908.488	11939
908.604	11824
908.72	11813
908.836	11809
908.952	11786
909.068	11756
909.184	11912
909.3	11809
909.415	11901
909.531	11836
909.647	11585
909.762	11577
909.878	11509
909.993	11577
910.108	11520
910.224	11433
910.339	11554
910.454	11463
910.57	11433
910.685	11356
910.8	11577
910.915	11577
911.03	11436
911.145	11299
911.259	11242
911.374	11318
911.489	11147
911.604	11140
911.718	10957
911.833	11098
911.947	10938
912.062	10873
912.176	10980
912.291	11079
912.405	10961
912.519	11174
912.633	11265
912.748	11079
912.862	11094
912.976	10858
913.09	10744
913.204	10805
913.318	10881
913.431	10934
913.545	11056
913.659	11113
913.772	10866
913.886	10797
914	10755
914.113	10797
914.226	10873
914.34	10847
914.453	10668
914.566	10801
914.68	10797
914.793	10641
914.906	10519
915.019	10462
915.132	10451
915.245	10481
915.358	10554
915.47	10577
915.583	10596
915.696	10611
915.809	10656
915.921	10653
916.034	10470
916.146	10504
916.259	10405
916.371	10535
916.483	10607
916.595	10440
916.708	10470
916.82	10527
916.932	10413
917.044	10421
917.156	10360
917.268	10306
917.38	10344
917.491	10352
917.603	10287
917.715	10394
917.826	10451
917.938	10379
918.049	10177
918.161	10329
918.272	10413
918.384	10443
918.495	10394
918.606	10227
918.717	10207
918.828	10211
918.939	10242
919.05	10147
919.161	10230
919.272	9979
919.383	10090
919.494	10242
919.604	10466
919.715	10238
919.826	10200
919.936	10246
920.047	10238
920.157	10234
920.267	10440
920.378	10318
920.488	10253
920.598	10333
920.708	10615
920.818	10440
920.928	10493
921.038	10615
921.148	10542
921.258	10265
921.368	10204
921.477	10181
921.587	10143
921.697	9960
921.806	10120
921.916	9975
922.025	9766
922.134	9861
922.244	9740
922.353	9835
922.462	9648
922.571	9690
922.68	9538
922.789	9481
922.898	9450
923.007	9462
923.116	9496
923.224	9488
923.333	9450
923.442	9397
923.55	9294
923.659	9378
923.767	9428
923.876	9378
923.984	9397
924.092	9408
924.201	9393
924.309	9340
924.417	9294
924.525	9302
924.633	9344
924.741	10219
924.849	9135
924.956	9298
925.064	9074
925.172	9013
925.279	9097
925.387	9184
925.494	9150
925.602	9218
925.709	9214
925.816	9097
925.924	9077
926.031	9226
926.138	9104
926.245	9207
926.352	9066
926.459	9184
926.566	9195
926.673	9108
926.779	8937
926.886	9028
926.993	8899
927.099	8823
927.206	8750
927.312	8861
927.419	8849
927.525	8853
927.631	8826
927.737	8754
927.843	8689
927.95	8693
928.056	8716
928.162	8788
928.267	8811
928.373	9332
928.479	8838
928.585	8655
928.69	8762
928.796	8796
928.901	8659
929.007	8602
929.112	8670
929.218	8617
929.323	8583
929.428	8499
929.533	8724
929.638	8587
929.743	8549
929.848	8564
929.953	8549
930.058	8438
930.163	8275
930.267	8336
930.372	8541
930.477	8275
930.581	8545
930.685	8518
930.79	8294
930.894	8324
930.998	8282
931.103	8415
931.207	8157
931.311	8027
931.415	7986
931.519	7822
931.623	7742
