Data from test_V78500241_3670.txt Node
Date: Fri Mar 25 14:59:16 CST 2022
User: usil
Spectrometer: V785-0024
Trigger mode: 0
Integration Time (sec): 4.000000E-1
Scans to average: 1
Nonlinearity correction enabled: false
Boxcar width: 0
Storing dark spectrum: false
XAxis mode: Wavelengths
Number of Pixels in Spectrum: 1024
>>>>>Begin Spectral Data<<<<<
801.071	21899
801.214	21770
801.356	21652
801.499	21435
801.641	21298
801.783	21336
801.926	21188
802.068	21169
802.211	21005
802.353	21089
802.496	20910
802.638	20727
802.78	20735
802.923	20731
803.065	20488
803.208	20606
803.35	20594
803.492	20724
803.635	20746
803.777	20590
803.919	20648
804.061	20883
804.204	20667
804.346	20583
804.488	20571
804.63	20568
804.773	20415
804.915	20465
805.057	20556
805.199	20514
805.341	20621
805.483	20693
805.626	20556
805.768	20473
805.91	20530
806.052	20465
806.194	20385
806.336	20686
806.478	20461
806.62	20404
806.762	20526
806.904	20640
807.046	20906
807.188	20887
807.33	20758
807.472	20838
807.614	20716
807.756	20632
807.898	20522
808.04	20587
808.182	20579
808.324	20590
808.465	20549
808.607	20701
808.749	20944
808.891	20963
809.033	21089
809.174	20937
809.316	20731
809.458	20937
809.6	20842
809.741	20864
809.883	20868
810.025	20967
810.166	21096
810.308	20982
810.45	21020
810.591	20883
810.733	20765
810.875	20545
811.016	20579
811.158	20438
811.299	20708
811.441	20746
811.582	20655
811.724	20571
811.865	20564
812.007	20590
812.148	20476
812.29	20663
812.431	20842
812.573	21009
812.714	20914
812.855	21039
812.997	21081
813.138	21313
813.279	21252
813.421	21127
813.562	21032
813.703	20963
813.845	20883
813.986	20503
814.127	20290
814.268	20240
814.41	20256
814.551	20119
814.692	20218
814.833	20142
814.974	20176
815.115	20237
815.256	20043
815.397	20088
815.539	19936
815.68	19902
815.821	19875
815.962	19932
816.103	19879
816.244	19746
816.385	19708
816.526	19624
816.666	19377
816.807	19175
816.948	19331
817.089	19415
817.23	19320
817.371	19343
817.512	19194
817.653	19251
817.793	19278
817.934	19187
818.075	19301
818.216	19263
818.356	19285
818.497	19137
818.638	18916
818.778	19015
818.919	18894
819.06	18954
819.2	19046
819.341	19160
819.481	19072
819.622	19293
819.762	19480
819.903	19422
820.043	19343
820.184	19221
820.324	19183
820.465	19316
820.605	19206
820.746	19316
820.886	19137
821.026	19225
821.167	19285
821.307	19441
821.447	19164
821.588	19065
821.728	18882
821.868	18909
822.008	18696
822.149	18741
822.289	18544
822.429	18365
822.569	18414
822.709	18311
822.849	18155
822.99	18140
823.13	18273
823.27	18064
823.41	17961
823.55	17988
823.69	17946
823.83	17908
823.97	17946
824.11	17767
824.25	17794
824.389	17737
824.529	17798
824.669	17691
824.809	17817
824.949	17771
825.089	17828
825.228	17687
825.368	17486
825.508	17535
825.648	17604
825.787	17547
825.927	17512
826.067	17452
826.206	17398
826.346	17471
826.485	17604
826.625	17524
826.765	17585
826.904	17486
827.044	17326
827.183	17258
827.323	17200
827.462	17277
827.601	17261
827.741	17189
827.88	17208
828.02	17159
828.159	17174
828.298	17284
828.437	17258
828.577	17155
828.716	17436
828.855	17132
828.994	16946
829.134	16934
829.273	16980
829.412	16915
829.551	16980
829.69	16968
829.829	17041
829.968	17124
830.107	17064
830.246	16987
830.385	16847
830.524	16828
830.663	16889
830.802	16721
830.941	16596
831.08	16618
831.219	16634
831.357	16668
831.496	16759
831.635	16596
831.774	16489
831.913	16447
832.051	16497
832.19	16413
832.329	16428
832.467	16390
832.606	16257
832.744	16318
832.883	16284
833.022	16249
833.16	16207
833.299	16421
833.437	16295
833.576	16318
833.714	16398
833.852	16363
833.991	16360
834.129	16413
834.267	16405
834.406	16341
834.544	16337
834.682	16371
834.821	16398
834.959	16481
835.097	16268
835.235	16470
835.373	16375
835.511	16371
835.65	16325
835.788	16367
835.926	16150
836.064	16147
836.202	16112
836.34	16337
836.478	16356
836.615	16139
836.753	16318
836.891	16291
837.029	16268
837.167	16268
837.305	16253
837.443	16128
837.58	16090
837.718	16284
837.856	16242
837.993	16261
838.131	16173
838.269	16025
838.406	16036
838.544	16025
838.681	15861
838.819	15842
838.956	15755
839.094	15603
839.231	15759
839.369	15892
839.506	16105
839.643	15937
839.781	15762
839.918	15774
840.055	15713
840.193	15705
840.33	15789
840.467	15724
840.604	15698
840.742	15975
840.879	15599
841.016	15652
841.153	15599
841.29	15793
841.427	15762
841.564	15686
841.701	15747
841.838	15739
841.975	15610
842.112	15580
842.249	15526
842.385	15496
842.522	15717
842.659	15549
842.796	15473
842.933	15515
843.069	15477
843.206	15435
843.343	15526
843.479	15507
843.616	15488
843.752	15313
843.889	15195
844.025	15507
844.162	15252
844.298	15428
844.435	15291
844.571	15256
844.708	15279
844.844	15477
844.98	15416
845.117	15568
845.253	15207
845.389	15173
845.525	15199
845.661	15249
845.798	15055
845.934	15081
846.07	15055
846.206	15123
846.342	15207
846.478	15093
846.614	14842
846.75	14876
846.886	14788
847.022	14918
847.158	14887
847.294	14906
847.429	14910
847.565	14883
847.701	15039
847.837	14632
847.972	14552
848.108	14613
848.244	14602
848.379	14541
848.515	14446
848.65	14473
848.786	14446
848.921	14476
849.057	14522
849.192	14533
849.328	14438
849.463	14507
849.598	14480
849.734	14317
849.869	14358
850.004	14282
850.14	14294
850.275	14180
850.41	14206
850.545	14176
850.68	14286
850.815	14237
850.95	14263
851.085	14461
851.22	14370
851.355	14263
851.49	14187
851.625	14180
851.76	14172
851.895	14100
852.03	14142
852.165	14168
852.299	14278
852.434	14298
852.569	14313
852.703	14191
852.838	14259
852.973	14412
853.107	14408
853.242	14298
853.376	14195
853.511	13947
853.645	14035
853.78	14294
853.914	14149
854.048	14130
854.183	14016
854.317	14058
854.451	14309
854.585	14138
854.72	14016
854.854	14142
854.988	13989
855.122	14016
855.256	14035
855.39	14069
855.524	14176
855.658	14084
855.792	14164
855.926	14107
856.06	14237
856.194	14244
856.327	14096
856.461	14062
856.595	13986
856.729	14065
856.862	14229
856.996	14176
857.13	14164
857.263	14176
857.397	14240
857.53	14084
857.664	14195
857.797	14229
857.931	14210
858.064	14191
858.197	14202
858.331	14130
858.464	14149
858.597	14062
858.731	14046
858.864	14077
858.997	14020
859.13	14138
859.263	14115
859.396	14111
859.529	14206
859.662	14145
859.795	14016
859.928	14119
860.061	14301
860.194	14298
860.327	14126
860.46	14069
860.592	14191
860.725	14176
860.858	14237
860.99	14092
861.123	13989
861.256	14069
861.388	14081
861.521	14735
861.653	13982
861.786	13989
861.918	13963
862.05	13921
862.183	14092
862.315	14115
862.447	14161
862.58	14008
862.712	13864
862.844	13830
862.976	14001
863.108	13936
863.24	14191
863.372	13807
863.504	13871
863.636	13921
863.768	13993
863.9	13917
864.032	13837
864.164	13845
864.296	13909
864.428	14050
864.559	14001
864.691	13932
864.823	13986
864.954	13909
865.086	13970
865.217	13917
865.349	13769
865.48	13951
865.612	13974
865.743	14008
865.875	13887
866.006	13799
866.137	13837
866.269	13879
866.4	13944
866.531	13894
866.662	13890
866.793	13833
866.924	13955
867.055	13860
867.186	13902
867.317	13852
867.448	13772
867.579	13761
867.71	13772
867.841	13845
867.972	13909
868.103	13936
868.233	13982
868.364	13875
868.495	13978
868.625	14115
868.756	14123
868.886	14077
869.017	14069
869.147	14317
869.278	14244
869.408	14134
869.539	14111
869.669	14240
869.799	14161
869.929	14225
870.06	14332
870.19	14492
870.32	14446
870.45	14442
870.58	14438
870.71	14610
870.84	14587
870.97	14560
871.1	14568
871.23	14746
871.36	14663
871.489	14663
871.619	14697
871.749	14743
871.879	14705
872.008	14842
872.138	14712
872.267	14701
872.397	14712
872.526	14617
872.656	14549
872.785	14644
872.915	14750
873.044	14853
873.173	14765
873.303	14819
873.432	14849
873.561	14826
873.69	14830
873.819	14830
873.948	14819
874.077	14746
874.206	14727
874.335	14773
874.464	14994
874.593	15066
874.722	14975
874.851	15055
874.979	15077
875.108	15230
875.237	14975
875.365	15043
875.494	15112
875.623	15180
875.751	15097
875.88	15146
876.008	15260
876.136	15325
876.265	15500
876.393	15671
876.521	15591
876.65	15663
876.778	15534
876.906	15454
877.034	15481
877.162	15500
877.29	15412
877.418	15526
877.546	15488
877.674	15545
877.802	15557
877.93	15618
878.058	15492
878.185	15447
878.313	15526
878.441	15534
878.568	15485
878.696	15439
878.824	15633
878.951	15663
879.079	15766
879.206	15918
879.333	15701
879.461	15679
879.588	15587
879.715	15690
879.842	15778
879.97	15557
880.097	15287
880.224	15260
880.351	15389
880.478	15374
880.605	15317
880.732	15294
880.859	15572
880.986	15469
881.112	15462
881.239	15306
881.366	15100
881.493	15028
881.619	15062
881.746	14986
881.872	14998
881.999	15070
882.125	14979
882.252	15142
882.378	15062
882.505	15154
882.631	14883
882.757	14845
882.883	14899
883.01	14910
883.136	14811
883.262	14750
883.388	14720
883.514	14849
883.64	14853
883.766	14735
883.892	14739
884.018	14724
884.143	14826
884.269	14883
884.395	14735
884.52	14579
884.646	14629
884.772	14537
884.897	14355
885.023	14602
885.148	14686
885.274	14731
885.399	14636
885.524	14632
885.65	14568
885.775	14625
885.9	14579
886.025	14697
886.15	14625
886.275	14465
886.4	14488
886.525	14522
886.65	14450
886.775	14385
886.9	14758
887.025	14796
887.149	14530
887.274	14396
887.399	14396
887.523	14385
887.648	14385
887.773	14278
887.897	14438
888.021	14454
888.146	14381
888.27	14564
888.395	14434
888.519	14419
888.643	14507
888.767	14450
888.891	14370
889.015	14202
889.139	14313
889.263	14294
889.387	14324
889.511	14381
889.635	14366
889.759	14263
889.883	14244
890.006	14240
890.13	14301
890.254	14195
890.377	14180
890.501	14031
890.624	13993
890.748	14126
890.871	14024
890.995	13921
891.118	13818
891.241	13947
891.364	13974
891.488	14096
891.611	13959
891.734	13921
891.857	14046
891.98	13982
892.103	13993
892.226	13944
892.349	13963
892.471	13841
892.594	13902
892.717	13925
892.839	13967
892.962	13959
893.085	14031
893.207	13997
893.33	13734
893.452	13917
893.575	14012
893.697	13932
893.819	14065
893.941	14210
894.064	14115
894.186	13936
894.308	13928
894.43	14024
894.552	14145
894.674	14077
894.796	13902
894.918	13928
895.04	13993
895.161	14058
895.283	14050
895.405	14058
895.526	14062
895.648	14024
895.769	14065
895.891	14202
896.012	14126
896.134	14149
896.255	14092
896.376	14058
896.498	14202
896.619	14195
896.74	14161
896.861	14145
896.982	14556
897.103	14606
897.224	14446
897.345	14404
897.466	14389
897.587	14366
897.708	14518
897.828	14423
897.949	14324
898.07	14324
898.19	14396
898.311	14617
898.431	14454
898.552	14461
898.672	14492
898.792	14571
898.913	14480
899.033	14290
899.153	14286
899.273	14324
899.393	14324
899.513	14332
899.633	14317
899.753	14343
899.873	14233
899.993	14324
900.113	14278
900.232	14339
900.352	14290
900.472	14313
900.591	14115
900.711	14187
900.83	14161
900.95	14328
901.069	14271
901.189	14191
901.308	13978
901.427	13868
901.546	13894
901.665	13894
901.784	13860
901.904	13666
902.023	13689
902.141	13548
902.26	13468
902.379	13529
902.498	13396
902.617	13365
902.735	13464
902.854	13430
902.973	13381
903.091	13240
903.21	13232
903.328	13171
903.446	13042
903.565	13015
903.683	13053
903.801	12817
903.919	13034
904.038	12951
904.156	12875
904.274	12875
904.392	12802
904.51	12829
904.627	12833
904.745	12878
904.863	12901
904.981	12574
905.098	12574
905.216	12582
905.334	12623
905.451	12544
905.569	12509
905.686	12563
905.803	12448
905.921	12410
906.038	12403
906.155	12319
906.272	12254
906.389	12304
906.506	12095
906.623	12102
906.74	12114
906.857	12083
906.974	11980
907.091	12213
907.208	12258
907.324	12216
907.441	12068
907.557	11923
907.674	11859
907.79	11775
907.907	11802
908.023	11889
908.139	11863
908.256	11840
908.372	11767
908.488	11786
908.604	11665
908.72	11577
908.836	11596
908.952	11592
909.068	11688
909.184	11695
909.3	11642
909.415	11630
909.531	11741
909.647	11364
909.762	11486
909.878	11296
909.993	11421
910.108	11478
910.224	11372
910.339	11372
910.454	11296
910.57	11201
910.685	11197
910.8	11535
910.915	11410
911.03	11330
911.145	11079
911.259	11060
911.374	11102
911.489	10995
911.604	10900
911.718	10839
911.833	10930
911.947	10736
912.062	10687
912.176	10873
912.291	10934
912.405	10930
912.519	11010
912.633	11109
912.748	10999
912.862	10850
912.976	10702
913.09	10607
913.204	10691
913.318	10687
913.431	10892
913.545	10824
913.659	10862
913.772	10759
913.886	10637
914	10618
914.113	10641
914.226	10778
914.34	10558
914.453	10508
914.566	10721
914.68	10542
914.793	10569
914.906	10436
915.019	10360
915.132	10284
915.245	10322
915.358	10398
915.47	10303
915.583	10424
915.696	10333
915.809	10508
915.921	10493
916.034	10325
916.146	10268
916.259	10375
916.371	10360
916.483	10360
916.595	10284
916.708	10375
916.82	10329
916.932	10276
917.044	10322
917.156	10223
917.268	10158
917.38	10223
917.491	10112
917.603	10268
917.715	10295
917.826	10318
917.938	10295
918.049	10086
918.161	10215
918.272	10360
918.384	10322
918.495	10196
918.606	10105
918.717	10105
918.828	10082
918.939	10131
919.05	9956
919.161	10082
919.272	9888
919.383	9991
919.494	10173
919.604	10390
919.715	10086
919.826	10036
919.936	10006
920.047	10219
920.157	10135
920.267	10375
920.378	10128
920.488	10158
920.598	10261
920.708	10405
920.818	10455
920.928	10303
921.038	10474
921.148	10542
921.258	10185
921.368	10116
921.477	10017
921.587	9934
921.697	9930
921.806	10044
921.916	9869
922.025	9736
922.134	9781
922.244	9667
922.353	9713
922.462	9572
922.571	9633
922.68	9408
922.789	9408
922.898	9447
923.007	9378
923.116	9469
923.224	9481
923.333	9382
923.442	9336
923.55	9275
923.659	9313
923.767	9359
923.876	9199
923.984	9393
924.092	9241
924.201	9363
924.309	9287
924.417	9344
924.525	9211
924.633	9279
924.741	10032
924.849	9036
924.956	9180
925.064	9036
925.172	8952
925.279	8979
925.387	9173
925.494	9051
925.602	9214
925.709	9131
925.816	8986
925.924	9039
926.031	9184
926.138	9142
926.245	9081
926.352	9024
926.459	9131
926.566	9100
926.673	9055
926.779	9001
926.886	8963
926.993	8769
927.099	8788
927.206	8785
927.312	8769
927.419	8788
927.525	8861
927.631	8887
927.737	8708
927.843	8613
927.95	8533
928.056	8617
928.162	8693
928.267	8674
928.373	9302
928.479	8807
928.585	8526
928.69	8712
928.796	8682
928.901	8674
929.007	8499
929.112	8663
929.218	8579
929.323	8575
929.428	8446
929.533	8648
929.638	8488
929.743	8446
929.848	8495
929.953	8499
930.058	8400
930.163	8195
930.267	8317
930.372	8412
930.477	8240
930.581	8419
930.685	8396
930.79	8218
930.894	8317
930.998	8225
931.103	8400
931.207	7970
931.311	7951
931.415	7902
931.519	7776
931.623	7734
