Data from test_V78500241_1428.txt Node
Date: Fri Mar 25 14:43:39 CST 2022
User: usil
Spectrometer: V785-0024
Trigger mode: 0
Integration Time (sec): 4.000000E-1
Scans to average: 1
Nonlinearity correction enabled: false
Boxcar width: 0
Storing dark spectrum: false
XAxis mode: Wavelengths
Number of Pixels in Spectrum: 1024
>>>>>Begin Spectral Data<<<<<
801.071	22421
801.214	22192
801.356	22032
801.499	22093
801.641	21869
801.783	21937
801.926	21778
802.068	21713
802.211	21614
802.353	21652
802.496	21386
802.638	21321
802.78	21310
802.923	21192
803.065	21051
803.208	21123
803.35	21131
803.492	21157
803.635	21226
803.777	21161
803.919	21165
804.061	21523
804.204	21108
804.346	21127
804.488	21013
804.63	21005
804.773	21009
804.915	21100
805.057	21047
805.199	21047
805.341	21131
805.483	21230
805.626	21070
805.768	20998
805.91	21146
806.052	21104
806.194	20864
806.336	21161
806.478	21066
806.62	20998
806.762	21074
806.904	21252
807.046	21576
807.188	21355
807.33	21329
807.472	21504
807.614	21386
807.756	21416
807.898	21279
808.04	21146
808.182	21241
808.324	21344
808.465	21272
808.607	21591
808.749	21603
808.891	21819
809.033	21831
809.174	21728
809.316	21656
809.458	21660
809.6	21595
809.741	21603
809.883	21568
810.025	21629
810.166	21701
810.308	21770
810.45	21561
810.591	21496
810.733	21389
810.875	21256
811.016	21195
811.158	21302
811.299	21378
811.441	21344
811.582	21477
811.724	21169
811.865	21108
812.007	21222
812.148	21233
812.29	21173
812.431	21435
812.573	21492
812.714	21629
812.855	21618
812.997	21975
813.138	21884
813.279	21762
813.421	21648
813.562	21625
813.703	21572
813.845	21405
813.986	21032
814.127	20967
814.268	20872
814.41	20887
814.551	20826
814.692	20815
814.833	20686
814.974	20830
815.115	20823
815.256	20613
815.397	20617
815.539	20602
815.68	20560
815.821	20522
815.962	20609
816.103	20419
816.244	20328
816.385	20244
816.526	20351
816.666	20100
816.807	20001
816.948	20081
817.089	20191
817.23	20043
817.371	19944
817.512	19989
817.653	19906
817.793	19883
817.934	19864
818.075	19982
818.216	19978
818.356	19978
818.497	19635
818.638	19597
818.778	19609
818.919	19552
819.06	19655
819.2	19712
819.341	19700
819.481	19723
819.622	19864
819.762	20088
819.903	20161
820.043	19890
820.184	19868
820.324	19925
820.465	20020
820.605	19841
820.746	20039
820.886	19639
821.026	19894
821.167	19830
821.307	19928
821.447	19818
821.588	19712
821.728	19613
821.868	19422
822.008	19301
822.149	19244
822.289	19327
822.429	18973
822.569	18993
822.709	19008
822.849	18894
822.99	18764
823.13	18817
823.27	18673
823.41	18597
823.55	18525
823.69	18635
823.83	18597
823.97	18525
824.11	18388
824.25	18426
824.389	18285
824.529	18426
824.669	18342
824.809	18422
824.949	18547
825.089	18460
825.228	18289
825.368	18121
825.508	18285
825.648	18194
825.787	18277
825.927	18266
826.067	17996
826.206	18163
826.346	18247
826.485	18121
826.625	18140
826.765	18228
826.904	18205
827.044	17965
827.183	17843
827.323	17756
827.462	17969
827.601	17866
827.741	17802
827.88	17813
828.02	17798
828.159	17828
828.298	17802
828.437	17965
828.577	17882
828.716	17935
828.855	17836
828.994	17520
829.134	17630
829.273	17630
829.412	17596
829.551	17577
829.69	17646
829.829	17596
829.968	17585
830.107	17714
830.246	17562
830.385	17532
830.524	17474
830.663	17433
830.802	17265
830.941	17231
831.08	17113
831.219	17212
831.357	17288
831.496	17372
831.635	17098
831.774	17105
831.913	17102
832.051	17037
832.19	16873
832.329	16949
832.467	16968
832.606	16877
832.744	16839
832.883	16915
833.022	16881
833.16	16999
833.299	16953
833.437	16915
833.576	16972
833.714	16911
833.852	16984
833.991	16942
834.129	17018
834.267	16965
834.406	16904
834.544	17045
834.682	17067
834.821	16991
834.959	17105
835.097	16889
835.235	17029
835.373	16942
835.511	16987
835.65	16892
835.788	16790
835.926	16660
836.064	16649
836.202	16721
836.34	16938
836.478	16904
836.615	16904
836.753	16911
836.891	16961
837.029	16858
837.167	16858
837.305	16809
837.443	16850
837.58	16702
837.718	16816
837.856	16793
837.993	16698
838.131	16664
838.269	16569
838.406	16565
838.544	16630
838.681	16462
838.819	16352
838.956	16242
839.094	16173
839.231	16295
839.369	16527
839.506	16675
839.643	16493
839.781	16253
839.918	16181
840.055	16303
840.193	16207
840.33	16173
840.467	16230
840.604	16200
840.742	16428
840.879	16143
841.016	16147
841.153	16200
841.29	16306
841.427	16154
841.564	16246
841.701	16268
841.838	16249
841.975	16120
842.112	16166
842.249	16074
842.385	16029
842.522	16238
842.659	16112
842.796	16051
842.933	16044
843.069	15964
843.206	15953
843.343	16090
843.479	16021
843.616	16048
843.752	15762
843.889	15755
844.025	15972
844.162	15819
844.298	15895
844.435	15838
844.571	15808
844.708	15926
844.844	16055
844.98	16010
845.117	15937
845.253	15778
845.389	15759
845.525	15808
845.661	15698
845.798	15804
845.934	15903
846.07	15800
846.206	15998
846.342	16048
846.478	15736
846.614	15504
846.75	15507
846.886	15405
847.022	15447
847.158	15477
847.294	15397
847.429	15485
847.565	15287
847.701	15557
847.837	15214
847.972	15077
848.108	15074
848.244	15207
848.379	14967
848.515	14952
848.65	14902
848.786	14864
848.921	14986
849.057	15089
849.192	15066
849.328	14986
849.463	14956
849.598	14872
849.734	14910
849.869	14906
850.004	14769
850.14	14777
850.275	14785
850.41	14659
850.545	14731
850.68	14750
850.815	14769
850.95	14727
851.085	14944
851.22	14834
851.355	14819
851.49	14655
851.625	14792
851.76	14769
851.895	14617
852.03	14712
852.165	14727
852.299	14735
852.434	14823
852.569	14781
852.703	14769
852.838	14800
852.973	14906
853.107	14899
853.242	14644
853.376	14708
853.511	14499
853.645	14579
853.78	14716
853.914	14674
854.048	14533
854.183	14697
854.317	14689
854.451	14686
854.585	14610
854.72	14613
854.854	14610
854.988	14431
855.122	14514
855.256	14412
855.39	14568
855.524	14625
855.658	14541
855.792	14648
855.926	14621
856.06	14667
856.194	14743
856.327	14644
856.461	14541
856.595	14632
856.729	14583
856.862	14686
856.996	14640
857.13	14708
857.263	14735
857.397	14720
857.53	14610
857.664	14606
857.797	14674
857.931	14781
858.064	14610
858.197	14686
858.331	14693
858.464	14564
858.597	14541
858.731	14579
858.864	14735
858.997	14556
859.13	14670
859.263	14636
859.396	14727
859.529	14632
859.662	14492
859.795	14560
859.928	14590
860.061	14739
860.194	14811
860.327	14602
860.46	14590
860.592	14754
860.725	14746
860.858	14655
860.99	14575
861.123	14530
861.256	14526
861.388	14632
861.521	15393
861.653	14526
861.786	14461
861.918	14442
862.05	14575
862.183	14514
862.315	14659
862.447	14602
862.58	14594
862.712	14362
862.844	14339
862.976	14518
863.108	14431
863.24	14807
863.372	14328
863.504	14389
863.636	14400
863.768	14400
863.9	14301
864.032	14305
864.164	14419
864.296	14469
864.428	14408
864.559	14431
864.691	14522
864.823	14518
864.954	14423
865.086	14370
865.217	14400
865.349	14355
865.48	14332
865.612	14461
865.743	14469
865.875	14484
866.006	14263
866.137	14408
866.269	14434
866.4	14370
866.531	14351
866.662	14240
866.793	14263
866.924	14290
867.055	14385
867.186	14305
867.317	14286
867.448	14294
867.579	14275
867.71	14271
867.841	14176
867.972	14381
868.103	14374
868.233	14423
868.364	14381
868.495	14492
868.625	14541
868.756	14720
868.886	14533
869.017	14571
869.147	14708
869.278	14686
869.408	14617
869.539	14640
869.669	14602
869.799	14720
869.929	14815
870.06	14705
870.19	14876
870.32	14830
870.45	14921
870.58	15013
870.71	15119
870.84	15138
870.97	14944
871.1	14941
871.23	15222
871.36	15203
871.489	15195
871.619	15108
871.749	15154
871.879	15207
872.008	15291
872.138	15245
872.267	15176
872.397	14994
872.526	15013
872.656	15017
872.785	15005
872.915	15321
873.044	15317
873.173	15275
873.303	15291
873.432	15268
873.561	15329
873.69	15325
873.819	15329
873.948	15302
874.077	15222
874.206	15283
874.335	15298
874.464	15336
874.593	15614
874.722	15466
874.851	15519
874.979	15587
875.108	15755
875.237	15584
875.365	15488
875.494	15652
875.623	15667
875.751	15568
875.88	15614
876.008	15759
876.136	15876
876.265	15987
876.393	16310
876.521	16135
876.65	16017
876.778	15983
876.906	15960
877.034	15861
877.162	15934
877.29	16063
877.418	16093
877.546	15972
877.674	15975
877.802	16048
877.93	16032
878.058	15937
878.185	16025
878.313	16048
878.441	16143
878.568	15926
878.696	16074
878.824	16097
878.951	16162
879.079	16265
879.206	16440
879.333	16261
879.461	16325
879.588	16291
879.715	16280
879.842	16398
879.97	16211
880.097	16036
880.224	15987
880.351	16029
880.478	15895
880.605	15956
880.732	15869
880.859	16105
880.986	15934
881.112	15960
881.239	15705
881.366	15701
881.493	15606
881.619	15443
881.746	15545
881.872	15469
881.999	15530
882.125	15466
882.252	15705
882.378	15603
882.505	15667
882.631	15507
882.757	15485
882.883	15374
883.01	15428
883.136	15287
883.262	15211
883.388	15180
883.514	15370
883.64	15389
883.766	15363
883.892	15173
884.018	15173
884.143	15313
884.269	15450
884.395	15089
884.52	15100
884.646	15142
884.772	15001
884.897	14918
885.023	15085
885.148	15165
885.274	15146
885.399	15184
885.524	15081
885.65	15032
885.775	15093
885.9	15081
886.025	15165
886.15	15108
886.275	14986
886.4	14933
886.525	15013
886.65	14967
886.775	14990
886.9	15093
887.025	15275
887.149	15055
887.274	14990
887.399	14910
887.523	14769
887.648	14781
887.773	14769
887.897	14872
888.021	14899
888.146	14800
888.27	14971
888.395	14929
888.519	15013
888.643	14998
888.767	14891
888.891	14792
889.015	14625
889.139	14781
889.263	14701
889.387	14834
889.511	14994
889.635	14800
889.759	14746
889.883	14727
890.006	14762
890.13	14792
890.254	14617
890.377	14724
890.501	14579
890.624	14537
890.748	14549
890.871	14507
890.995	14305
891.118	14305
891.241	14503
891.364	14427
891.488	14594
891.611	14370
891.734	14400
891.857	14434
891.98	14495
892.103	14476
892.226	14412
892.349	14282
892.471	14298
892.594	14412
892.717	14313
892.839	14298
892.962	14427
893.085	14442
893.207	14438
893.33	14263
893.452	14332
893.575	14488
893.697	14366
893.819	14613
893.941	14629
894.064	14579
894.186	14366
894.308	14347
894.43	14461
894.552	14575
894.674	14507
894.796	14370
894.918	14423
895.04	14587
895.161	14530
895.283	14488
895.405	14465
895.526	14541
895.648	14533
895.769	14552
895.891	14629
896.012	14644
896.134	14571
896.255	14537
896.376	14514
896.498	14575
896.619	14651
896.74	14568
896.861	14610
896.982	14842
897.103	15017
897.224	14868
897.345	14720
897.466	14758
897.587	14785
897.708	14982
897.828	14842
897.949	14845
898.07	14590
898.19	14861
898.311	14971
898.431	14864
898.552	14910
898.672	15020
898.792	15051
898.913	14956
899.033	14792
899.153	14701
899.273	14727
899.393	14743
899.513	14845
899.633	14765
899.753	14773
899.873	14781
899.993	14746
900.113	14762
900.232	14834
900.352	14701
900.472	14659
900.591	14640
900.711	14598
900.83	14560
900.95	14796
901.069	14819
901.189	14552
901.308	14267
901.427	14218
901.546	14218
901.665	14419
901.784	14305
901.904	14199
902.023	14142
902.141	13955
902.26	13928
902.379	13997
902.498	13871
902.617	13738
902.735	13860
902.854	13951
902.973	13765
903.091	13586
903.21	13594
903.328	13590
903.446	13468
903.565	13434
903.683	13502
903.801	13285
903.919	13346
904.038	13396
904.156	13160
904.274	13236
904.392	13312
904.51	13183
904.627	13289
904.745	13339
904.863	13255
904.981	13114
905.098	12954
905.216	13015
905.334	12924
905.451	12947
905.569	12935
905.686	12981
905.803	12989
905.921	12814
906.038	12856
906.155	12715
906.272	12692
906.389	12681
906.506	12593
906.623	12509
906.74	12513
906.857	12410
906.974	12445
907.091	12551
907.208	12703
907.324	12460
907.441	12346
907.557	12323
907.674	12178
907.79	12159
907.907	12292
908.023	12201
908.139	12266
908.256	12209
908.372	12159
908.488	12163
908.604	12064
908.72	11939
908.836	12041
908.952	11920
909.068	11988
909.184	12117
909.3	12060
909.415	11958
909.531	12060
909.647	11912
909.762	11737
909.878	11714
909.993	11756
910.108	11855
910.224	11859
910.339	11691
910.454	11718
910.57	11676
910.685	11634
910.8	11870
910.915	11790
911.03	11691
911.145	11402
911.259	11478
911.374	11478
911.489	11467
911.604	11417
911.718	11216
911.833	11231
911.947	11109
912.062	11090
912.176	11258
912.291	11288
912.405	11140
912.519	11436
912.633	11440
912.748	11288
912.862	11204
912.976	11071
913.09	10968
913.204	11048
913.318	11128
913.431	11136
913.545	11239
913.659	11246
913.772	11132
913.886	10984
914	10965
914.113	11090
914.226	11151
914.34	11105
914.453	10866
914.566	11037
914.68	10930
914.793	10911
914.906	10706
915.019	10637
915.132	10596
915.245	10744
915.358	10771
915.47	10782
915.583	10694
915.696	10729
915.809	10854
915.921	10896
916.034	10679
916.146	10694
916.259	10645
916.371	10706
916.483	10733
916.595	10611
916.708	10714
916.82	10577
916.932	10637
917.044	10679
917.156	10641
917.268	10489
917.38	10584
917.491	10489
917.603	10577
917.715	10618
917.826	10706
917.938	10592
918.049	10390
918.161	10519
918.272	10683
918.384	10668
918.495	10554
918.606	10440
918.717	10352
918.828	10421
918.939	10443
919.05	10348
919.161	10314
919.272	10238
919.383	10291
919.494	10478
919.604	10672
919.715	10390
919.826	10329
919.936	10382
920.047	10569
920.157	10413
920.267	10596
920.378	10535
920.488	10440
920.598	10603
920.708	10778
920.818	10546
920.928	10641
921.038	10729
921.148	10847
921.258	10455
921.368	10280
921.477	10306
921.587	10284
921.697	10147
921.806	10295
921.916	10287
922.025	9991
922.134	9994
922.244	9911
922.353	10017
922.462	9842
922.571	9819
922.68	9606
922.789	9671
922.898	9682
923.007	9542
923.116	9709
923.224	9606
923.333	9622
923.442	9485
923.55	9443
923.659	9576
923.767	9557
923.876	9530
923.984	9591
924.092	9504
924.201	9564
924.309	9515
924.417	9538
924.525	9450
924.633	9473
924.741	10356
924.849	9294
924.956	9462
925.064	9298
925.172	9199
925.279	9260
925.387	9294
925.494	9332
925.602	9420
925.709	9378
925.816	9291
925.924	9283
926.031	9401
926.138	9329
926.245	9397
926.352	9249
926.459	9386
926.566	9382
926.673	9233
926.779	9165
926.886	9112
926.993	9074
927.099	8975
927.206	8975
927.312	9009
927.419	9074
927.525	8929
927.631	9047
927.737	8963
927.843	8868
927.95	8792
928.056	8861
928.162	8967
928.267	9009
928.373	9572
928.479	8963
928.585	8754
928.69	8880
928.796	8960
928.901	8872
929.007	8705
929.112	8845
929.218	8766
929.323	8788
929.428	8735
929.533	8834
929.638	8644
929.743	8693
929.848	8807
929.953	8720
930.058	8670
930.163	8465
930.267	8480
930.372	8613
930.477	8408
930.581	8678
930.685	8571
930.79	8389
930.894	8396
930.998	8385
931.103	8590
931.207	8225
931.311	8191
931.415	8092
931.519	7940
931.623	7932
