Data from test_V78500241_3020.txt Node
Date: Fri Mar 25 14:54:44 CST 2022
User: usil
Spectrometer: V785-0024
Trigger mode: 0
Integration Time (sec): 4.000000E-1
Scans to average: 1
Nonlinearity correction enabled: false
Boxcar width: 0
Storing dark spectrum: false
XAxis mode: Wavelengths
Number of Pixels in Spectrum: 1024
>>>>>Begin Spectral Data<<<<<
801.071	22177
801.214	22032
801.356	21739
801.499	21572
801.641	21591
801.783	21386
801.926	21519
802.068	21424
802.211	21359
802.353	21344
802.496	21226
802.638	21028
802.78	20910
802.923	20857
803.065	20887
803.208	20853
803.35	20918
803.492	20937
803.635	20952
803.777	20636
803.919	20853
804.061	21211
804.204	20891
804.346	20621
804.488	20769
804.63	20640
804.773	20644
804.915	20758
805.057	20864
805.199	20655
805.341	20746
805.483	20864
805.626	20769
805.768	20712
805.91	20743
806.052	20769
806.194	20640
806.336	20895
806.478	20727
806.62	20697
806.762	20815
806.904	20914
807.046	21058
807.188	21135
807.33	21062
807.472	21123
807.614	20967
807.756	21017
807.898	20902
808.04	20785
808.182	20906
808.324	20864
808.465	20914
808.607	20887
808.749	21176
808.891	21176
809.033	21275
809.174	21173
809.316	21051
809.458	21089
809.6	21112
809.741	21116
809.883	21123
810.025	21222
810.166	21393
810.308	21252
810.45	21275
810.591	21161
810.733	20982
810.875	20823
811.016	20769
811.158	20735
811.299	20994
811.441	21005
811.582	21100
811.724	20880
811.865	20792
812.007	20921
812.148	20731
812.29	20830
812.431	21089
812.573	21154
812.714	21245
812.855	21447
812.997	21496
813.138	21557
813.279	21450
813.421	21408
813.562	21291
813.703	21173
813.845	20960
813.986	20689
814.127	20629
814.268	20537
814.41	20545
814.551	20438
814.692	20412
814.833	20278
814.974	20377
815.115	20298
815.256	20301
815.397	20355
815.539	20343
815.68	20058
815.821	20058
815.962	20138
816.103	20084
816.244	20054
816.385	19883
816.526	19807
816.666	19837
816.807	19422
816.948	19609
817.089	19658
817.23	19658
817.371	19605
817.512	19578
817.653	19491
817.793	19518
817.934	19578
818.075	19559
818.216	19563
818.356	19472
818.497	19373
818.638	19164
818.778	19255
818.919	19217
819.06	19194
819.2	19407
819.341	19468
819.481	19365
819.622	19578
819.762	19662
819.903	19723
820.043	19514
820.184	19377
820.324	19563
820.465	19518
820.605	19472
820.746	19556
820.886	19381
821.026	19453
821.167	19381
821.307	19476
821.447	19483
821.588	19335
821.728	19179
821.868	18977
822.008	18890
822.149	18863
822.289	18905
822.429	18726
822.569	18601
822.709	18563
822.849	18372
822.99	18460
823.13	18395
823.27	18490
823.41	18091
823.55	18159
823.69	18201
823.83	18148
823.97	18110
824.11	18003
824.25	18041
824.389	18026
824.529	18015
824.669	17988
824.809	18034
824.949	18022
825.089	17999
825.228	17980
825.368	17821
825.508	17668
825.648	17718
825.787	17805
825.927	17916
826.067	17756
826.206	17695
826.346	17859
826.485	17874
826.625	17699
826.765	17863
826.904	17828
827.044	17509
827.183	17444
827.323	17448
827.462	17592
827.601	17436
827.741	17474
827.88	17474
828.02	17273
828.159	17372
828.298	17421
828.437	17356
828.577	17433
828.716	17444
828.855	17463
828.994	17113
829.134	17200
829.273	17246
829.412	17170
829.551	17124
829.69	17098
829.829	17162
829.968	17330
830.107	17178
830.246	17151
830.385	17162
830.524	17037
830.663	17045
830.802	16900
830.941	16812
831.08	16782
831.219	16896
831.357	16831
831.496	17029
831.635	16790
831.774	16759
831.913	16672
832.051	16626
832.19	16668
832.329	16561
832.467	16546
832.606	16356
832.744	16535
832.883	16462
833.022	16417
833.16	16440
833.299	16527
833.437	16523
833.576	16455
833.714	16459
833.852	16580
833.991	16554
834.129	16584
834.267	16603
834.406	16409
834.544	16519
834.682	16542
834.821	16493
834.959	16702
835.097	16459
835.235	16649
835.373	16497
835.511	16516
835.65	16356
835.788	16432
835.926	16268
836.064	16253
836.202	16257
836.34	16455
836.478	16504
836.615	16424
836.753	16440
836.891	16565
837.029	16447
837.167	16409
837.305	16360
837.443	16265
837.58	16242
837.718	16348
837.856	16291
837.993	16192
838.131	16185
838.269	16284
838.406	16223
838.544	16234
838.681	15987
838.819	15953
838.956	15876
839.094	15812
839.231	15846
839.369	15922
839.506	16162
839.643	16071
839.781	15869
839.918	15873
840.055	15838
840.193	15804
840.33	15732
840.467	15953
840.604	15812
840.742	16097
840.879	15679
841.016	15720
841.153	15736
841.29	15964
841.427	15812
841.564	15960
841.701	15857
841.838	15781
841.975	15690
842.112	15770
842.249	15629
842.385	15709
842.522	15751
842.659	15553
842.796	15568
842.933	15606
843.069	15523
843.206	15576
843.343	15644
843.479	15644
843.616	15660
843.752	15363
843.889	15424
844.025	15526
844.162	15348
844.298	15504
844.435	15279
844.571	15359
844.708	15420
844.844	15606
844.98	15538
845.117	15443
845.253	15382
845.389	15241
845.525	15348
845.661	15370
845.798	15028
845.934	15142
846.07	15146
846.206	15260
846.342	15363
846.478	15184
846.614	14998
846.75	14925
846.886	14902
847.022	15062
847.158	14960
847.294	15005
847.429	14998
847.565	14956
847.701	15146
847.837	14754
847.972	14587
848.108	14659
848.244	14720
848.379	14625
848.515	14495
848.65	14663
848.786	14590
848.921	14560
849.057	14663
849.192	14735
849.328	14594
849.463	14564
849.598	14579
849.734	14492
849.869	14431
850.004	14377
850.14	14355
850.275	14358
850.41	14275
850.545	14244
850.68	14271
850.815	14313
850.95	14328
851.085	14492
851.22	14400
851.355	14347
851.49	14237
851.625	14256
851.76	14324
851.895	14233
852.03	14180
852.165	14225
852.299	14362
852.434	14446
852.569	14358
852.703	14381
852.838	14476
852.973	14503
853.107	14545
853.242	14282
853.376	14164
853.511	14039
853.645	14240
853.78	14290
853.914	14221
854.048	14096
854.183	14267
854.317	14153
854.451	14351
854.585	14210
854.72	14153
854.854	14168
854.988	14107
855.122	14202
855.256	14031
855.39	14168
855.524	14324
855.658	14263
855.792	14259
855.926	14199
856.06	14233
856.194	14286
856.327	14214
856.461	14107
856.595	14096
856.729	14191
856.862	14324
856.996	14134
857.13	14301
857.263	14229
857.397	14191
857.53	14218
857.664	14210
857.797	14248
857.931	14240
858.064	14191
858.197	14229
858.331	14271
858.464	14183
858.597	14084
858.731	14161
858.864	14062
858.997	14225
859.13	14206
859.263	14199
859.396	14259
859.529	14252
859.662	14149
859.795	14119
859.928	14259
860.061	14332
860.194	14320
860.327	14187
860.46	14187
860.592	14324
860.725	14366
860.858	14358
860.99	14172
861.123	14161
861.256	14126
861.388	14172
861.521	14910
861.653	14050
861.786	14046
861.918	14062
862.05	14084
862.183	14138
862.315	14202
862.447	14168
862.58	14126
862.712	13997
862.844	13925
862.976	14012
863.108	13909
863.24	14457
863.372	13890
863.504	13947
863.636	14077
863.768	14054
863.9	14020
864.032	13898
864.164	13871
864.296	14046
864.428	14088
864.559	14111
864.691	14077
864.823	14039
864.954	14103
865.086	13951
865.217	14084
865.349	13826
865.48	14065
865.612	13978
865.743	14073
865.875	13963
866.006	13951
866.137	13909
866.269	13890
866.4	13932
866.531	13868
866.662	13902
866.793	13909
866.924	13928
867.055	14008
867.186	13963
867.317	13898
867.448	13894
867.579	13833
867.71	13868
867.841	13871
867.972	13955
868.103	13909
868.233	13970
868.364	13947
868.495	14046
868.625	14195
868.756	14313
868.886	14134
869.017	14157
869.147	14370
869.278	14290
869.408	14221
869.539	14229
869.669	14214
869.799	14313
869.929	14298
870.06	14195
870.19	14488
870.32	14480
870.45	14507
870.58	14575
870.71	14716
870.84	14712
870.97	14712
871.1	14583
871.23	14773
871.36	14792
871.489	14705
871.619	14727
871.749	14834
871.879	14765
872.008	14834
872.138	14765
872.267	14887
872.397	14720
872.526	14663
872.656	14594
872.785	14697
872.915	14830
873.044	14899
873.173	14773
873.303	14815
873.432	14918
873.561	15036
873.69	14876
873.819	14872
873.948	14872
874.077	14868
874.206	14800
874.335	14819
874.464	14998
874.593	15066
874.722	15036
874.851	15192
874.979	15249
875.108	15237
875.237	15192
875.365	15112
875.494	15112
875.623	15306
875.751	15180
875.88	15222
876.008	15313
876.136	15382
876.265	15561
876.393	15698
876.521	15637
876.65	15625
876.778	15542
876.906	15542
877.034	15481
877.162	15564
877.29	15557
877.418	15633
877.546	15618
877.674	15580
877.802	15618
877.93	15466
878.058	15572
878.185	15492
878.313	15507
878.441	15625
878.568	15439
878.696	15504
878.824	15625
878.951	15663
879.079	15800
879.206	15930
879.333	15633
879.461	15500
879.588	15572
879.715	15652
879.842	15888
879.97	15663
880.097	15485
880.224	15496
880.351	15473
880.478	15439
880.605	15450
880.732	15431
880.859	15629
880.986	15477
881.112	15549
881.239	15405
881.366	15188
881.493	15184
881.619	15017
881.746	15127
881.872	15081
881.999	15039
882.125	15081
882.252	15123
882.378	15146
882.505	15283
882.631	15138
882.757	14899
882.883	14849
883.01	14895
883.136	14883
883.262	14804
883.388	14705
883.514	14994
883.64	14952
883.766	14785
883.892	14769
884.018	14705
884.143	14902
884.269	14933
884.395	14758
884.52	14617
884.646	14511
884.772	14556
884.897	14514
885.023	14788
885.148	14701
885.274	14739
885.399	14739
885.524	14575
885.65	14659
885.775	14590
885.9	14617
886.025	14682
886.15	14689
886.275	14613
886.4	14556
886.525	14575
886.65	14537
886.775	14598
886.9	14746
887.025	14864
887.149	14511
887.274	14476
887.399	14351
887.523	14434
887.648	14385
887.773	14427
887.897	14507
888.021	14537
888.146	14408
888.27	14522
888.395	14541
888.519	14549
888.643	14480
888.767	14492
888.891	14240
889.015	14263
889.139	14393
889.263	14267
889.387	14438
889.511	14522
889.635	14495
889.759	14301
889.883	14351
890.006	14309
890.13	14396
890.254	14199
890.377	14206
890.501	14096
890.624	14100
890.748	14145
890.871	14100
890.995	13883
891.118	13944
891.241	13932
891.364	14043
891.488	14187
891.611	14020
891.734	14077
891.857	14149
891.98	13978
892.103	14084
892.226	14062
892.349	14001
892.471	13959
892.594	14081
892.717	14001
892.839	14001
892.962	13982
893.085	14103
893.207	14008
893.33	13887
893.452	13967
893.575	14058
893.697	13967
893.819	14149
893.941	14191
894.064	14123
894.186	13978
894.308	13947
894.43	14180
894.552	14172
894.674	14077
894.796	14020
894.918	14081
895.04	13986
895.161	14202
895.283	14134
895.405	14065
895.526	14016
895.648	14157
895.769	14161
895.891	14259
896.012	14290
896.134	14202
896.255	14100
896.376	14107
896.498	14195
896.619	14240
896.74	14237
896.861	14271
896.982	14556
897.103	14769
897.224	14454
897.345	14469
897.466	14457
897.587	14503
897.708	14617
897.828	14465
897.949	14503
898.07	14347
898.19	14431
898.311	14651
898.431	14476
898.552	14579
898.672	14651
898.792	14568
898.913	14621
899.033	14625
899.153	14370
899.273	14305
899.393	14408
899.513	14431
899.633	14358
899.753	14396
899.873	14332
899.993	14446
900.113	14415
900.232	14396
900.352	14492
900.472	14347
900.591	14301
900.711	14347
900.83	14339
900.95	14351
901.069	14408
901.189	14195
901.308	14035
901.427	13982
901.546	13883
901.665	13940
901.784	13974
901.904	13837
902.023	13685
902.141	13719
902.26	13510
902.379	13578
902.498	13540
902.617	13407
902.735	13548
902.854	13540
902.973	13480
903.091	13232
903.21	13240
903.328	13335
903.446	13145
903.565	13126
903.683	13095
903.801	13046
903.919	13156
904.038	13050
904.156	13004
904.274	12882
904.392	12852
904.51	12962
904.627	12973
904.745	12954
904.863	13019
904.981	12700
905.098	12597
905.216	12578
905.334	12578
905.451	12563
905.569	12608
905.686	12589
905.803	12582
905.921	12418
906.038	12456
906.155	12422
906.272	12292
906.389	12232
906.506	12216
906.623	12178
906.74	12228
906.857	12087
906.974	12083
907.091	12239
907.208	12190
907.324	12232
907.441	12117
907.557	11927
907.674	11859
907.79	11893
907.907	11866
908.023	11977
908.139	11878
908.256	11908
908.372	11885
908.488	11855
908.604	11668
908.72	11581
908.836	11608
908.952	11707
909.068	11653
909.184	11707
909.3	11634
909.415	11722
909.531	11745
909.647	11463
909.762	11452
909.878	11433
909.993	11478
910.108	11379
910.224	11414
910.339	11516
910.454	11383
910.57	11402
910.685	11273
910.8	11627
910.915	11501
911.03	11322
911.145	11143
911.259	11147
911.374	11162
911.489	11098
911.604	10995
911.718	10869
911.833	10946
911.947	10740
912.062	10748
912.176	10972
912.291	10896
912.405	10866
912.519	11083
912.633	11140
912.748	10965
912.862	10847
912.976	10733
913.09	10736
913.204	10778
913.318	10866
913.431	10957
913.545	10904
913.659	10911
913.772	10748
913.886	10717
914	10596
914.113	10835
914.226	10736
914.34	10767
914.453	10626
914.566	10748
914.68	10592
914.793	10622
914.906	10466
915.019	10341
915.132	10356
915.245	10459
915.358	10455
915.47	10443
915.583	10428
915.696	10421
915.809	10542
915.921	10535
916.034	10417
916.146	10360
916.259	10379
916.371	10523
916.483	10481
916.595	10352
916.708	10447
916.82	10363
916.932	10344
917.044	10329
917.156	10360
917.268	10131
917.38	10268
917.491	10276
917.603	10276
917.715	10325
917.826	10299
917.938	10242
918.049	10223
918.161	10246
918.272	10470
918.384	10333
918.495	10249
918.606	10211
918.717	10006
918.828	10112
918.939	10234
919.05	10013
919.161	10082
919.272	10010
919.383	9994
919.494	10200
919.604	10398
919.715	10055
919.826	10048
919.936	10032
920.047	10291
920.157	10177
920.267	10344
920.378	10139
920.488	10109
920.598	10390
920.708	10485
920.818	10375
920.928	10295
921.038	10455
921.148	10504
921.258	10192
921.368	10105
921.477	10021
921.587	10002
921.697	9831
921.806	10105
921.916	9892
922.025	9770
922.134	9698
922.244	9568
922.353	9762
922.462	9671
922.571	9534
922.68	9408
922.789	9424
922.898	9378
923.007	9405
923.116	9424
923.224	9435
923.333	9435
923.442	9317
923.55	9245
923.659	9363
923.767	9367
923.876	9298
923.984	9332
924.092	9222
924.201	9291
924.309	9302
924.417	9302
924.525	9230
924.633	9260
924.741	10181
924.849	9043
924.956	9260
925.064	9043
925.172	8941
925.279	9043
925.387	9100
925.494	9039
925.602	9241
925.709	9180
925.816	8994
925.924	9100
926.031	9169
926.138	9097
926.245	9100
926.352	9028
926.459	9173
926.566	9157
926.673	9043
926.779	8914
926.886	8872
926.993	8819
927.099	8853
927.206	8758
927.312	8826
927.419	8861
927.525	8857
927.631	8849
927.737	8727
927.843	8697
927.95	8617
928.056	8663
928.162	8636
928.267	8743
928.373	9237
928.479	8781
928.585	8522
928.69	8743
928.796	8743
928.901	8583
929.007	8419
929.112	8533
929.218	8583
929.323	8530
929.428	8446
929.533	8686
929.638	8400
929.743	8469
929.848	8629
929.953	8499
930.058	8374
930.163	8229
930.267	8298
930.372	8389
930.477	8240
930.581	8480
930.685	8374
930.79	8294
930.894	8202
930.998	8244
931.103	8309
931.207	7997
931.311	7894
931.415	7909
931.519	7712
931.623	7666
