Data from test_V78500241_1992.txt Node
Date: Fri Mar 25 14:47:35 CST 2022
User: usil
Spectrometer: V785-0024
Trigger mode: 0
Integration Time (sec): 4.000000E-1
Scans to average: 1
Nonlinearity correction enabled: false
Boxcar width: 0
Storing dark spectrum: false
XAxis mode: Wavelengths
Number of Pixels in Spectrum: 1024
>>>>>Begin Spectral Data<<<<<
801.071	22025
801.214	21911
801.356	21781
801.499	21591
801.641	21424
801.783	21447
801.926	21454
802.068	21431
802.211	21443
802.353	21188
802.496	20979
802.638	21001
802.78	20849
802.923	20899
803.065	20792
803.208	20887
803.35	20853
803.492	20902
803.635	20823
803.777	20800
803.919	20830
804.061	21039
804.204	20899
804.346	20788
804.488	20712
804.63	20815
804.773	20644
804.915	20613
805.057	20815
805.199	20724
805.341	20800
805.483	20929
805.626	20769
805.768	20701
805.91	20758
806.052	20739
806.194	20609
806.336	21032
806.478	20686
806.62	20651
806.762	20872
806.904	20918
807.046	21112
807.188	21085
807.33	21013
807.472	21127
807.614	20956
807.756	20986
807.898	20895
808.04	20689
808.182	20788
808.324	20708
808.465	20849
808.607	20876
808.749	21138
808.891	21222
809.033	21370
809.174	21108
809.316	21112
809.458	21093
809.6	20952
809.741	21024
809.883	21192
810.025	21207
810.166	21287
810.308	21291
810.45	21272
810.591	21222
810.733	21001
810.875	20792
811.016	20746
811.158	20769
811.299	20842
811.441	20986
811.582	21009
811.724	20899
811.865	20781
812.007	20857
812.148	20895
812.29	20868
812.431	21039
812.573	21074
812.714	21150
812.855	21294
812.997	21500
813.138	21557
813.279	21496
813.421	21504
813.562	21340
813.703	21131
813.845	21051
813.986	20663
814.127	20587
814.268	20412
814.41	20396
814.551	20514
814.692	20530
814.833	20446
814.974	20393
815.115	20423
815.256	20313
815.397	20248
815.539	20259
815.68	20058
815.821	20111
815.962	20149
816.103	20134
816.244	19928
816.385	19852
816.526	19898
816.666	19715
816.807	19548
816.948	19613
817.089	19578
817.23	19643
817.371	19628
817.512	19670
817.653	19563
817.793	19548
817.934	19514
818.075	19635
818.216	19476
818.356	19464
818.497	19377
818.638	19175
818.778	19247
818.919	19236
819.06	19244
819.2	19422
819.341	19438
819.481	19514
819.622	19556
819.762	19757
819.903	19700
820.043	19613
820.184	19529
820.324	19529
820.465	19609
820.605	19430
820.746	19426
820.886	19460
821.026	19556
821.167	19426
821.307	19529
821.447	19510
821.588	19285
821.728	19259
821.868	19148
822.008	18875
822.149	18966
822.289	18844
822.429	18760
822.569	18654
822.709	18646
822.849	18395
822.99	18490
823.13	18486
823.27	18380
823.41	18315
823.55	18190
823.69	18315
823.83	18350
823.97	18197
824.11	18106
824.25	18034
824.389	18057
824.529	18007
824.669	17980
824.809	18106
824.949	18117
825.089	18178
825.228	18003
825.368	17931
825.508	17840
825.648	17786
825.787	17847
825.927	17836
826.067	17718
826.206	17832
826.346	17752
826.485	17847
826.625	17798
826.765	17836
826.904	17893
827.044	17600
827.183	17493
827.323	17478
827.462	17493
827.601	17490
827.741	17524
827.88	17516
828.02	17379
828.159	17448
828.298	17524
828.437	17505
828.577	17543
828.716	17596
828.855	17417
828.994	17265
829.134	17311
829.273	17212
829.412	17185
829.551	17113
829.69	17223
829.829	17189
829.968	17303
830.107	17299
830.246	17242
830.385	17258
830.524	17071
830.663	17037
830.802	16991
830.941	16877
831.08	16790
831.219	16923
831.357	16892
831.496	17056
831.635	16843
831.774	16820
831.913	16805
832.051	16596
832.19	16698
832.329	16687
832.467	16542
832.606	16546
832.744	16443
832.883	16596
833.022	16611
833.16	16561
833.299	16508
833.437	16599
833.576	16615
833.714	16519
833.852	16615
833.991	16565
834.129	16645
834.267	16611
834.406	16607
834.544	16725
834.682	16596
834.821	16592
834.959	16786
835.097	16500
835.235	16649
835.373	16683
835.511	16584
835.65	16542
835.788	16504
835.926	16310
836.064	16394
836.202	16352
836.34	16573
836.478	16596
836.615	16504
836.753	16466
836.891	16630
837.029	16588
837.167	16462
837.305	16398
837.443	16432
837.58	16337
837.718	16405
837.856	16481
837.993	16192
838.131	16356
838.269	16344
838.406	16329
838.544	16192
838.681	15994
838.819	16032
838.956	15949
839.094	15873
839.231	15880
839.369	16131
839.506	16295
839.643	16211
839.781	16021
839.918	15956
840.055	15987
840.193	15945
840.33	15953
840.467	16044
840.604	15979
840.742	16173
840.879	15717
841.016	15831
841.153	15816
841.29	16071
841.427	16067
841.564	15972
841.701	15892
841.838	15937
841.975	15789
842.112	15888
842.249	15759
842.385	15759
842.522	15915
842.659	15797
842.796	15724
842.933	15705
843.069	15759
843.206	15690
843.343	15774
843.479	15720
843.616	15797
843.752	15485
843.889	15572
844.025	15618
844.162	15473
844.298	15652
844.435	15553
844.571	15542
844.708	15519
844.844	15679
844.98	15759
845.117	15667
845.253	15519
845.389	15450
845.525	15492
845.661	15408
845.798	15332
845.934	15389
846.07	15332
846.206	15408
846.342	15458
846.478	15329
846.614	15192
846.75	15081
846.886	15138
847.022	15169
847.158	15173
847.294	15036
847.429	15165
847.565	15020
847.701	15268
847.837	14956
847.972	14739
848.108	14918
848.244	14895
848.379	14769
848.515	14632
848.65	14724
848.786	14594
848.921	14697
849.057	14826
849.192	14746
849.328	14804
849.463	14705
849.598	14625
849.734	14644
849.869	14499
850.004	14438
850.14	14602
850.275	14526
850.41	14366
850.545	14351
850.68	14400
850.815	14492
850.95	14522
851.085	14602
851.22	14526
851.355	14480
851.49	14434
851.625	14442
851.76	14423
851.895	14286
852.03	14389
852.165	14294
852.299	14427
852.434	14571
852.569	14495
852.703	14465
852.838	14423
852.973	14686
853.107	14568
853.242	14438
853.376	14370
853.511	14271
853.645	14248
853.78	14423
853.914	14412
854.048	14332
854.183	14225
854.317	14267
854.451	14484
854.585	14294
854.72	14374
854.854	14393
854.988	14248
855.122	14259
855.256	14164
855.39	14271
855.524	14412
855.658	14412
855.792	14366
855.926	14343
856.06	14412
856.194	14412
856.327	14393
856.461	14309
856.595	14248
856.729	14267
856.862	14457
856.996	14366
857.13	14294
857.263	14530
857.397	14415
857.53	14275
857.664	14389
857.797	14328
857.931	14461
858.064	14412
858.197	14347
858.331	14294
858.464	14233
858.597	14191
858.731	14343
858.864	14332
858.997	14199
859.13	14301
859.263	14366
859.396	14507
859.529	14423
859.662	14442
859.795	14267
859.928	14301
860.061	14522
860.194	14423
860.327	14393
860.46	14263
860.592	14488
860.725	14556
860.858	14465
860.99	14309
861.123	14233
861.256	14244
861.388	14347
861.521	14967
861.653	14290
861.786	14244
861.918	14191
862.05	14199
862.183	14305
862.315	14393
862.447	14389
862.58	14298
862.712	14100
862.844	13993
862.976	14134
863.108	14153
863.24	14385
863.372	14024
863.504	14138
863.636	14168
863.768	14065
863.9	14092
864.032	14035
864.164	14054
864.296	14130
864.428	14305
864.559	14278
864.691	14187
864.823	14164
864.954	14164
865.086	14027
865.217	14054
865.349	13989
865.48	14016
865.612	14096
865.743	14233
865.875	14100
866.006	14065
866.137	14130
866.269	14123
866.4	14069
866.531	14001
866.662	14039
866.793	14005
866.924	14054
867.055	14142
867.186	14103
867.317	13997
867.448	13921
867.579	14103
867.71	13989
867.841	14001
867.972	14043
868.103	14134
868.233	14043
868.364	14145
868.495	14134
868.625	14309
868.756	14450
868.886	14278
869.017	14317
869.147	14419
869.278	14415
869.408	14343
869.539	14507
869.669	14393
869.799	14370
869.929	14431
870.06	14514
870.19	14632
870.32	14629
870.45	14648
870.58	14857
870.71	14811
870.84	14910
870.97	14834
871.1	14769
871.23	14902
871.36	14956
871.489	14796
871.619	14868
871.749	14944
871.879	15097
872.008	14975
872.138	14929
872.267	14960
872.397	14880
872.526	14754
872.656	14720
872.785	14716
872.915	14963
873.044	15062
873.173	15062
873.303	14986
873.432	15047
873.561	15009
873.69	15013
873.819	14979
873.948	15077
874.077	14944
874.206	14914
874.335	14956
874.464	15154
874.593	15294
874.722	15199
874.851	15351
874.979	15386
875.108	15317
875.237	15195
875.365	15252
875.494	15264
875.623	15336
875.751	15317
875.88	15321
876.008	15500
876.136	15477
876.265	15679
876.393	15857
876.521	15823
876.65	15713
876.778	15736
876.906	15675
877.034	15667
877.162	15637
877.29	15564
877.418	15739
877.546	15766
877.674	15644
877.802	15698
877.93	15739
878.058	15610
878.185	15690
878.313	15759
878.441	15686
878.568	15564
878.696	15675
878.824	15644
878.951	15831
879.079	15934
879.206	16021
879.333	15907
879.461	15797
879.588	15808
879.715	15850
879.842	16006
879.97	15800
880.097	15629
880.224	15370
880.351	15496
880.478	15595
880.605	15553
880.732	15580
880.859	15804
880.986	15576
881.112	15564
881.239	15496
881.366	15401
881.493	15287
881.619	15176
881.746	15329
881.872	15226
881.999	15169
882.125	15249
882.252	15188
882.378	15256
882.505	15481
882.631	15256
882.757	15062
882.883	15104
883.01	15119
883.136	14998
883.262	14887
883.388	14918
883.514	15001
883.64	15138
883.766	15013
883.892	14754
884.018	14849
884.143	15024
884.269	15169
884.395	14773
884.52	14716
884.646	14750
884.772	14640
884.897	14686
885.023	14830
885.148	14872
885.274	14914
885.399	14807
885.524	14762
885.65	14807
885.775	14762
885.9	14750
886.025	14796
886.15	14750
886.275	14693
886.4	14617
886.525	14712
886.65	14727
886.775	14705
886.9	14834
887.025	14887
887.149	14815
887.274	14461
887.399	14533
887.523	14545
887.648	14518
887.773	14434
887.897	14674
888.021	14617
888.146	14476
888.27	14667
888.395	14743
888.519	14659
888.643	14663
888.767	14560
888.891	14514
889.015	14427
889.139	14507
889.263	14492
889.387	14537
889.511	14602
889.635	14587
889.759	14377
889.883	14434
890.006	14495
890.13	14594
890.254	14457
890.377	14415
890.501	14214
890.624	14229
890.748	14336
890.871	14187
890.995	14119
891.118	14081
891.241	14153
891.364	14168
891.488	14282
891.611	14183
891.734	14100
891.857	14187
891.98	14176
892.103	14172
892.226	14164
892.349	14161
892.471	14031
892.594	14100
892.717	14187
892.839	14088
892.962	14077
893.085	14267
893.207	14096
893.33	14062
893.452	14046
893.575	14172
893.697	14221
893.819	14358
893.941	14313
894.064	14237
894.186	14073
894.308	14050
894.43	14290
894.552	14385
894.674	14252
894.796	14126
894.918	14191
895.04	14130
895.161	14275
895.283	14229
895.405	14115
895.526	14195
895.648	14278
895.769	14244
895.891	14396
896.012	14366
896.134	14214
896.255	14221
896.376	14248
896.498	14309
896.619	14286
896.74	14366
896.861	14358
896.982	14674
897.103	14807
897.224	14670
897.345	14613
897.466	14507
897.587	14590
897.708	14670
897.828	14632
897.949	14579
898.07	14484
898.19	14545
898.311	14659
898.431	14454
898.552	14663
898.672	14735
898.792	14724
898.913	14602
899.033	14598
899.153	14507
899.273	14450
899.393	14465
899.513	14514
899.633	14473
899.753	14552
899.873	14408
899.993	14530
900.113	14549
900.232	14602
900.352	14465
900.472	14313
900.591	14351
900.711	14351
900.83	14358
900.95	14492
901.069	14514
901.189	14275
901.308	14153
901.427	14024
901.546	14073
901.665	14126
901.784	14077
901.904	13906
902.023	13795
902.141	13643
902.26	13552
902.379	13734
902.498	13670
902.617	13510
902.735	13681
902.854	13636
902.973	13552
903.091	13335
903.21	13392
903.328	13263
903.446	13194
903.565	13206
903.683	13129
903.801	13015
903.919	13129
904.038	13206
904.156	13076
904.274	13088
904.392	13050
904.51	12878
904.627	12939
904.745	13080
904.863	13088
904.981	12783
905.098	12669
905.216	12703
905.334	12703
905.451	12623
905.569	12639
905.686	12692
905.803	12726
905.921	12483
906.038	12540
906.155	12502
906.272	12407
906.389	12460
906.506	12357
906.623	12334
906.74	12247
906.857	12209
906.974	12197
907.091	12330
907.208	12445
907.324	12289
907.441	12220
907.557	12022
907.674	11992
907.79	11912
907.907	11969
908.023	12064
908.139	12064
908.256	11958
908.372	11958
908.488	11927
908.604	11855
908.72	11729
908.836	11828
908.952	11695
909.068	11882
909.184	11855
909.3	11836
909.415	11824
909.531	11790
909.647	11581
909.762	11547
909.878	11562
909.993	11558
910.108	11589
910.224	11471
910.339	11547
910.454	11459
910.57	11395
910.685	11341
910.8	11570
910.915	11570
911.03	11395
911.145	11288
911.259	11216
911.374	11235
911.489	11220
911.604	11060
911.718	10995
911.833	10968
911.947	10934
912.062	10987
912.176	10911
912.291	11083
912.405	10961
912.519	11151
912.633	11220
912.748	11003
912.862	11022
912.976	10919
913.09	10816
913.204	10748
913.318	10847
913.431	11025
913.545	10980
913.659	11014
913.772	10942
913.886	10710
914	10774
914.113	10816
914.226	10866
914.34	10858
914.453	10706
914.566	10984
914.68	10687
914.793	10622
914.906	10592
915.019	10466
915.132	10455
915.245	10500
915.358	10558
915.47	10497
915.583	10660
915.696	10538
915.809	10630
915.921	10660
916.034	10459
916.146	10451
916.259	10462
916.371	10535
916.483	10550
916.595	10413
916.708	10500
916.82	10394
916.932	10440
917.044	10462
917.156	10428
917.268	10344
917.38	10341
917.491	10348
917.603	10371
917.715	10413
917.826	10440
917.938	10363
918.049	10291
918.161	10352
918.272	10462
918.384	10497
918.495	10382
918.606	10253
918.717	10154
918.828	10211
918.939	10265
919.05	10135
919.161	10196
919.272	10097
919.383	10082
919.494	10329
919.604	10512
919.715	10196
919.826	10200
919.936	10246
920.047	10306
920.157	10234
920.267	10379
920.378	10257
920.488	10265
920.598	10466
920.708	10497
920.818	10428
920.928	10459
921.038	10656
921.148	10569
921.258	10299
921.368	10185
921.477	10143
921.587	10124
921.697	9956
921.806	10101
921.916	10013
922.025	9842
922.134	9800
922.244	9804
922.353	9895
922.462	9740
922.571	9629
922.68	9553
922.789	9454
922.898	9538
923.007	9477
923.116	9564
923.224	9507
923.333	9485
923.442	9386
923.55	9313
923.659	9298
923.767	9496
923.876	9298
923.984	9431
924.092	9260
924.201	9340
924.309	9291
924.417	9348
924.525	9275
924.633	9363
924.741	10287
924.849	9100
924.956	9279
925.064	9119
925.172	9108
925.279	9097
925.387	9180
925.494	9131
925.602	9268
925.709	9226
925.816	9214
925.924	9184
926.031	9211
926.138	9104
926.245	9226
926.352	9066
926.459	9233
926.566	9211
926.673	9127
926.779	9074
926.886	8948
926.993	8853
927.099	8830
927.206	8826
927.312	8788
927.419	8918
927.525	8883
927.631	8925
927.737	8777
927.843	8735
927.95	8682
928.056	8693
928.162	8754
928.267	8868
928.373	9382
928.479	8842
928.585	8610
928.69	8705
928.796	8766
928.901	8663
929.007	8526
929.112	8727
929.218	8625
929.323	8655
929.428	8606
929.533	8743
929.638	8552
929.743	8495
929.848	8606
929.953	8579
930.058	8404
930.163	8294
930.267	8358
930.372	8454
930.477	8336
930.581	8549
930.685	8454
930.79	8279
930.894	8309
930.998	8294
931.103	8419
931.207	8111
931.311	7997
931.415	7944
931.519	7769
931.623	7772
