Data from test_V78500241_1534.txt Node
Date: Fri Mar 25 14:44:23 CST 2022
User: usil
Spectrometer: V785-0024
Trigger mode: 0
Integration Time (sec): 4.000000E-1
Scans to average: 1
Nonlinearity correction enabled: false
Boxcar width: 0
Storing dark spectrum: false
XAxis mode: Wavelengths
Number of Pixels in Spectrum: 1024
>>>>>Begin Spectral Data<<<<<
801.071	22375
801.214	22257
801.356	22086
801.499	21975
801.641	21766
801.783	21762
801.926	21751
802.068	21637
802.211	21580
802.353	21622
802.496	21317
802.638	21268
802.78	21165
802.923	21131
803.065	21081
803.208	21093
803.35	21020
803.492	21230
803.635	21287
803.777	21108
803.919	21131
804.061	21397
804.204	21272
804.346	20975
804.488	21036
804.63	21207
804.773	21020
804.915	21024
805.057	21161
805.199	21085
805.341	21131
805.483	21123
805.626	21055
805.768	21001
805.91	20990
806.052	21074
806.194	21013
806.336	21237
806.478	21017
806.62	20994
806.762	21013
806.904	21214
807.046	21530
807.188	21348
807.33	21378
807.472	21359
807.614	21363
807.756	21393
807.898	21317
808.04	21188
808.182	21348
808.324	21264
808.465	21230
808.607	21587
808.749	21603
808.891	21641
809.033	21774
809.174	21690
809.316	21492
809.458	21515
809.6	21378
809.741	21686
809.883	21488
810.025	21675
810.166	21633
810.308	21625
810.45	21614
810.591	21488
810.733	21443
810.875	21306
811.016	21039
811.158	21116
811.299	21096
811.441	21462
811.582	21389
811.724	21199
811.865	21165
812.007	21245
812.148	21249
812.29	21336
812.431	21397
812.573	21603
812.714	21583
812.855	21793
812.997	21907
813.138	21926
813.279	21774
813.421	21804
813.562	21599
813.703	21583
813.845	21344
813.986	21192
814.127	20864
814.268	20887
814.41	20773
814.551	20697
814.692	20769
814.833	20655
814.974	20682
815.115	20777
815.256	20663
815.397	20701
815.539	20811
815.68	20560
815.821	20499
815.962	20560
816.103	20568
816.244	20343
816.385	20237
816.526	20191
816.666	20043
816.807	19898
816.948	20027
817.089	20161
817.23	19970
817.371	19902
817.512	19894
817.653	19879
817.793	19890
817.934	19894
818.075	19932
818.216	19868
818.356	19951
818.497	19651
818.638	19590
818.778	19666
818.919	19647
819.06	19746
819.2	19693
819.341	19826
819.481	19818
819.622	19822
819.762	20020
819.903	20050
820.043	19906
820.184	19837
820.324	19849
820.465	19963
820.605	19928
820.746	19883
820.886	19715
821.026	19845
821.167	19723
821.307	19917
821.447	19791
821.588	19772
821.728	19597
821.868	19533
822.008	19316
822.149	19350
822.289	19209
822.429	19065
822.569	18977
822.709	18882
822.849	18749
822.99	18681
823.13	18753
823.27	18738
823.41	18555
823.55	18479
823.69	18749
823.83	18566
823.97	18452
824.11	18330
824.25	18338
824.389	18342
824.529	18422
824.669	18414
824.809	18448
824.949	18353
825.089	18433
825.228	18395
825.368	18201
825.508	18114
825.648	18098
825.787	18209
825.927	18304
826.067	18174
826.206	18038
826.346	18186
826.485	18144
826.625	18235
826.765	18220
826.904	18053
827.044	17893
827.183	17942
827.323	17798
827.462	17977
827.601	17863
827.741	17779
827.88	17920
828.02	17638
828.159	17699
828.298	17783
828.437	17878
828.577	17798
828.716	17954
828.855	17714
828.994	17661
829.134	17497
829.273	17665
829.412	17577
829.551	17539
829.69	17551
829.829	17619
829.968	17703
830.107	17684
830.246	17623
830.385	17566
830.524	17520
830.663	17383
830.802	17334
830.941	17181
831.08	17204
831.219	17227
831.357	17242
831.496	17364
831.635	17193
831.774	17155
831.913	17121
832.051	16919
832.19	16968
832.329	16949
832.467	16915
832.606	16733
832.744	16828
832.883	16862
833.022	16828
833.16	16847
833.299	16919
833.437	16869
833.576	16949
833.714	16976
833.852	16919
833.991	16862
834.129	17121
834.267	16877
834.406	16873
834.544	16934
834.682	16885
834.821	16820
834.959	17025
835.097	16999
835.235	17075
835.373	16968
835.511	16923
835.65	16774
835.788	16729
835.926	16649
836.064	16630
836.202	16630
836.34	16843
836.478	16911
836.615	16809
836.753	16835
836.891	16839
837.029	16816
837.167	16740
837.305	16824
837.443	16744
837.58	16634
837.718	16660
837.856	16664
837.993	16535
838.131	16630
838.269	16462
838.406	16447
838.544	16470
838.681	16405
838.819	16314
838.956	16265
839.094	16185
839.231	16318
839.369	16363
839.506	16622
839.643	16470
839.781	16207
839.918	16143
840.055	16226
840.193	16284
840.33	16112
840.467	16249
840.604	16352
840.742	16538
840.879	16112
841.016	16135
841.153	16093
841.29	16363
841.427	16200
841.564	16158
841.701	16238
841.838	16010
841.975	16067
842.112	16131
842.249	15937
842.385	15850
842.522	16257
842.659	16067
842.796	15930
842.933	16021
843.069	15937
843.206	15979
843.343	16067
843.479	16036
843.616	16017
843.752	15743
843.889	15751
844.025	15899
844.162	15759
844.298	15861
844.435	15694
844.571	15770
844.708	15812
844.844	15842
844.98	15953
845.117	15812
845.253	15709
845.389	15766
845.525	15759
845.661	15743
845.798	15595
845.934	15778
846.07	15701
846.206	15781
846.342	15968
846.478	15629
846.614	15462
846.75	15340
846.886	15298
847.022	15424
847.158	15306
847.294	15298
847.429	15363
847.565	15351
847.701	15481
847.837	14925
847.972	15028
848.108	15093
848.244	15058
848.379	14982
848.515	14960
848.65	14906
848.786	14849
848.921	15024
849.057	15028
849.192	15097
849.328	14891
849.463	14990
849.598	14819
849.734	14845
849.869	14807
850.004	14845
850.14	14735
850.275	14686
850.41	14518
850.545	14594
850.68	14640
850.815	14705
850.95	14693
851.085	14887
851.22	14804
851.355	14762
851.49	14659
851.625	14701
851.76	14682
851.895	14530
852.03	14583
852.165	14651
852.299	14716
852.434	14701
852.569	14735
852.703	14678
852.838	14788
852.973	14880
853.107	14807
853.242	14636
853.376	14514
853.511	14465
853.645	14503
853.78	14625
853.914	14522
854.048	14518
854.183	14476
854.317	14552
854.451	14693
854.585	14602
854.72	14514
854.854	14632
854.988	14484
855.122	14541
855.256	14442
855.39	14518
855.524	14651
855.658	14648
855.792	14610
855.926	14682
856.06	14579
856.194	14629
856.327	14629
856.461	14587
856.595	14537
856.729	14556
856.862	14598
856.996	14602
857.13	14579
857.263	14606
857.397	14682
857.53	14575
857.664	14697
857.797	14602
857.931	14678
858.064	14602
858.197	14651
858.331	14533
858.464	14610
858.597	14549
858.731	14560
858.864	14507
858.997	14484
859.13	14568
859.263	14640
859.396	14590
859.529	14610
859.662	14537
859.795	14473
859.928	14648
860.061	14746
860.194	14693
860.327	14594
860.46	14507
860.592	14617
860.725	14746
860.858	14644
860.99	14541
861.123	14473
861.256	14503
861.388	14556
861.521	15142
861.653	14522
861.786	14396
861.918	14415
862.05	14541
862.183	14408
862.315	14564
862.447	14617
862.58	14549
862.712	14434
862.844	14252
862.976	14488
863.108	14336
863.24	14804
863.372	14187
863.504	14294
863.636	14351
863.768	14396
863.9	14366
864.032	14206
864.164	14282
864.296	14256
864.428	14400
864.559	14431
864.691	14385
864.823	14412
864.954	14332
865.086	14301
865.217	14351
865.349	14218
865.48	14271
865.612	14298
865.743	14419
865.875	14263
866.006	14294
866.137	14328
866.269	14389
866.4	14366
866.531	14271
866.662	14298
866.793	14351
866.924	14351
867.055	14286
867.186	14278
867.317	14233
867.448	14115
867.579	14248
867.71	14202
867.841	14221
867.972	14362
868.103	14214
868.233	14294
868.364	14366
868.495	14404
868.625	14545
868.756	14594
868.886	14549
869.017	14514
869.147	14667
869.278	14651
869.408	14670
869.539	14549
869.669	14571
869.799	14568
869.929	14644
870.06	14708
870.19	14853
870.32	14746
870.45	14975
870.58	14986
870.71	15039
870.84	15150
870.97	14956
871.1	15009
871.23	15123
871.36	15047
871.489	15116
871.619	14994
871.749	15176
871.879	15184
872.008	15310
872.138	15157
872.267	15119
872.397	15032
872.526	14956
872.656	14948
872.785	14929
872.915	15192
873.044	15256
873.173	15154
873.303	15268
873.432	15298
873.561	15245
873.69	15184
873.819	15173
873.948	15325
874.077	15214
874.206	15169
874.335	15237
874.464	15355
874.593	15469
874.722	15389
874.851	15564
874.979	15439
875.108	15576
875.237	15504
875.365	15447
875.494	15469
875.623	15519
875.751	15447
875.88	15553
876.008	15648
876.136	15686
876.265	15987
876.393	15994
876.521	15998
876.65	16055
876.778	15983
876.906	15812
877.034	15895
877.162	15861
877.29	15892
877.418	15941
877.546	15888
877.674	15899
877.802	15892
877.93	16013
878.058	15892
878.185	15819
878.313	15964
878.441	15899
878.568	15800
878.696	15884
878.824	15949
878.951	15949
879.079	16246
879.206	16284
879.333	16249
879.461	15983
879.588	16135
879.715	16135
879.842	16341
879.97	16101
880.097	15941
880.224	15774
880.351	15808
880.478	15850
880.605	15690
880.732	15846
880.859	16048
880.986	15827
881.112	15724
881.239	15720
881.366	15603
881.493	15492
881.619	15298
881.746	15488
881.872	15523
881.999	15397
882.125	15348
882.252	15523
882.378	15523
882.505	15572
882.631	15332
882.757	15249
882.883	15252
883.01	15268
883.136	15199
883.262	15062
883.388	15112
883.514	15272
883.64	15195
883.766	15233
883.892	15207
884.018	15066
884.143	15264
884.269	15351
884.395	14963
884.52	14967
884.646	14982
884.772	14944
884.897	14880
885.023	15013
885.148	15043
885.274	15180
885.399	15055
885.524	15001
885.65	14967
885.775	15070
885.9	14914
886.025	15108
886.15	15062
886.275	14956
886.4	14872
886.525	14906
886.65	14876
886.775	14910
886.9	15165
887.025	15157
887.149	15017
887.274	14765
887.399	14819
887.523	14800
887.648	14746
887.773	14651
887.897	14834
888.021	14792
888.146	14693
888.27	14880
888.395	14906
888.519	14792
888.643	14857
888.767	14781
888.891	14655
889.015	14590
889.139	14590
889.263	14583
889.387	14788
889.511	14819
889.635	14644
889.759	14556
889.883	14735
890.006	14693
890.13	14716
890.254	14549
890.377	14686
890.501	14431
890.624	14404
890.748	14438
890.871	14408
890.995	14309
891.118	14263
891.241	14278
891.364	14332
891.488	14385
891.611	14282
891.734	14404
891.857	14431
891.98	14244
892.103	14457
892.226	14347
892.349	14313
892.471	14225
892.594	14202
892.717	14404
892.839	14275
892.962	14294
893.085	14427
893.207	14286
893.33	14210
893.452	14195
893.575	14328
893.697	14244
893.819	14503
893.941	14442
894.064	14415
894.186	14263
894.308	14214
894.43	14476
894.552	14526
894.674	14427
894.796	14351
894.918	14393
895.04	14419
895.161	14526
895.283	14400
895.405	14381
895.526	14476
895.648	14393
895.769	14374
895.891	14450
896.012	14549
896.134	14602
896.255	14571
896.376	14590
896.498	14454
896.619	14552
896.74	14434
896.861	14568
896.982	14883
897.103	14895
897.224	14788
897.345	14670
897.466	14670
897.587	14712
897.708	14838
897.828	14876
897.949	14781
898.07	14549
898.19	14735
898.311	14815
898.431	14777
898.552	14765
898.672	14891
898.792	14819
898.913	14857
899.033	14735
899.153	14625
899.273	14590
899.393	14648
899.513	14731
899.633	14663
899.753	14701
899.873	14693
899.993	14697
900.113	14686
900.232	14727
900.352	14648
900.472	14621
900.591	14537
900.711	14575
900.83	14446
900.95	14629
901.069	14667
901.189	14434
901.308	14252
901.427	14218
901.546	14214
901.665	14377
901.784	14263
901.904	14039
902.023	14062
902.141	13788
902.26	13822
902.379	13868
902.498	13757
902.617	13811
902.735	13803
902.854	13765
902.973	13666
903.091	13518
903.21	13445
903.328	13521
903.446	13502
903.565	13400
903.683	13441
903.801	13312
903.919	13320
904.038	13407
904.156	13137
904.274	13270
904.392	13103
904.51	13171
904.627	13175
904.745	13217
904.863	13240
904.981	12947
905.098	12817
905.216	12875
905.334	12882
905.451	12932
905.569	12856
905.686	12833
905.803	12954
905.921	12673
906.038	12734
906.155	12745
906.272	12582
906.389	12578
906.506	12528
906.623	12483
906.74	12342
906.857	12239
906.974	12315
907.091	12528
907.208	12551
907.324	12513
907.441	12483
907.557	12254
907.674	12277
907.79	12102
907.907	12136
908.023	12201
908.139	12190
908.256	12095
908.372	12079
908.488	12087
908.604	12011
908.72	11939
908.836	11999
908.952	11878
909.068	11996
909.184	12140
909.3	12007
909.415	11950
909.531	12003
909.647	11718
909.762	11699
909.878	11710
909.993	11714
910.108	11760
910.224	11695
910.339	11695
910.454	11672
910.57	11619
910.685	11566
910.8	11813
910.915	11653
911.03	11558
911.145	11471
911.259	11322
911.374	11509
911.489	11368
911.604	11265
911.718	11208
911.833	11113
911.947	11075
912.062	11094
912.176	11067
912.291	11162
912.405	11181
912.519	11429
912.633	11345
912.748	11231
912.862	11121
912.976	11071
913.09	10927
913.204	10976
913.318	11003
913.431	11128
913.545	11132
913.659	11128
913.772	11014
913.886	10927
914	10869
914.113	11010
914.226	11056
914.34	10965
914.453	10763
914.566	11037
914.68	10854
914.793	10873
914.906	10668
915.019	10637
915.132	10577
915.245	10645
915.358	10702
915.47	10675
915.583	10672
915.696	10664
915.809	10755
915.921	10752
916.034	10733
916.146	10569
916.259	10622
916.371	10759
916.483	10698
916.595	10615
916.708	10611
916.82	10546
916.932	10554
917.044	10637
917.156	10554
917.268	10466
917.38	10500
917.491	10478
917.603	10459
917.715	10554
917.826	10611
917.938	10516
918.049	10394
918.161	10481
918.272	10641
918.384	10664
918.495	10535
918.606	10402
918.717	10322
918.828	10363
918.939	10413
919.05	10333
919.161	10234
919.272	10093
919.383	10215
919.494	10512
919.604	10538
919.715	10360
919.826	10265
919.936	10306
920.047	10470
920.157	10379
920.267	10592
920.378	10459
920.488	10333
920.598	10538
920.708	10812
920.818	10523
920.928	10592
921.038	10687
921.148	10706
921.258	10382
921.368	10363
921.477	10204
921.587	10227
921.697	10139
921.806	10249
921.916	10063
922.025	9968
922.134	9991
922.244	9861
922.353	9964
922.462	9854
922.571	9759
922.68	9614
922.789	9637
922.898	9698
923.007	9618
923.116	9633
923.224	9625
923.333	9622
923.442	9496
923.55	9431
923.659	9557
923.767	9584
923.876	9500
923.984	9622
924.092	9428
924.201	9526
924.309	9515
924.417	9492
924.525	9439
924.633	9408
924.741	10356
924.849	9222
924.956	9454
925.064	9249
925.172	9161
925.279	9218
925.387	9313
925.494	9233
925.602	9332
925.709	9329
925.816	9272
925.924	9226
926.031	9298
926.138	9184
926.245	9325
926.352	9127
926.459	9367
926.566	9336
926.673	9218
926.779	9100
926.886	9097
926.993	8998
927.099	8941
927.206	8891
927.312	8937
927.419	9077
927.525	9039
927.631	9112
927.737	8944
927.843	8861
927.95	8800
928.056	8804
928.162	8842
928.267	8944
928.373	9454
928.479	9081
928.585	8750
928.69	8849
928.796	8914
928.901	8720
929.007	8636
929.112	8750
929.218	8727
929.323	8727
929.428	8667
929.533	8785
929.638	8682
929.743	8674
929.848	8739
929.953	8667
930.058	8610
930.163	8408
930.267	8484
930.372	8648
930.477	8415
930.581	8682
930.685	8526
930.79	8389
930.894	8385
930.998	8393
931.103	8522
931.207	8187
931.311	8157
931.415	8103
931.519	7909
931.623	7917
