Data from test_V78500241_3709.txt Node
Date: Fri Mar 25 14:59:32 CST 2022
User: usil
Spectrometer: V785-0024
Trigger mode: 0
Integration Time (sec): 4.000000E-1
Scans to average: 1
Nonlinearity correction enabled: false
Boxcar width: 0
Storing dark spectrum: false
XAxis mode: Wavelengths
Number of Pixels in Spectrum: 1024
>>>>>Begin Spectral Data<<<<<
801.071	21949
801.214	21770
801.356	21622
801.499	21481
801.641	21298
801.783	21264
801.926	21340
802.068	21176
802.211	21089
802.353	21024
802.496	20910
802.638	20788
802.78	20804
802.923	20686
803.065	20583
803.208	20545
803.35	20796
803.492	20678
803.635	20823
803.777	20575
803.919	20663
804.061	20937
804.204	20682
804.346	20621
804.488	20552
804.63	20533
804.773	20389
804.915	20575
805.057	20549
805.199	20461
805.341	20488
805.483	20537
805.626	20499
805.768	20560
805.91	20446
806.052	20632
806.194	20358
806.336	20651
806.478	20438
806.62	20552
806.762	20549
806.904	20731
807.046	20868
807.188	20842
807.33	20746
807.472	20842
807.614	20674
807.756	20731
807.898	20602
808.04	20530
808.182	20602
808.324	20617
808.465	20651
808.607	20842
808.749	20918
808.891	20948
809.033	20918
809.174	20941
809.316	20838
809.458	20819
809.6	20838
809.741	20834
809.883	20906
810.025	21032
810.166	20956
810.308	21020
810.45	20861
810.591	20868
810.733	20697
810.875	20655
811.016	20579
811.158	20518
811.299	20545
811.441	20811
811.582	20750
811.724	20526
811.865	20533
812.007	20560
812.148	20746
812.29	20613
812.431	20785
812.573	20823
812.714	21051
812.855	21150
812.997	21211
813.138	21264
813.279	21230
813.421	21135
813.562	21138
813.703	21001
813.845	20769
813.986	20415
814.127	20309
814.268	20168
814.41	20256
814.551	20240
814.692	20202
814.833	20164
814.974	20145
815.115	20229
815.256	20073
815.397	20081
815.539	20005
815.68	19917
815.821	19769
815.962	19826
816.103	19803
816.244	19635
816.385	19605
816.526	19582
816.666	19480
816.807	19343
816.948	19506
817.089	19346
817.23	19362
817.371	19297
817.512	19377
817.653	19228
817.793	19259
817.934	19194
818.075	19247
818.216	19270
818.356	19301
818.497	19114
818.638	18962
818.778	18901
818.919	18977
819.06	18989
819.2	19099
819.341	19126
819.481	19148
819.622	19354
819.762	19468
819.903	19365
820.043	19419
820.184	19137
820.324	19213
820.465	19293
820.605	19282
820.746	19156
820.886	19050
821.026	19301
821.167	19110
821.307	19266
821.447	19297
821.588	19065
821.728	18985
821.868	18814
822.008	18722
822.149	18703
822.289	18669
822.429	18327
822.569	18338
822.709	18395
822.849	18060
822.99	18106
823.13	18140
823.27	18083
823.41	18007
823.55	18022
823.69	18110
823.83	17980
823.97	17954
824.11	17775
824.25	17726
824.389	17809
824.529	17809
824.669	17783
824.809	17802
824.949	17889
825.089	17809
825.228	17722
825.368	17535
825.508	17543
825.648	17589
825.787	17478
825.927	17573
826.067	17478
826.206	17505
826.346	17573
826.485	17490
826.625	17570
826.765	17649
826.904	17630
827.044	17322
827.183	17242
827.323	17121
827.462	17277
827.601	17303
827.741	17227
827.88	17170
828.02	17166
828.159	17231
828.298	17231
828.437	17258
828.577	17261
828.716	17429
828.855	17105
828.994	17014
829.134	16938
829.273	17064
829.412	16987
829.551	16854
829.69	16869
829.829	17102
829.968	17060
830.107	17037
830.246	17048
830.385	16892
830.524	16900
830.663	16877
830.802	16748
830.941	16542
831.08	16611
831.219	16816
831.357	16687
831.496	16812
831.635	16554
831.774	16577
831.913	16424
832.051	16478
832.19	16382
832.329	16409
832.467	16284
832.606	16265
832.744	16226
832.883	16261
833.022	16371
833.16	16303
833.299	16284
833.437	16413
833.576	16402
833.714	16360
833.852	16352
833.991	16398
834.129	16447
834.267	16470
834.406	16375
834.544	16352
834.682	16371
834.821	16325
834.959	16542
835.097	16356
835.235	16440
835.373	16341
835.511	16428
835.65	16394
835.788	16280
835.926	16086
836.064	16074
836.202	15937
836.34	16268
836.478	16363
836.615	16238
836.753	16348
836.891	16272
837.029	16413
837.167	16310
837.305	16219
837.443	16192
837.58	16128
837.718	16253
837.856	16120
837.993	16162
838.131	16055
838.269	16090
838.406	16051
838.544	16040
838.681	15857
838.819	15873
838.956	15728
839.094	15717
839.231	15838
839.369	15964
839.506	16105
839.643	15922
839.781	15717
839.918	15762
840.055	15789
840.193	15717
840.33	15610
840.467	15781
840.604	15732
840.742	15983
840.879	15519
841.016	15660
841.153	15534
841.29	15816
841.427	15774
841.564	15690
841.701	15751
841.838	15701
841.975	15580
842.112	15587
842.249	15515
842.385	15561
842.522	15660
842.659	15405
842.796	15454
842.933	15450
843.069	15466
843.206	15466
843.343	15652
843.479	15542
843.616	15500
843.752	15317
843.889	15283
844.025	15405
844.162	15306
844.298	15416
844.435	15264
844.571	15245
844.708	15408
844.844	15424
844.98	15405
845.117	15351
845.253	15226
845.389	15131
845.525	15268
845.661	15218
845.798	15081
845.934	15066
846.07	15005
846.206	15157
846.342	15214
846.478	15028
846.614	14906
846.75	14796
846.886	14853
847.022	14826
847.158	14853
847.294	14956
847.429	14842
847.565	14811
847.701	15161
847.837	14613
847.972	14511
848.108	14716
848.244	14655
848.379	14575
848.515	14396
848.65	14492
848.786	14450
848.921	14556
849.057	14640
849.192	14579
849.328	14469
849.463	14552
849.598	14526
849.734	14351
849.869	14415
850.004	14248
850.14	14286
850.275	14221
850.41	14149
850.545	14107
850.68	14157
850.815	14317
850.95	14237
851.085	14400
851.22	14259
851.355	14290
851.49	14092
851.625	14214
851.76	14126
851.895	14088
852.03	14054
852.165	14240
852.299	14259
852.434	14290
852.569	14267
852.703	14187
852.838	14286
852.973	14370
853.107	14320
853.242	14199
853.376	14206
853.511	14054
853.645	14031
853.78	14225
853.914	14130
854.048	14107
854.183	14111
854.317	14088
854.451	14248
854.585	14115
854.72	14126
854.854	14161
854.988	14088
855.122	14126
855.256	13902
855.39	14126
855.524	14210
855.658	14065
855.792	14100
855.926	14130
856.06	14180
856.194	14191
856.327	14138
856.461	14100
856.595	14020
856.729	14123
856.862	14233
856.996	14096
857.13	14218
857.263	14229
857.397	14278
857.53	14145
857.664	14100
857.797	14145
857.931	14191
858.064	14168
858.197	14225
858.331	14016
858.464	14077
858.597	13909
858.731	14130
858.864	14054
858.997	14005
859.13	14126
859.263	14103
859.396	14138
859.529	14111
859.662	14088
859.795	14069
859.928	14149
860.061	14218
860.194	14309
860.327	14164
860.46	14221
860.592	14244
860.725	14248
860.858	14142
860.99	14050
861.123	13974
861.256	14069
861.388	14100
861.521	14792
861.653	13970
861.786	13902
861.918	14001
862.05	14005
862.183	14065
862.315	14081
862.447	14142
862.58	14024
862.712	13906
862.844	13875
862.976	13993
863.108	13932
863.24	14404
863.372	13746
863.504	13883
863.636	13947
863.768	13963
863.9	13902
864.032	13833
864.164	13833
864.296	13883
864.428	13890
864.559	13913
864.691	13951
864.823	14001
864.954	13932
865.086	13906
865.217	13826
865.349	13822
865.48	13974
865.612	13864
865.743	14119
865.875	13913
866.006	13868
866.137	13852
866.269	13845
866.4	13902
866.531	13898
866.662	13795
866.793	13803
866.924	13864
867.055	13822
867.186	13852
867.317	13890
867.448	13719
867.579	13887
867.71	13776
867.841	13799
867.972	13852
868.103	13814
868.233	13894
868.364	13837
868.495	13932
868.625	14058
868.756	14225
868.886	13997
869.017	14153
869.147	14126
869.278	14252
869.408	14115
869.539	14161
869.669	14107
869.799	14119
869.929	14286
870.06	14168
870.19	14431
870.32	14343
870.45	14511
870.58	14488
870.71	14552
870.84	14689
870.97	14492
871.1	14427
871.23	14724
871.36	14731
871.489	14568
871.619	14644
871.749	14765
871.879	14739
872.008	14834
872.138	14735
872.267	14712
872.397	14545
872.526	14583
872.656	14617
872.785	14625
872.915	14792
873.044	14819
873.173	14762
873.303	14750
873.432	14853
873.561	14864
873.69	14834
873.819	14800
873.948	14849
874.077	14811
874.206	14758
874.335	14769
874.464	15024
874.593	15028
874.722	14998
874.851	15123
874.979	15119
875.108	15127
875.237	15058
875.365	15009
875.494	15070
875.623	15230
875.751	15009
875.88	15100
876.008	15207
876.136	15294
876.265	15545
876.393	15663
876.521	15572
876.65	15667
876.778	15580
876.906	15469
877.034	15515
877.162	15416
877.29	15500
877.418	15466
877.546	15530
877.674	15561
877.802	15450
877.93	15542
878.058	15473
878.185	15378
878.313	15561
878.441	15469
878.568	15359
878.696	15450
878.824	15454
878.951	15523
879.079	15739
879.206	15915
879.333	15739
879.461	15629
879.588	15610
879.715	15675
879.842	15724
879.97	15564
880.097	15363
880.224	15332
880.351	15374
880.478	15416
880.605	15294
880.732	15252
880.859	15618
880.986	15412
881.112	15283
881.239	15180
881.366	15165
881.493	15024
881.619	15039
881.746	14963
881.872	15009
881.999	15116
882.125	14990
882.252	15051
882.378	15070
882.505	15066
882.631	15005
882.757	14895
882.883	14899
883.01	14845
883.136	14746
883.262	14678
883.388	14644
883.514	14834
883.64	14899
883.766	14708
883.892	14629
884.018	14758
884.143	14815
884.269	14986
884.395	14659
884.52	14484
884.646	14590
884.772	14549
884.897	14377
885.023	14606
885.148	14670
885.274	14697
885.399	14636
885.524	14621
885.65	14526
885.775	14621
885.9	14568
886.025	14678
886.15	14617
886.275	14507
886.4	14457
886.525	14473
886.65	14454
886.775	14511
886.9	14697
887.025	14826
887.149	14541
887.274	14381
887.399	14339
887.523	14317
887.648	14244
887.773	14351
887.897	14499
888.021	14473
888.146	14252
888.27	14473
888.395	14522
888.519	14374
888.643	14431
888.767	14446
888.891	14282
889.015	14225
889.139	14336
889.263	14248
889.387	14347
889.511	14480
889.635	14476
889.759	14259
889.883	14240
890.006	14282
890.13	14305
890.254	14142
890.377	14206
890.501	14092
890.624	13989
890.748	14123
890.871	14096
890.995	13894
891.118	13909
891.241	13955
891.364	13986
891.488	14069
891.611	13993
891.734	13864
891.857	14016
891.98	14020
892.103	13974
892.226	13974
892.349	13959
892.471	13841
892.594	13860
892.717	13902
892.839	13932
892.962	14024
893.085	14054
893.207	13970
893.33	13913
893.452	13959
893.575	14054
893.697	14012
893.819	14149
893.941	14092
894.064	14107
894.186	13887
894.308	13921
894.43	14012
894.552	14195
894.674	14092
894.796	13921
894.918	13982
895.04	13997
895.161	14161
895.283	13982
895.405	14016
895.526	14001
895.648	14020
895.769	14024
895.891	14138
896.012	14103
896.134	14237
896.255	14050
896.376	13967
896.498	14088
896.619	14183
896.74	14210
896.861	14180
896.982	14389
897.103	14629
897.224	14499
897.345	14263
897.466	14377
897.587	14400
897.708	14476
897.828	14415
897.949	14339
898.07	14339
898.19	14252
898.311	14598
898.431	14412
898.552	14484
898.672	14610
898.792	14530
898.913	14442
899.033	14419
899.153	14309
899.273	14263
899.393	14301
899.513	14336
899.633	14461
899.753	14339
899.873	14305
899.993	14343
900.113	14305
900.232	14298
900.352	14317
900.472	14206
900.591	14153
900.711	14191
900.83	14164
900.95	14256
901.069	14248
901.189	14145
901.308	13993
901.427	13871
901.546	13864
901.665	13883
901.784	13970
901.904	13689
902.023	13597
902.141	13521
902.26	13438
902.379	13563
902.498	13400
902.617	13327
902.735	13464
902.854	13453
902.973	13403
903.091	13255
903.21	13171
903.328	13160
903.446	13145
903.565	12977
903.683	12993
903.801	13015
903.919	13000
904.038	12890
904.156	12837
904.274	13012
904.392	12787
904.51	12722
904.627	12791
904.745	12913
904.863	12817
904.981	12601
905.098	12452
905.216	12521
905.334	12589
905.451	12582
905.569	12494
905.686	12631
905.803	12490
905.921	12448
906.038	12509
906.155	12308
906.272	12220
906.389	12327
906.506	12194
906.623	12148
906.74	12110
906.857	11931
906.974	12041
907.091	12258
907.208	12289
907.324	12148
907.441	12079
907.557	11882
907.674	11954
907.79	11779
907.907	11866
908.023	11870
908.139	11851
908.256	11893
908.372	11786
908.488	11836
908.604	11657
908.72	11627
908.836	11570
908.952	11573
909.068	11623
909.184	11779
909.3	11592
909.415	11535
909.531	11627
909.647	11387
909.762	11402
909.878	11311
909.993	11417
910.108	11410
910.224	11326
910.339	11501
910.454	11326
910.57	11292
910.685	11181
910.8	11554
910.915	11395
911.03	11315
911.145	11216
911.259	11090
911.374	11071
911.489	11018
911.604	10976
911.718	10831
911.833	10854
911.947	10858
912.062	10698
912.176	10843
912.291	10866
912.405	10873
912.519	11006
912.633	11128
912.748	10896
912.862	10915
912.976	10786
913.09	10561
913.204	10637
913.318	10843
913.431	10782
913.545	10889
913.659	10915
913.772	10771
913.886	10668
914	10542
914.113	10668
914.226	10850
914.34	10771
914.453	10500
914.566	10702
914.68	10634
914.793	10615
914.906	10459
915.019	10291
915.132	10257
915.245	10363
915.358	10371
915.47	10363
915.583	10371
915.696	10443
915.809	10504
915.921	10481
916.034	10402
916.146	10375
916.259	10295
916.371	10481
916.483	10382
916.595	10249
916.708	10318
916.82	10295
916.932	10280
917.044	10295
917.156	10363
917.268	10139
917.38	10215
917.491	10154
917.603	10341
917.715	10318
917.826	10299
917.938	10204
918.049	10029
918.161	10188
918.272	10310
918.384	10291
918.495	10230
918.606	10109
918.717	10002
918.828	10040
918.939	10116
919.05	9983
919.161	10044
919.272	9888
919.383	9968
919.494	10128
919.604	10287
919.715	10128
919.826	10086
919.936	10017
920.047	10135
920.157	10162
920.267	10295
920.378	10128
920.488	10109
920.598	10329
920.708	10390
920.818	10280
920.928	10284
921.038	10523
921.148	10508
921.258	10128
921.368	10029
921.477	9975
921.587	10010
921.697	9926
921.806	10051
921.916	9880
922.025	9705
922.134	9701
922.244	9648
922.353	9736
922.462	9587
922.571	9511
922.68	9294
922.789	9370
922.898	9412
923.007	9302
923.116	9496
923.224	9329
923.333	9313
923.442	9272
923.55	9195
923.659	9283
923.767	9431
923.876	9237
923.984	9321
924.092	9176
924.201	9313
924.309	9192
924.417	9260
924.525	9199
924.633	9230
924.741	10154
924.849	9005
924.956	9264
925.064	9085
925.172	8998
925.279	9013
925.387	9127
925.494	9085
925.602	9249
925.709	9169
925.816	8994
925.924	9081
926.031	9142
926.138	9039
926.245	9135
926.352	8933
926.459	9123
926.566	9184
926.673	9001
926.779	8975
926.886	8925
926.993	8746
927.099	8842
927.206	8766
927.312	8773
927.419	8792
927.525	8819
927.631	8899
927.737	8743
927.843	8689
927.95	8606
928.056	8670
928.162	8712
928.267	8777
928.373	9203
928.479	8823
928.585	8606
928.69	8632
928.796	8667
928.901	8556
929.007	8537
929.112	8594
929.218	8590
929.323	8530
929.428	8492
929.533	8575
929.638	8492
929.743	8476
929.848	8526
929.953	8533
930.058	8393
930.163	8244
930.267	8317
930.372	8370
930.477	8229
930.581	8492
930.685	8389
930.79	8267
930.894	8240
930.998	8233
931.103	8370
931.207	8100
931.311	7978
931.415	7818
931.519	7776
931.623	7727
