Data from test_V78500241_803.txt Node
Date: Fri Mar 25 14:39:18 CST 2022
User: usil
Spectrometer: V785-0024
Trigger mode: 0
Integration Time (sec): 4.000000E-1
Scans to average: 1
Nonlinearity correction enabled: false
Boxcar width: 0
Storing dark spectrum: false
XAxis mode: Wavelengths
Number of Pixels in Spectrum: 1024
>>>>>Begin Spectral Data<<<<<
801.071	26362
801.214	26343
801.356	26035
801.499	25963
801.641	25868
801.783	25750
801.926	25715
802.068	25822
802.211	25575
802.353	25639
802.496	25476
802.638	25263
802.78	25221
802.923	25297
803.065	25179
803.208	25255
803.35	25289
803.492	25297
803.635	25419
803.777	25259
803.919	25411
804.061	25685
804.204	25514
804.346	25396
804.488	25419
804.63	25422
804.773	25304
804.915	25518
805.057	25693
805.199	25521
805.341	25849
805.483	25822
805.626	25776
805.768	25849
805.91	25978
806.052	26084
806.194	26138
806.336	26492
806.478	26320
806.62	26617
806.762	26823
806.904	27131
807.046	27652
807.188	27800
807.33	28086
807.472	28618
807.614	29048
807.756	29786
807.898	30726
808.04	31803
808.182	33587
808.324	35433
808.465	37974
808.607	40596
808.749	42909
808.891	44313
809.033	44404
809.174	42977
809.316	40649
809.458	38119
809.6	35193
809.741	33127
809.883	31457
810.025	30247
810.166	29455
810.308	28828
810.45	28280
810.591	27907
810.733	27416
810.875	27180
811.016	26758
811.158	26697
811.299	26785
811.441	26609
811.582	26533
811.724	26199
811.865	26180
812.007	26054
812.148	26111
812.29	25959
812.431	26115
812.573	26161
812.714	26347
812.855	26244
812.997	26328
813.138	26450
813.279	26389
813.421	26263
813.562	26043
813.703	25944
813.845	25791
813.986	25327
814.127	25194
814.268	25084
814.41	25008
814.551	24871
814.692	25179
814.833	24878
814.974	24817
815.115	24943
815.256	24787
815.397	24616
815.539	24688
815.68	24776
815.821	24654
815.962	24642
816.103	24574
816.244	24418
816.385	24334
816.526	24209
816.666	23939
816.807	23859
816.948	23999
817.089	23939
817.23	23897
817.371	23828
817.512	23851
817.653	23779
817.793	23866
817.934	23904
818.075	23748
818.216	23843
818.356	23771
818.497	23653
818.638	23425
818.778	23649
818.919	23433
819.06	23554
819.2	23509
819.341	23710
819.481	23805
819.622	23908
819.762	23912
819.903	23897
820.043	23847
820.184	23863
820.324	23672
820.465	23748
820.605	23649
820.746	23672
820.886	23516
821.026	23771
821.167	23531
821.307	23619
821.447	23539
821.588	23528
821.728	23315
821.868	22991
822.008	22957
822.149	23037
822.289	22953
822.429	22721
822.569	22573
822.709	22733
822.849	22375
822.99	22360
823.13	22447
823.27	22402
823.41	22135
823.55	22261
823.69	22242
823.83	22207
823.97	22128
824.11	22013
824.25	22017
824.389	21934
824.529	22078
824.669	21960
824.809	22059
824.949	21960
825.089	22154
825.228	21960
825.368	21766
825.508	21804
825.648	21979
825.787	21816
825.927	21720
826.067	21717
826.206	21698
826.346	21823
826.485	21770
826.625	21713
826.765	21804
826.904	21800
827.044	21599
827.183	21466
827.323	21374
827.462	21515
827.601	21443
827.741	21500
827.88	21302
828.02	21275
828.159	21393
828.298	21462
828.437	21367
828.577	21378
828.716	21557
828.855	21310
828.994	21058
829.134	21058
829.273	21192
829.412	21142
829.551	20986
829.69	21074
829.829	21096
829.968	21150
830.107	21188
830.246	21135
830.385	21013
830.524	20998
830.663	20826
830.802	20785
830.941	20659
831.08	20693
831.219	20682
831.357	20648
831.496	20990
831.635	20705
831.774	20674
831.913	20644
832.051	20427
832.19	20507
832.329	20450
832.467	20469
832.606	20469
832.744	20438
832.883	20549
833.022	20613
833.16	20724
833.299	20731
833.437	20845
833.576	21039
833.714	21104
833.852	21241
833.991	21416
834.129	21439
834.267	21557
834.406	21393
834.544	21287
834.682	21165
834.821	21089
834.959	21131
835.097	20838
835.235	20956
835.373	20868
835.511	20705
835.65	20522
835.788	20598
835.926	20317
836.064	20191
836.202	20161
836.34	20351
836.478	20419
836.615	20187
836.753	20355
836.891	20282
837.029	20320
837.167	20157
837.305	20058
837.443	20138
837.58	20073
837.718	20058
837.856	20100
837.993	20012
838.131	20020
838.269	19860
838.406	19925
838.544	19822
838.681	19681
838.819	19582
838.956	19548
839.094	19384
839.231	19506
839.369	19559
839.506	19803
839.643	19708
839.781	19537
839.918	19491
840.055	19533
840.193	19468
840.33	19381
840.467	19320
840.604	19495
840.742	19666
840.879	19358
841.016	19388
841.153	19422
841.29	19567
841.427	19540
841.564	19396
841.701	19426
841.838	19346
841.975	19373
842.112	19403
842.249	19331
842.385	19156
842.522	19445
842.659	19213
842.796	19274
842.933	19331
843.069	19270
843.206	19327
843.343	19358
843.479	19365
843.616	19343
843.752	19331
843.889	19217
844.025	19445
844.162	19354
844.298	19499
844.435	19563
844.571	19620
844.708	19940
844.844	20343
844.98	20609
845.117	21017
845.253	21766
845.389	23151
845.525	25944
845.661	30330
845.798	35843
845.934	39945
846.07	41627
846.206	40641
846.342	37004
846.478	31799
846.614	26857
846.75	23859
846.886	21918
847.022	20925
847.158	20134
847.294	19662
847.429	19468
847.565	19209
847.701	19312
847.837	18700
847.972	18620
848.108	18661
848.244	18658
848.379	18437
848.515	18270
848.65	18235
848.786	18224
848.921	18163
849.057	18304
849.192	18300
849.328	18315
849.463	18197
849.598	18194
849.734	18098
849.869	18049
850.004	17969
850.14	18038
850.275	17980
850.41	17771
850.545	17958
850.68	17783
850.815	17912
850.95	17954
851.085	18140
851.22	17961
851.355	17931
851.49	17821
851.625	17866
851.76	17882
851.895	17836
852.03	17703
852.165	17904
852.299	17889
852.434	17965
852.569	17920
852.703	17942
852.838	17992
852.973	18102
853.107	18144
853.242	17923
853.376	17817
853.511	17798
853.645	17908
853.78	18049
853.914	18110
854.048	18125
854.183	17977
854.317	18167
854.451	18247
854.585	18057
854.72	18011
854.854	18205
854.988	17916
855.122	17855
855.256	17904
855.39	17920
855.524	17950
855.658	17969
855.792	17843
855.926	17893
856.06	17984
856.194	17920
856.327	17729
856.461	17722
856.595	17710
856.729	17817
856.862	17779
856.996	17695
857.13	17847
857.263	17851
857.397	17878
857.53	17676
857.664	17665
857.797	17813
857.931	17889
858.064	17733
858.197	17824
858.331	17676
858.464	17642
858.597	17497
858.731	17653
858.864	17752
858.997	17687
859.13	17562
859.263	17691
859.396	17729
859.529	17577
859.662	17600
859.795	17615
859.928	17718
860.061	17760
860.194	17882
860.327	17676
860.46	17676
860.592	17710
860.725	17824
860.858	17707
860.99	17581
861.123	17493
861.256	17516
861.388	17668
861.521	18140
861.653	17493
861.786	17364
861.918	17474
862.05	17608
862.183	17490
862.315	17615
862.447	17516
862.58	17520
862.712	17398
862.844	17311
862.976	17288
863.108	17337
863.24	17817
863.372	17273
863.504	17425
863.636	17353
863.768	17311
863.9	17364
864.032	17269
864.164	17098
864.296	17235
864.428	17398
864.559	17341
864.691	17311
864.823	17368
864.954	17296
865.086	17292
865.217	17239
865.349	17083
865.48	17166
865.612	17311
865.743	17376
865.875	17265
866.006	17254
866.137	17254
866.269	17273
866.4	17185
866.531	17185
866.662	17197
866.793	17155
866.924	17178
867.055	17372
867.186	17197
867.317	17193
867.448	17140
867.579	17242
867.71	17094
867.841	17094
867.972	17269
868.103	17185
868.233	17208
868.364	17136
868.495	17398
868.625	17482
868.756	17414
868.886	17436
869.017	17592
869.147	17642
869.278	17592
869.408	17501
869.539	17524
869.669	17463
869.799	17543
869.929	17691
870.06	17589
870.19	17832
870.32	17748
870.45	17851
870.58	17904
870.71	17980
870.84	17908
870.97	17878
871.1	17965
871.23	18121
871.36	17988
871.489	18007
871.619	18060
871.749	18117
871.879	18194
872.008	18285
872.138	18140
872.267	18281
872.397	18144
872.526	18030
872.656	18068
872.785	18053
872.915	18342
873.044	18338
873.173	18266
873.303	18384
873.432	18369
873.561	18452
873.69	18479
873.819	18429
873.948	18486
874.077	18475
874.206	18418
874.335	18483
874.464	18608
874.593	18821
874.722	18669
874.851	18848
874.979	18916
875.108	18932
875.237	18924
875.365	18878
875.494	18985
875.623	19110
875.751	18993
875.88	19168
876.008	19122
876.136	19297
876.265	19556
876.393	19731
876.521	19563
876.65	19742
876.778	19628
876.906	19723
877.034	19742
877.162	19753
877.29	19909
877.418	20027
877.546	20134
877.674	20058
877.802	20309
877.93	20404
878.058	20526
878.185	20594
878.313	20785
878.441	21142
878.568	21329
878.696	21857
878.824	22497
878.951	23421
879.079	24673
879.206	26301
879.333	27914
879.461	29261
879.588	30228
879.715	30155
879.842	29535
879.97	27892
880.097	26229
880.224	24783
880.351	23889
880.478	23227
880.605	22828
880.732	22485
880.859	22413
880.986	22109
881.112	22120
881.239	21983
881.366	21705
881.493	21793
881.619	21614
881.746	21778
881.872	21660
881.999	21717
882.125	21641
882.252	21915
882.378	21861
882.505	21979
882.631	21751
882.757	21671
882.883	21800
883.01	21625
883.136	21724
883.262	21545
883.388	21477
883.514	21648
883.64	21675
883.766	21572
883.892	21408
884.018	21431
884.143	21698
884.269	21781
884.395	21359
884.52	21447
884.646	21393
884.772	21397
884.897	21264
885.023	21283
885.148	21439
885.274	21519
885.399	21302
885.524	21184
885.65	21077
885.775	21062
885.9	20826
886.025	20800
886.15	20560
886.275	20541
886.4	20317
886.525	20298
886.65	20214
886.775	20126
886.9	20164
887.025	20275
887.149	19883
887.274	19689
887.399	19605
887.523	19483
887.648	19331
887.773	19251
887.897	19384
888.021	19206
888.146	19137
888.27	19263
888.395	19206
888.519	19202
888.643	19057
888.767	18981
888.891	18833
889.015	18768
889.139	18776
889.263	18646
889.387	18661
889.511	18821
889.635	18738
889.759	18559
889.883	18536
890.006	18604
890.13	18578
890.254	18422
890.377	18334
890.501	18232
890.624	18232
890.748	18235
890.871	18106
890.995	18003
891.118	17901
891.241	17999
891.364	17965
891.488	18030
891.611	17821
891.734	17828
891.857	17798
891.98	17866
892.103	17882
892.226	17767
892.349	17710
892.471	17532
892.594	17604
892.717	17707
892.839	17608
892.962	17596
893.085	17627
893.207	17516
893.33	17463
893.452	17433
893.575	17600
893.697	17482
893.819	17627
893.941	17668
894.064	17551
894.186	17334
894.308	17345
894.43	17524
894.552	17520
894.674	17440
894.796	17265
894.918	17303
895.04	17254
895.161	17501
895.283	17440
895.405	17258
895.526	17315
895.648	17254
895.769	17269
895.891	17315
896.012	17246
896.134	17387
896.255	17223
896.376	17223
896.498	17303
896.619	17280
896.74	17208
896.861	17341
896.982	17543
897.103	17737
897.224	17524
897.345	17387
897.466	17360
897.587	17364
897.708	17505
897.828	17372
897.949	17429
898.07	17379
898.19	17280
898.311	17478
898.431	17364
898.552	17353
898.672	17501
898.792	17562
898.913	17440
899.033	17360
899.153	17246
899.273	17143
899.393	17113
899.513	17376
899.633	17254
899.753	17356
899.873	17261
899.993	17330
900.113	17185
900.232	17345
900.352	17086
900.472	17197
900.591	17041
900.711	17143
900.83	17041
900.95	17041
901.069	17185
901.189	16885
901.308	16854
901.427	16523
901.546	16687
901.665	16634
901.784	16599
901.904	16561
902.023	16470
902.141	16238
902.26	16150
902.379	16219
902.498	16109
902.617	16093
902.735	16181
902.854	16071
902.973	16051
903.091	15823
903.21	15789
903.328	15808
903.446	15705
903.565	15599
903.683	15595
903.801	15469
903.919	15599
904.038	15420
904.156	15420
904.274	15367
904.392	15336
904.51	15249
904.627	15325
904.745	15367
904.863	15332
904.981	15188
905.098	14963
905.216	15005
905.334	15024
905.451	15001
905.569	14952
905.686	14944
905.803	15032
905.921	14845
906.038	14941
906.155	14792
906.272	14682
906.389	14659
906.506	14613
906.623	14575
906.74	14514
906.857	14450
906.974	14358
907.091	14568
907.208	14629
907.324	14495
907.441	14522
907.557	14305
907.674	14263
907.79	14119
907.907	14240
908.023	14313
908.139	14385
908.256	14142
908.372	14164
908.488	14168
908.604	14043
908.72	14126
908.836	14005
908.952	13925
909.068	14050
909.184	14142
909.3	13974
909.415	13967
909.531	13955
909.647	13799
909.762	13727
909.878	13727
909.993	13757
910.108	13689
910.224	13693
910.339	13689
910.454	13605
910.57	13647
910.685	13464
910.8	13780
910.915	13651
911.03	13487
911.145	13369
911.259	13335
911.374	13381
911.489	13331
911.604	13251
911.718	13084
911.833	13194
911.947	12935
912.062	12989
912.176	12989
912.291	13171
912.405	13091
912.519	13285
912.633	13297
912.748	13126
912.862	13080
912.976	12977
913.09	12814
913.204	12848
913.318	12920
913.431	13027
913.545	12901
913.659	13042
913.772	12920
913.886	12863
914	12791
914.113	12894
914.226	12947
914.34	12875
914.453	12776
914.566	12863
914.68	12719
914.793	12722
914.906	12597
915.019	12517
915.132	12460
915.245	12456
915.358	12551
915.47	12563
915.583	12604
915.696	12570
915.809	12650
915.921	12642
916.034	12532
916.146	12490
916.259	12445
916.371	12593
916.483	12494
916.595	12391
916.708	12448
916.82	12551
916.932	12448
917.044	12490
917.156	12300
917.268	12361
917.38	12311
917.491	12281
917.603	12239
917.715	12414
917.826	12380
917.938	12239
918.049	12159
918.161	12228
918.272	12384
918.384	12429
918.495	12247
918.606	12053
918.717	12125
918.828	12125
918.939	12079
919.05	11977
919.161	12106
919.272	11821
919.383	11923
919.494	12121
919.604	12292
919.715	12102
919.826	11973
919.936	12064
920.047	12136
920.157	12041
920.267	12311
920.378	11988
920.488	12045
920.598	12209
920.708	12346
920.818	12209
920.928	12224
921.038	12445
921.148	12323
921.258	12133
921.368	11965
921.477	11939
921.587	11771
921.697	11737
921.806	11870
921.916	11691
922.025	11604
922.134	11608
922.244	11490
922.353	11547
922.462	11459
922.571	11337
922.68	11193
922.789	11250
922.898	11212
923.007	11109
923.116	11189
923.224	11143
923.333	11170
923.442	11086
923.55	11105
923.659	11090
923.767	11121
923.876	10995
923.984	11124
924.092	10949
924.201	11003
924.309	10946
924.417	11022
924.525	10946
924.633	10995
924.741	11893
924.849	10729
924.956	10892
925.064	10706
925.172	10668
925.279	10774
925.387	10801
925.494	10889
925.602	10809
925.709	10801
925.816	10656
925.924	10694
926.031	10816
926.138	10755
926.245	10721
926.352	10691
926.459	10744
926.566	10831
926.673	10664
926.779	10569
926.886	10599
926.993	10409
927.099	10478
927.206	10322
927.312	10337
927.419	10512
927.525	10432
927.631	10459
927.737	10382
927.843	10348
927.95	10173
928.056	10261
928.162	10238
928.267	10306
928.373	10923
928.479	10367
928.585	10154
928.69	10227
928.796	10276
928.901	10249
929.007	10006
929.112	10227
929.218	10105
929.323	10093
929.428	10128
929.533	10086
929.638	9994
929.743	9987
929.848	10063
929.953	10082
930.058	9915
930.163	9816
930.267	9869
930.372	9869
930.477	9762
930.581	10051
930.685	9850
930.79	9705
930.894	9682
930.998	9713
931.103	9865
931.207	9553
931.311	9443
931.415	9306
931.519	9180
931.623	9161
