Data from test_V78500241_1490.txt Node
Date: Fri Mar 25 14:44:05 CST 2022
User: usil
Spectrometer: V785-0024
Trigger mode: 0
Integration Time (sec): 4.000000E-1
Scans to average: 1
Nonlinearity correction enabled: false
Boxcar width: 0
Storing dark spectrum: false
XAxis mode: Wavelengths
Number of Pixels in Spectrum: 1024
>>>>>Begin Spectral Data<<<<<
801.071	22432
801.214	22402
801.356	21983
801.499	21975
801.641	21720
801.783	21682
801.926	21846
802.068	21743
802.211	21580
802.353	21530
802.496	21367
802.638	21359
802.78	21268
802.923	21260
803.065	21116
803.208	21096
803.35	21199
803.492	21116
803.635	21169
803.777	21188
803.919	21154
804.061	21317
804.204	21142
804.346	21024
804.488	21051
804.63	21017
804.773	20979
804.915	21138
805.057	21085
805.199	20979
805.341	21104
805.483	21176
805.626	21146
805.768	21005
805.91	21047
806.052	21089
806.194	21001
806.336	21176
806.478	21093
806.62	21032
806.762	21154
806.904	21370
807.046	21466
807.188	21374
807.33	21351
807.472	21534
807.614	21264
807.756	21363
807.898	21291
808.04	21169
808.182	21275
808.324	21310
808.465	21237
808.607	21523
808.749	21660
808.891	21606
809.033	21823
809.174	21652
809.316	21663
809.458	21504
809.6	21458
809.741	21496
809.883	21591
810.025	21732
810.166	21751
810.308	21629
810.45	21557
810.591	21450
810.733	21485
810.875	21222
811.016	21112
811.158	21233
811.299	21275
811.441	21454
811.582	21351
811.724	21393
811.865	21131
812.007	21165
812.148	21112
812.29	21268
812.431	21450
812.573	21656
812.714	21736
812.855	21690
812.997	21899
813.138	21991
813.279	21846
813.421	21770
813.562	21789
813.703	21557
813.845	21393
813.986	21051
814.127	20952
814.268	20990
814.41	20819
814.551	20743
814.692	20845
814.833	20689
814.974	20720
815.115	20857
815.256	20674
815.397	20686
815.539	20629
815.68	20533
815.821	20533
815.962	20537
816.103	20518
816.244	20457
816.385	20233
816.526	20271
816.666	20073
816.807	19944
816.948	20020
817.089	20012
817.23	19932
817.371	19947
817.512	19856
817.653	20001
817.793	19894
817.934	19951
818.075	19955
818.216	19936
818.356	19864
818.497	19765
818.638	19571
818.778	19586
818.919	19616
819.06	19635
819.2	19811
819.341	19868
819.481	19803
819.622	19928
819.762	20008
819.903	20103
820.043	19982
820.184	19997
820.324	19875
820.465	19925
820.605	19921
820.746	19845
820.886	19818
821.026	19925
821.167	19887
821.307	19944
821.447	19875
821.588	19677
821.728	19605
821.868	19457
822.008	19350
822.149	19434
822.289	19316
822.429	19034
822.569	18951
822.709	19129
822.849	18821
822.99	18859
823.13	18814
823.27	18821
823.41	18650
823.55	18620
823.69	18673
823.83	18597
823.97	18574
824.11	18498
824.25	18376
824.389	18410
824.529	18304
824.669	18319
824.809	18479
824.949	18395
825.089	18445
825.228	18334
825.368	18194
825.508	18079
825.648	18232
825.787	18144
825.927	18338
826.067	18087
826.206	18117
826.346	18129
826.485	18174
826.625	18136
826.765	18254
826.904	18117
827.044	17885
827.183	17950
827.323	17878
827.462	17855
827.601	17828
827.741	17802
827.88	17882
828.02	17748
828.159	17790
828.298	17805
828.437	17897
828.577	17843
828.716	18076
828.855	17737
828.994	17615
829.134	17570
829.273	17676
829.412	17596
829.551	17532
829.69	17581
829.829	17589
829.968	17668
830.107	17665
830.246	17512
830.385	17532
830.524	17478
830.663	17452
830.802	17311
830.941	17151
831.08	17185
831.219	17170
831.357	17280
831.496	17341
831.635	17208
831.774	17151
831.913	17136
832.051	16987
832.19	17037
832.329	17094
832.467	16934
832.606	16835
832.744	16885
832.883	16908
833.022	16961
833.16	16942
833.299	16976
833.437	16953
833.576	16904
833.714	16896
833.852	16892
833.991	16869
834.129	17045
834.267	17003
834.406	16889
834.544	16976
834.682	17041
834.821	16915
834.959	17143
835.097	16938
835.235	17048
835.373	16915
835.511	16980
835.65	16862
835.788	16793
835.926	16809
836.064	16675
836.202	16683
836.34	16782
836.478	16949
836.615	16763
836.753	16824
836.891	16850
837.029	16911
837.167	16908
837.305	16774
837.443	16706
837.58	16698
837.718	16816
837.856	16725
837.993	16752
838.131	16721
838.269	16527
838.406	16649
838.544	16653
838.681	16379
838.819	16402
838.956	16109
839.094	16185
839.231	16318
839.369	16485
839.506	16561
839.643	16516
839.781	16299
839.918	16150
840.055	16150
840.193	16314
840.33	16196
840.467	16249
840.604	16246
840.742	16535
840.879	16109
841.016	16181
841.153	16135
841.29	16379
841.427	16306
841.564	16219
841.701	16177
841.838	16280
841.975	16169
842.112	16124
842.249	16082
842.385	16032
842.522	16135
842.659	15998
842.796	15960
842.933	16090
843.069	15991
843.206	15918
843.343	16112
843.479	15968
843.616	16071
843.752	15812
843.889	15835
844.025	15994
844.162	15789
844.298	15869
844.435	15854
844.571	15766
844.708	15797
844.844	15915
844.98	15960
845.117	15774
845.253	15816
845.389	15785
845.525	15861
845.661	15827
845.798	15739
845.934	15903
846.07	15778
846.206	15953
846.342	15880
846.478	15686
846.614	15458
846.75	15336
846.886	15420
847.022	15515
847.158	15325
847.294	15294
847.429	15401
847.565	15272
847.701	15549
847.837	15180
847.972	15157
848.108	15123
848.244	15055
848.379	15039
848.515	14986
848.65	14963
848.786	14956
848.921	14963
849.057	15028
849.192	15051
849.328	14960
849.463	15017
849.598	14994
849.734	14910
849.869	14781
850.004	14758
850.14	14830
850.275	14769
850.41	14613
850.545	14594
850.68	14606
850.815	14701
850.95	14655
851.085	14948
851.22	14762
851.355	14838
851.49	14705
851.625	14689
851.76	14701
851.895	14678
852.03	14625
852.165	14750
852.299	14788
852.434	14773
852.569	14678
852.703	14697
852.838	14739
852.973	14788
853.107	14845
853.242	14693
853.376	14492
853.511	14514
853.645	14590
853.78	14743
853.914	14613
854.048	14583
854.183	14533
854.317	14606
854.451	14731
854.585	14530
854.72	14560
854.854	14598
854.988	14541
855.122	14503
855.256	14450
855.39	14530
855.524	14693
855.658	14518
855.792	14579
855.926	14537
856.06	14663
856.194	14693
856.327	14705
856.461	14537
856.595	14511
856.729	14583
856.862	14739
856.996	14632
857.13	14659
857.263	14796
857.397	14678
857.53	14610
857.664	14632
857.797	14769
857.931	14746
858.064	14590
858.197	14838
858.331	14640
858.464	14492
858.597	14564
858.731	14613
858.864	14511
858.997	14568
859.13	14522
859.263	14682
859.396	14701
859.529	14590
859.662	14625
859.795	14533
859.928	14598
860.061	14754
860.194	14629
860.327	14575
860.46	14518
860.592	14689
860.725	14735
860.858	14724
860.99	14552
861.123	14419
861.256	14503
861.388	14590
861.521	15154
861.653	14488
861.786	14404
861.918	14499
862.05	14655
862.183	14610
862.315	14583
862.447	14655
862.58	14484
862.712	14290
862.844	14294
862.976	14404
863.108	14396
863.24	14826
863.372	14263
863.504	14305
863.636	14400
863.768	14358
863.9	14366
864.032	14374
864.164	14339
864.296	14381
864.428	14400
864.559	14343
864.691	14328
864.823	14412
864.954	14400
865.086	14404
865.217	14320
865.349	14271
865.48	14298
865.612	14370
865.743	14465
865.875	14298
866.006	14278
866.137	14393
866.269	14275
866.4	14286
866.531	14336
866.662	14252
866.793	14278
866.924	14358
867.055	14351
867.186	14320
867.317	14362
867.448	14248
867.579	14278
867.71	14252
867.841	14256
867.972	14294
868.103	14370
868.233	14336
868.364	14370
868.495	14450
868.625	14526
868.756	14716
868.886	14606
869.017	14583
869.147	14701
869.278	14762
869.408	14503
869.539	14549
869.669	14686
869.799	14549
869.929	14731
870.06	14663
870.19	14861
870.32	14906
870.45	14853
870.58	14921
870.71	15127
870.84	15116
870.97	14990
871.1	14963
871.23	15192
871.36	15188
871.489	15119
871.619	15127
871.749	15203
871.879	15161
872.008	15370
872.138	15157
872.267	15222
872.397	15116
872.526	14971
872.656	15039
872.785	15024
872.915	15230
873.044	15321
873.173	15230
873.303	15275
873.432	15230
873.561	15306
873.69	15260
873.819	15203
873.948	15230
874.077	15233
874.206	15154
874.335	15291
874.464	15359
874.593	15561
874.722	15412
874.851	15606
874.979	15603
875.108	15443
875.237	15408
875.365	15332
875.494	15454
875.623	15526
875.751	15538
875.88	15564
876.008	15736
876.136	15762
876.265	16055
876.393	16074
876.521	16105
876.65	16044
876.778	15899
876.906	15831
877.034	15915
877.162	15854
877.29	15930
877.418	15941
877.546	15892
877.674	15953
877.802	16029
877.93	15956
878.058	15934
878.185	15804
878.313	15956
878.441	15953
878.568	15892
878.696	15915
878.824	15972
878.951	16063
879.079	16261
879.206	16409
879.333	16253
879.461	16154
879.588	16219
879.715	16246
879.842	16291
879.97	16135
880.097	15846
880.224	15835
880.351	15846
880.478	15789
880.605	15831
880.732	15804
880.859	16086
880.986	15854
881.112	15804
881.239	15701
881.366	15606
881.493	15481
881.619	15462
881.746	15519
881.872	15492
881.999	15389
882.125	15378
882.252	15485
882.378	15591
882.505	15580
882.631	15435
882.757	15211
882.883	15317
883.01	15283
883.136	15291
883.262	15138
883.388	15043
883.514	15321
883.64	15325
883.766	15226
883.892	15062
884.018	15169
884.143	15306
884.269	15351
884.395	15077
884.52	15013
884.646	15020
884.772	14952
884.897	14800
885.023	15017
885.148	15032
885.274	15176
885.399	15138
885.524	14998
885.65	15039
885.775	14967
885.9	15024
886.025	15116
886.15	15100
886.275	15058
886.4	14864
886.525	14921
886.65	14811
886.775	14910
886.9	15112
887.025	15108
887.149	15028
887.274	14777
887.399	14842
887.523	14727
887.648	14765
887.773	14659
887.897	14979
888.021	14857
888.146	14731
888.27	14796
888.395	14990
888.519	14830
888.643	14845
888.767	14918
888.891	14750
889.015	14644
889.139	14739
889.263	14602
889.387	14777
889.511	14769
889.635	14746
889.759	14663
889.883	14594
890.006	14838
890.13	14792
890.254	14587
890.377	14625
890.501	14499
890.624	14469
890.748	14503
890.871	14366
890.995	14202
891.118	14263
891.241	14305
891.364	14366
891.488	14450
891.611	14351
891.734	14343
891.857	14412
891.98	14343
892.103	14404
892.226	14351
892.349	14374
892.471	14191
892.594	14290
892.717	14374
892.839	14332
892.962	14282
893.085	14385
893.207	14362
893.33	14252
893.452	14278
893.575	14358
893.697	14267
893.819	14446
893.941	14575
894.064	14488
894.186	14309
894.308	14313
894.43	14507
894.552	14579
894.674	14484
894.796	14328
894.918	14385
895.04	14339
895.161	14469
895.283	14457
895.405	14396
895.526	14374
895.648	14419
895.769	14488
895.891	14457
896.012	14606
896.134	14590
896.255	14587
896.376	14473
896.498	14499
896.619	14571
896.74	14473
896.861	14530
896.982	14815
897.103	14918
897.224	14830
897.345	14762
897.466	14758
897.587	14724
897.708	14845
897.828	14792
897.949	14758
898.07	14636
898.19	14670
898.311	14960
898.431	14899
898.552	14906
898.672	14891
898.792	14944
898.913	14914
899.033	14807
899.153	14845
899.273	14629
899.393	14705
899.513	14731
899.633	14663
899.753	14823
899.873	14769
899.993	14689
900.113	14689
900.232	14811
900.352	14663
900.472	14594
900.591	14552
900.711	14613
900.83	14514
900.95	14727
901.069	14750
901.189	14488
901.308	14290
901.427	14221
901.546	14233
901.665	14240
901.784	14305
901.904	14134
902.023	14001
902.141	13879
902.26	13795
902.379	13913
902.498	13788
902.617	13795
902.735	13814
902.854	13814
902.973	13738
903.091	13609
903.21	13590
903.328	13624
903.446	13392
903.565	13388
903.683	13449
903.801	13392
903.919	13373
904.038	13426
904.156	13228
904.274	13293
904.392	13183
904.51	13171
904.627	13217
904.745	13255
904.863	13289
904.981	13008
905.098	12905
905.216	12962
905.334	12890
905.451	12871
905.569	12802
905.686	12913
905.803	12916
905.921	12719
906.038	12779
906.155	12688
906.272	12662
906.389	12574
906.506	12456
906.623	12540
906.74	12547
906.857	12403
906.974	12372
907.091	12574
907.208	12608
907.324	12502
907.441	12422
907.557	12243
907.674	12178
907.79	12079
907.907	12171
908.023	12167
908.139	12220
908.256	12224
908.372	12098
908.488	12098
908.604	11939
908.72	11901
908.836	12011
908.952	11973
909.068	11988
909.184	11958
909.3	11969
909.415	12030
909.531	11935
909.647	11824
909.762	11733
909.878	11581
909.993	11718
910.108	11764
910.224	11729
910.339	11668
910.454	11577
910.57	11520
910.685	11558
910.8	11809
910.915	11714
911.03	11615
911.145	11414
911.259	11459
911.374	11383
911.489	11345
911.604	11269
911.718	11155
911.833	11155
911.947	11014
912.062	11025
912.176	11143
912.291	11174
912.405	11162
912.519	11334
912.633	11273
912.748	11277
912.862	11178
912.976	11086
913.09	10980
913.204	11041
913.318	11090
913.431	11189
913.545	11193
913.659	11246
913.772	11102
913.886	10923
914	10923
914.113	11052
914.226	11037
914.34	10942
914.453	10854
914.566	11052
914.68	10809
914.793	10812
914.906	10717
915.019	10649
915.132	10580
915.245	10710
915.358	10698
915.47	10683
915.583	10679
915.696	10755
915.809	10778
915.921	10824
916.034	10683
916.146	10626
916.259	10645
916.371	10630
916.483	10767
916.595	10618
916.708	10577
916.82	10554
916.932	10546
917.044	10664
917.156	10599
917.268	10379
917.38	10565
917.491	10409
917.603	10474
917.715	10645
917.826	10596
917.938	10478
918.049	10428
918.161	10459
918.272	10561
918.384	10584
918.495	10584
918.606	10405
918.717	10299
918.828	10379
918.939	10394
919.05	10242
919.161	10344
919.272	10185
919.383	10257
919.494	10394
919.604	10531
919.715	10341
919.826	10291
919.936	10417
920.047	10424
920.157	10299
920.267	10512
920.378	10409
920.488	10436
920.598	10573
920.708	10691
920.818	10565
920.928	10588
921.038	10687
921.148	10748
921.258	10489
921.368	10318
921.477	10227
921.587	10223
921.697	10063
921.806	10325
921.916	10128
922.025	9937
922.134	9934
922.244	9835
922.353	9960
922.462	9884
922.571	9804
922.68	9549
922.789	9603
922.898	9690
923.007	9644
923.116	9679
923.224	9656
923.333	9534
923.442	9545
923.55	9492
923.659	9477
923.767	9618
923.876	9523
923.984	9584
924.092	9393
924.201	9469
924.309	9530
924.417	9496
924.525	9462
924.633	9492
924.741	10428
924.849	9207
924.956	9466
925.064	9302
925.172	9294
925.279	9294
925.387	9260
925.494	9291
925.602	9450
925.709	9374
925.816	9249
925.924	9313
926.031	9355
926.138	9325
926.245	9302
926.352	9203
926.459	9359
926.566	9367
926.673	9313
926.779	9066
926.886	9077
926.993	9009
927.099	8990
927.206	8952
927.312	8914
927.419	9020
927.525	8948
927.631	9043
927.737	8925
927.843	8891
927.95	8758
928.056	8834
928.162	8941
928.267	8979
928.373	9580
928.479	8979
928.585	8777
928.69	8838
928.796	8952
928.901	8815
929.007	8731
929.112	8880
929.218	8788
929.323	8727
929.428	8735
929.533	8781
929.638	8602
929.743	8693
929.848	8712
929.953	8697
930.058	8590
930.163	8476
930.267	8434
930.372	8617
930.477	8446
930.581	8560
930.685	8526
930.79	8454
930.894	8423
930.998	8396
931.103	8476
931.207	8206
931.311	8191
931.415	8123
931.519	7902
931.623	7909
