Data from test_V78500241_3098.txt Node
Date: Fri Mar 25 14:55:17 CST 2022
User: usil
Spectrometer: V785-0024
Trigger mode: 0
Integration Time (sec): 4.000000E-1
Scans to average: 1
Nonlinearity correction enabled: false
Boxcar width: 0
Storing dark spectrum: false
XAxis mode: Wavelengths
Number of Pixels in Spectrum: 1024
>>>>>Begin Spectral Data<<<<<
801.071	22128
801.214	21861
801.356	21656
801.499	21572
801.641	21351
801.783	21408
801.926	21549
802.068	21428
802.211	21378
802.353	21256
802.496	21085
802.638	20929
802.78	20906
802.923	20739
803.065	20697
803.208	20670
803.35	20785
803.492	20804
803.635	20948
803.777	20705
803.919	20830
804.061	21096
804.204	20807
804.346	20659
804.488	20545
804.63	20701
804.773	20606
804.915	20724
805.057	20636
805.199	20686
805.341	20621
805.483	20708
805.626	20762
805.768	20731
805.91	20720
806.052	20727
806.194	20571
806.336	20838
806.478	20617
806.62	20602
806.762	20739
806.904	20872
807.046	21024
807.188	20918
807.33	20960
807.472	21058
807.614	20880
807.756	20872
807.898	20727
808.04	20697
808.182	20819
808.324	20811
808.465	20746
808.607	20842
808.749	21028
808.891	21176
809.033	21325
809.174	21074
809.316	21066
809.458	21009
809.6	20963
809.741	21104
809.883	21150
810.025	21245
810.166	21252
810.308	21302
810.45	21222
810.591	21112
810.733	20868
810.875	20887
811.016	20788
811.158	20678
811.299	20830
811.441	20971
811.582	20948
811.724	20773
811.865	20804
812.007	20853
812.148	20853
812.29	20849
812.431	21009
812.573	21176
812.714	21222
812.855	21420
812.997	21389
813.138	21401
813.279	21363
813.421	21268
813.562	21211
813.703	20956
813.845	20895
813.986	20670
814.127	20404
814.268	20507
814.41	20370
814.551	20442
814.692	20457
814.833	20332
814.974	20393
815.115	20396
815.256	20214
815.397	20221
815.539	20168
815.68	20016
815.821	20054
815.962	20107
816.103	20096
816.244	19875
816.385	19837
816.526	19799
816.666	19597
816.807	19495
816.948	19689
817.089	19670
817.23	19613
817.371	19464
817.512	19521
817.653	19430
817.793	19434
817.934	19525
818.075	19491
818.216	19518
818.356	19441
818.497	19339
818.638	19133
818.778	19141
818.919	19304
819.06	19156
819.2	19301
819.341	19400
819.481	19411
819.622	19575
819.762	19632
819.903	19605
820.043	19521
820.184	19468
820.324	19510
820.465	19537
820.605	19400
820.746	19457
820.886	19377
821.026	19388
821.167	19407
821.307	19518
821.447	19278
821.588	19232
821.728	19148
821.868	19038
822.008	18901
822.149	18886
822.289	18837
822.429	18631
822.569	18642
822.709	18563
822.849	18365
822.99	18342
823.13	18350
823.27	18414
823.41	18213
823.55	18194
823.69	18266
823.83	18346
823.97	18125
824.11	18019
824.25	17961
824.389	18003
824.529	18110
824.669	18011
824.809	18091
824.949	18076
825.089	18015
825.228	17904
825.368	17737
825.508	17714
825.648	17741
825.787	17821
825.927	17794
826.067	17737
826.206	17737
826.346	17657
826.485	17817
826.625	17756
826.765	17855
826.904	17779
827.044	17471
827.183	17520
827.323	17524
827.462	17478
827.601	17471
827.741	17421
827.88	17474
828.02	17353
828.159	17330
828.298	17436
828.437	17398
828.577	17387
828.716	17478
828.855	17296
828.994	17128
829.134	17181
829.273	17288
829.412	17166
829.551	17064
829.69	17075
829.829	17178
829.968	17208
830.107	17212
830.246	17341
830.385	17212
830.524	17090
830.663	16961
830.802	16885
830.941	16771
831.08	16675
831.219	16828
831.357	16908
831.496	17033
831.635	16710
831.774	16805
831.913	16630
832.051	16637
832.19	16565
832.329	16694
832.467	16436
832.606	16508
832.744	16451
832.883	16432
833.022	16421
833.16	16459
833.299	16451
833.437	16455
833.576	16535
833.714	16470
833.852	16538
833.991	16519
834.129	16550
834.267	16485
834.406	16516
834.544	16508
834.682	16470
834.821	16432
834.959	16816
835.097	16470
835.235	16664
835.373	16630
835.511	16603
835.65	16466
835.788	16421
835.926	16272
836.064	16219
836.202	16272
836.34	16531
836.478	16405
836.615	16344
836.753	16462
836.891	16497
837.029	16428
837.167	16470
837.305	16367
837.443	16223
837.58	16280
837.718	16276
837.856	16379
837.993	16249
838.131	16280
838.269	16154
838.406	16219
838.544	16128
838.681	16116
838.819	15945
838.956	15819
839.094	15846
839.231	15911
839.369	15975
839.506	16192
839.643	16128
839.781	15835
839.918	15804
840.055	15850
840.193	15800
840.33	15785
840.467	15823
840.604	15842
840.742	16086
840.879	15637
841.016	15728
841.153	15648
841.29	15949
841.427	15857
841.564	15789
841.701	15812
841.838	15759
841.975	15667
842.112	15766
842.249	15572
842.385	15542
842.522	15709
842.659	15618
842.796	15622
842.933	15686
843.069	15584
843.206	15572
843.343	15629
843.479	15606
843.616	15568
843.752	15397
843.889	15355
844.025	15553
844.162	15431
844.298	15542
844.435	15443
844.571	15386
844.708	15424
844.844	15568
844.98	15545
845.117	15405
845.253	15439
845.389	15389
845.525	15298
845.661	15428
845.798	15138
845.934	15256
846.07	15211
846.206	15222
846.342	15367
846.478	15211
846.614	14937
846.75	14963
846.886	14887
847.022	15051
847.158	14887
847.294	14929
847.429	15009
847.565	15028
847.701	15195
847.837	14686
847.972	14678
848.108	14880
848.244	14746
848.379	14594
848.515	14480
848.65	14549
848.786	14514
848.921	14518
849.057	14617
849.192	14648
849.328	14674
849.463	14575
849.598	14514
849.734	14469
849.869	14393
850.004	14362
850.14	14442
850.275	14400
850.41	14248
850.545	14263
850.68	14309
850.815	14240
850.95	14381
851.085	14552
851.22	14351
851.355	14400
851.49	14328
851.625	14267
851.76	14385
851.895	14282
852.03	14183
852.165	14305
852.299	14423
852.434	14473
852.569	14393
852.703	14290
852.838	14355
852.973	14415
853.107	14560
853.242	14332
853.376	14138
853.511	14054
853.645	14210
853.78	14328
853.914	14210
854.048	14092
854.183	14267
854.317	14149
854.451	14358
854.585	14149
854.72	14134
854.854	14240
854.988	14164
855.122	14180
855.256	14012
855.39	14164
855.524	14278
855.658	14244
855.792	14290
855.926	14199
856.06	14301
856.194	14351
856.327	14191
856.461	14088
856.595	14153
856.729	14176
856.862	14343
856.996	14393
857.13	14332
857.263	14294
857.397	14427
857.53	14202
857.664	14202
857.797	14370
857.931	14317
858.064	14149
858.197	14290
858.331	14176
858.464	14267
858.597	14145
858.731	14210
858.864	14123
858.997	14180
859.13	14214
859.263	14267
859.396	14244
859.529	14191
859.662	14138
859.795	14187
859.928	14168
860.061	14476
860.194	14301
860.327	14210
860.46	14221
860.592	14336
860.725	14396
860.858	14256
860.99	14142
861.123	14069
861.256	14043
861.388	14229
861.521	14925
861.653	14134
861.786	14035
861.918	14046
862.05	14111
862.183	14111
862.315	14134
862.447	14256
862.58	14145
862.712	13963
862.844	13959
862.976	14043
863.108	14050
863.24	14309
863.372	13883
863.504	14012
863.636	13898
863.768	14100
863.9	14005
864.032	13982
864.164	13917
864.296	14046
864.428	14050
864.559	13967
864.691	13989
864.823	13955
864.954	13955
865.086	13986
865.217	13967
865.349	13913
865.48	13982
865.612	13993
865.743	14001
865.875	14035
866.006	14039
866.137	13997
866.269	13986
866.4	14001
866.531	13921
866.662	13849
866.793	13906
866.924	13940
867.055	13974
867.186	13902
867.317	13967
867.448	13753
867.579	13852
867.71	13913
867.841	13849
867.972	14016
868.103	13860
868.233	14027
868.364	13871
868.495	14031
868.625	14142
868.756	14267
868.886	14138
869.017	14069
869.147	14244
869.278	14400
869.408	14263
869.539	14153
869.669	14244
869.799	14210
869.929	14400
870.06	14324
870.19	14549
870.32	14473
870.45	14571
870.58	14670
870.71	14682
870.84	14689
870.97	14560
871.1	14571
871.23	14796
871.36	14769
871.489	14724
871.619	14895
871.749	14815
871.879	14876
872.008	14960
872.138	14815
872.267	14678
872.397	14716
872.526	14716
872.656	14636
872.785	14590
872.915	14823
873.044	14842
873.173	14906
873.303	14902
873.432	14880
873.561	14918
873.69	14807
873.819	14883
873.948	14990
874.077	14849
874.206	14887
874.335	14914
874.464	15013
874.593	15093
874.722	15032
874.851	15211
874.979	15135
875.108	15268
875.237	15116
875.365	15093
875.494	15165
875.623	15211
875.751	15131
875.88	15207
876.008	15291
876.136	15424
876.265	15587
876.393	15713
876.521	15694
876.65	15705
876.778	15545
876.906	15568
877.034	15405
877.162	15500
877.29	15485
877.418	15576
877.546	15603
877.674	15534
877.802	15728
877.93	15591
878.058	15538
878.185	15500
878.313	15526
878.441	15610
878.568	15367
878.696	15591
878.824	15614
878.951	15629
879.079	15804
879.206	15857
879.333	15705
879.461	15629
879.588	15663
879.715	15762
879.842	15804
879.97	15694
880.097	15431
880.224	15443
880.351	15492
880.478	15428
880.605	15416
880.732	15397
880.859	15724
880.986	15458
881.112	15447
881.239	15325
881.366	15230
881.493	15150
881.619	15165
881.746	15123
881.872	15116
881.999	15138
882.125	15119
882.252	15127
882.378	15135
882.505	15260
882.631	15058
882.757	14971
882.883	15024
883.01	14944
883.136	14845
883.262	14815
883.388	14830
883.514	14982
883.64	14899
883.766	14845
883.892	14644
884.018	14731
884.143	14883
884.269	14971
884.395	14777
884.52	14571
884.646	14621
884.772	14560
884.897	14545
885.023	14621
885.148	14617
885.274	14735
885.399	14750
885.524	14613
885.65	14644
885.775	14705
885.9	14636
886.025	14735
886.15	14640
886.275	14598
886.4	14537
886.525	14564
886.65	14541
886.775	14492
886.9	14750
887.025	14899
887.149	14636
887.274	14415
887.399	14339
887.523	14431
887.648	14332
887.773	14434
887.897	14492
888.021	14431
888.146	14389
888.27	14514
888.395	14571
888.519	14590
888.643	14419
888.767	14480
888.891	14343
889.015	14267
889.139	14248
889.263	14305
889.387	14400
889.511	14518
889.635	14362
889.759	14324
889.883	14309
890.006	14408
890.13	14377
890.254	14187
890.377	14168
890.501	14130
890.624	14161
890.748	14164
890.871	14218
890.995	14111
891.118	13879
891.241	14050
891.364	14062
891.488	14168
891.611	13986
891.734	14043
891.857	14157
891.98	13982
892.103	14161
892.226	13974
892.349	14008
892.471	13879
892.594	13944
892.717	14016
892.839	14012
892.962	13932
893.085	14126
893.207	13997
893.33	13978
893.452	13928
893.575	14035
893.697	13902
893.819	14115
893.941	14237
894.064	14062
894.186	14008
894.308	14024
894.43	14138
894.552	14210
894.674	14149
894.796	14031
894.918	14069
895.04	13997
895.161	14275
895.283	14115
895.405	14046
895.526	14100
895.648	14134
895.769	14229
895.891	14202
896.012	14259
896.134	14115
896.255	14176
896.376	14145
896.498	14096
896.619	14259
896.74	14202
896.861	14263
896.982	14590
897.103	14648
897.224	14476
897.345	14385
897.466	14412
897.587	14533
897.708	14636
897.828	14484
897.949	14465
898.07	14328
898.19	14446
898.311	14488
898.431	14446
898.552	14473
898.672	14697
898.792	14587
898.913	14549
899.033	14408
899.153	14412
899.273	14389
899.393	14347
899.513	14476
899.633	14480
899.753	14412
899.873	14309
899.993	14381
900.113	14412
900.232	14431
900.352	14362
900.472	14339
900.591	14202
900.711	14259
900.83	14240
900.95	14328
901.069	14351
901.189	14218
901.308	14039
901.427	13940
901.546	13967
901.665	13974
901.784	13982
901.904	13830
902.023	13849
902.141	13586
902.26	13552
902.379	13662
902.498	13518
902.617	13495
902.735	13575
902.854	13502
902.973	13506
903.091	13236
903.21	13213
903.328	13202
903.446	13202
903.565	13084
903.683	13114
903.801	12890
903.919	13084
904.038	13069
904.156	12905
904.274	12958
904.392	12817
904.51	12890
904.627	12897
904.745	12951
904.863	13046
904.981	12684
905.098	12521
905.216	12486
905.334	12536
905.451	12620
905.569	12551
905.686	12597
905.803	12521
905.921	12441
906.038	12509
906.155	12407
906.272	12369
906.389	12372
906.506	12121
906.623	12178
906.74	12102
906.857	12106
906.974	12072
907.091	12270
907.208	12216
907.324	12224
907.441	12178
907.557	11916
907.674	11843
907.79	11908
907.907	11882
908.023	12019
908.139	12007
908.256	11863
908.372	11897
908.488	11824
908.604	11771
908.72	11581
908.836	11627
908.952	11577
909.068	11695
909.184	11771
909.3	11657
909.415	11798
909.531	11733
909.647	11547
909.762	11467
909.878	11463
909.993	11474
910.108	11368
910.224	11440
910.339	11448
910.454	11349
910.57	11326
910.685	11235
910.8	11459
910.915	11436
911.03	11318
911.145	11178
911.259	11105
911.374	11121
911.489	11128
911.604	10938
911.718	10892
911.833	10885
911.947	10831
912.062	10660
912.176	10881
912.291	10961
912.405	10953
912.519	11113
912.633	11041
912.748	11003
912.862	11006
912.976	10782
913.09	10710
913.204	10828
913.318	10759
913.431	10946
913.545	10866
913.659	10896
913.772	10797
913.886	10694
914	10558
914.113	10782
914.226	10877
914.34	10733
914.453	10649
914.566	10691
914.68	10702
914.793	10637
914.906	10508
915.019	10398
915.132	10386
915.245	10382
915.358	10417
915.47	10424
915.583	10485
915.696	10504
915.809	10489
915.921	10546
916.034	10325
916.146	10352
916.259	10451
916.371	10424
916.483	10440
916.595	10371
916.708	10322
916.82	10371
916.932	10325
917.044	10272
917.156	10337
917.268	10204
917.38	10238
917.491	10299
917.603	10242
917.715	10219
917.826	10314
917.938	10265
918.049	10120
918.161	10188
918.272	10375
918.384	10379
918.495	10276
918.606	10177
918.717	10109
918.828	10090
918.939	10147
919.05	9994
919.161	10166
919.272	9915
919.383	10036
919.494	10124
919.604	10371
919.715	10162
919.826	10078
919.936	10101
920.047	10234
920.157	10177
920.267	10371
920.378	10287
920.488	10162
920.598	10348
920.708	10516
920.818	10424
920.928	10413
921.038	10504
921.148	10451
921.258	10166
921.368	10105
921.477	9991
921.587	9991
921.697	9804
921.806	10063
921.916	9945
922.025	9755
922.134	9736
922.244	9724
922.353	9759
922.462	9595
922.571	9572
922.68	9462
922.789	9393
922.898	9469
923.007	9405
923.116	9469
923.224	9382
923.333	9485
923.442	9306
923.55	9249
923.659	9344
923.767	9348
923.876	9176
923.984	9332
924.092	9192
924.201	9245
924.309	9249
924.417	9325
924.525	9218
924.633	9211
924.741	10204
924.849	9028
924.956	9188
925.064	9089
925.172	9070
925.279	9036
925.387	9070
925.494	9066
925.602	9264
925.709	9138
925.816	9009
925.924	9097
926.031	9089
926.138	9058
926.245	9093
926.352	8906
926.459	9176
926.566	9146
926.673	9055
926.779	8929
926.886	8963
926.993	8758
927.099	8796
927.206	8682
927.312	8781
927.419	8880
927.525	8792
927.631	8849
927.737	8693
927.843	8606
927.95	8571
928.056	8556
928.162	8522
928.267	8773
928.373	9332
928.479	8746
928.585	8473
928.69	8716
928.796	8621
928.901	8571
929.007	8442
929.112	8610
929.218	8465
929.323	8533
929.428	8408
929.533	8625
929.638	8438
929.743	8488
929.848	8575
929.953	8473
930.058	8328
930.163	8286
930.267	8259
930.372	8442
930.477	8256
930.581	8552
930.685	8427
930.79	8180
930.894	8263
930.998	8214
931.103	8343
931.207	8001
931.311	8001
931.415	7902
931.519	7742
931.623	7681
