Data from test_V78500241_1964.txt Node
Date: Fri Mar 25 14:47:23 CST 2022
User: usil
Spectrometer: V785-0024
Trigger mode: 0
Integration Time (sec): 4.000000E-1
Scans to average: 1
Nonlinearity correction enabled: false
Boxcar width: 0
Storing dark spectrum: false
XAxis mode: Wavelengths
Number of Pixels in Spectrum: 1024
>>>>>Begin Spectral Data<<<<<
801.071	22070
801.214	22002
801.356	21736
801.499	21454
801.641	21424
801.783	21355
801.926	21447
802.068	21431
802.211	21287
802.353	21340
802.496	21089
802.638	21058
802.78	20933
802.923	20838
803.065	20853
803.208	20762
803.35	20811
803.492	20811
803.635	20845
803.777	20826
803.919	20857
804.061	21108
804.204	20933
804.346	20796
804.488	20765
804.63	20674
804.773	20590
804.915	20811
805.057	20754
805.199	20762
805.341	20648
805.483	20823
805.626	20819
805.768	20682
805.91	20720
806.052	20781
806.194	20686
806.336	20876
806.478	20663
806.62	20678
806.762	20731
806.904	20895
807.046	21096
807.188	21058
807.33	21005
807.472	20982
807.614	20944
807.756	20921
807.898	20773
808.04	20697
808.182	20739
808.324	20804
808.465	20857
808.607	21009
808.749	21039
808.891	21100
809.033	21119
809.174	21123
809.316	21047
809.458	21093
809.6	21104
809.741	21039
809.883	21100
810.025	21237
810.166	21313
810.308	21241
810.45	21279
810.591	21142
810.733	21036
810.875	20811
811.016	20682
811.158	20727
811.299	20838
811.441	20998
811.582	20956
811.724	20891
811.865	20891
812.007	20826
812.148	20785
812.29	20994
812.431	21127
812.573	21066
812.714	21222
812.855	21294
812.997	21439
813.138	21557
813.279	21447
813.421	21405
813.562	21294
813.703	21142
813.845	21047
813.986	20651
814.127	20533
814.268	20412
814.41	20495
814.551	20381
814.692	20332
814.833	20256
814.974	20351
815.115	20434
815.256	20271
815.397	20221
815.539	20351
815.68	20142
815.821	20069
815.962	20134
816.103	20168
816.244	19868
816.385	19947
816.526	19841
816.666	19727
816.807	19651
816.948	19590
817.089	19681
817.23	19700
817.371	19533
817.512	19483
817.653	19449
817.793	19426
817.934	19525
818.075	19590
818.216	19563
818.356	19575
818.497	19365
818.638	19118
818.778	19320
818.919	19339
819.06	19339
819.2	19331
819.341	19339
819.481	19411
819.622	19518
819.762	19689
819.903	19605
820.043	19605
820.184	19510
820.324	19559
820.465	19605
820.605	19548
820.746	19586
820.886	19308
821.026	19597
821.167	19499
821.307	19487
821.447	19499
821.588	19438
821.728	19232
821.868	19118
822.008	18920
822.149	19015
822.289	18783
822.429	18798
822.569	18627
822.709	18601
822.849	18483
822.99	18399
823.13	18395
823.27	18372
823.41	18247
823.55	18182
823.69	18235
823.83	18220
823.97	18190
824.11	18045
824.25	18015
824.389	18072
824.529	17958
824.669	18011
824.809	18102
824.949	18026
825.089	18019
825.228	18026
825.368	17847
825.508	17870
825.648	17882
825.787	17859
825.927	17870
826.067	17676
826.206	17714
826.346	17836
826.485	17771
826.625	17756
826.765	17897
826.904	17809
827.044	17600
827.183	17630
827.323	17406
827.462	17516
827.601	17448
827.741	17478
827.88	17391
828.02	17398
828.159	17387
828.298	17604
828.437	17482
828.577	17425
828.716	17596
828.855	17360
828.994	17341
829.134	17162
829.273	17216
829.412	17197
829.551	17064
829.69	17155
829.829	17216
829.968	17299
830.107	17254
830.246	17269
830.385	17200
830.524	17140
830.663	16980
830.802	16976
830.941	16801
831.08	16866
831.219	16957
831.357	16968
831.496	17159
831.635	16873
831.774	16698
831.913	16687
832.051	16596
832.19	16577
832.329	16672
832.467	16634
832.606	16634
832.744	16538
832.883	16580
833.022	16535
833.16	16497
833.299	16546
833.437	16573
833.576	16683
833.714	16580
833.852	16626
833.991	16694
834.129	16664
834.267	16691
834.406	16554
834.544	16634
834.682	16656
834.821	16527
834.959	16793
835.097	16660
835.235	16763
835.373	16622
835.511	16683
835.65	16470
835.788	16611
835.926	16398
836.064	16424
836.202	16280
836.34	16512
836.478	16569
836.615	16565
836.753	16713
836.891	16649
837.029	16615
837.167	16523
837.305	16508
837.443	16440
837.58	16443
837.718	16565
837.856	16398
837.993	16356
838.131	16474
838.269	16421
838.406	16333
838.544	16329
838.681	16200
838.819	16063
838.956	16063
839.094	15953
839.231	15968
839.369	16059
839.506	16386
839.643	16230
839.781	15960
839.918	15994
840.055	15937
840.193	15956
840.33	15880
840.467	15930
840.604	15991
840.742	16166
840.879	15861
841.016	15972
841.153	15915
841.29	16029
841.427	16021
841.564	16032
841.701	15945
841.838	15956
841.975	15865
842.112	15918
842.249	15755
842.385	15755
842.522	15934
842.659	15823
842.796	15736
842.933	15789
843.069	15644
843.206	15686
843.343	15694
843.479	15831
843.616	15797
843.752	15633
843.889	15644
844.025	15766
844.162	15580
844.298	15629
844.435	15545
844.571	15572
844.708	15557
844.844	15686
844.98	15690
845.117	15641
845.253	15481
845.389	15450
845.525	15488
845.661	15443
845.798	15332
845.934	15443
846.07	15268
846.206	15374
846.342	15500
846.478	15351
846.614	15176
846.75	15097
846.886	15135
847.022	15237
847.158	15131
847.294	15039
847.429	15154
847.565	14982
847.701	15279
847.837	14899
847.972	14956
848.108	15085
848.244	14899
848.379	14777
848.515	14705
848.65	14773
848.786	14697
848.921	14815
849.057	14876
849.192	14781
849.328	14823
849.463	14788
849.598	14682
849.734	14743
849.869	14590
850.004	14514
850.14	14480
850.275	14434
850.41	14469
850.545	14484
850.68	14503
850.815	14461
850.95	14495
851.085	14541
851.22	14575
851.355	14480
851.49	14476
851.625	14446
851.76	14400
851.895	14442
852.03	14358
852.165	14412
852.299	14594
852.434	14484
852.569	14590
852.703	14545
852.838	14598
852.973	14644
853.107	14587
853.242	14461
853.376	14381
853.511	14240
853.645	14233
853.78	14526
853.914	14358
854.048	14343
854.183	14339
854.317	14324
854.451	14488
854.585	14370
854.72	14271
854.854	14355
854.988	14176
855.122	14294
855.256	14225
855.39	14370
855.524	14438
855.658	14415
855.792	14415
855.926	14393
856.06	14358
856.194	14473
856.327	14412
856.461	14324
856.595	14309
856.729	14336
856.862	14450
856.996	14381
857.13	14438
857.263	14423
857.397	14514
857.53	14343
857.664	14484
857.797	14507
857.931	14438
858.064	14389
858.197	14488
858.331	14328
858.464	14286
858.597	14244
858.731	14328
858.864	14298
858.997	14389
859.13	14336
859.263	14434
859.396	14412
859.529	14336
859.662	14309
859.795	14294
859.928	14454
860.061	14549
860.194	14488
860.327	14438
860.46	14351
860.592	14419
860.725	14461
860.858	14454
860.99	14419
861.123	14301
861.256	14320
861.388	14404
861.521	14963
861.653	14256
861.786	14145
861.918	14218
862.05	14305
862.183	14320
862.315	14339
862.447	14408
862.58	14294
862.712	14126
862.844	14145
862.976	14180
863.108	14221
863.24	14530
863.372	14016
863.504	14077
863.636	14077
863.768	14244
863.9	14176
864.032	14012
864.164	14054
864.296	14138
864.428	14191
864.559	14225
864.691	14172
864.823	14073
864.954	14149
865.086	14164
865.217	14138
865.349	14012
865.48	14069
865.612	14138
865.743	14225
865.875	14123
866.006	14145
866.137	14210
866.269	14119
866.4	14027
866.531	13993
866.662	14073
866.793	14058
866.924	14084
867.055	14157
867.186	14020
867.317	14065
867.448	14020
867.579	14103
867.71	14081
867.841	14031
867.972	14206
868.103	13997
868.233	14172
868.364	14043
868.495	14278
868.625	14336
868.756	14351
868.886	14343
869.017	14358
869.147	14476
869.278	14530
869.408	14442
869.539	14396
869.669	14400
869.799	14412
869.929	14602
870.06	14499
870.19	14678
870.32	14777
870.45	14678
870.58	14716
870.71	14819
870.84	14811
870.97	14773
871.1	14731
871.23	14918
871.36	15020
871.489	14853
871.619	14963
871.749	15024
871.879	14975
872.008	14990
872.138	14952
872.267	14921
872.397	14849
872.526	14750
872.656	14811
872.785	14792
872.915	15005
873.044	15108
873.173	14986
873.303	15047
873.432	15089
873.561	15074
873.69	15051
873.819	14960
873.948	14982
874.077	15127
874.206	14948
874.335	15055
874.464	15093
874.593	15245
874.722	15275
874.851	15401
874.979	15310
875.108	15359
875.237	15252
875.365	15279
875.494	15245
875.623	15348
875.751	15291
875.88	15367
876.008	15393
876.136	15515
876.265	15781
876.393	15949
876.521	15835
876.65	15789
876.778	15774
876.906	15686
877.034	15793
877.162	15694
877.29	15641
877.418	15663
877.546	15656
877.674	15819
877.802	15644
877.93	15724
878.058	15663
878.185	15606
878.313	15690
878.441	15614
878.568	15553
878.696	15686
878.824	15781
878.951	15804
879.079	15819
879.206	15998
879.333	15918
879.461	15854
879.588	15846
879.715	15926
879.842	15994
879.97	15850
880.097	15557
880.224	15504
880.351	15618
880.478	15720
880.605	15564
880.732	15504
880.859	15785
880.986	15603
881.112	15618
881.239	15435
881.366	15443
881.493	15249
881.619	15203
881.746	15192
881.872	15192
881.999	15226
882.125	15173
882.252	15214
882.378	15348
882.505	15401
882.631	15180
882.757	15028
882.883	15119
883.01	15089
883.136	14982
883.262	14960
883.388	14990
883.514	15104
883.64	15135
883.766	15039
883.892	14819
884.018	14914
884.143	15009
884.269	15089
884.395	14921
884.52	14697
884.646	14716
884.772	14724
884.897	14708
885.023	14777
885.148	14849
885.274	14952
885.399	14880
885.524	14708
885.65	14788
885.775	14807
885.9	14739
886.025	14925
886.15	14804
886.275	14693
886.4	14720
886.525	14708
886.65	14762
886.775	14712
886.9	14986
887.025	14937
887.149	14697
887.274	14560
887.399	14579
887.523	14522
887.648	14461
887.773	14484
887.897	14689
888.021	14678
888.146	14533
888.27	14720
888.395	14697
888.519	14583
888.643	14606
888.767	14594
888.891	14480
889.015	14514
889.139	14442
889.263	14488
889.387	14537
889.511	14743
889.635	14564
889.759	14431
889.883	14473
890.006	14492
890.13	14602
890.254	14366
890.377	14465
890.501	14332
890.624	14294
890.748	14286
890.871	14183
890.995	14065
891.118	14005
891.241	14168
891.364	14088
891.488	14320
891.611	14149
891.734	14195
891.857	14161
891.98	14180
892.103	14275
892.226	14206
892.349	14172
892.471	13974
892.594	14100
892.717	14221
892.839	14145
892.962	14153
893.085	14244
893.207	14180
893.33	14039
893.452	14096
893.575	14301
893.697	14084
893.819	14259
893.941	14404
894.064	14259
894.186	14008
894.308	14100
894.43	14328
894.552	14366
894.674	14317
894.796	14210
894.918	14123
895.04	14157
895.161	14427
895.283	14286
895.405	14183
895.526	14252
895.648	14324
895.769	14221
895.891	14362
896.012	14419
896.134	14347
896.255	14328
896.376	14324
896.498	14313
896.619	14317
896.74	14317
896.861	14374
896.982	14590
897.103	14739
897.224	14571
897.345	14613
897.466	14495
897.587	14533
897.708	14743
897.828	14731
897.949	14507
898.07	14465
898.19	14556
898.311	14758
898.431	14606
898.552	14636
898.672	14724
898.792	14640
898.913	14686
899.033	14587
899.153	14415
899.273	14446
899.393	14503
899.513	14541
899.633	14480
899.753	14587
899.873	14480
899.993	14575
900.113	14530
900.232	14552
900.352	14465
900.472	14434
900.591	14332
900.711	14415
900.83	14298
900.95	14533
901.069	14503
901.189	14313
901.308	14065
901.427	13986
901.546	14092
901.665	14187
901.784	14069
901.904	13944
902.023	13845
902.141	13674
902.26	13636
902.379	13753
902.498	13552
902.617	13525
902.735	13696
902.854	13628
902.973	13658
903.091	13289
903.21	13384
903.328	13327
903.446	13327
903.565	13057
903.683	13274
903.801	13152
903.919	13118
904.038	13171
904.156	13046
904.274	13160
904.392	13019
904.51	12958
904.627	13034
904.745	13084
904.863	13042
904.981	12810
905.098	12722
905.216	12734
905.334	12711
905.451	12673
905.569	12722
905.686	12791
905.803	12658
905.921	12483
906.038	12650
906.155	12578
906.272	12410
906.389	12475
906.506	12342
906.623	12315
906.74	12243
906.857	12144
906.974	12224
907.091	12384
907.208	12414
907.324	12277
907.441	12205
907.557	12049
907.674	12007
907.79	11984
907.907	11992
908.023	12053
908.139	12003
908.256	12007
908.372	11977
908.488	11889
908.604	11836
908.72	11729
908.836	11817
908.952	11840
909.068	11920
909.184	11908
909.3	11779
909.415	11786
909.531	11802
909.647	11619
909.762	11600
909.878	11638
909.993	11608
910.108	11566
910.224	11493
910.339	11509
910.454	11577
910.57	11395
910.685	11349
910.8	11684
910.915	11512
911.03	11440
911.145	11334
911.259	11284
911.374	11254
911.489	11166
911.604	11159
911.718	11003
911.833	11113
911.947	10946
912.062	10858
912.176	11010
912.291	11014
912.405	11086
912.519	11277
912.633	11322
912.748	11064
912.862	11014
912.976	10919
913.09	10839
913.204	10900
913.318	10919
913.431	10999
913.545	11064
913.659	10995
913.772	10949
913.886	10858
914	10801
914.113	10976
914.226	10873
914.34	10938
914.453	10744
914.566	10873
914.68	10771
914.793	10694
914.906	10577
915.019	10523
915.132	10466
915.245	10497
915.358	10565
915.47	10596
915.583	10558
915.696	10660
915.809	10653
915.921	10733
916.034	10573
916.146	10481
916.259	10402
916.371	10588
916.483	10569
916.595	10500
916.708	10519
916.82	10466
916.932	10478
917.044	10451
917.156	10440
917.268	10363
917.38	10329
917.491	10314
917.603	10390
917.715	10504
917.826	10481
917.938	10360
918.049	10276
918.161	10462
918.272	10577
918.384	10531
918.495	10405
918.606	10322
918.717	10166
918.828	10242
918.939	10276
919.05	10196
919.161	10265
919.272	9972
919.383	10147
919.494	10329
919.604	10531
919.715	10272
919.826	10185
919.936	10234
920.047	10348
920.157	10280
920.267	10565
920.378	10261
920.488	10325
920.598	10417
920.708	10691
920.818	10455
920.928	10443
921.038	10615
921.148	10668
921.258	10333
921.368	10169
921.477	10082
921.587	10162
921.697	10032
921.806	10109
921.916	10074
922.025	9827
922.134	9838
922.244	9732
922.353	9850
922.462	9816
922.571	9656
922.68	9549
922.789	9553
922.898	9500
923.007	9523
923.116	9603
923.224	9488
923.333	9549
923.442	9420
923.55	9454
923.659	9382
923.767	9454
923.876	9408
923.984	9447
924.092	9279
924.201	9481
924.309	9389
924.417	9431
924.525	9279
924.633	9416
924.741	10284
924.849	9119
924.956	9313
925.064	9214
925.172	9112
925.279	9100
925.387	9275
925.494	9161
925.602	9340
925.709	9287
925.816	9161
925.924	9173
926.031	9283
926.138	9188
926.245	9245
926.352	9108
926.459	9226
926.566	9283
926.673	9146
926.779	8929
926.886	9032
926.993	8998
927.099	8914
927.206	8876
927.312	8883
927.419	8956
927.525	8849
927.631	8921
927.737	8876
927.843	8743
927.95	8697
928.056	8853
928.162	8857
928.267	8826
928.373	9450
928.479	8937
928.585	8663
928.69	8727
928.796	8815
928.901	8632
929.007	8533
929.112	8625
929.218	8640
929.323	8640
929.428	8632
929.533	8682
929.638	8560
929.743	8579
929.848	8606
929.953	8602
930.058	8564
930.163	8370
930.267	8431
930.372	8465
930.477	8374
930.581	8655
930.685	8454
930.79	8301
930.894	8328
930.998	8317
931.103	8499
931.207	8088
931.311	8001
931.415	7963
931.519	7769
931.623	7795
