Data from test_V78500241_1581.txt Node
Date: Fri Mar 25 14:44:43 CST 2022
User: usil
Spectrometer: V785-0024
Trigger mode: 0
Integration Time (sec): 4.000000E-1
Scans to average: 1
Nonlinearity correction enabled: false
Boxcar width: 0
Storing dark spectrum: false
XAxis mode: Wavelengths
Number of Pixels in Spectrum: 1024
>>>>>Begin Spectral Data<<<<<
801.071	22402
801.214	22238
801.356	22029
801.499	21903
801.641	21850
801.783	21614
801.926	21918
802.068	21644
802.211	21606
802.353	21515
802.496	21329
802.638	21211
802.78	21249
802.923	21195
803.065	20967
803.208	21013
803.35	20975
803.492	21169
803.635	21184
803.777	21127
803.919	21203
804.061	21351
804.204	21233
804.346	21028
804.488	20891
804.63	21165
804.773	20918
804.915	21032
805.057	21188
805.199	21146
805.341	21096
805.483	21036
805.626	21119
805.768	21047
805.91	21001
806.052	21150
806.194	20979
806.336	21135
806.478	20941
806.62	20872
806.762	21074
806.904	21207
807.046	21416
807.188	21386
807.33	21302
807.472	21378
807.614	21256
807.756	21367
807.898	21066
808.04	21108
808.182	21188
808.324	21173
808.465	21272
808.607	21344
808.749	21534
808.891	21561
809.033	21766
809.174	21641
809.316	21458
809.458	21428
809.6	21500
809.741	21420
809.883	21454
810.025	21625
810.166	21625
810.308	21488
810.45	21538
810.591	21382
810.733	21420
810.875	21192
811.016	21180
811.158	21074
811.299	21173
811.441	21279
811.582	21306
811.724	21104
811.865	21104
812.007	21131
812.148	21146
812.29	21329
812.431	21332
812.573	21576
812.714	21538
812.855	21633
812.997	21797
813.138	21960
813.279	21854
813.421	21587
813.562	21443
813.703	21523
813.845	21291
813.986	21009
814.127	20823
814.268	20804
814.41	20697
814.551	20804
814.692	20800
814.833	20689
814.974	20648
815.115	20754
815.256	20549
815.397	20590
815.539	20564
815.68	20492
815.821	20377
815.962	20590
816.103	20450
816.244	20324
816.385	20214
816.526	20206
816.666	20092
816.807	19898
816.948	19951
817.089	19894
817.23	20001
817.371	19932
817.512	19871
817.653	19913
817.793	19944
817.934	19845
818.075	19902
818.216	19887
818.356	19818
818.497	19681
818.638	19506
818.778	19533
818.919	19605
819.06	19552
819.2	19700
819.341	19765
819.481	19746
819.622	19932
819.762	20054
819.903	19982
820.043	19852
820.184	19845
820.324	19753
820.465	19879
820.605	19746
820.746	19826
820.886	19647
821.026	19902
821.167	19803
821.307	19795
821.447	19757
821.588	19601
821.728	19521
821.868	19324
822.008	19308
822.149	19209
822.289	19236
822.429	19038
822.569	18863
822.709	18867
822.849	18692
822.99	18749
823.13	18700
823.27	18623
823.41	18475
823.55	18578
823.69	18620
823.83	18479
823.97	18517
824.11	18437
824.25	18258
824.389	18437
824.529	18300
824.669	18311
824.809	18448
824.949	18407
825.089	18357
825.228	18311
825.368	18136
825.508	18171
825.648	18148
825.787	18133
825.927	18262
826.067	18125
826.206	18049
826.346	18049
826.485	18186
826.625	18121
826.765	18209
826.904	18076
827.044	17824
827.183	17843
827.323	17745
827.462	17832
827.601	17840
827.741	17809
827.88	17775
828.02	17710
828.159	17695
828.298	17783
828.437	17805
828.577	17710
828.716	17965
828.855	17771
828.994	17585
829.134	17509
829.273	17634
829.412	17516
829.551	17474
829.69	17570
829.829	17505
829.968	17611
830.107	17600
830.246	17600
830.385	17501
830.524	17421
830.663	17315
830.802	17277
830.941	17102
831.08	17064
831.219	17269
831.357	17121
831.496	17345
831.635	17075
831.774	17079
831.913	17098
832.051	17075
832.19	16866
832.329	16896
832.467	16812
832.606	16763
832.744	16854
832.883	16854
833.022	16843
833.16	16877
833.299	16809
833.437	16869
833.576	16892
833.714	16812
833.852	16793
833.991	16927
834.129	16896
834.267	16938
834.406	16889
834.544	16938
834.682	16824
834.821	16877
834.959	17060
835.097	16755
835.235	16991
835.373	16869
835.511	16900
835.65	16782
835.788	16717
835.926	16546
836.064	16588
836.202	16580
836.34	16805
836.478	16934
836.615	16748
836.753	16816
836.891	16850
837.029	16831
837.167	16767
837.305	16607
837.443	16630
837.58	16580
837.718	16706
837.856	16634
837.993	16611
838.131	16668
838.269	16561
838.406	16485
838.544	16470
838.681	16356
838.819	16261
838.956	16215
839.094	16143
839.231	16150
839.369	16234
839.506	16538
839.643	16371
839.781	16154
839.918	16067
840.055	16162
840.193	16071
840.33	16093
840.467	16185
840.604	16200
840.742	16379
840.879	16029
841.016	15956
841.153	16044
841.29	16386
841.427	16169
841.564	16131
841.701	16268
841.838	16105
841.975	16029
842.112	16051
842.249	15956
842.385	15949
842.522	16147
842.659	15979
842.796	15926
842.933	15991
843.069	15926
843.206	15823
843.343	16013
843.479	15892
843.616	16021
843.752	15755
843.889	15755
844.025	15953
844.162	15610
844.298	15857
844.435	15713
844.571	15610
844.708	15865
844.844	15781
844.98	15964
845.117	15812
845.253	15732
845.389	15591
845.525	15553
845.661	15671
845.798	15538
845.934	15606
846.07	15622
846.206	15705
846.342	15804
846.478	15595
846.614	15389
846.75	15287
846.886	15211
847.022	15458
847.158	15374
847.294	15230
847.429	15321
847.565	15199
847.701	15447
847.837	15089
847.972	14971
848.108	15154
848.244	15104
848.379	14921
848.515	14906
848.65	14899
848.786	14819
848.921	14864
849.057	14914
849.192	14963
849.328	14975
849.463	14910
849.598	14883
849.734	14842
849.869	14716
850.004	14811
850.14	14800
850.275	14587
850.41	14678
850.545	14659
850.68	14541
850.815	14625
850.95	14602
851.085	14880
851.22	14731
851.355	14655
851.49	14682
851.625	14560
851.76	14610
851.895	14465
852.03	14492
852.165	14632
852.299	14655
852.434	14674
852.569	14667
852.703	14731
852.838	14678
852.973	14883
853.107	14815
853.242	14636
853.376	14488
853.511	14389
853.645	14533
853.78	14568
853.914	14511
854.048	14594
854.183	14480
854.317	14518
854.451	14659
854.585	14533
854.72	14522
854.854	14568
854.988	14412
855.122	14511
855.256	14351
855.39	14461
855.524	14526
855.658	14533
855.792	14541
855.926	14590
856.06	14610
856.194	14575
856.327	14564
856.461	14492
856.595	14438
856.729	14499
856.862	14556
856.996	14537
857.13	14568
857.263	14693
857.397	14571
857.53	14571
857.664	14610
857.797	14594
857.931	14606
858.064	14598
858.197	14621
858.331	14469
858.464	14469
858.597	14404
858.731	14511
858.864	14412
858.997	14366
859.13	14514
859.263	14537
859.396	14594
859.529	14412
859.662	14446
859.795	14396
859.928	14530
860.061	14583
860.194	14697
860.327	14545
860.46	14571
860.592	14492
860.725	14644
860.858	14598
860.99	14552
861.123	14461
861.256	14419
861.388	14545
861.521	15359
861.653	14423
861.786	14393
861.918	14412
862.05	14393
862.183	14469
862.315	14537
862.447	14526
862.58	14495
862.712	14275
862.844	14191
862.976	14267
863.108	14339
863.24	14773
863.372	14248
863.504	14271
863.636	14244
863.768	14347
863.9	14347
864.032	14172
864.164	14286
864.296	14237
864.428	14396
864.559	14381
864.691	14332
864.823	14446
864.954	14301
865.086	14347
865.217	14278
865.349	14138
865.48	14172
865.612	14278
865.743	14377
865.875	14301
866.006	14214
866.137	14221
866.269	14290
866.4	14244
866.531	14256
866.662	14195
866.793	14218
866.924	14210
867.055	14305
867.186	14271
867.317	14214
867.448	14126
867.579	14195
867.71	14138
867.841	14123
867.972	14225
868.103	14244
868.233	14259
868.364	14278
868.495	14446
868.625	14442
868.756	14644
868.886	14370
869.017	14507
869.147	14594
869.278	14571
869.408	14522
869.539	14530
869.669	14613
869.799	14579
869.929	14606
870.06	14610
870.19	14819
870.32	14735
870.45	14758
870.58	15005
870.71	15020
870.84	15001
870.97	14899
871.1	14914
871.23	15062
871.36	15085
871.489	14910
871.619	15081
871.749	15104
871.879	15119
872.008	15237
872.138	15157
872.267	15116
872.397	15047
872.526	14925
872.656	14975
872.785	14963
872.915	15150
873.044	15176
873.173	15188
873.303	15077
873.432	15123
873.561	15192
873.69	15150
873.819	15135
873.948	15180
874.077	15138
874.206	15146
874.335	15211
874.464	15241
874.593	15477
874.722	15401
874.851	15519
874.979	15530
875.108	15454
875.237	15469
875.365	15382
875.494	15420
875.623	15477
875.751	15496
875.88	15564
876.008	15644
876.136	15576
876.265	15785
876.393	16010
876.521	15956
876.65	15968
876.778	15861
876.906	15816
877.034	15857
877.162	15812
877.29	15789
877.418	15865
877.546	15865
877.674	15937
877.802	15808
877.93	15907
878.058	15789
878.185	15804
878.313	15850
878.441	15876
878.568	15709
878.696	15846
878.824	15937
878.951	15983
879.079	16029
879.206	16318
879.333	16105
879.461	16025
879.588	16044
879.715	16051
879.842	16185
879.97	15934
880.097	15804
880.224	15713
880.351	15751
880.478	15774
880.605	15755
880.732	15759
880.859	15926
880.986	15743
881.112	15785
881.239	15694
881.366	15507
881.493	15420
881.619	15408
881.746	15412
881.872	15405
881.999	15428
882.125	15469
882.252	15447
882.378	15363
882.505	15599
882.631	15291
882.757	15241
882.883	15279
883.01	15211
883.136	15169
883.262	15066
883.388	15005
883.514	15188
883.64	15294
883.766	15127
883.892	15028
884.018	15055
884.143	15192
884.269	15233
884.395	14944
884.52	14842
884.646	14891
884.772	14792
884.897	14864
885.023	14842
885.148	15036
885.274	15005
885.399	15013
885.524	14918
885.65	14906
885.775	14910
885.9	14864
886.025	14982
886.15	15043
886.275	14887
886.4	14807
886.525	14880
886.65	14788
886.775	14876
886.9	15005
887.025	15131
887.149	14857
887.274	14785
887.399	14659
887.523	14868
887.648	14617
887.773	14708
887.897	14800
888.021	14724
888.146	14670
888.27	14849
888.395	14838
888.519	14788
888.643	14777
888.767	14769
888.891	14648
889.015	14484
889.139	14606
889.263	14537
889.387	14678
889.511	14804
889.635	14693
889.759	14545
889.883	14587
890.006	14659
890.13	14807
890.254	14469
890.377	14503
890.501	14381
890.624	14408
890.748	14415
890.871	14332
890.995	14214
891.118	14145
891.241	14294
891.364	14199
891.488	14366
891.611	14309
891.734	14320
891.857	14313
891.98	14221
892.103	14450
892.226	14267
892.349	14313
892.471	14054
892.594	14263
892.717	14320
892.839	14233
892.962	14313
893.085	14347
893.207	14336
893.33	14176
893.452	14294
893.575	14347
893.697	14278
893.819	14404
893.941	14473
894.064	14377
894.186	14320
894.308	14267
894.43	14438
894.552	14518
894.674	14343
894.796	14271
894.918	14278
895.04	14267
895.161	14473
895.283	14339
895.405	14393
895.526	14298
895.648	14351
895.769	14434
895.891	14358
896.012	14457
896.134	14499
896.255	14465
896.376	14396
896.498	14518
896.619	14518
896.74	14488
896.861	14537
896.982	14758
897.103	14906
897.224	14762
897.345	14686
897.466	14629
897.587	14720
897.708	14811
897.828	14716
897.949	14670
898.07	14663
898.19	14712
898.311	14857
898.431	14724
898.552	14861
898.672	14887
898.792	14857
898.913	14807
899.033	14781
899.153	14640
899.273	14629
899.393	14587
899.513	14708
899.633	14625
899.753	14686
899.873	14648
899.993	14697
900.113	14640
900.232	14678
900.352	14697
900.472	14598
900.591	14469
900.711	14552
900.83	14476
900.95	14590
901.069	14598
901.189	14473
901.308	14317
901.427	14130
901.546	14225
901.665	14180
901.784	14256
901.904	14058
902.023	13936
902.141	13738
902.26	13727
902.379	13803
902.498	13864
902.617	13803
902.735	13875
902.854	13791
902.973	13685
903.091	13445
903.21	13514
903.328	13529
903.446	13388
903.565	13320
903.683	13327
903.801	13228
903.919	13297
904.038	13274
904.156	13141
904.274	13187
904.392	13107
904.51	13236
904.627	13126
904.745	13149
904.863	13141
904.981	13004
905.098	12772
905.216	12745
905.334	12848
905.451	12798
905.569	12837
905.686	12901
905.803	12821
905.921	12662
906.038	12684
906.155	12665
906.272	12532
906.389	12528
906.506	12410
906.623	12410
906.74	12426
906.857	12243
906.974	12292
907.091	12448
907.208	12490
907.324	12471
907.441	12296
907.557	12209
907.674	12213
907.79	12102
907.907	12076
908.023	12235
908.139	12194
908.256	12102
908.372	12041
908.488	12060
908.604	11908
908.72	11908
908.836	11904
908.952	11821
909.068	11904
909.184	12022
909.3	11950
909.415	12049
909.531	11855
909.647	11695
909.762	11737
909.878	11611
909.993	11737
910.108	11615
910.224	11608
910.339	11752
910.454	11505
910.57	11577
910.685	11463
910.8	11722
910.915	11604
911.03	11596
911.145	11341
911.259	11341
911.374	11379
911.489	11284
911.604	11330
911.718	11121
911.833	11223
911.947	11018
912.062	11010
912.176	11102
912.291	11128
912.405	11060
912.519	11326
912.633	11341
912.748	11216
912.862	11174
912.976	11006
913.09	10938
913.204	10911
913.318	10999
913.431	11117
913.545	11010
913.659	11113
913.772	10999
913.886	10927
914	10862
914.113	10957
914.226	11045
914.34	11037
914.453	10752
914.566	10942
914.68	10847
914.793	10828
914.906	10683
915.019	10649
915.132	10573
915.245	10637
915.358	10645
915.47	10710
915.583	10641
915.696	10733
915.809	10797
915.921	10755
916.034	10672
916.146	10611
916.259	10558
916.371	10634
916.483	10561
916.595	10527
916.708	10497
916.82	10500
916.932	10527
917.044	10478
917.156	10489
917.268	10421
917.38	10531
917.491	10424
917.603	10466
917.715	10523
917.826	10531
917.938	10443
918.049	10371
918.161	10428
918.272	10630
918.384	10542
918.495	10398
918.606	10348
918.717	10314
918.828	10329
918.939	10356
919.05	10223
919.161	10367
919.272	10188
919.383	10185
919.494	10352
919.604	10516
919.715	10322
919.826	10265
919.936	10352
920.047	10360
920.157	10356
920.267	10535
920.378	10379
920.488	10284
920.598	10588
920.708	10664
920.818	10577
920.928	10607
921.038	10748
921.148	10626
921.258	10360
921.368	10280
921.477	10223
921.587	10128
921.697	10093
921.806	10158
921.916	10071
922.025	9888
922.134	9903
922.244	9873
922.353	9869
922.462	9762
922.571	9732
922.68	9595
922.789	9656
922.898	9599
923.007	9545
923.116	9614
923.224	9625
923.333	9557
923.442	9466
923.55	9447
923.659	9458
923.767	9538
923.876	9450
923.984	9557
924.092	9325
924.201	9507
924.309	9469
924.417	9538
924.525	9401
924.633	9462
924.741	10322
924.849	9279
924.956	9408
925.064	9256
925.172	9138
925.279	9203
925.387	9260
925.494	9199
925.602	9397
925.709	9275
925.816	9230
925.924	9249
926.031	9367
926.138	9249
926.245	9355
926.352	9180
926.459	9302
926.566	9344
926.673	9184
926.779	9077
926.886	9070
926.993	8994
927.099	8933
927.206	8857
927.312	8899
927.419	8971
927.525	8948
927.631	9081
927.737	8830
927.843	8864
927.95	8731
928.056	8838
928.162	8868
928.267	8883
928.373	9389
928.479	8937
928.585	8845
928.69	8838
928.796	8906
928.901	8788
929.007	8678
929.112	8781
929.218	8785
929.323	8613
929.428	8689
929.533	8750
929.638	8575
929.743	8674
929.848	8712
929.953	8613
930.058	8537
930.163	8469
930.267	8465
930.372	8594
930.477	8408
930.581	8602
930.685	8533
930.79	8404
930.894	8355
930.998	8351
931.103	8522
931.207	8164
931.311	8123
931.415	8043
931.519	7871
931.623	7849
