Data from test_V78500241_428.txt Node
Date: Fri Mar 25 14:36:42 CST 2022
User: usil
Spectrometer: V785-0024
Trigger mode: 0
Integration Time (sec): 4.000000E-1
Scans to average: 1
Nonlinearity correction enabled: false
Boxcar width: 0
Storing dark spectrum: false
XAxis mode: Wavelengths
Number of Pixels in Spectrum: 1024
>>>>>Begin Spectral Data<<<<<
801.071	26739
801.214	26423
801.356	26290
801.499	26142
801.641	26206
801.783	25868
801.926	26077
802.068	25883
802.211	25944
802.353	25898
802.496	25662
802.638	25685
802.78	25742
802.923	25674
803.065	25457
803.208	25605
803.35	25518
803.492	25731
803.635	25727
803.777	25655
803.919	25700
804.061	25944
804.204	25750
804.346	25556
804.488	25510
804.63	25590
804.773	25468
804.915	25460
805.057	25746
805.199	25525
805.341	25556
805.483	25590
805.626	25704
805.768	25643
805.91	25639
806.052	25605
806.194	25487
806.336	25708
806.478	25605
806.62	25635
806.762	25776
806.904	25849
807.046	26081
807.188	25963
807.33	26012
807.472	26024
807.614	25898
807.756	25921
807.898	25731
808.04	25860
808.182	25712
808.324	25723
808.465	25845
808.607	25883
808.749	26103
808.891	26126
809.033	26355
809.174	26290
809.316	26054
809.458	26088
809.6	26027
809.741	26092
809.883	26134
810.025	26317
810.166	26275
810.308	26244
810.45	26218
810.591	26157
810.733	25928
810.875	25856
811.016	25890
811.158	25833
811.299	26081
811.441	25932
811.582	26043
811.724	25913
811.865	25959
812.007	25906
812.148	25947
812.29	25860
812.431	25986
812.573	26221
812.714	26256
812.855	26290
812.997	26492
813.138	26583
813.279	26560
813.421	26377
813.562	26377
813.703	26161
813.845	26027
813.986	25757
814.127	25662
814.268	25552
814.41	25639
814.551	25430
814.692	25556
814.833	25327
814.974	25350
815.115	25247
815.256	25171
815.397	25343
815.539	25324
815.68	25171
815.821	25266
815.962	25293
816.103	25114
816.244	25053
816.385	24913
816.526	25027
816.666	24764
816.807	24677
816.948	24688
817.089	24661
817.23	24654
817.371	24589
817.512	24631
817.653	24509
817.793	24585
817.934	24681
818.075	24555
818.216	24585
818.356	24555
818.497	24441
818.638	24285
818.778	24388
818.919	24262
819.06	24350
819.2	24422
819.341	24490
819.481	24525
819.622	24692
819.762	25038
819.903	24837
820.043	24578
820.184	24566
820.324	24650
820.465	24604
820.605	24612
820.746	24692
820.886	24525
821.026	24566
821.167	24521
821.307	24608
821.447	24311
821.588	24403
821.728	24292
821.868	24072
822.008	23935
822.149	23927
822.289	23965
822.429	23653
822.569	23611
822.709	23509
822.849	23345
822.99	23452
823.13	23421
823.27	23303
823.41	23098
823.55	23151
823.69	23098
823.83	23273
823.97	23117
824.11	23022
824.25	22965
824.389	22812
824.529	23025
824.669	22908
824.809	23170
824.949	23048
825.089	22942
825.228	23003
825.368	22774
825.508	22786
825.648	22793
825.787	22752
825.927	22835
826.067	22767
826.206	22660
826.346	22862
826.485	22725
826.625	22721
826.765	22828
826.904	22691
827.044	22409
827.183	22432
827.323	22398
827.462	22577
827.601	22523
827.741	22356
827.88	22360
828.02	22249
828.159	22386
828.298	22432
828.437	22413
828.577	22284
828.716	22405
828.855	22390
828.994	22101
829.134	22063
829.273	22257
829.412	21945
829.551	22025
829.69	22147
829.829	21960
829.968	22067
830.107	22192
830.246	22002
830.385	22017
830.524	22082
830.663	21800
830.802	21789
830.941	21705
831.08	21755
831.219	21705
831.357	21739
831.496	21922
831.635	21728
831.774	21572
831.913	21572
832.051	21530
832.19	21473
832.329	21462
832.467	21332
832.606	21462
832.744	21252
832.883	21237
833.022	21340
833.16	21389
833.299	21378
833.437	21336
833.576	21302
833.714	21428
833.852	21370
833.991	21504
834.129	21488
834.267	21332
834.406	21249
834.544	21313
834.682	21279
834.821	21306
834.959	21477
835.097	21317
835.235	21340
835.373	21256
835.511	21184
835.65	21199
835.788	21287
835.926	21100
836.064	21043
836.202	21024
836.34	21131
836.478	21199
836.615	21100
836.753	21127
836.891	21306
837.029	21211
837.167	21214
837.305	21127
837.443	20994
837.58	20963
837.718	21001
837.856	21085
837.993	20956
838.131	20979
838.269	20986
838.406	20998
838.544	20785
838.681	20731
838.819	20743
838.956	20571
839.094	20541
839.231	20644
839.369	20621
839.506	20971
839.643	20705
839.781	20400
839.918	20495
840.055	20568
840.193	20408
840.33	20389
840.467	20514
840.604	20415
840.742	20693
840.879	20271
841.016	20313
841.153	20259
841.29	20465
841.427	20362
841.564	20404
841.701	20442
841.838	20324
841.975	20267
842.112	20355
842.249	20252
842.385	20172
842.522	20309
842.659	20229
842.796	20012
842.933	20134
843.069	20039
843.206	20050
843.343	20199
843.479	20062
843.616	20024
843.752	19951
843.889	19883
844.025	20100
844.162	19852
844.298	19974
844.435	19871
844.571	19944
844.708	19997
844.844	19909
844.98	19917
845.117	19913
845.253	19731
845.389	19677
845.525	19696
845.661	19807
845.798	19750
845.934	19696
846.07	19693
846.206	19727
846.342	19761
846.478	19582
846.614	19358
846.75	19392
846.886	19411
847.022	19350
847.158	19407
847.294	19308
847.429	19369
847.565	19346
847.701	19544
847.837	19137
847.972	18989
848.108	19148
848.244	19168
848.379	18939
848.515	18928
848.65	18935
848.786	18890
848.921	18924
849.057	19008
849.192	19000
849.328	18909
849.463	18966
849.598	18913
849.734	18707
849.869	18738
850.004	18585
850.14	18673
850.275	18684
850.41	18490
850.545	18574
850.68	18677
850.815	18707
850.95	18692
851.085	18852
851.22	18806
851.355	18639
851.49	18547
851.625	18616
851.76	18673
851.895	18460
852.03	18574
852.165	18570
852.299	18608
852.434	18665
852.569	18635
852.703	18574
852.838	18692
852.973	18776
853.107	18753
853.242	18532
853.376	18464
853.511	18334
853.645	18452
853.78	18608
853.914	18536
854.048	18483
854.183	18399
854.317	18342
854.451	18658
854.585	18494
854.72	18483
854.854	18525
854.988	18338
855.122	18448
855.256	18403
855.39	18384
855.524	18536
855.658	18342
855.792	18407
855.926	18460
856.06	18498
856.194	18566
856.327	18483
856.461	18395
856.595	18342
856.729	18391
856.862	18452
856.996	18399
857.13	18528
857.263	18441
857.397	18582
857.53	18418
857.664	18494
857.797	18384
857.931	18570
858.064	18319
858.197	18464
858.331	18342
858.464	18353
858.597	18403
858.731	18338
858.864	18475
858.997	18334
859.13	18350
859.263	18437
859.396	18464
859.529	18369
859.662	18369
859.795	18213
859.928	18441
860.061	18490
860.194	18612
860.327	18372
860.46	18403
860.592	18445
860.725	18517
860.858	18388
860.99	18357
861.123	18300
861.256	18323
861.388	18346
861.521	19034
861.653	18125
861.786	18289
861.918	18224
862.05	18350
862.183	18342
862.315	18494
862.447	18513
862.58	18369
862.712	18174
862.844	18273
862.976	18315
863.108	18190
863.24	18361
863.372	18110
863.504	18117
863.636	18057
863.768	18136
863.9	18239
864.032	18045
864.164	18060
864.296	18129
864.428	18247
864.559	18171
864.691	18106
864.823	18049
864.954	18129
865.086	18136
865.217	18121
865.349	18072
865.48	18045
865.612	17973
865.743	18144
865.875	18129
866.006	17931
866.137	18076
866.269	18072
866.4	17988
866.531	18007
866.662	17965
866.793	17992
866.924	17908
867.055	18034
867.186	18041
867.317	17897
867.448	17897
867.579	18041
867.71	17939
867.841	17904
867.972	17908
868.103	18026
868.233	17954
868.364	17870
868.495	18045
868.625	18163
868.756	18254
868.886	18098
869.017	18220
869.147	18308
869.278	18372
869.408	18197
869.539	18220
869.669	18258
869.799	18213
869.929	18327
870.06	18300
870.19	18521
870.32	18414
870.45	18486
870.58	18627
870.71	18783
870.84	18681
870.97	18608
871.1	18589
871.23	18833
871.36	18764
871.489	18684
871.619	18795
871.749	18696
871.879	18791
872.008	18935
872.138	18798
872.267	18871
872.397	18681
872.526	18635
872.656	18650
872.785	18570
872.915	18878
873.044	18962
873.173	18875
873.303	18875
873.432	18833
873.561	18954
873.69	18871
873.819	18798
873.948	18856
874.077	18817
874.206	18764
874.335	18867
874.464	18951
874.593	19114
874.722	19103
874.851	19145
874.979	19206
875.108	19187
875.237	19088
875.365	19080
875.494	19107
875.623	19107
875.751	19110
875.88	19080
876.008	19263
876.136	19297
876.265	19635
876.393	19647
876.521	19483
876.65	19594
876.778	19525
876.906	19537
877.034	19460
877.162	19403
877.29	19384
877.418	19514
877.546	19681
877.674	19476
877.802	19411
877.93	19472
878.058	19373
878.185	19285
878.313	19400
878.441	19548
878.568	19445
878.696	19457
878.824	19514
878.951	19529
879.079	19632
879.206	19704
879.333	19651
879.461	19510
879.588	19784
879.715	19662
879.842	19814
879.97	19647
880.097	19403
880.224	19339
880.351	19327
880.478	19282
880.605	19312
880.732	19365
880.859	19586
880.986	19438
881.112	19384
881.239	19232
881.366	19141
881.493	18996
881.619	19038
881.746	19065
881.872	19069
881.999	18939
882.125	18878
882.252	19053
882.378	18962
882.505	19088
882.631	18817
882.757	18764
882.883	18863
883.01	18734
883.136	18604
883.262	18604
883.388	18509
883.514	18707
883.64	18692
883.766	18639
883.892	18521
884.018	18559
884.143	18757
884.269	18673
884.395	18513
884.52	18353
884.646	18372
884.772	18308
884.897	18456
885.023	18323
885.148	18544
885.274	18513
885.399	18574
885.524	18296
885.65	18327
885.775	18437
885.9	18311
886.025	18422
886.15	18456
886.275	18323
886.4	18262
886.525	18224
886.65	18254
886.775	18330
886.9	18483
887.025	18536
887.149	18350
887.274	18266
887.399	18213
887.523	18224
887.648	18041
887.773	18095
887.897	18228
888.021	18266
888.146	18114
888.27	18323
888.395	18254
888.519	18053
888.643	18182
888.767	18136
888.891	18022
889.015	17927
889.139	18019
889.263	17973
889.387	18076
889.511	18201
889.635	18076
889.759	17908
889.883	17908
890.006	18053
890.13	18026
890.254	17904
890.377	17893
890.501	17760
890.624	17657
890.748	17794
890.871	17821
890.995	17539
891.118	17604
891.241	17718
891.364	17619
891.488	17672
891.611	17478
891.734	17532
891.857	17661
891.98	17585
892.103	17680
892.226	17539
892.349	17554
892.471	17482
892.594	17570
892.717	17608
892.839	17604
892.962	17585
893.085	17691
893.207	17452
893.33	17467
893.452	17398
893.575	17748
893.697	17573
893.819	17684
893.941	17703
894.064	17646
894.186	17490
894.308	17414
894.43	17615
894.552	17661
894.674	17581
894.796	17524
894.918	17532
895.04	17528
895.161	17661
895.283	17573
895.405	17554
895.526	17505
895.648	17570
895.769	17600
895.891	17649
896.012	17703
896.134	17630
896.255	17615
896.376	17585
896.498	17493
896.619	17581
896.74	17722
896.861	17786
896.982	17920
897.103	18136
897.224	17901
897.345	17855
897.466	17843
897.587	17843
897.708	17984
897.828	17760
897.949	17786
898.07	17687
898.19	17786
898.311	18015
898.431	17843
898.552	17965
898.672	18003
898.792	17927
898.913	17885
899.033	17687
899.153	17684
899.273	17467
899.393	17676
899.513	17615
899.633	17661
899.753	17684
899.873	17535
899.993	17653
900.113	17627
900.232	17649
900.352	17554
900.472	17505
900.591	17387
900.711	17387
900.83	17345
900.95	17558
901.069	17604
901.189	17421
901.308	17117
901.427	17170
901.546	17136
901.665	17105
901.784	17090
901.904	16946
902.023	16980
902.141	16672
902.26	16645
902.379	16721
902.498	16588
902.617	16618
902.735	16679
902.854	16630
902.973	16596
903.091	16329
903.21	16268
903.328	16265
903.446	16219
903.565	16032
903.683	16173
903.801	16010
903.919	16166
904.038	16055
904.156	15922
904.274	16006
904.392	15804
904.51	15850
904.627	15915
904.745	15918
904.863	15911
904.981	15701
905.098	15625
905.216	15618
905.334	15618
905.451	15606
905.569	15519
905.686	15610
905.803	15477
905.921	15389
906.038	15443
906.155	15405
906.272	15199
906.389	15207
906.506	15081
906.623	15108
906.74	15085
906.857	14998
906.974	15001
907.091	15119
907.208	15214
907.324	15157
907.441	14918
907.557	14872
907.674	14872
907.79	14731
907.907	14800
908.023	14819
908.139	14724
908.256	14815
908.372	14655
908.488	14678
908.604	14511
908.72	14484
908.836	14514
908.952	14507
909.068	14560
909.184	14640
909.3	14552
909.415	14518
909.531	14499
909.647	14271
909.762	14282
909.878	14240
909.993	14256
910.108	14195
910.224	14168
910.339	14259
910.454	14069
910.57	14176
910.685	14008
910.8	14282
910.915	14275
911.03	14138
911.145	13921
911.259	13837
911.374	13875
911.489	13845
911.604	13746
911.718	13624
911.833	13643
911.947	13563
912.062	13521
912.176	13582
912.291	13750
912.405	13651
912.519	13639
912.633	13883
912.748	13624
912.862	13677
912.976	13510
913.09	13373
913.204	13453
913.318	13457
913.431	13552
913.545	13506
913.659	13647
913.772	13411
913.886	13293
914	13312
914.113	13316
914.226	13472
914.34	13354
914.453	13278
914.566	13358
914.68	13228
914.793	13198
914.906	13042
915.019	13008
915.132	12920
915.245	13031
915.358	13008
915.47	13046
915.583	12970
915.696	13031
915.809	13091
915.921	13046
916.034	12897
916.146	12844
916.259	12810
916.371	12970
916.483	12901
916.595	12833
916.708	12806
916.82	12905
916.932	12703
917.044	12920
917.156	12757
917.268	12703
917.38	12665
917.491	12715
917.603	12703
917.715	12730
917.826	12745
917.938	12650
918.049	12559
918.161	12662
918.272	12837
918.384	12798
918.495	12631
918.606	12509
918.717	12528
918.828	12528
918.939	12589
919.05	12399
919.161	12498
919.272	12311
919.383	12338
919.494	12509
919.604	12726
919.715	12479
919.826	12334
919.936	12471
920.047	12521
920.157	12551
920.267	12692
920.378	12467
920.488	12372
920.598	12635
920.708	12757
920.818	12612
920.928	12601
921.038	12707
921.148	12757
921.258	12437
921.368	12330
921.477	12338
921.587	12289
921.697	12129
921.806	12213
921.916	12209
922.025	12011
922.134	11980
922.244	11904
922.353	11946
922.462	11939
922.571	11737
922.68	11604
922.789	11535
922.898	11592
923.007	11554
923.116	11642
923.224	11505
923.333	11490
923.442	11429
923.55	11486
923.659	11520
923.767	11478
923.876	11299
923.984	11440
924.092	11322
924.201	11372
924.309	11341
924.417	11353
924.525	11220
924.633	11296
924.741	12235
924.849	11155
924.956	11261
925.064	11083
925.172	11025
925.279	11056
925.387	11197
925.494	11151
925.602	11212
925.709	11155
925.816	10995
925.924	11155
926.031	11208
926.138	11067
926.245	11109
926.352	10946
926.459	11189
926.566	11140
926.673	10968
926.779	10885
926.886	10942
926.993	10801
927.099	10694
927.206	10740
927.312	10573
927.419	10828
927.525	10793
927.631	10725
927.737	10664
927.843	10584
927.95	10527
928.056	10561
928.162	10554
928.267	10675
928.373	11254
928.479	10736
928.585	10462
928.69	10569
928.796	10683
928.901	10447
929.007	10325
929.112	10485
929.218	10356
929.323	10402
929.428	10367
929.533	10508
929.638	10242
929.743	10360
929.848	10402
929.953	10272
930.058	10185
930.163	10154
930.267	10078
930.372	10207
930.477	10086
930.581	10204
930.685	10169
930.79	9941
930.894	9979
930.998	9956
931.103	10128
931.207	9671
931.311	9686
931.415	9561
931.519	9374
931.623	9462
