Data from test_V78500241_2583.txt Node
Date: Fri Mar 25 14:51:41 CST 2022
User: usil
Spectrometer: V785-0024
Trigger mode: 0
Integration Time (sec): 4.000000E-1
Scans to average: 1
Nonlinearity correction enabled: false
Boxcar width: 0
Storing dark spectrum: false
XAxis mode: Wavelengths
Number of Pixels in Spectrum: 1024
>>>>>Begin Spectral Data<<<<<
801.071	22006
801.214	21876
801.356	21603
801.499	21572
801.641	21344
801.783	21351
801.926	21443
802.068	21260
802.211	21237
802.353	21165
802.496	21039
802.638	20933
802.78	20880
802.923	20743
803.065	20579
803.208	20632
803.35	20621
803.492	20815
803.635	20857
803.777	20644
803.919	20864
804.061	21032
804.204	20754
804.346	20655
804.488	20545
804.63	20682
804.773	20629
804.915	20735
805.057	20746
805.199	20473
805.341	20663
805.483	20830
805.626	20693
805.768	20564
805.91	20648
806.052	20579
806.194	20579
806.336	20861
806.478	20602
806.62	20613
806.762	20697
806.904	20705
807.046	21089
807.188	20906
807.33	20937
807.472	20990
807.614	20765
807.756	20906
807.898	20632
808.04	20735
808.182	20583
808.324	20606
808.465	20716
808.607	20849
808.749	20872
808.891	21131
809.033	21055
809.174	21081
809.316	20956
809.458	20990
809.6	20956
809.741	20925
809.883	21005
810.025	21199
810.166	21135
810.308	21150
810.45	21241
810.591	21013
810.733	20899
810.875	20686
811.016	20746
811.158	20708
811.299	20910
811.441	20849
811.582	20914
811.724	20773
811.865	20705
812.007	20777
812.148	20663
812.29	20876
812.431	20876
812.573	21154
812.714	21138
812.855	21260
812.997	21325
813.138	21545
813.279	21336
813.421	21176
813.562	21249
813.703	20941
813.845	20857
813.986	20712
814.127	20640
814.268	20324
814.41	20339
814.551	20294
814.692	20385
814.833	20252
814.974	20313
815.115	20290
815.256	20107
815.397	20214
815.539	20168
815.68	20039
815.821	20035
815.962	20008
816.103	19970
816.244	19811
816.385	19799
816.526	19757
816.666	19559
816.807	19460
816.948	19384
817.089	19559
817.23	19468
817.371	19445
817.512	19441
817.653	19384
817.793	19400
817.934	19407
818.075	19483
818.216	19449
818.356	19358
818.497	19289
818.638	18996
818.778	19099
818.919	19126
819.06	19122
819.2	19217
819.341	19354
819.481	19285
819.622	19476
819.762	19647
819.903	19632
820.043	19453
820.184	19457
820.324	19426
820.465	19601
820.605	19381
820.746	19411
820.886	19282
821.026	19362
821.167	19419
821.307	19510
821.447	19251
821.588	19164
821.728	19194
821.868	19069
822.008	18875
822.149	18776
822.289	18715
822.429	18544
822.569	18456
822.709	18521
822.849	18365
822.99	18346
823.13	18330
823.27	18254
823.41	18091
823.55	18030
823.69	18163
823.83	18174
823.97	18034
824.11	17889
824.25	17920
824.389	17980
824.529	18007
824.669	17889
824.809	18091
824.949	17912
825.089	17923
825.228	17920
825.368	17752
825.508	17646
825.648	17790
825.787	17646
825.927	17680
826.067	17547
826.206	17764
826.346	17687
826.485	17687
826.625	17608
826.765	17794
826.904	17809
827.044	17558
827.183	17467
827.323	17220
827.462	17452
827.601	17341
827.741	17334
827.88	17383
828.02	17368
828.159	17356
828.298	17330
828.437	17512
828.577	17326
828.716	17474
828.855	17337
828.994	17159
829.134	17200
829.273	17124
829.412	17216
829.551	17056
829.69	17170
829.829	17083
829.968	17200
830.107	17212
830.246	17147
830.385	17003
830.524	16984
830.663	17075
830.802	16938
830.941	16820
831.08	16790
831.219	16854
831.357	16790
831.496	16946
831.635	16729
831.774	16668
831.913	16660
832.051	16565
832.19	16497
832.329	16554
832.467	16428
832.606	16413
832.744	16493
832.883	16337
833.022	16367
833.16	16474
833.299	16489
833.437	16417
833.576	16493
833.714	16493
833.852	16485
833.991	16607
834.129	16497
834.267	16588
834.406	16481
834.544	16527
834.682	16523
834.821	16504
834.959	16641
835.097	16409
835.235	16615
835.373	16523
835.511	16546
835.65	16303
835.788	16436
835.926	16310
836.064	16188
836.202	16150
836.34	16462
836.478	16356
836.615	16322
836.753	16371
836.891	16485
837.029	16443
837.167	16409
837.305	16261
837.443	16314
837.58	16242
837.718	16337
837.856	16333
837.993	16223
838.131	16219
838.269	16299
838.406	16287
838.544	16143
838.681	16048
838.819	15998
838.956	15819
839.094	15854
839.231	16029
839.369	15941
839.506	16246
839.643	16105
839.781	15819
839.918	15770
840.055	15846
840.193	15888
840.33	15922
840.467	15793
840.604	15857
840.742	16154
840.879	15747
841.016	15755
841.153	15804
841.29	16010
841.427	15827
841.564	15854
841.701	15846
841.838	15766
841.975	15747
842.112	15831
842.249	15698
842.385	15595
842.522	15797
842.659	15671
842.796	15576
842.933	15595
843.069	15629
843.206	15576
843.343	15648
843.479	15675
843.616	15667
843.752	15405
843.889	15443
844.025	15462
844.162	15447
844.298	15492
844.435	15431
844.571	15443
844.708	15412
844.844	15637
844.98	15606
845.117	15507
845.253	15355
845.389	15310
845.525	15268
845.661	15355
845.798	15195
845.934	15249
846.07	15146
846.206	15173
846.342	15233
846.478	15127
846.614	15157
846.75	14883
846.886	14986
847.022	15047
847.158	15062
847.294	14990
847.429	15047
847.565	15009
847.701	15176
847.837	14819
847.972	14606
848.108	14788
848.244	14826
848.379	14598
848.515	14594
848.65	14598
848.786	14568
848.921	14632
849.057	14648
849.192	14632
849.328	14552
849.463	14613
849.598	14465
849.734	14495
849.869	14469
850.004	14431
850.14	14362
850.275	14473
850.41	14336
850.545	14309
850.68	14309
850.815	14347
850.95	14434
851.085	14575
851.22	14511
851.355	14389
851.49	14396
851.625	14271
851.76	14324
851.895	14229
852.03	14282
852.165	14294
852.299	14290
852.434	14415
852.569	14309
852.703	14313
852.838	14412
852.973	14495
853.107	14465
853.242	14313
853.376	14221
853.511	14145
853.645	14206
853.78	14355
853.914	14237
854.048	14210
854.183	14138
854.317	14199
854.451	14514
854.585	14294
854.72	14180
854.854	14256
854.988	14164
855.122	14248
855.256	14142
855.39	14233
855.524	14309
855.658	14195
855.792	14202
855.926	14374
856.06	14286
856.194	14294
856.327	14248
856.461	14195
856.595	14149
856.729	14111
856.862	14290
856.996	14218
857.13	14313
857.263	14389
857.397	14347
857.53	14290
857.664	14298
857.797	14313
857.931	14408
858.064	14199
858.197	14298
858.331	14237
858.464	14183
858.597	14199
858.731	14225
858.864	14290
858.997	14248
859.13	14267
859.263	14240
859.396	14309
859.529	14221
859.662	14206
859.795	14164
859.928	14256
860.061	14320
860.194	14431
860.327	14244
860.46	14237
860.592	14324
860.725	14332
860.858	14336
860.99	14202
861.123	14164
861.256	14218
861.388	14271
861.521	14834
861.653	14107
861.786	14012
861.918	14126
862.05	14191
862.183	14164
862.315	14176
862.447	14263
862.58	14153
862.712	13993
862.844	14008
862.976	14202
863.108	14020
863.24	14469
863.372	13909
863.504	14020
863.636	13970
863.768	14016
863.9	14077
864.032	13868
864.164	14050
864.296	14073
864.428	14115
864.559	14058
864.691	14176
864.823	14058
864.954	13963
865.086	14043
865.217	14027
865.349	13951
865.48	13974
865.612	14142
865.743	14130
865.875	13989
866.006	13925
866.137	14107
866.269	13989
866.4	13982
866.531	13970
866.662	13906
866.793	13947
866.924	13890
867.055	14008
867.186	13955
867.317	14016
867.448	13902
867.579	13913
867.71	14046
867.841	13868
867.972	14005
868.103	13989
868.233	14008
868.364	13997
868.495	14020
868.625	14256
868.756	14351
868.886	14183
869.017	14183
869.147	14362
869.278	14294
869.408	14263
869.539	14278
869.669	14256
869.799	14298
869.929	14396
870.06	14396
870.19	14511
870.32	14537
870.45	14610
870.58	14667
870.71	14731
870.84	14724
870.97	14621
871.1	14621
871.23	14823
871.36	14739
871.489	14724
871.619	14708
871.749	14876
871.879	14853
872.008	14929
872.138	14796
872.267	14819
872.397	14720
872.526	14644
872.656	14621
872.785	14716
872.915	14853
873.044	14998
873.173	14956
873.303	14998
873.432	14963
873.561	14944
873.69	14853
873.819	14819
873.948	15058
874.077	14910
874.206	14853
874.335	14902
874.464	15058
874.593	15150
874.722	15142
874.851	15226
874.979	15154
875.108	15241
875.237	15184
875.365	15085
875.494	15184
875.623	15222
875.751	15211
875.88	15165
876.008	15401
876.136	15500
876.265	15694
876.393	15739
876.521	15755
876.65	15553
876.778	15663
876.906	15641
877.034	15561
877.162	15576
877.29	15671
877.418	15477
877.546	15656
877.674	15549
877.802	15542
877.93	15526
878.058	15485
878.185	15580
878.313	15732
878.441	15663
878.568	15500
878.696	15485
878.824	15701
878.951	15717
879.079	15766
879.206	15892
879.333	15736
879.461	15705
879.588	15663
879.715	15812
879.842	15941
879.97	15637
880.097	15477
880.224	15382
880.351	15530
880.478	15519
880.605	15393
880.732	15428
880.859	15713
880.986	15545
881.112	15561
881.239	15382
881.366	15222
881.493	15146
881.619	15131
881.746	15165
881.872	15119
881.999	15085
882.125	15123
882.252	15199
882.378	15150
882.505	15233
882.631	15077
882.757	15028
882.883	15013
883.01	14979
883.136	14876
883.262	14731
883.388	14853
883.514	14906
883.64	14986
883.766	14853
883.892	14678
884.018	14876
884.143	14914
884.269	15108
884.395	14720
884.52	14575
884.646	14667
884.772	14587
884.897	14575
885.023	14648
885.148	14735
885.274	14842
885.399	14708
885.524	14674
885.65	14697
885.775	14708
885.9	14686
886.025	14785
886.15	14705
886.275	14678
886.4	14636
886.525	14610
886.65	14564
886.775	14606
886.9	14857
887.025	14960
887.149	14743
887.274	14442
887.399	14457
887.523	14507
887.648	14400
887.773	14518
887.897	14541
888.021	14644
888.146	14511
888.27	14541
888.395	14731
888.519	14610
888.643	14560
888.767	14549
888.891	14457
889.015	14351
889.139	14450
889.263	14336
889.387	14454
889.511	14564
889.635	14488
889.759	14377
889.883	14305
890.006	14461
890.13	14530
890.254	14419
890.377	14362
890.501	14180
890.624	14084
890.748	14214
890.871	14161
890.995	14084
891.118	14054
891.241	14103
891.364	13944
891.488	14107
891.611	14031
891.734	14111
891.857	14176
891.98	14119
892.103	14153
892.226	14161
892.349	14103
892.471	13925
892.594	14134
892.717	14107
892.839	14107
892.962	14065
893.085	14123
893.207	14035
893.33	13989
893.452	14001
893.575	14210
893.697	14081
893.819	14240
893.941	14336
894.064	14240
894.186	13967
894.308	14103
894.43	14126
894.552	14309
894.674	14313
894.796	14073
894.918	14088
895.04	14115
895.161	14221
895.283	14240
895.405	14225
895.526	14145
895.648	14244
895.769	14248
895.891	14252
896.012	14237
896.134	14336
896.255	14210
896.376	14286
896.498	14237
896.619	14267
896.74	14324
896.861	14358
896.982	14560
897.103	14731
897.224	14518
897.345	14590
897.466	14480
897.587	14549
897.708	14568
897.828	14571
897.949	14488
898.07	14495
898.19	14568
898.311	14739
898.431	14571
898.552	14587
898.672	14674
898.792	14727
898.913	14693
899.033	14537
899.153	14480
899.273	14415
899.393	14415
899.513	14434
899.633	14537
899.753	14602
899.873	14442
899.993	14549
900.113	14431
900.232	14484
900.352	14423
900.472	14393
900.591	14336
900.711	14362
900.83	14328
900.95	14355
901.069	14533
901.189	14377
901.308	14065
901.427	13932
901.546	13936
901.665	13906
901.784	14035
901.904	13845
902.023	13845
902.141	13693
902.26	13609
902.379	13742
902.498	13525
902.617	13480
902.735	13605
902.854	13537
902.973	13529
903.091	13232
903.21	13282
903.328	13285
903.446	13232
903.565	13088
903.683	13190
903.801	12996
903.919	13076
904.038	13145
904.156	13034
904.274	13023
904.392	12924
904.51	12882
904.627	12932
904.745	12996
904.863	12989
904.981	12768
905.098	12627
905.216	12642
905.334	12696
905.451	12711
905.569	12662
905.686	12700
905.803	12650
905.921	12486
906.038	12589
906.155	12536
906.272	12437
906.389	12376
906.506	12273
906.623	12247
906.74	12190
906.857	12129
906.974	12163
907.091	12296
907.208	12369
907.324	12270
907.441	12140
907.557	11992
907.674	12022
907.79	11999
907.907	12003
908.023	12019
908.139	12060
908.256	11977
908.372	11946
908.488	11885
908.604	11836
908.72	11741
908.836	11783
908.952	11722
909.068	11748
909.184	11927
909.3	11802
909.415	11775
909.531	11779
909.647	11535
909.762	11532
909.878	11524
909.993	11558
910.108	11433
910.224	11497
910.339	11539
910.454	11387
910.57	11436
910.685	11311
910.8	11562
910.915	11547
911.03	11383
911.145	11227
911.259	11181
911.374	11185
911.489	11083
911.604	11132
911.718	10987
911.833	10957
911.947	10923
912.062	10793
912.176	10923
912.291	10930
912.405	10949
912.519	11105
912.633	11204
912.748	11029
912.862	10900
912.976	10889
913.09	10763
913.204	10881
913.318	10900
913.431	10961
913.545	10858
913.659	10911
913.772	10919
913.886	10683
914	10710
914.113	10839
914.226	10805
914.34	10885
914.453	10668
914.566	10847
914.68	10649
914.793	10706
914.906	10516
915.019	10462
915.132	10451
915.245	10424
915.358	10470
915.47	10493
915.583	10489
915.696	10462
915.809	10630
915.921	10664
916.034	10481
916.146	10466
916.259	10455
916.371	10550
916.483	10500
916.595	10447
916.708	10382
916.82	10466
916.932	10436
917.044	10485
917.156	10489
917.268	10337
917.38	10303
917.491	10280
917.603	10375
917.715	10341
917.826	10413
917.938	10276
918.049	10204
918.161	10284
918.272	10519
918.384	10459
918.495	10341
918.606	10166
918.717	10150
918.828	10249
918.939	10188
919.05	10143
919.161	10177
919.272	10010
919.383	10124
919.494	10227
919.604	10413
919.715	10223
919.826	10173
919.936	10253
920.047	10284
920.157	10276
920.267	10455
920.378	10314
920.488	10139
920.598	10466
920.708	10466
920.818	10363
920.928	10363
921.038	10607
921.148	10584
921.258	10230
921.368	10196
921.477	10044
921.587	10112
921.697	9937
921.806	10078
921.916	9907
922.025	9797
922.134	9785
922.244	9743
922.353	9911
922.462	9606
922.571	9622
922.68	9454
922.789	9412
922.898	9412
923.007	9420
923.116	9557
923.224	9458
923.333	9485
923.442	9329
923.55	9378
923.659	9374
923.767	9473
923.876	9279
923.984	9458
924.092	9306
924.201	9275
924.309	9344
924.417	9416
924.525	9268
924.633	9268
924.741	9983
924.849	9100
924.956	9256
925.064	9131
925.172	9058
925.279	9039
925.387	9116
925.494	9093
925.602	9268
925.709	9226
925.816	9116
925.924	9085
926.031	9180
926.138	9100
926.245	9199
926.352	9051
926.459	9192
926.566	9199
926.673	9119
926.779	9089
926.886	8967
926.993	8880
927.099	8883
927.206	8792
927.312	8781
927.419	8975
927.525	8815
927.631	8891
927.737	8708
927.843	8686
927.95	8606
928.056	8731
928.162	8697
928.267	8781
928.373	9336
928.479	8773
928.585	8625
928.69	8773
928.796	8720
928.901	8617
929.007	8549
929.112	8606
929.218	8651
929.323	8568
929.428	8511
929.533	8651
929.638	8545
929.743	8564
929.848	8674
929.953	8499
930.058	8434
930.163	8320
930.267	8332
930.372	8461
930.477	8267
930.581	8488
930.685	8362
930.79	8267
930.894	8279
930.998	8263
931.103	8431
931.207	8062
931.311	8008
931.415	7925
931.519	7792
931.623	7780
