Data from test_V78500241_2175.txt Node
Date: Fri Mar 25 14:48:51 CST 2022
User: usil
Spectrometer: V785-0024
Trigger mode: 0
Integration Time (sec): 4.000000E-1
Scans to average: 1
Nonlinearity correction enabled: false
Boxcar width: 0
Storing dark spectrum: false
XAxis mode: Wavelengths
Number of Pixels in Spectrum: 1024
>>>>>Begin Spectral Data<<<<<
801.071	22158
801.214	22063
801.356	21903
801.499	21739
801.641	21549
801.783	21469
801.926	21523
802.068	21408
802.211	21401
802.353	21310
802.496	21093
802.638	21024
802.78	20956
802.923	20902
803.065	20914
803.208	20914
803.35	20857
803.492	21089
803.635	20998
803.777	20868
803.919	20845
804.061	21127
804.204	20830
804.346	20746
804.488	20720
804.63	20921
804.773	20705
804.915	20853
805.057	20918
805.199	20792
805.341	20788
805.483	20982
805.626	20815
805.768	20708
805.91	20788
806.052	20826
806.194	20758
806.336	20838
806.478	20807
806.62	20826
806.762	20788
806.904	20963
807.046	21131
807.188	21085
807.33	21108
807.472	21264
807.614	21058
807.756	20982
807.898	20910
808.04	20838
808.182	20743
808.324	20891
808.465	20876
808.607	21112
808.749	21184
808.891	21249
809.033	21367
809.174	21302
809.316	21077
809.458	21188
809.6	21241
809.741	21279
809.883	21226
810.025	21268
810.166	21367
810.308	21230
810.45	21233
810.591	21214
810.733	20963
810.875	21005
811.016	21013
811.158	20686
811.299	21017
811.441	21176
811.582	21017
811.724	20899
811.865	20914
812.007	20807
812.148	20883
812.29	20948
812.431	21108
812.573	21188
812.714	21424
812.855	21526
812.997	21610
813.138	21633
813.279	21545
813.421	21469
813.562	21389
813.703	21161
813.845	21036
813.986	20864
814.127	20731
814.268	20602
814.41	20480
814.551	20454
814.692	20514
814.833	20408
814.974	20549
815.115	20499
815.256	20419
815.397	20259
815.539	20218
815.68	20267
815.821	20187
815.962	20240
816.103	20256
816.244	20065
816.385	19856
816.526	19978
816.666	19833
816.807	19704
816.948	19807
817.089	19826
817.23	19757
817.371	19651
817.512	19525
817.653	19571
817.793	19597
817.934	19700
818.075	19696
818.216	19594
818.356	19578
818.497	19495
818.638	19407
818.778	19312
818.919	19331
819.06	19396
819.2	19419
819.341	19476
819.481	19544
819.622	19734
819.762	19887
819.903	19689
820.043	19681
820.184	19674
820.324	19468
820.465	19757
820.605	19609
820.746	19590
820.886	19464
821.026	19476
821.167	19499
821.307	19674
821.447	19559
821.588	19392
821.728	19308
821.868	19221
822.008	19053
822.149	19027
822.289	18966
822.429	18620
822.569	18688
822.709	18642
822.849	18460
822.99	18494
823.13	18410
823.27	18547
823.41	18330
823.55	18144
823.69	18338
823.83	18369
823.97	18201
824.11	18129
824.25	18030
824.389	18121
824.529	18205
824.669	17996
824.809	18197
824.949	18186
825.089	18178
825.228	18083
825.368	17992
825.508	17832
825.648	17901
825.787	17901
825.927	17912
826.067	17843
826.206	17802
826.346	17916
826.485	17923
826.625	17790
826.765	17798
826.904	17824
827.044	17619
827.183	17577
827.323	17551
827.462	17585
827.601	17573
827.741	17467
827.88	17573
828.02	17425
828.159	17455
828.298	17585
828.437	17619
828.577	17528
828.716	17604
828.855	17497
828.994	17265
829.134	17318
829.273	17322
829.412	17315
829.551	17265
829.69	17273
829.829	17242
829.968	17345
830.107	17299
830.246	17318
830.385	17189
830.524	17170
830.663	17098
830.802	17045
830.941	16900
831.08	16850
831.219	16949
831.357	16957
831.496	17155
831.635	16778
831.774	16828
831.913	16771
832.051	16740
832.19	16694
832.329	16744
832.467	16588
832.606	16527
832.744	16618
832.883	16554
833.022	16561
833.16	16653
833.299	16603
833.437	16618
833.576	16664
833.714	16683
833.852	16611
833.991	16641
834.129	16721
834.267	16767
834.406	16675
834.544	16767
834.682	16702
834.821	16637
834.959	16801
835.097	16584
835.235	16831
835.373	16637
835.511	16649
835.65	16615
835.788	16577
835.926	16417
836.064	16318
836.202	16436
836.34	16493
836.478	16782
836.615	16485
836.753	16516
836.891	16645
837.029	16558
837.167	16550
837.305	16417
837.443	16493
837.58	16424
837.718	16538
837.856	16459
837.993	16341
838.131	16337
838.269	16344
838.406	16356
838.544	16265
838.681	16147
838.819	16044
838.956	15975
839.094	16002
839.231	15979
839.369	16112
839.506	16337
839.643	16162
839.781	15964
839.918	15869
840.055	15979
840.193	15937
840.33	15956
840.467	16010
840.604	15975
840.742	16169
840.879	15838
841.016	15846
841.153	15899
841.29	16044
841.427	16055
841.564	15953
841.701	15979
841.838	15823
841.975	15884
842.112	15823
842.249	15770
842.385	15720
842.522	15869
842.659	15838
842.796	15686
842.933	15778
843.069	15671
843.206	15637
843.343	15861
843.479	15732
843.616	15770
843.752	15511
843.889	15496
844.025	15610
844.162	15504
844.298	15644
844.435	15496
844.571	15412
844.708	15587
844.844	15675
844.98	15705
845.117	15633
845.253	15348
845.389	15302
845.525	15386
845.661	15367
845.798	15283
845.934	15325
846.07	15310
846.206	15458
846.342	15428
846.478	15325
846.614	15173
846.75	15089
846.886	15055
847.022	15157
847.158	15036
847.294	15036
847.429	15154
847.565	15161
847.701	15241
847.837	14796
847.972	14891
848.108	14899
848.244	14906
848.379	14682
848.515	14708
848.65	14651
848.786	14769
848.921	14743
849.057	14800
849.192	14758
849.328	14834
849.463	14712
849.598	14602
849.734	14674
849.869	14526
850.004	14408
850.14	14518
850.275	14396
850.41	14324
850.545	14389
850.68	14473
850.815	14343
850.95	14469
851.085	14632
851.22	14587
851.355	14412
851.49	14412
851.625	14313
851.76	14408
851.895	14415
852.03	14275
852.165	14423
852.299	14450
852.434	14575
852.569	14415
852.703	14526
852.838	14575
852.973	14621
853.107	14446
853.242	14431
853.376	14381
853.511	14134
853.645	14225
853.78	14495
853.914	14313
854.048	14259
854.183	14305
854.317	14324
854.451	14507
854.585	14252
854.72	14210
854.854	14469
854.988	14248
855.122	14282
855.256	14142
855.39	14301
855.524	14400
855.658	14358
855.792	14317
855.926	14412
856.06	14351
856.194	14385
856.327	14286
856.461	14339
856.595	14313
856.729	14199
856.862	14484
856.996	14377
857.13	14370
857.263	14541
857.397	14366
857.53	14305
857.664	14381
857.797	14370
857.931	14343
858.064	14374
858.197	14446
858.331	14263
858.464	14313
858.597	14168
858.731	14305
858.864	14286
858.997	14313
859.13	14377
859.263	14404
859.396	14366
859.529	14275
859.662	14339
859.795	14229
859.928	14339
860.061	14526
860.194	14522
860.327	14240
860.46	14244
860.592	14381
860.725	14396
860.858	14473
860.99	14218
861.123	14271
861.256	14271
861.388	14309
861.521	14944
861.653	14248
861.786	14142
861.918	14225
862.05	14149
862.183	14256
862.315	14240
862.447	14320
862.58	14252
862.712	13963
862.844	14043
862.976	14096
863.108	14233
863.24	14461
863.372	13951
863.504	14062
863.636	14050
863.768	14138
863.9	14077
864.032	14039
864.164	14027
864.296	14210
864.428	14191
864.559	14130
864.691	14157
864.823	14180
864.954	14149
865.086	14157
865.217	14058
865.349	13959
865.48	14062
865.612	14138
865.743	14244
865.875	14100
866.006	14016
866.137	14020
866.269	14092
866.4	14001
866.531	14069
866.662	13955
866.793	14058
866.924	13955
867.055	14046
867.186	14054
867.317	14065
867.448	13963
867.579	13970
867.71	13993
867.841	14012
867.972	14107
868.103	14115
868.233	14123
868.364	14088
868.495	14100
868.625	14328
868.756	14454
868.886	14221
869.017	14343
869.147	14446
869.278	14366
869.408	14419
869.539	14320
869.669	14488
869.799	14389
869.929	14511
870.06	14469
870.19	14552
870.32	14613
870.45	14712
870.58	14739
870.71	14887
870.84	14777
870.97	14705
871.1	14727
871.23	14880
871.36	14925
871.489	14834
871.619	14777
871.749	14857
871.879	14895
872.008	15055
872.138	14982
872.267	14857
872.397	14861
872.526	14678
872.656	14769
872.785	14739
872.915	15017
873.044	15097
873.173	14979
873.303	15005
873.432	14960
873.561	14979
873.69	15051
873.819	15005
873.948	15074
874.077	14952
874.206	14998
874.335	15039
874.464	15119
874.593	15154
874.722	15237
874.851	15325
874.979	15317
875.108	15310
875.237	15180
875.365	15268
875.494	15272
875.623	15336
875.751	15294
875.88	15306
876.008	15389
876.136	15378
876.265	15720
876.393	15873
876.521	15827
876.65	15804
876.778	15656
876.906	15686
877.034	15781
877.162	15606
877.29	15591
877.418	15641
877.546	15778
877.674	15599
877.802	15720
877.93	15816
878.058	15675
878.185	15557
878.313	15800
878.441	15785
878.568	15538
878.696	15667
878.824	15724
878.951	15785
879.079	15892
879.206	15934
879.333	15850
879.461	15774
879.588	15854
879.715	15956
879.842	15888
879.97	15812
880.097	15568
880.224	15466
880.351	15428
880.478	15641
880.605	15416
880.732	15458
880.859	15823
880.986	15545
881.112	15595
881.239	15340
881.366	15283
881.493	15211
881.619	15237
881.746	15340
881.872	15142
881.999	15108
882.125	15138
882.252	15279
882.378	15294
882.505	15378
882.631	15150
882.757	15127
882.883	15051
883.01	15043
883.136	14929
883.262	14849
883.388	14834
883.514	15005
883.64	14963
883.766	14933
883.892	14769
884.018	14868
884.143	15074
884.269	15131
884.395	14895
884.52	14731
884.646	14773
884.772	14655
884.897	14636
885.023	14743
885.148	14807
885.274	14899
885.399	14891
885.524	14716
885.65	14788
885.775	14781
885.9	14678
886.025	14857
886.15	14765
886.275	14716
886.4	14689
886.525	14689
886.65	14594
886.775	14606
886.9	14956
887.025	14967
887.149	14705
887.274	14629
887.399	14480
887.523	14446
887.648	14423
887.773	14465
887.897	14670
888.021	14644
888.146	14556
888.27	14625
888.395	14682
888.519	14583
888.643	14659
888.767	14590
888.891	14503
889.015	14404
889.139	14400
889.263	14381
889.387	14473
889.511	14594
889.635	14465
889.759	14396
889.883	14408
890.006	14480
890.13	14511
890.254	14343
890.377	14324
890.501	14221
890.624	14142
890.748	14267
890.871	14161
890.995	14062
891.118	14035
891.241	14077
891.364	14081
891.488	14309
891.611	14062
891.734	14073
891.857	14168
891.98	14069
892.103	14111
892.226	14221
892.349	14058
892.471	14027
892.594	14168
892.717	14161
892.839	14100
892.962	14103
893.085	14199
893.207	14153
893.33	13982
893.452	13970
893.575	14202
893.697	14039
893.819	14221
893.941	14275
894.064	14271
894.186	14073
894.308	14065
894.43	14252
894.552	14385
894.674	14275
894.796	14069
894.918	14221
895.04	14180
895.161	14267
895.283	14180
895.405	14096
895.526	14172
895.648	14263
895.769	14240
895.891	14248
896.012	14400
896.134	14412
896.255	14366
896.376	14305
896.498	14362
896.619	14374
896.74	14343
896.861	14488
896.982	14579
897.103	14743
897.224	14610
897.345	14488
897.466	14419
897.587	14549
897.708	14667
897.828	14670
897.949	14499
898.07	14400
898.19	14511
898.311	14746
898.431	14648
898.552	14655
898.672	14686
898.792	14705
898.913	14743
899.033	14537
899.153	14507
899.273	14412
899.393	14503
899.513	14522
899.633	14511
899.753	14503
899.873	14457
899.993	14480
900.113	14473
900.232	14514
900.352	14533
900.472	14476
900.591	14358
900.711	14450
900.83	14347
900.95	14389
901.069	14488
901.189	14408
901.308	14187
901.427	13898
901.546	13989
901.665	14069
901.784	14069
901.904	13982
902.023	13871
902.141	13677
902.26	13624
902.379	13655
902.498	13609
902.617	13533
902.735	13666
902.854	13613
902.973	13544
903.091	13392
903.21	13293
903.328	13358
903.446	13259
903.565	13225
903.683	13198
903.801	13072
903.919	13255
904.038	13160
904.156	12954
904.274	13145
904.392	12970
904.51	13076
904.627	12989
904.745	13061
904.863	13065
904.981	12829
905.098	12715
905.216	12779
905.334	12688
905.451	12601
905.569	12673
905.686	12688
905.803	12772
905.921	12490
906.038	12578
906.155	12441
906.272	12403
906.389	12365
906.506	12289
906.623	12315
906.74	12338
906.857	12102
906.974	12178
907.091	12357
907.208	12330
907.324	12247
907.441	12182
907.557	12026
907.674	12026
907.79	11954
907.907	11980
908.023	12076
908.139	12015
908.256	12034
908.372	11965
908.488	11931
908.604	11764
908.72	11752
908.836	11722
908.952	11737
909.068	11805
909.184	11828
909.3	11794
909.415	11809
909.531	11745
909.647	11596
909.762	11581
909.878	11402
909.993	11600
910.108	11543
910.224	11455
910.339	11478
910.454	11414
910.57	11387
910.685	11372
910.8	11573
910.915	11611
911.03	11482
911.145	11296
911.259	11155
911.374	11284
911.489	11185
911.604	10980
911.718	11048
911.833	11056
911.947	10957
912.062	10828
912.176	10942
912.291	11056
912.405	10980
912.519	11155
912.633	11181
912.748	10984
912.862	10976
912.976	10942
913.09	10771
913.204	10824
913.318	10961
913.431	10919
913.545	10957
913.659	11006
913.772	10919
913.886	10797
914	10809
914.113	10793
914.226	10934
914.34	10847
914.453	10721
914.566	10767
914.68	10683
914.793	10740
914.906	10516
915.019	10497
915.132	10489
915.245	10405
915.358	10527
915.47	10527
915.583	10542
915.696	10535
915.809	10607
915.921	10752
916.034	10554
916.146	10485
916.259	10379
916.371	10485
916.483	10432
916.595	10535
916.708	10485
916.82	10466
916.932	10451
917.044	10527
917.156	10367
917.268	10341
917.38	10440
917.491	10284
917.603	10379
917.715	10474
917.826	10432
917.938	10405
918.049	10325
918.161	10375
918.272	10611
918.384	10512
918.495	10398
918.606	10257
918.717	10166
918.828	10306
918.939	10287
919.05	10158
919.161	10207
919.272	10090
919.383	10105
919.494	10337
919.604	10531
919.715	10219
919.826	10219
919.936	10272
920.047	10322
920.157	10272
920.267	10561
920.378	10363
920.488	10276
920.598	10432
920.708	10672
920.818	10478
920.928	10519
921.038	10683
921.148	10626
921.258	10310
921.368	10238
921.477	10158
921.587	10169
921.697	10013
921.806	10078
921.916	10048
922.025	9793
922.134	9895
922.244	9778
922.353	9953
922.462	9682
922.571	9766
922.68	9576
922.789	9428
922.898	9435
923.007	9424
923.116	9534
923.224	9519
923.333	9507
923.442	9412
923.55	9367
923.659	9428
923.767	9466
923.876	9412
923.984	9469
924.092	9332
924.201	9424
924.309	9382
924.417	9378
924.525	9393
924.633	9294
924.741	9991
924.849	9169
924.956	9329
925.064	9192
925.172	9089
925.279	9180
925.387	9207
925.494	9203
925.602	9275
925.709	9279
925.816	9138
925.924	9188
926.031	9214
926.138	9169
926.245	9222
926.352	9131
926.459	9313
926.566	9283
926.673	9108
926.779	9005
926.886	9070
926.993	8956
927.099	8948
927.206	8819
927.312	8785
927.419	8918
927.525	8876
927.631	8902
927.737	8864
927.843	8750
927.95	8640
928.056	8686
928.162	8754
928.267	8834
928.373	9473
928.479	8845
928.585	8712
928.69	8781
928.796	8910
928.901	8743
929.007	8598
929.112	8678
929.218	8686
929.323	8667
929.428	8568
929.533	8754
929.638	8552
929.743	8568
929.848	8590
929.953	8648
930.058	8450
930.163	8351
930.267	8385
930.372	8484
930.477	8377
930.581	8522
930.685	8431
930.79	8320
930.894	8339
930.998	8305
931.103	8484
931.207	8149
931.311	7997
931.415	8005
931.519	7814
931.623	7856
