Data from test_V78500241_2475.txt Node
Date: Fri Mar 25 14:50:56 CST 2022
User: usil
Spectrometer: V785-0024
Trigger mode: 0
Integration Time (sec): 4.000000E-1
Scans to average: 1
Nonlinearity correction enabled: false
Boxcar width: 0
Storing dark spectrum: false
XAxis mode: Wavelengths
Number of Pixels in Spectrum: 1024
>>>>>Begin Spectral Data<<<<<
801.071	22040
801.214	22010
801.356	21789
801.499	21675
801.641	21496
801.783	21374
801.926	21496
802.068	21443
802.211	21405
802.353	21294
802.496	21005
802.638	20921
802.78	20990
802.923	20792
803.065	20667
803.208	20735
803.35	20891
803.492	20967
803.635	20925
803.777	20796
803.919	20804
804.061	21112
804.204	20921
804.346	20720
804.488	20678
804.63	20743
804.773	20609
804.915	20724
805.057	20769
805.199	20697
805.341	20739
805.483	20769
805.626	20754
805.768	20689
805.91	20746
806.052	20811
806.194	20663
806.336	20811
806.478	20663
806.62	20655
806.762	20743
806.904	20899
807.046	21211
807.188	21039
807.33	20933
807.472	21096
807.614	20864
807.756	20853
807.898	20804
808.04	20712
808.182	20785
808.324	20689
808.465	20921
808.607	21070
808.749	21116
808.891	21218
809.033	21157
809.174	21173
809.316	21135
809.458	20982
809.6	21051
809.741	21138
809.883	21169
810.025	21188
810.166	21218
810.308	21351
810.45	21192
810.591	21161
810.733	20944
810.875	20769
811.016	20902
811.158	20739
811.299	20880
811.441	20990
811.582	20963
811.724	20857
811.865	20705
812.007	20804
812.148	20853
812.29	20861
812.431	21058
812.573	21135
812.714	21222
812.855	21321
812.997	21313
813.138	21587
813.279	21389
813.421	21249
813.562	21348
813.703	21070
813.845	21032
813.986	20739
814.127	20716
814.268	20457
814.41	20480
814.551	20336
814.692	20450
814.833	20256
814.974	20332
815.115	20324
815.256	20294
815.397	20275
815.539	20347
815.68	20195
815.821	20180
815.962	20096
816.103	20103
816.244	19864
816.385	19868
816.526	19849
816.666	19689
816.807	19559
816.948	19582
817.089	19559
817.23	19689
817.371	19601
817.512	19514
817.653	19556
817.793	19567
817.934	19445
818.075	19495
818.216	19514
818.356	19377
818.497	19312
818.638	19168
818.778	19152
818.919	19206
819.06	19164
819.2	19339
819.341	19403
819.481	19525
819.622	19415
819.762	19696
819.903	19685
820.043	19548
820.184	19499
820.324	19480
820.465	19468
820.605	19540
820.746	19537
820.886	19354
821.026	19464
821.167	19518
821.307	19514
821.447	19521
821.588	19369
821.728	19202
821.868	19065
822.008	18814
822.149	18939
822.289	18951
822.429	18623
822.569	18692
822.709	18631
822.849	18536
822.99	18464
823.13	18426
823.27	18376
823.41	18140
823.55	18163
823.69	18235
823.83	18190
823.97	18136
824.11	17942
824.25	18041
824.389	17988
824.529	18110
824.669	17942
824.809	18167
824.949	18064
825.089	18053
825.228	18011
825.368	17745
825.508	17798
825.648	17798
825.787	17798
825.927	17824
826.067	17707
826.206	17695
826.346	17767
826.485	17726
826.625	17840
826.765	17824
826.904	17756
827.044	17516
827.183	17577
827.323	17459
827.462	17509
827.601	17501
827.741	17448
827.88	17486
828.02	17486
828.159	17440
828.298	17501
828.437	17604
828.577	17524
828.716	17543
828.855	17467
828.994	17330
829.134	17356
829.273	17280
829.412	17121
829.551	17136
829.69	17242
829.829	17288
829.968	17341
830.107	17231
830.246	17212
830.385	17326
830.524	17170
830.663	17060
830.802	16930
830.941	16828
831.08	16835
831.219	16733
831.357	16919
831.496	17006
831.635	16915
831.774	16748
831.913	16778
832.051	16573
832.19	16694
832.329	16698
832.467	16577
832.606	16554
832.744	16618
832.883	16546
833.022	16577
833.16	16474
833.299	16527
833.437	16554
833.576	16656
833.714	16527
833.852	16653
833.991	16573
834.129	16691
834.267	16637
834.406	16634
834.544	16538
834.682	16561
834.821	16550
834.959	16733
835.097	16561
835.235	16668
835.373	16462
835.511	16668
835.65	16436
835.788	16546
835.926	16386
836.064	16344
836.202	16344
836.34	16577
836.478	16504
836.615	16459
836.753	16596
836.891	16512
837.029	16592
837.167	16447
837.305	16432
837.443	16417
837.58	16375
837.718	16382
837.856	16363
837.993	16356
838.131	16325
838.269	16299
838.406	16333
838.544	16230
838.681	16078
838.819	16048
838.956	16044
839.094	15956
839.231	15945
839.369	16048
839.506	16265
839.643	16177
839.781	15953
839.918	15698
840.055	15922
840.193	15934
840.33	15899
840.467	15903
840.604	15972
840.742	16234
840.879	15762
841.016	15781
841.153	15907
841.29	15983
841.427	15953
841.564	15972
841.701	15911
841.838	15903
841.975	15861
842.112	15941
842.249	15686
842.385	15720
842.522	15869
842.659	15743
842.796	15724
842.933	15747
843.069	15663
843.206	15705
843.343	15736
843.479	15660
843.616	15701
843.752	15466
843.889	15435
844.025	15656
844.162	15485
844.298	15523
844.435	15355
844.571	15466
844.708	15564
844.844	15526
844.98	15584
845.117	15572
845.253	15397
845.389	15405
845.525	15412
845.661	15363
845.798	15142
845.934	15294
846.07	15321
846.206	15329
846.342	15363
846.478	15218
846.614	15131
846.75	15024
846.886	15017
847.022	15218
847.158	15161
847.294	14990
847.429	15051
847.565	14998
847.701	15313
847.837	14773
847.972	14769
848.108	14899
848.244	14689
848.379	14667
848.515	14587
848.65	14644
848.786	14587
848.921	14549
849.057	14788
849.192	14750
849.328	14705
849.463	14663
849.598	14636
849.734	14594
849.869	14537
850.004	14385
850.14	14480
850.275	14377
850.41	14298
850.545	14396
850.68	14377
850.815	14495
850.95	14355
851.085	14587
851.22	14522
851.355	14415
851.49	14503
851.625	14412
851.76	14336
851.895	14301
852.03	14218
852.165	14442
852.299	14507
852.434	14457
852.569	14404
852.703	14480
852.838	14431
852.973	14587
853.107	14568
853.242	14389
853.376	14298
853.511	14161
853.645	14248
853.78	14434
853.914	14225
854.048	14256
854.183	14244
854.317	14199
854.451	14476
854.585	14282
854.72	14244
854.854	14343
854.988	14286
855.122	14240
855.256	14111
855.39	14275
855.524	14366
855.658	14374
855.792	14180
855.926	14324
856.06	14374
856.194	14427
856.327	14259
856.461	14214
856.595	14298
856.729	14225
856.862	14404
856.996	14298
857.13	14393
857.263	14446
857.397	14389
857.53	14313
857.664	14358
857.797	14275
857.931	14389
858.064	14286
858.197	14362
858.331	14278
858.464	14286
858.597	14142
858.731	14252
858.864	14290
858.997	14332
859.13	14256
859.263	14320
859.396	14381
859.529	14237
859.662	14275
859.795	14267
859.928	14252
860.061	14396
860.194	14537
860.327	14229
860.46	14275
860.592	14427
860.725	14343
860.858	14301
860.99	14305
861.123	14275
861.256	14240
861.388	14366
861.521	14921
861.653	14103
861.786	14081
861.918	14134
862.05	14248
862.183	14248
862.315	14195
862.447	14275
862.58	14187
862.712	14039
862.844	13982
862.976	14043
863.108	14123
863.24	14412
863.372	14084
863.504	14111
863.636	14035
863.768	14126
863.9	14134
864.032	14005
864.164	14073
864.296	14031
864.428	14084
864.559	14092
864.691	14145
864.823	14202
864.954	14054
865.086	14161
865.217	14100
865.349	13970
865.48	13974
865.612	13989
865.743	14221
865.875	14020
866.006	13989
866.137	13982
866.269	13993
866.4	14050
866.531	13959
866.662	13947
866.793	13978
866.924	13947
867.055	14058
867.186	14069
867.317	14035
867.448	13818
867.579	13963
867.71	13997
867.841	14027
867.972	14069
868.103	13997
868.233	14088
868.364	14046
868.495	14107
868.625	14324
868.756	14347
868.886	14187
869.017	14271
869.147	14396
869.278	14374
869.408	14305
869.539	14199
869.669	14377
869.799	14313
869.929	14400
870.06	14408
870.19	14549
870.32	14465
870.45	14537
870.58	14697
870.71	14758
870.84	14864
870.97	14686
871.1	14632
871.23	14842
871.36	14842
871.489	14777
871.619	14880
871.749	14918
871.879	14899
872.008	14861
872.138	14834
872.267	14834
872.397	14731
872.526	14792
872.656	14667
872.785	14743
872.915	14906
873.044	15013
873.173	14937
873.303	14853
873.432	14979
873.561	15028
873.69	14906
873.819	14948
873.948	14948
874.077	14891
874.206	14899
874.335	14956
874.464	15081
874.593	15161
874.722	15169
874.851	15367
874.979	15268
875.108	15279
875.237	15093
875.365	15165
875.494	15192
875.623	15313
875.751	15370
875.88	15294
876.008	15389
876.136	15439
876.265	15698
876.393	15876
876.521	15766
876.65	15675
876.778	15679
876.906	15686
877.034	15633
877.162	15580
877.29	15564
877.418	15720
877.546	15667
877.674	15739
877.802	15701
877.93	15679
878.058	15713
878.185	15557
878.313	15576
878.441	15675
878.568	15504
878.696	15507
878.824	15751
878.951	15717
879.079	15766
879.206	15907
879.333	15774
879.461	15663
879.588	15667
879.715	15827
879.842	16013
879.97	15652
880.097	15507
880.224	15519
880.351	15500
880.478	15462
880.605	15568
880.732	15435
880.859	15656
880.986	15500
881.112	15549
881.239	15294
881.366	15275
881.493	15192
881.619	15116
881.746	15176
881.872	15207
881.999	15199
882.125	15135
882.252	15157
882.378	15154
882.505	15329
882.631	15085
882.757	15051
882.883	15093
883.01	15066
883.136	14952
883.262	14895
883.388	14864
883.514	14956
883.64	14906
883.766	14887
883.892	14819
884.018	14853
884.143	14925
884.269	14998
884.395	14720
884.52	14693
884.646	14758
884.772	14640
884.897	14670
885.023	14667
885.148	14792
885.274	14853
885.399	14819
885.524	14682
885.65	14670
885.775	14773
885.9	14488
886.025	14815
886.15	14724
886.275	14659
886.4	14568
886.525	14606
886.65	14613
886.775	14629
886.9	14800
887.025	14914
887.149	14724
887.274	14518
887.399	14473
887.523	14560
887.648	14469
887.773	14492
887.897	14568
888.021	14625
888.146	14442
888.27	14682
888.395	14644
888.519	14526
888.643	14621
888.767	14526
888.891	14415
889.015	14408
889.139	14480
889.263	14351
889.387	14480
889.511	14648
889.635	14492
889.759	14336
889.883	14431
890.006	14427
890.13	14488
890.254	14336
890.377	14259
890.501	14180
890.624	14191
890.748	14233
890.871	14172
890.995	14039
891.118	13974
891.241	14088
891.364	14115
891.488	14153
891.611	14031
891.734	14176
891.857	14180
891.98	14043
892.103	14134
892.226	14081
892.349	14046
892.471	13997
892.594	14050
892.717	14058
892.839	14084
892.962	14153
893.085	14123
893.207	14111
893.33	13932
893.452	14054
893.575	14062
893.697	14069
893.819	14244
893.941	14313
894.064	14248
894.186	14073
894.308	14016
894.43	14229
894.552	14252
894.674	14221
894.796	14046
894.918	14081
895.04	14016
895.161	14221
895.283	14225
895.405	14119
895.526	14149
895.648	14218
895.769	14233
895.891	14225
896.012	14282
896.134	14259
896.255	14343
896.376	14176
896.498	14347
896.619	14362
896.74	14218
896.861	14393
896.982	14579
897.103	14682
897.224	14522
897.345	14457
897.466	14423
897.587	14556
897.708	14617
897.828	14636
897.949	14484
898.07	14351
898.19	14446
898.311	14663
898.431	14549
898.552	14552
898.672	14739
898.792	14807
898.913	14606
899.033	14446
899.153	14545
899.273	14358
899.393	14442
899.513	14431
899.633	14454
899.753	14415
899.873	14442
899.993	14503
900.113	14484
900.232	14598
900.352	14438
900.472	14298
900.591	14298
900.711	14328
900.83	14187
900.95	14393
901.069	14454
901.189	14191
901.308	14043
901.427	13940
901.546	13963
901.665	14069
901.784	14024
901.904	13849
902.023	13856
902.141	13480
902.26	13540
902.379	13746
902.498	13537
902.617	13575
902.735	13624
902.854	13476
902.973	13556
903.091	13324
903.21	13209
903.328	13301
903.446	13278
903.565	13137
903.683	13198
903.801	13118
903.919	13175
904.038	13164
904.156	12977
904.274	13023
904.392	12973
904.51	12932
904.627	13023
904.745	13015
904.863	13057
904.981	12829
905.098	12662
905.216	12662
905.334	12711
905.451	12707
905.569	12681
905.686	12662
905.803	12631
905.921	12441
906.038	12597
906.155	12479
906.272	12384
906.389	12410
906.506	12258
906.623	12182
906.74	12213
906.857	12102
906.974	12102
907.091	12270
907.208	12376
907.324	12315
907.441	12232
907.557	12038
907.674	12003
907.79	11878
907.907	11988
908.023	11935
908.139	11969
908.256	11897
908.372	11954
908.488	11855
908.604	11722
908.72	11718
908.836	11756
908.952	11680
909.068	11729
909.184	11889
909.3	11779
909.415	11809
909.531	11707
909.647	11524
909.762	11512
909.878	11455
909.993	11459
910.108	11478
910.224	11417
910.339	11547
910.454	11436
910.57	11410
910.685	11288
910.8	11611
910.915	11573
911.03	11258
911.145	11212
911.259	11220
911.374	11212
911.489	11071
911.604	11033
911.718	10987
911.833	11010
911.947	10938
912.062	10797
912.176	10987
912.291	11029
912.405	10953
912.519	11185
912.633	11128
912.748	11090
912.862	11014
912.976	10862
913.09	10755
913.204	10812
913.318	10946
913.431	10889
913.545	10927
913.659	10999
913.772	10923
913.886	10702
914	10805
914.113	10797
914.226	10942
914.34	10820
914.453	10634
914.566	10824
914.68	10660
914.793	10649
914.906	10451
915.019	10485
915.132	10409
915.245	10500
915.358	10489
915.47	10500
915.583	10508
915.696	10497
915.809	10694
915.921	10592
916.034	10436
916.146	10382
916.259	10367
916.371	10500
916.483	10485
916.595	10356
916.708	10386
916.82	10409
916.932	10329
917.044	10295
917.156	10405
917.268	10223
917.38	10272
917.491	10200
917.603	10314
917.715	10382
917.826	10344
917.938	10310
918.049	10196
918.161	10234
918.272	10398
918.384	10421
918.495	10329
918.606	10211
918.717	10090
918.828	10261
918.939	10207
919.05	10120
919.161	10128
919.272	9975
919.383	10059
919.494	10207
919.604	10443
919.715	10265
919.826	10131
919.936	10192
920.047	10234
920.157	10147
920.267	10386
920.378	10188
920.488	10219
920.598	10447
920.708	10558
920.818	10375
920.928	10356
921.038	10500
921.148	10531
921.258	10234
921.368	10219
921.477	10093
921.587	10093
921.697	9987
921.806	10067
921.916	10010
922.025	9705
922.134	9732
922.244	9732
922.353	9743
922.462	9606
922.571	9694
922.68	9496
922.789	9424
922.898	9462
923.007	9428
923.116	9481
923.224	9454
923.333	9428
923.442	9348
923.55	9382
923.659	9325
923.767	9454
923.876	9302
923.984	9408
924.092	9268
924.201	9332
924.309	9336
924.417	9294
924.525	9306
924.633	9294
924.741	10090
924.849	9062
924.956	9272
925.064	9077
925.172	9089
925.279	9127
925.387	9146
925.494	9062
925.602	9241
925.709	9218
925.816	9032
925.924	9077
926.031	9138
926.138	9119
926.245	9138
926.352	9055
926.459	9157
926.566	9241
926.673	9089
926.779	9020
926.886	8979
926.993	8811
927.099	8811
927.206	8788
927.312	8826
927.419	8887
927.525	8826
927.631	8845
927.737	8769
927.843	8716
927.95	8613
928.056	8697
928.162	8769
928.267	8697
928.373	9374
928.479	8853
928.585	8579
928.69	8701
928.796	8781
928.901	8670
929.007	8438
929.112	8613
929.218	8594
929.323	8583
929.428	8514
929.533	8712
929.638	8469
929.743	8613
929.848	8613
929.953	8568
930.058	8450
930.163	8294
930.267	8332
930.372	8415
930.477	8301
930.581	8473
930.685	8374
930.79	8199
930.894	8332
930.998	8244
931.103	8355
931.207	8001
931.311	8054
931.415	7921
931.519	7772
931.623	7738
