Data from test_V78500241_244.txt Node
Date: Fri Mar 25 14:35:25 CST 2022
User: usil
Spectrometer: V785-0024
Trigger mode: 0
Integration Time (sec): 4.000000E-1
Scans to average: 1
Nonlinearity correction enabled: false
Boxcar width: 0
Storing dark spectrum: false
XAxis mode: Wavelengths
Number of Pixels in Spectrum: 1024
>>>>>Begin Spectral Data<<<<<
801.071	27526
801.214	27462
801.356	27298
801.499	27043
801.641	26937
801.783	27020
801.926	26940
802.068	26933
802.211	26781
802.353	26739
802.496	26507
802.638	26511
802.78	26412
802.923	26442
803.065	26305
803.208	26412
803.35	26431
803.492	26682
803.635	26560
803.777	26377
803.919	26644
804.061	26632
804.204	26632
804.346	26545
804.488	26412
804.63	26461
804.773	26336
804.915	26419
805.057	26651
805.199	26412
805.341	26469
805.483	26533
805.626	26522
805.768	26358
805.91	26480
806.052	26621
806.194	26469
806.336	26739
806.478	26617
806.62	26400
806.762	26556
806.904	26731
807.046	26868
807.188	27039
807.33	26883
807.472	26975
807.614	26826
807.756	26754
807.898	26769
808.04	26777
808.182	26811
808.324	26929
808.465	26811
808.607	27051
808.749	27207
808.891	27401
809.033	27469
809.174	27359
809.316	27222
809.458	27226
809.6	27066
809.741	27192
809.883	27203
810.025	27272
810.166	27157
810.308	27405
810.45	27157
810.591	27066
810.733	26933
810.875	26853
811.016	26925
811.158	26746
811.299	26971
811.441	27081
811.582	26990
811.724	26857
811.865	26853
812.007	26785
812.148	27005
812.29	27047
812.431	27108
812.573	27173
812.714	27283
812.855	27249
812.997	27367
813.138	27458
813.279	27572
813.421	27450
813.562	27268
813.703	27127
813.845	27146
813.986	26689
814.127	26651
814.268	26484
814.41	26621
814.551	26389
814.692	26495
814.833	26282
814.974	26339
815.115	26465
815.256	26278
815.397	26313
815.539	26233
815.68	26088
815.821	25997
815.962	26172
816.103	26149
816.244	26058
816.385	25860
816.526	25936
816.666	25674
816.807	25655
816.948	25537
817.089	25639
817.23	25457
817.371	25616
817.512	25601
817.653	25445
817.793	25468
817.934	25529
818.075	25529
818.216	25518
818.356	25479
818.497	25445
818.638	25354
818.778	25365
818.919	25312
819.06	25274
819.2	25468
819.341	25434
819.481	25392
819.622	25590
819.762	25746
819.903	25674
820.043	25616
820.184	25525
820.324	25632
820.465	25540
820.605	25502
820.746	25582
820.886	25304
821.026	25441
821.167	25358
821.307	25479
821.447	25445
821.588	25168
821.728	25259
821.868	25072
822.008	24909
822.149	24947
822.289	24909
822.429	24502
822.569	24528
822.709	24418
822.849	24414
822.99	24327
823.13	24281
823.27	24258
823.41	24018
823.55	24083
823.69	24205
823.83	24239
823.97	24174
824.11	23889
824.25	23992
824.389	24057
824.529	24034
824.669	23931
824.809	23851
824.949	23954
825.089	24026
825.228	23954
825.368	23741
825.508	23718
825.648	23722
825.787	23646
825.927	23748
826.067	23703
826.206	23741
826.346	23707
826.485	23813
826.625	23592
826.765	23691
826.904	23547
827.044	23425
827.183	23448
827.323	23299
827.462	23455
827.601	23292
827.741	23364
827.88	23417
828.02	23200
828.159	23265
828.298	23395
828.437	23395
828.577	23132
828.716	23395
828.855	23246
828.994	23048
829.134	23155
829.273	23071
829.412	23071
829.551	23003
829.69	22987
829.829	22957
829.968	23155
830.107	23006
830.246	23098
830.385	22942
830.524	22923
830.663	22850
830.802	22801
830.941	22641
831.08	22615
831.219	22668
831.357	22694
831.496	22900
831.635	22584
831.774	22527
831.913	22497
832.051	22341
832.19	22360
832.329	22371
832.467	22348
832.606	22223
832.744	22192
832.883	22188
833.022	22219
833.16	22249
833.299	22257
833.437	22417
833.576	22337
833.714	22329
833.852	22322
833.991	22238
834.129	22424
834.267	22295
834.406	22280
834.544	22299
834.682	22257
834.821	22238
834.959	22379
835.097	22166
835.235	22322
835.373	22207
835.511	22185
835.65	22063
835.788	22051
835.926	21953
836.064	21907
836.202	21941
836.34	22143
836.478	22207
836.615	21994
836.753	21979
836.891	22238
837.029	22177
837.167	22078
837.305	21949
837.443	21991
837.58	21892
837.718	21934
837.856	22006
837.993	21857
838.131	21998
838.269	21755
838.406	21880
838.544	21739
838.681	21736
838.819	21572
838.956	21443
839.094	21412
839.231	21469
839.369	21408
839.506	21690
839.643	21633
839.781	21306
839.918	21351
840.055	21260
840.193	21336
840.33	21218
840.467	21260
840.604	21329
840.742	21542
840.879	21184
841.016	21184
841.153	21214
841.29	21416
841.427	21260
841.564	21180
841.701	21173
841.838	21279
841.975	21214
842.112	21173
842.249	21077
842.385	20887
842.522	21138
842.659	21017
842.796	20845
842.933	20971
843.069	20906
843.206	20830
843.343	20975
843.479	20933
843.616	20941
843.752	20849
843.889	20727
844.025	20910
844.162	20708
844.298	20861
844.435	20731
844.571	20644
844.708	20811
844.844	20815
844.98	20895
845.117	20895
845.253	20606
845.389	20724
845.525	20781
845.661	20750
845.798	20682
845.934	20724
846.07	20697
846.206	20701
846.342	20899
846.478	20636
846.614	20423
846.75	20278
846.886	20278
847.022	20324
847.158	20218
847.294	20202
847.429	20229
847.565	20088
847.701	20343
847.837	20024
847.972	19871
848.108	19963
848.244	19921
848.379	19776
848.515	19841
848.65	19639
848.786	19719
848.921	19734
849.057	19826
849.192	19871
849.328	19799
849.463	19723
849.598	19696
849.734	19628
849.869	19556
850.004	19457
850.14	19552
850.275	19460
850.41	19407
850.545	19460
850.68	19244
850.815	19575
850.95	19441
851.085	19628
851.22	19533
851.355	19441
851.49	19483
851.625	19358
851.76	19430
851.895	19392
852.03	19365
852.165	19430
852.299	19495
852.434	19457
852.569	19453
852.703	19411
852.838	19533
852.973	19571
853.107	19540
853.242	19327
853.376	19297
853.511	19145
853.645	19206
853.78	19335
853.914	19365
854.048	19183
854.183	19285
854.317	19141
854.451	19419
854.585	19187
854.72	19266
854.854	19171
854.988	19129
855.122	19297
855.256	19042
855.39	19228
855.524	19304
855.658	19289
855.792	19419
855.926	19266
856.06	19392
856.194	19430
856.327	19312
856.461	19152
856.595	19152
856.729	19091
856.862	19301
856.996	19232
857.13	19282
857.263	19312
857.397	19358
857.53	19255
857.664	19297
857.797	19381
857.931	19293
858.064	19316
858.197	19415
858.331	19225
858.464	19217
858.597	19225
858.731	19148
858.864	19221
858.997	19194
859.13	19221
859.263	19240
859.396	19285
859.529	19198
859.662	19145
859.795	19103
859.928	19278
860.061	19278
860.194	19441
860.327	19213
860.46	19240
860.592	19354
860.725	19373
860.858	19320
860.99	19263
861.123	19133
861.256	19183
861.388	19221
861.521	19925
861.653	19107
861.786	18970
861.918	19247
862.05	19209
862.183	19164
862.315	19228
862.447	19350
862.58	19213
862.712	19050
862.844	18951
862.976	19168
863.108	19118
863.24	19346
863.372	18886
863.504	18981
863.636	18962
863.768	18913
863.9	18981
864.032	18840
864.164	18821
864.296	18913
864.428	19137
864.559	18989
864.691	18916
864.823	18951
864.954	18943
865.086	18932
865.217	18852
865.349	18749
865.48	18928
865.612	18848
865.743	18954
865.875	18833
866.006	18798
866.137	18852
866.269	18886
866.4	18806
866.531	18913
866.662	18738
866.793	18833
866.924	18802
867.055	18829
867.186	18833
867.317	18825
867.448	18688
867.579	18787
867.71	18677
867.841	18688
867.972	18844
868.103	18707
868.233	18905
868.364	18897
868.495	18897
868.625	18954
868.756	19168
868.886	19023
869.017	18973
869.147	19072
869.278	19148
869.408	19095
869.539	18966
869.669	19129
869.799	19061
869.929	19080
870.06	19099
870.19	19312
870.32	19247
870.45	19343
870.58	19422
870.71	19491
870.84	19415
870.97	19422
871.1	19396
871.23	19575
871.36	19552
871.489	19468
871.619	19704
871.749	19616
871.879	19643
872.008	19696
872.138	19655
872.267	19685
872.397	19438
872.526	19506
872.656	19480
872.785	19480
872.915	19514
873.044	19750
873.173	19586
873.303	19620
873.432	19624
873.561	19662
873.69	19601
873.819	19651
873.948	19772
874.077	19628
874.206	19643
874.335	19742
874.464	19750
874.593	19906
874.722	19997
874.851	19951
874.979	19909
875.108	19959
875.237	19849
875.365	19814
875.494	19757
875.623	19989
875.751	19913
875.88	20008
876.008	20020
876.136	20130
876.265	20377
876.393	20400
876.521	20332
876.65	20511
876.778	20286
876.906	20370
877.034	20218
877.162	20313
877.29	20248
877.418	20191
877.546	20282
877.674	20252
877.802	20347
877.93	20199
878.058	20309
878.185	20153
878.313	20313
878.441	20294
878.568	20237
878.696	20347
878.824	20339
878.951	20298
879.079	20613
879.206	20655
879.333	20617
879.461	20514
879.588	20587
879.715	20594
879.842	20613
879.97	20454
880.097	20332
880.224	20176
880.351	20176
880.478	20172
880.605	20092
880.732	20157
880.859	20442
880.986	20145
881.112	20240
881.239	20081
881.366	19955
881.493	19742
881.619	19906
881.746	19761
881.872	19708
881.999	19738
882.125	19658
882.252	19947
882.378	19856
882.505	19917
882.631	19700
882.757	19616
882.883	19662
883.01	19533
883.136	19556
883.262	19339
883.388	19335
883.514	19597
883.64	19544
883.766	19521
883.892	19297
884.018	19304
884.143	19483
884.269	19510
884.395	19270
884.52	19168
884.646	19107
884.772	19145
884.897	19206
885.023	19251
885.148	19213
885.274	19339
885.399	19381
885.524	19236
885.65	19107
885.775	19259
885.9	19118
886.025	19274
886.15	19327
886.275	19152
886.4	19057
886.525	19091
886.65	19095
886.775	19057
886.9	19331
887.025	19343
887.149	19069
887.274	18977
887.399	18890
887.523	19004
887.648	18985
887.773	18768
887.897	18958
888.021	19015
888.146	18875
888.27	19004
888.395	19008
888.519	18909
888.643	18970
888.767	18920
888.891	18878
889.015	18639
889.139	18760
889.263	18715
889.387	18753
889.511	18837
889.635	18798
889.759	18734
889.883	18658
890.006	18715
890.13	18852
890.254	18623
890.377	18665
890.501	18483
890.624	18437
890.748	18483
890.871	18502
890.995	18292
891.118	18254
891.241	18407
891.364	18350
891.488	18422
891.611	18239
891.734	18357
891.857	18407
891.98	18319
892.103	18308
892.226	18399
892.349	18330
892.471	18068
892.594	18304
892.717	18289
892.839	18224
892.962	18239
893.085	18289
893.207	18281
893.33	18201
893.452	18152
893.575	18327
893.697	18292
893.819	18369
893.941	18426
894.064	18361
894.186	18216
894.308	18190
894.43	18388
894.552	18304
894.674	18285
894.796	18232
894.918	18304
895.04	18254
895.161	18330
895.283	18228
895.405	18197
895.526	18216
895.648	18228
895.769	18388
895.891	18342
896.012	18365
896.134	18342
896.255	18296
896.376	18289
896.498	18311
896.619	18437
896.74	18289
896.861	18369
896.982	18642
897.103	18711
897.224	18749
897.345	18601
897.466	18528
897.587	18486
897.708	18703
897.828	18471
897.949	18563
898.07	18357
898.19	18517
898.311	18669
898.431	18509
898.552	18475
898.672	18658
898.792	18616
898.913	18566
899.033	18410
899.153	18372
899.273	18251
899.393	18239
899.513	18369
899.633	18330
899.753	18391
899.873	18182
899.993	18251
900.113	18174
900.232	18330
900.352	18232
900.472	18163
900.591	18129
900.711	18155
900.83	18034
900.95	18163
901.069	18273
901.189	18098
901.308	17855
901.427	17710
901.546	17805
901.665	17714
901.784	17843
901.904	17623
902.023	17611
902.141	17436
902.26	17292
902.379	17360
902.498	17235
902.617	17185
902.735	17269
902.854	17136
902.973	17181
903.091	16972
903.21	16908
903.328	16946
903.446	16850
903.565	16729
903.683	16801
903.801	16683
903.919	16691
904.038	16713
904.156	16584
904.274	16592
904.392	16523
904.51	16569
904.627	16531
904.745	16626
904.863	16634
904.981	16337
905.098	16226
905.216	16135
905.334	16242
905.451	16078
905.569	16162
905.686	16169
905.803	16185
905.921	15987
906.038	16029
906.155	16029
906.272	15960
906.389	15850
906.506	15766
906.623	15743
906.74	15648
906.857	15557
906.974	15610
907.091	15895
907.208	15903
907.324	15641
907.441	15526
907.557	15530
907.674	15420
907.79	15420
907.907	15481
908.023	15447
908.139	15496
908.256	15363
908.372	15329
908.488	15268
908.604	15165
908.72	15081
908.836	15116
908.952	15058
909.068	15150
909.184	15150
909.3	15119
909.415	15100
909.531	15104
909.647	14849
909.762	14872
909.878	14876
909.993	14838
910.108	14724
910.224	14705
910.339	14849
910.454	14632
910.57	14541
910.685	14590
910.8	14857
910.915	14777
911.03	14617
911.145	14461
911.259	14370
911.374	14438
911.489	14317
911.604	14358
911.718	14214
911.833	14267
911.947	14187
912.062	13997
912.176	14119
912.291	14240
912.405	14172
912.519	14221
912.633	14256
912.748	14218
912.862	14096
912.976	13993
913.09	13845
913.204	13993
913.318	13978
913.431	14073
913.545	14050
913.659	14046
913.772	13936
913.886	13894
914	13887
914.113	13837
914.226	13959
914.34	13959
914.453	13746
914.566	13864
914.68	13784
914.793	13708
914.906	13464
915.019	13491
915.132	13335
915.245	13556
915.358	13616
915.47	13525
915.583	13521
915.696	13510
915.809	13616
915.921	13693
916.034	13502
916.146	13384
916.259	13403
916.371	13480
916.483	13453
916.595	13407
916.708	13369
916.82	13304
916.932	13320
917.044	13320
917.156	13308
917.268	13217
917.38	13202
917.491	13187
917.603	13160
917.715	13331
917.826	13324
917.938	13198
918.049	13114
918.161	13228
918.272	13312
918.384	13247
918.495	13084
918.606	13072
918.717	12935
918.828	12981
918.939	12993
919.05	12871
919.161	13000
919.272	12779
919.383	12825
919.494	13034
919.604	13168
919.715	12977
919.826	12875
919.936	12890
920.047	13080
920.157	12901
920.267	13053
920.378	12909
920.488	12913
920.598	13179
920.708	13209
920.818	13027
920.928	13133
921.038	13145
921.148	13183
921.258	12943
921.368	12779
921.477	12738
921.587	12696
921.697	12582
921.806	12715
921.916	12578
922.025	12429
922.134	12376
922.244	12247
922.353	12380
922.462	12273
922.571	12228
922.68	12041
922.789	12030
922.898	12049
923.007	12015
923.116	11942
923.224	11988
923.333	11958
923.442	11889
923.55	11817
923.659	11794
923.767	11897
923.876	11756
923.984	11882
924.092	11760
924.201	11836
924.309	11779
924.417	11859
924.525	11771
924.633	11745
924.741	12681
924.849	11596
924.956	11661
925.064	11505
925.172	11493
925.279	11452
925.387	11573
925.494	11547
925.602	11722
925.709	11585
925.816	11440
925.924	11467
926.031	11585
926.138	11497
926.245	11554
926.352	11478
926.459	11463
926.566	11627
926.673	11429
926.779	11299
926.886	11284
926.993	11227
927.099	11174
927.206	11151
927.312	11162
927.419	11166
927.525	11064
927.631	11299
927.737	11029
927.843	10987
927.95	10843
928.056	10995
928.162	11037
928.267	11048
928.373	11638
928.479	11098
928.585	10843
928.69	10991
928.796	11064
928.901	10915
929.007	10679
929.112	10854
929.218	10885
929.323	10763
929.428	10759
929.533	10839
929.638	10774
929.743	10740
929.848	10809
929.953	10691
930.058	10596
930.163	10497
930.267	10523
930.372	10679
930.477	10485
930.581	10634
930.685	10512
930.79	10394
930.894	10409
930.998	10367
931.103	10485
931.207	10181
931.311	10074
931.415	10017
931.519	9785
931.623	9831
