Data from test_V78500241_1589.txt Node
Date: Fri Mar 25 14:44:46 CST 2022
User: usil
Spectrometer: V785-0024
Trigger mode: 0
Integration Time (sec): 4.000000E-1
Scans to average: 1
Nonlinearity correction enabled: false
Boxcar width: 0
Storing dark spectrum: false
XAxis mode: Wavelengths
Number of Pixels in Spectrum: 1024
>>>>>Begin Spectral Data<<<<<
801.071	22417
801.214	22337
801.356	22048
801.499	22021
801.641	21766
801.783	21705
801.926	21663
802.068	21762
802.211	21454
802.353	21424
802.496	21412
802.638	21256
802.78	21222
802.923	21142
803.065	21051
803.208	20895
803.35	21116
803.492	21123
803.635	21180
803.777	21077
803.919	21127
804.061	21393
804.204	21093
804.346	21009
804.488	20971
804.63	21199
804.773	20921
804.915	21009
805.057	21081
805.199	20906
805.341	21005
805.483	21165
805.626	21085
805.768	20941
805.91	20914
806.052	20960
806.194	20872
806.336	21024
806.478	20967
806.62	20914
806.762	21077
806.904	21157
807.046	21374
807.188	21329
807.33	21332
807.472	21294
807.614	21249
807.756	21389
807.898	21127
808.04	21093
808.182	21165
808.324	21169
808.465	21214
808.607	21412
808.749	21405
808.891	21625
809.033	21603
809.174	21511
809.316	21397
809.458	21412
809.6	21389
809.741	21450
809.883	21477
810.025	21462
810.166	21713
810.308	21549
810.45	21564
810.591	21416
810.733	21241
810.875	21310
811.016	20986
811.158	21165
811.299	21283
811.441	21264
811.582	21336
811.724	21180
811.865	21032
812.007	21157
812.148	21116
812.29	21100
812.431	21367
812.573	21500
812.714	21622
812.855	21797
812.997	21873
813.138	21911
813.279	21720
813.421	21603
813.562	21549
813.703	21397
813.845	21306
813.986	21074
814.127	20834
814.268	20823
814.41	20621
814.551	20682
814.692	20754
814.833	20670
814.974	20587
815.115	20819
815.256	20518
815.397	20594
815.539	20556
815.68	20473
815.821	20526
815.962	20415
816.103	20423
816.244	20374
816.385	20115
816.526	20195
816.666	20016
816.807	19841
816.948	20016
817.089	20073
817.23	19883
817.371	19822
817.512	19887
817.653	19814
817.793	19765
817.934	19814
818.075	19837
818.216	19868
818.356	19803
818.497	19616
818.638	19510
818.778	19540
818.919	19438
819.06	19544
819.2	19689
819.341	19662
819.481	19761
819.622	19917
819.762	20096
819.903	19928
820.043	19974
820.184	19864
820.324	19837
820.465	19890
820.605	19898
820.746	19670
820.886	19677
821.026	19753
821.167	19731
821.307	19936
821.447	19784
821.588	19601
821.728	19495
821.868	19365
822.008	19217
822.149	19206
822.289	19160
822.429	19076
822.569	18989
822.709	18973
822.849	18730
822.99	18627
823.13	18665
823.27	18696
823.41	18498
823.55	18502
823.69	18490
823.83	18570
823.97	18441
824.11	18315
824.25	18174
824.389	18277
824.529	18380
824.669	18277
824.809	18445
824.949	18346
825.089	18342
825.228	18350
825.368	18076
825.508	18091
825.648	18041
825.787	18125
825.927	18163
826.067	18098
826.206	17984
826.346	18045
826.485	18060
826.625	18117
826.765	18201
826.904	18041
827.044	17874
827.183	17821
827.323	17745
827.462	17745
827.601	17726
827.741	17634
827.88	17843
828.02	17611
828.159	17741
828.298	17775
828.437	17790
828.577	17745
828.716	17920
828.855	17687
828.994	17585
829.134	17577
829.273	17547
829.412	17448
829.551	17417
829.69	17554
829.829	17558
829.968	17600
830.107	17615
830.246	17532
830.385	17501
830.524	17406
830.663	17398
830.802	17124
830.941	17174
831.08	17041
831.219	17246
831.357	17269
831.496	17326
831.635	17094
831.774	16961
831.913	16999
832.051	16885
832.19	16881
832.329	16980
832.467	16938
832.606	16805
832.744	16831
832.883	16763
833.022	16816
833.16	16839
833.299	16873
833.437	16850
833.576	16858
833.714	16911
833.852	16927
833.991	16877
834.129	16999
834.267	16965
834.406	16904
834.544	16961
834.682	16881
834.821	16927
834.959	16965
835.097	16873
835.235	16968
835.373	16915
835.511	16904
835.65	16801
835.788	16805
835.926	16702
836.064	16706
836.202	16660
836.34	16801
836.478	16885
836.615	16782
836.753	16801
836.891	16752
837.029	16809
837.167	16843
837.305	16573
837.443	16672
837.58	16660
837.718	16774
837.856	16603
837.993	16649
838.131	16584
838.269	16546
838.406	16531
838.544	16527
838.681	16306
838.819	16325
838.956	16162
839.094	16154
839.231	16329
839.369	16211
839.506	16580
839.643	16405
839.781	16223
839.918	16124
840.055	16192
840.193	16139
840.33	16059
840.467	16177
840.604	16200
840.742	16386
840.879	16040
841.016	16150
841.153	16074
841.29	16246
841.427	16238
841.564	16204
841.701	16162
841.838	16131
841.975	16101
842.112	16074
842.249	15972
842.385	15964
842.522	16143
842.659	16067
842.796	15949
842.933	15979
843.069	16002
843.206	15937
843.343	15972
843.479	15964
843.616	16040
843.752	15709
843.889	15774
844.025	15857
844.162	15736
844.298	15823
844.435	15781
844.571	15736
844.708	15732
844.844	15854
844.98	15907
845.117	15876
845.253	15652
845.389	15553
845.525	15705
845.661	15690
845.798	15686
845.934	15736
846.07	15660
846.206	15812
846.342	15781
846.478	15553
846.614	15526
846.75	15184
846.886	15321
847.022	15382
847.158	15382
847.294	15370
847.429	15294
847.565	15294
847.701	15686
847.837	15020
847.972	14986
848.108	15119
848.244	15081
848.379	14944
848.515	14914
848.65	14861
848.786	14895
848.921	14899
849.057	14990
849.192	14967
849.328	14944
849.463	15017
849.598	14937
849.734	14743
849.869	14686
850.004	14678
850.14	14640
850.275	14689
850.41	14587
850.545	14564
850.68	14632
850.815	14697
850.95	14590
851.085	14777
851.22	14804
851.355	14708
851.49	14629
851.625	14648
851.76	14701
851.895	14632
852.03	14522
852.165	14651
852.299	14720
852.434	14765
852.569	14674
852.703	14701
852.838	14697
852.973	14838
853.107	14815
853.242	14667
853.376	14617
853.511	14423
853.645	14469
853.78	14602
853.914	14537
854.048	14518
854.183	14495
854.317	14488
854.451	14727
854.585	14530
854.72	14492
854.854	14674
854.988	14434
855.122	14530
855.256	14298
855.39	14503
855.524	14674
855.658	14560
855.792	14537
855.926	14579
856.06	14564
856.194	14670
856.327	14526
856.461	14492
856.595	14503
856.729	14473
856.862	14564
856.996	14640
857.13	14640
857.263	14670
857.397	14552
857.53	14507
857.664	14667
857.797	14537
857.931	14667
858.064	14617
858.197	14697
858.331	14469
858.464	14564
858.597	14450
858.731	14499
858.864	14545
858.997	14583
859.13	14530
859.263	14537
859.396	14549
859.529	14469
859.662	14457
859.795	14408
859.928	14507
860.061	14750
860.194	14667
860.327	14518
860.46	14518
860.592	14606
860.725	14682
860.858	14568
860.99	14533
861.123	14404
861.256	14530
861.388	14594
861.521	15272
861.653	14339
861.786	14377
861.918	14419
862.05	14454
862.183	14564
862.315	14518
862.447	14568
862.58	14457
862.712	14229
862.844	14248
862.976	14461
863.108	14366
863.24	14788
863.372	14176
863.504	14294
863.636	14275
863.768	14336
863.9	14332
864.032	14225
864.164	14237
864.296	14385
864.428	14290
864.559	14419
864.691	14450
864.823	14442
864.954	14336
865.086	14374
865.217	14229
865.349	14244
865.48	14298
865.612	14347
865.743	14412
865.875	14313
866.006	14176
866.137	14275
866.269	14362
866.4	14210
866.531	14328
866.662	14191
866.793	14271
866.924	14237
867.055	14187
867.186	14282
867.317	14168
867.448	14202
867.579	14256
867.71	14218
867.841	14210
867.972	14252
868.103	14275
868.233	14313
868.364	14366
868.495	14282
868.625	14488
868.756	14640
868.886	14412
869.017	14484
869.147	14541
869.278	14705
869.408	14533
869.539	14446
869.669	14522
869.799	14552
869.929	14705
870.06	14625
870.19	14842
870.32	14826
870.45	14815
870.58	14990
870.71	14918
870.84	15093
870.97	14834
871.1	14937
871.23	15097
871.36	15138
871.489	14960
871.619	15161
871.749	15081
871.879	15085
872.008	15195
872.138	15214
872.267	15230
872.397	15017
872.526	14887
872.656	14895
872.785	14925
872.915	15192
873.044	15195
873.173	15214
873.303	15127
873.432	15195
873.561	15241
873.69	15146
873.819	15154
873.948	15150
874.077	15157
874.206	15089
874.335	15169
874.464	15389
874.593	15462
874.722	15393
874.851	15405
874.979	15458
875.108	15485
875.237	15363
875.365	15473
875.494	15435
875.623	15545
875.751	15477
875.88	15500
876.008	15644
876.136	15679
876.265	15835
876.393	16044
876.521	15941
876.65	15915
876.778	15816
876.906	15861
877.034	15842
877.162	15926
877.29	15808
877.418	15979
877.546	16013
877.674	15842
877.802	15819
877.93	15797
878.058	15869
878.185	15717
878.313	15842
878.441	15850
878.568	15728
878.696	15835
878.824	15945
878.951	16025
879.079	16124
879.206	16234
879.333	16063
879.461	15987
879.588	16116
879.715	16017
879.842	16234
879.97	15991
880.097	15789
880.224	15587
880.351	15873
880.478	15827
880.605	15720
880.732	15698
880.859	15945
880.986	15850
881.112	15854
881.239	15629
881.366	15481
881.493	15500
881.619	15435
881.746	15408
881.872	15332
881.999	15416
882.125	15367
882.252	15431
882.378	15447
882.505	15549
882.631	15397
882.757	15325
882.883	15302
883.01	15199
883.136	15142
883.262	15112
883.388	15081
883.514	15272
883.64	15260
883.766	15176
883.892	15085
884.018	15127
884.143	15230
884.269	15313
884.395	15066
884.52	14910
884.646	14986
884.772	14872
884.897	14811
885.023	14876
885.148	15062
885.274	14990
885.399	15089
885.524	14937
885.65	14910
885.775	14933
885.9	14864
886.025	14933
886.15	14963
886.275	14800
886.4	14731
886.525	14804
886.65	14902
886.775	14781
886.9	15009
887.025	15127
887.149	14971
887.274	14758
887.399	14735
887.523	14785
887.648	14769
887.773	14617
887.897	14804
888.021	14815
888.146	14705
888.27	14845
888.395	14849
888.519	14754
888.643	14758
888.767	14876
888.891	14697
889.015	14568
889.139	14644
889.263	14473
889.387	14667
889.511	14758
889.635	14667
889.759	14590
889.883	14636
890.006	14556
890.13	14651
890.254	14571
890.377	14549
890.501	14423
890.624	14355
890.748	14454
890.871	14290
890.995	14259
891.118	14180
891.241	14248
891.364	14305
891.488	14374
891.611	14317
891.734	14328
891.857	14263
891.98	14336
892.103	14332
892.226	14282
892.349	14252
892.471	14142
892.594	14225
892.717	14332
892.839	14370
892.962	14282
893.085	14244
893.207	14343
893.33	14164
893.452	14119
893.575	14286
893.697	14237
893.819	14469
893.941	14503
894.064	14404
894.186	14298
894.308	14168
894.43	14450
894.552	14454
894.674	14358
894.796	14221
894.918	14332
895.04	14195
895.161	14423
895.283	14355
895.405	14396
895.526	14377
895.648	14370
895.769	14465
895.891	14404
896.012	14492
896.134	14476
896.255	14469
896.376	14412
896.498	14545
896.619	14446
896.74	14518
896.861	14598
896.982	14811
897.103	15013
897.224	14720
897.345	14765
897.466	14708
897.587	14689
897.708	14838
897.828	14800
897.949	14659
898.07	14667
898.19	14686
898.311	14815
898.431	14804
898.552	14796
898.672	14880
898.792	14842
898.913	14845
899.033	14765
899.153	14746
899.273	14587
899.393	14610
899.513	14727
899.633	14579
899.753	14765
899.873	14613
899.993	14739
900.113	14724
900.232	14712
900.352	14541
900.472	14488
900.591	14594
900.711	14537
900.83	14537
900.95	14579
901.069	14648
901.189	14530
901.308	14263
901.427	14195
901.546	14210
901.665	14336
901.784	14180
901.904	14069
902.023	14027
902.141	13811
902.26	13742
902.379	13921
902.498	13670
902.617	13776
902.735	13864
902.854	13780
902.973	13715
903.091	13510
903.21	13403
903.328	13601
903.446	13457
903.565	13304
903.683	13350
903.801	13198
903.919	13289
904.038	13278
904.156	13206
904.274	13183
904.392	13126
904.51	13126
904.627	13149
904.745	13171
904.863	13240
904.981	12875
905.098	12798
905.216	12787
905.334	12787
905.451	12848
905.569	12760
905.686	12901
905.803	12798
905.921	12627
906.038	12829
906.155	12700
906.272	12498
906.389	12631
906.506	12399
906.623	12578
906.74	12471
906.857	12365
906.974	12418
907.091	12528
907.208	12589
907.324	12486
907.441	12346
907.557	12243
907.674	12171
907.79	12194
907.907	12163
908.023	12270
908.139	12117
908.256	12117
908.372	12167
908.488	12045
908.604	11969
908.72	11996
908.836	12034
908.952	11901
909.068	12034
909.184	12019
909.3	11923
909.415	12015
909.531	11988
909.647	11798
909.762	11699
909.878	11623
909.993	11745
910.108	11752
910.224	11672
910.339	11840
910.454	11604
910.57	11589
910.685	11486
910.8	11726
910.915	11733
911.03	11596
911.145	11535
911.259	11467
911.374	11452
911.489	11372
911.604	11337
911.718	11189
911.833	11265
911.947	11083
912.062	11029
912.176	11128
912.291	11136
912.405	11193
912.519	11368
912.633	11417
912.748	11280
912.862	11269
912.976	11048
913.09	10927
913.204	11064
913.318	11079
913.431	11162
913.545	11136
913.659	11155
913.772	11048
913.886	10896
914	10942
914.113	11083
914.226	11071
914.34	11018
914.453	10889
914.566	11010
914.68	10892
914.793	10850
914.906	10710
915.019	10645
915.132	10607
915.245	10637
915.358	10653
915.47	10725
915.583	10763
915.696	10706
915.809	10812
915.921	10721
916.034	10603
916.146	10584
916.259	10618
916.371	10740
916.483	10641
916.595	10508
916.708	10607
916.82	10599
916.932	10569
917.044	10649
917.156	10554
917.268	10531
917.38	10489
917.491	10527
917.603	10493
917.715	10596
917.826	10542
917.938	10485
918.049	10436
918.161	10519
918.272	10569
918.384	10565
918.495	10618
918.606	10375
918.717	10272
918.828	10329
918.939	10432
919.05	10310
919.161	10363
919.272	10105
919.383	10299
919.494	10413
919.604	10592
919.715	10382
919.826	10295
919.936	10341
920.047	10447
920.157	10344
920.267	10592
920.378	10440
920.488	10402
920.598	10607
920.708	10714
920.818	10512
920.928	10558
921.038	10744
921.148	10694
921.258	10432
921.368	10352
921.477	10268
921.587	10154
921.697	10093
921.806	10280
921.916	10177
922.025	9968
922.134	9922
922.244	9918
922.353	9949
922.462	9804
922.571	9770
922.68	9606
922.789	9572
922.898	9595
923.007	9564
923.116	9667
923.224	9595
923.333	9633
923.442	9492
923.55	9504
923.659	9485
923.767	9572
923.876	9462
923.984	9557
924.092	9443
924.201	9462
924.309	9439
924.417	9496
924.525	9454
924.633	9454
924.741	10341
924.849	9245
924.956	9393
925.064	9253
925.172	9207
925.279	9233
925.387	9237
925.494	9344
925.602	9378
925.709	9291
925.816	9173
925.924	9332
926.031	9386
926.138	9321
926.245	9332
926.352	9203
926.459	9355
926.566	9447
926.673	9268
926.779	9097
926.886	9116
926.993	9024
927.099	8944
927.206	8883
927.312	8891
927.419	9001
927.525	9017
927.631	9013
927.737	8963
927.843	8967
927.95	8743
928.056	8933
928.162	8876
928.267	8948
928.373	9473
928.479	8994
928.585	8762
928.69	8788
928.796	8880
928.901	8807
929.007	8648
929.112	8731
929.218	8724
929.323	8754
929.428	8739
929.533	8842
929.638	8655
929.743	8667
929.848	8724
929.953	8667
930.058	8602
930.163	8412
930.267	8427
930.372	8617
930.477	8419
930.581	8651
930.685	8541
930.79	8385
930.894	8427
930.998	8408
931.103	8454
931.207	8115
931.311	8123
931.415	8145
931.519	7906
931.623	7978
