Data from test_V78500241_1183.txt Node
Date: Fri Mar 25 14:41:57 CST 2022
User: usil
Spectrometer: V785-0024
Trigger mode: 0
Integration Time (sec): 4.000000E-1
Scans to average: 1
Nonlinearity correction enabled: false
Boxcar width: 0
Storing dark spectrum: false
XAxis mode: Wavelengths
Number of Pixels in Spectrum: 1024
>>>>>Begin Spectral Data<<<<<
801.071	22485
801.214	22344
801.356	22059
801.499	22143
801.641	21816
801.783	21869
801.926	21850
802.068	21876
802.211	21751
802.353	21675
802.496	21412
802.638	21367
802.78	21283
802.923	21302
803.065	21135
803.208	21081
803.35	21230
803.492	21245
803.635	21344
803.777	21157
803.919	21211
804.061	21595
804.204	21268
804.346	21287
804.488	21005
804.63	21055
804.773	21058
804.915	21104
805.057	21230
805.199	21127
805.341	21085
805.483	21192
805.626	21226
805.768	21028
805.91	21161
806.052	21116
806.194	21039
806.336	21260
806.478	21123
806.62	21028
806.762	21207
806.904	21226
807.046	21492
807.188	21405
807.33	21526
807.472	21431
807.614	21416
807.756	21401
807.898	21252
808.04	21192
808.182	21222
808.324	21329
808.465	21416
808.607	21462
808.749	21545
808.891	21667
809.033	21808
809.174	21652
809.316	21553
809.458	21496
809.6	21610
809.741	21496
809.883	21652
810.025	21644
810.166	21690
810.308	21701
810.45	21618
810.591	21561
810.733	21431
810.875	21256
811.016	21211
811.158	21279
811.299	21340
811.441	21386
811.582	21359
811.724	21370
811.865	21241
812.007	21222
812.148	21237
812.29	21291
812.431	21401
812.573	21591
812.714	21595
812.855	21831
812.997	21850
813.138	21956
813.279	21922
813.421	21857
813.562	21747
813.703	21553
813.845	21416
813.986	21184
814.127	20971
814.268	20880
814.41	20921
814.551	20735
814.692	20952
814.833	20746
814.974	20743
815.115	20872
815.256	20659
815.397	20743
815.539	20727
815.68	20434
815.821	20602
815.962	20537
816.103	20511
816.244	20396
816.385	20298
816.526	20237
816.666	20107
816.807	19826
816.948	20164
817.089	20149
817.23	20100
817.371	20031
817.512	19997
817.653	20043
817.793	19963
817.934	19909
818.075	20031
818.216	20054
818.356	19940
818.497	19852
818.638	19715
818.778	19666
818.919	19803
819.06	19586
819.2	19898
819.341	19776
819.481	19944
819.622	19887
819.762	20183
819.903	20088
820.043	20130
820.184	20069
820.324	19902
820.465	20126
820.605	19967
820.746	19963
820.886	19963
821.026	19925
821.167	19799
821.307	19986
821.447	19780
821.588	19780
821.728	19658
821.868	19407
822.008	19346
822.149	19369
822.289	19339
822.429	19145
822.569	19088
822.709	19023
822.849	18783
822.99	18932
823.13	18821
823.27	18760
823.41	18646
823.55	18608
823.69	18825
823.83	18642
823.97	18635
824.11	18407
824.25	18441
824.389	18380
824.529	18532
824.669	18490
824.809	18585
824.949	18589
825.089	18433
825.228	18502
825.368	18311
825.508	18232
825.648	18319
825.787	18384
825.927	18239
826.067	18091
826.206	18239
826.346	18235
826.485	18277
826.625	18270
826.765	18403
826.904	18251
827.044	18102
827.183	17969
827.323	17923
827.462	17942
827.601	18003
827.741	17836
827.88	17885
828.02	17821
828.159	17805
828.298	17954
828.437	17992
828.577	17882
828.716	17996
828.855	17821
828.994	17672
829.134	17634
829.273	17668
829.412	17585
829.551	17585
829.69	17627
829.829	17630
829.968	17874
830.107	17707
830.246	17710
830.385	17573
830.524	17558
830.663	17661
830.802	17448
830.941	17387
831.08	17174
831.219	17364
831.357	17299
831.496	17566
831.635	17258
831.774	17280
831.913	17318
832.051	17136
832.19	17159
832.329	17105
832.467	17136
832.606	16995
832.744	17086
832.883	16984
833.022	17033
833.16	17022
833.299	17029
833.437	17045
833.576	17052
833.714	16999
833.852	17041
833.991	17090
834.129	17105
834.267	17136
834.406	17132
834.544	17143
834.682	17124
834.821	17018
834.959	17246
835.097	17029
835.235	17083
835.373	17083
835.511	17060
835.65	16972
835.788	16999
835.926	16763
836.064	16790
836.202	16862
836.34	16911
836.478	16949
836.615	16930
836.753	16881
836.891	17124
837.029	16995
837.167	16980
837.305	16900
837.443	16858
837.58	16729
837.718	16869
837.856	16862
837.993	16790
838.131	16862
838.269	16774
838.406	16767
838.544	16706
838.681	16500
838.819	16523
838.956	16333
839.094	16284
839.231	16440
839.369	16527
839.506	16786
839.643	16656
839.781	16413
839.918	16272
840.055	16390
840.193	16382
840.33	16417
840.467	16394
840.604	16451
840.742	16607
840.879	16242
841.016	16215
841.153	16348
841.29	16470
841.427	16398
841.564	16462
841.701	16424
841.838	16375
841.975	16295
842.112	16192
842.249	16200
842.385	16139
842.522	16333
842.659	16280
842.796	16211
842.933	16207
843.069	16044
843.206	16090
843.343	16230
843.479	16219
843.616	16185
843.752	15930
843.889	15956
844.025	16101
844.162	15895
844.298	15953
844.435	15926
844.571	15937
844.708	16036
844.844	16067
844.98	16169
845.117	16101
845.253	15884
845.389	15876
845.525	15941
845.661	15842
845.798	15823
845.934	15964
846.07	15930
846.206	15937
846.342	16044
846.478	15755
846.614	15614
846.75	15492
846.886	15458
847.022	15610
847.158	15462
847.294	15549
847.429	15557
847.565	15458
847.701	15785
847.837	15154
847.972	15036
848.108	15439
848.244	15340
848.379	15199
848.515	15066
848.65	15047
848.786	15135
848.921	15081
849.057	15184
849.192	15287
849.328	15116
849.463	15226
849.598	14994
849.734	15043
849.869	14956
850.004	14868
850.14	14872
850.275	14967
850.41	14781
850.545	14842
850.68	14914
850.815	14887
850.95	14895
851.085	15077
851.22	14918
851.355	14845
851.49	14887
851.625	14895
851.76	14811
851.895	14777
852.03	14807
852.165	14788
852.299	14941
852.434	15104
852.569	14838
852.703	14849
852.838	14902
852.973	14929
853.107	14986
853.242	14777
853.376	14781
853.511	14663
853.645	14769
853.78	14857
853.914	14777
854.048	14773
854.183	14762
854.317	14838
854.451	14868
854.585	14735
854.72	14697
854.854	14796
854.988	14727
855.122	14670
855.256	14621
855.39	14541
855.524	14842
855.658	14781
855.792	14838
855.926	14750
856.06	14785
856.194	14758
856.327	14720
856.461	14670
856.595	14689
856.729	14693
856.862	14804
856.996	14830
857.13	14781
857.263	14815
857.397	14830
857.53	14648
857.664	14743
857.797	14796
857.931	14887
858.064	14750
858.197	14845
858.331	14807
858.464	14716
858.597	14689
858.731	14720
858.864	14777
858.997	14659
859.13	14823
859.263	14727
859.396	14804
859.529	14701
859.662	14781
859.795	14682
859.928	14750
860.061	14895
860.194	14944
860.327	14731
860.46	14823
860.592	14804
860.725	14899
860.858	14933
860.99	14762
861.123	14712
861.256	14720
861.388	14739
861.521	15507
861.653	14659
861.786	14667
861.918	14697
862.05	14629
862.183	14769
862.315	14686
862.447	14746
862.58	14716
862.712	14575
862.844	14446
862.976	14549
863.108	14488
863.24	14967
863.372	14400
863.504	14526
863.636	14537
863.768	14583
863.9	14484
864.032	14400
864.164	14537
864.296	14454
864.428	14648
864.559	14552
864.691	14610
864.823	14564
864.954	14526
865.086	14537
865.217	14434
865.349	14438
865.48	14488
865.612	14552
865.743	14575
865.875	14552
866.006	14499
866.137	14560
866.269	14488
866.4	14488
866.531	14492
866.662	14442
866.793	14438
866.924	14461
867.055	14427
867.186	14454
867.317	14457
867.448	14381
867.579	14457
867.71	14366
867.841	14351
867.972	14469
868.103	14514
868.233	14454
868.364	14556
868.495	14602
868.625	14705
868.756	14853
868.886	14712
869.017	14636
869.147	14785
869.278	14807
869.408	14762
869.539	14693
869.669	14804
869.799	14708
869.929	14838
870.06	14918
870.19	15047
870.32	15058
870.45	15180
870.58	15104
870.71	15279
870.84	15230
870.97	15093
871.1	15066
871.23	15291
871.36	15321
871.489	15184
871.619	15336
871.749	15363
871.879	15355
872.008	15298
872.138	15325
872.267	15313
872.397	15173
872.526	15218
872.656	15199
872.785	15233
872.915	15397
873.044	15507
873.173	15272
873.303	15458
873.432	15424
873.561	15336
873.69	15408
873.819	15405
873.948	15412
874.077	15447
874.206	15241
874.335	15355
874.464	15526
874.593	15701
874.722	15576
874.851	15690
874.979	15705
875.108	15660
875.237	15652
875.365	15705
875.494	15622
875.623	15751
875.751	15705
875.88	15675
876.008	15888
876.136	15907
876.265	16162
876.393	16211
876.521	16249
876.65	16143
876.778	16071
876.906	16116
877.034	16059
877.162	16040
877.29	16105
877.418	16074
877.546	16013
877.674	16067
877.802	16036
877.93	16135
878.058	16055
878.185	16063
878.313	16154
878.441	16059
878.568	15972
878.696	16059
878.824	16051
878.951	16226
879.079	16291
879.206	16421
879.333	16333
879.461	16295
879.588	16291
879.715	16409
879.842	16466
879.97	16177
880.097	16048
880.224	15838
880.351	15998
880.478	15998
880.605	15850
880.732	15953
880.859	16204
880.986	15998
881.112	15975
881.239	15892
881.366	15709
881.493	15762
881.619	15675
881.746	15591
881.872	15580
881.999	15625
882.125	15599
882.252	15728
882.378	15652
882.505	15781
882.631	15610
882.757	15435
882.883	15447
883.01	15424
883.136	15370
883.262	15321
883.388	15264
883.514	15439
883.64	15424
883.766	15355
883.892	15249
884.018	15313
884.143	15454
884.269	15519
884.395	15218
884.52	15142
884.646	15112
884.772	15123
884.897	15070
885.023	15154
885.148	15180
885.274	15325
885.399	15192
885.524	15161
885.65	15146
885.775	15135
885.9	15074
886.025	15237
886.15	15180
886.275	15085
886.4	15070
886.525	15203
886.65	14998
886.775	15039
886.9	15218
887.025	15389
887.149	15081
887.274	14967
887.399	14982
887.523	14891
887.648	14925
887.773	14796
887.897	15043
888.021	15009
888.146	14895
888.27	15020
888.395	14994
888.519	14986
888.643	14979
888.767	14990
888.891	14857
889.015	14826
889.139	14956
889.263	14765
889.387	14906
889.511	14994
889.635	15024
889.759	14849
889.883	14834
890.006	14769
890.13	14876
890.254	14716
890.377	14781
890.501	14682
890.624	14530
890.748	14689
890.871	14636
890.995	14423
891.118	14412
891.241	14514
891.364	14492
891.488	14560
891.611	14511
891.734	14602
891.857	14549
891.98	14579
892.103	14545
892.226	14594
892.349	14415
892.471	14400
892.594	14396
892.717	14446
892.839	14446
892.962	14434
893.085	14526
893.207	14438
893.33	14343
893.452	14476
893.575	14568
893.697	14438
893.819	14735
893.941	14689
894.064	14640
894.186	14415
894.308	14343
894.43	14655
894.552	14659
894.674	14629
894.796	14537
894.918	14480
895.04	14469
895.161	14648
895.283	14545
895.405	14560
895.526	14590
895.648	14587
895.769	14644
895.891	14682
896.012	14693
896.134	14705
896.255	14583
896.376	14598
896.498	14674
896.619	14670
896.74	14663
896.861	14693
896.982	14948
897.103	15085
897.224	14994
897.345	14918
897.466	14861
897.587	14971
897.708	15020
897.828	14956
897.949	14864
898.07	14800
898.19	14956
898.311	15047
898.431	14921
898.552	14971
898.672	15119
898.792	15043
898.913	15097
899.033	14887
899.153	14815
899.273	14762
899.393	14781
899.513	14868
899.633	14876
899.753	14918
899.873	14735
899.993	14960
900.113	14815
900.232	14906
900.352	14861
900.472	14754
900.591	14743
900.711	14777
900.83	14724
900.95	14861
901.069	14887
901.189	14648
901.308	14533
901.427	14415
901.546	14393
901.665	14362
901.784	14385
901.904	14259
902.023	14195
902.141	14020
902.26	13955
902.379	14081
902.498	13936
902.617	13864
902.735	14027
902.854	13974
902.973	13906
903.091	13776
903.21	13643
903.328	13609
903.446	13578
903.565	13544
903.683	13487
903.801	13422
903.919	13483
904.038	13457
904.156	13377
904.274	13407
904.392	13320
904.51	13369
904.627	13388
904.745	13422
904.863	13354
904.981	13179
905.098	13042
905.216	12989
905.334	13000
905.451	13103
905.569	13004
905.686	13046
905.803	13042
905.921	12848
906.038	12913
906.155	12909
906.272	12753
906.389	12783
906.506	12620
906.623	12700
906.74	12654
906.857	12486
906.974	12467
907.091	12692
907.208	12684
907.324	12662
907.441	12506
907.557	12334
907.674	12334
907.79	12300
907.907	12357
908.023	12441
908.139	12327
908.256	12300
908.372	12266
908.488	12224
908.604	12053
908.72	12117
908.836	12152
908.952	12083
909.068	12129
909.184	12213
909.3	12209
909.415	12216
909.531	12133
909.647	11923
909.762	11904
909.878	11836
909.993	11912
910.108	11843
910.224	11840
910.339	11809
910.454	11817
910.57	11741
910.685	11623
910.8	12064
910.915	11855
911.03	11752
911.145	11429
911.259	11642
911.374	11562
911.489	11585
911.604	11364
911.718	11433
911.833	11353
911.947	11254
912.062	11181
912.176	11223
912.291	11349
912.405	11326
912.519	11516
912.633	11539
912.748	11383
912.862	11379
912.976	11204
913.09	11064
913.204	11140
913.318	11178
913.431	11299
913.545	11201
913.659	11273
913.772	11193
913.886	11083
914	11010
914.113	11204
914.226	11193
914.34	11105
914.453	11033
914.566	11189
914.68	11029
914.793	11033
914.906	10759
915.019	10744
915.132	10714
915.245	10736
915.358	10900
915.47	10828
915.583	10805
915.696	10858
915.809	11022
915.921	10995
916.034	10786
916.146	10824
916.259	10736
916.371	10839
916.483	10862
916.595	10748
916.708	10721
916.82	10778
916.932	10755
917.044	10702
917.156	10736
917.268	10554
917.38	10580
917.491	10656
917.603	10607
917.715	10687
917.826	10714
917.938	10641
918.049	10443
918.161	10569
918.272	10740
918.384	10767
918.495	10679
918.606	10615
918.717	10485
918.828	10561
918.939	10504
919.05	10466
919.161	10489
919.272	10367
919.383	10352
919.494	10599
919.604	10748
919.715	10523
919.826	10504
919.936	10497
920.047	10607
920.157	10565
920.267	10687
920.378	10474
920.488	10504
920.598	10702
920.708	10816
920.818	10778
920.928	10672
921.038	10763
921.148	10801
921.258	10531
921.368	10508
921.477	10402
921.587	10284
921.697	10249
921.806	10443
921.916	10242
922.025	10105
922.134	10010
922.244	9975
922.353	10036
922.462	9964
922.571	9972
922.68	9698
922.789	9732
922.898	9740
923.007	9682
923.116	9800
923.224	9755
923.333	9736
923.442	9717
923.55	9584
923.659	9629
923.767	9694
923.876	9614
923.984	9732
924.092	9629
924.201	9663
924.309	9622
924.417	9637
924.525	9564
924.633	9572
924.741	10360
924.849	9351
924.956	9515
925.064	9367
925.172	9306
925.279	9294
925.387	9397
925.494	9431
925.602	9485
925.709	9481
925.816	9253
925.924	9424
926.031	9488
926.138	9443
926.245	9458
926.352	9264
926.459	9488
926.566	9504
926.673	9306
926.779	9245
926.886	9260
926.993	9074
927.099	9055
927.206	9036
927.312	9001
927.419	9119
927.525	9081
927.631	9142
927.737	9032
927.843	9009
927.95	8807
928.056	8872
928.162	9005
928.267	9066
928.373	9690
928.479	9097
928.585	8823
928.69	8975
928.796	9066
928.901	8925
929.007	8769
929.112	8925
929.218	8830
929.323	8807
929.428	8796
929.533	8868
929.638	8693
929.743	8762
929.848	8815
929.953	8766
930.058	8743
930.163	8625
930.267	8587
930.372	8743
930.477	8507
930.581	8750
930.685	8720
930.79	8522
930.894	8560
930.998	8549
931.103	8682
931.207	8317
931.311	8233
931.415	8176
931.519	8020
931.623	8008
