Data from test_V78500241_3633.txt Node
Date: Fri Mar 25 14:59:00 CST 2022
User: usil
Spectrometer: V785-0024
Trigger mode: 0
Integration Time (sec): 4.000000E-1
Scans to average: 1
Nonlinearity correction enabled: false
Boxcar width: 0
Storing dark spectrum: false
XAxis mode: Wavelengths
Number of Pixels in Spectrum: 1024
>>>>>Begin Spectral Data<<<<<
801.071	21873
801.214	21789
801.356	21614
801.499	21397
801.641	21306
801.783	21218
801.926	21268
802.068	21275
802.211	21222
802.353	21085
802.496	20804
802.638	20777
802.78	20754
802.923	20746
803.065	20686
803.208	20583
803.35	20579
803.492	20762
803.635	20727
803.777	20670
803.919	20617
804.061	20921
804.204	20697
804.346	20522
804.488	20492
804.63	20560
804.773	20492
804.915	20590
805.057	20693
805.199	20389
805.341	20526
805.483	20549
805.626	20613
805.768	20537
805.91	20579
806.052	20484
806.194	20320
806.336	20564
806.478	20427
806.62	20381
806.762	20583
806.904	20689
807.046	20967
807.188	20804
807.33	20826
807.472	20868
807.614	20629
807.756	20708
807.898	20606
808.04	20575
808.182	20590
808.324	20655
808.465	20629
808.607	20781
808.749	20883
808.891	21001
809.033	21024
809.174	20944
809.316	20883
809.458	20910
809.6	20937
809.741	20952
809.883	20933
810.025	21024
810.166	20998
810.308	20941
810.45	20990
810.591	20788
810.733	20689
810.875	20750
811.016	20480
811.158	20503
811.299	20625
811.441	20819
811.582	20663
811.724	20629
811.865	20590
812.007	20499
812.148	20655
812.29	20667
812.431	20800
812.573	20838
812.714	21009
812.855	21070
812.997	21203
813.138	21359
813.279	21173
813.421	21123
813.562	21074
813.703	20842
813.845	20705
813.986	20469
814.127	20301
814.268	20275
814.41	20111
814.551	20130
814.692	20210
814.833	20035
814.974	20043
815.115	20069
815.256	20065
815.397	20077
815.539	19970
815.68	19917
815.821	19788
815.962	19883
816.103	19784
816.244	19795
816.385	19643
816.526	19689
816.666	19441
816.807	19304
816.948	19312
817.089	19365
817.23	19419
817.371	19293
817.512	19304
817.653	19331
817.793	19225
817.934	19263
818.075	19263
818.216	19255
818.356	19297
818.497	19103
818.638	19008
818.778	18909
818.919	18935
819.06	19031
819.2	19095
819.341	19065
819.481	19251
819.622	19304
819.762	19578
819.903	19384
820.043	19316
820.184	19244
820.324	19285
820.465	19381
820.605	19350
820.746	19316
820.886	19160
821.026	19171
821.167	19213
821.307	19316
821.447	19160
821.588	19008
821.728	18901
821.868	18817
822.008	18703
822.149	18738
822.289	18665
822.429	18365
822.569	18262
822.709	18369
822.849	18129
822.99	18098
823.13	18102
823.27	18098
823.41	17912
823.55	17984
823.69	17904
823.83	17824
823.97	17836
824.11	17745
824.25	17684
824.389	17809
824.529	17851
824.669	17741
824.809	17946
824.949	17836
825.089	17805
825.228	17783
825.368	17657
825.508	17543
825.648	17551
825.787	17558
825.927	17566
826.067	17474
826.206	17486
826.346	17497
826.485	17547
826.625	17524
826.765	17687
826.904	17547
827.044	17326
827.183	17341
827.323	17220
827.462	17261
827.601	17178
827.741	17132
827.88	17216
828.02	17090
828.159	17151
828.298	17280
828.437	17235
828.577	17174
828.716	17292
828.855	17136
828.994	17083
829.134	16946
829.273	17037
829.412	16923
829.551	16930
829.69	16946
829.829	17079
829.968	17102
830.107	16987
830.246	16938
830.385	16843
830.524	16934
830.663	16759
830.802	16683
830.941	16740
831.08	16550
831.219	16622
831.357	16736
831.496	16843
831.635	16405
831.774	16599
831.913	16497
832.051	16390
832.19	16333
832.329	16405
832.467	16363
832.606	16268
832.744	16337
832.883	16272
833.022	16154
833.16	16333
833.299	16413
833.437	16318
833.576	16348
833.714	16363
833.852	16394
833.991	16394
834.129	16459
834.267	16367
834.406	16318
834.544	16447
834.682	16394
834.821	16379
834.959	16523
835.097	16367
835.235	16436
835.373	16405
835.511	16371
835.65	16310
835.788	16284
835.926	16196
836.064	16143
836.202	16120
836.34	16287
836.478	16314
836.615	16253
836.753	16440
836.891	16379
837.029	16341
837.167	16276
837.305	16173
837.443	16207
837.58	16082
837.718	16276
837.856	16143
837.993	16074
838.131	16295
838.269	16074
838.406	16082
838.544	16048
838.681	15975
838.819	15861
838.956	15751
839.094	15660
839.231	15759
839.369	15842
839.506	16112
839.643	15941
839.781	15766
839.918	15549
840.055	15690
840.193	15625
840.33	15755
840.467	15682
840.604	15781
840.742	15979
840.879	15610
841.016	15644
841.153	15515
841.29	15873
841.427	15736
841.564	15629
841.701	15732
841.838	15701
841.975	15576
842.112	15625
842.249	15401
842.385	15530
842.522	15618
842.659	15557
842.796	15469
842.933	15485
843.069	15473
843.206	15447
843.343	15500
843.479	15386
843.616	15466
843.752	15359
843.889	15382
844.025	15408
844.162	15249
844.298	15355
844.435	15249
844.571	15218
844.708	15272
844.844	15351
844.98	15424
845.117	15363
845.253	15161
845.389	15237
845.525	15195
845.661	15199
845.798	15055
845.934	15081
846.07	14971
846.206	15157
846.342	15176
846.478	15058
846.614	14929
846.75	14823
846.886	14842
847.022	14921
847.158	14819
847.294	14826
847.429	14834
847.565	14845
847.701	15039
847.837	14579
847.972	14549
848.108	14648
848.244	14701
848.379	14446
848.515	14400
848.65	14442
848.786	14438
848.921	14541
849.057	14602
849.192	14541
849.328	14537
849.463	14442
849.598	14396
849.734	14278
849.869	14351
850.004	14309
850.14	14278
850.275	14202
850.41	14229
850.545	14187
850.68	14103
850.815	14244
850.95	14229
851.085	14374
851.22	14313
851.355	14263
851.49	14210
851.625	14214
851.76	14176
851.895	14157
852.03	14126
852.165	14320
852.299	14183
852.434	14221
852.569	14282
852.703	14240
852.838	14237
852.973	14351
853.107	14343
853.242	14142
853.376	14081
853.511	14016
853.645	14111
853.78	14202
853.914	14126
854.048	14050
854.183	13997
854.317	14142
854.451	14206
854.585	14142
854.72	14088
854.854	14191
854.988	14020
855.122	14016
855.256	13936
855.39	14180
855.524	14161
855.658	14115
855.792	14115
855.926	14069
856.06	14180
856.194	14244
856.327	14145
856.461	14081
856.595	14096
856.729	13974
856.862	14153
856.996	14168
857.13	14187
857.263	14263
857.397	14180
857.53	14073
857.664	14081
857.797	14199
857.931	14180
858.064	14168
858.197	14225
858.331	14134
858.464	13982
858.597	13993
858.731	14142
858.864	14107
858.997	14081
859.13	14168
859.263	14073
859.396	14153
859.529	14100
859.662	14081
859.795	14119
859.928	14103
860.061	14290
860.194	14275
860.327	14031
860.46	14065
860.592	14176
860.725	14202
860.858	14229
860.99	13986
861.123	14024
861.256	14077
861.388	14024
861.521	14876
861.653	13921
861.786	13921
861.918	13925
862.05	14012
862.183	14065
862.315	14050
862.447	14157
862.58	14077
862.712	13879
862.844	13799
862.976	13944
863.108	13868
863.24	14256
863.372	13803
863.504	13852
863.636	13921
863.768	13944
863.9	13978
864.032	13738
864.164	13833
864.296	13902
864.428	13967
864.559	13963
864.691	13986
864.823	13925
864.954	13898
865.086	13826
865.217	13944
865.349	13871
865.48	13967
865.612	13799
865.743	13989
865.875	13826
866.006	13776
866.137	13830
866.269	13928
866.4	13849
866.531	13803
866.662	13757
866.793	13784
866.924	13765
867.055	13868
867.186	13879
867.317	13833
867.448	13791
867.579	13860
867.71	13818
867.841	13818
867.972	13852
868.103	13894
868.233	13837
868.364	13940
868.495	14039
868.625	14126
868.756	14336
868.886	13978
869.017	14206
869.147	14225
869.278	14206
869.408	14153
869.539	14126
869.669	14103
869.799	14119
869.929	14252
870.06	14244
870.19	14469
870.32	14320
870.45	14431
870.58	14560
870.71	14587
870.84	14587
870.97	14648
871.1	14541
871.23	14663
871.36	14663
871.489	14606
871.619	14727
871.749	14735
871.879	14796
872.008	14849
872.138	14716
872.267	14819
872.397	14617
872.526	14651
872.656	14545
872.785	14670
872.915	14682
873.044	14792
873.173	14667
873.303	14781
873.432	14788
873.561	14811
873.69	14746
873.819	14705
873.948	14857
874.077	14682
874.206	14712
874.335	14788
874.464	14937
874.593	15100
874.722	15001
874.851	15203
874.979	15036
875.108	15062
875.237	15005
875.365	15047
875.494	15024
875.623	15218
875.751	15047
875.88	15131
876.008	15237
876.136	15382
876.265	15530
876.393	15618
876.521	15618
876.65	15542
876.778	15511
876.906	15469
877.034	15481
877.162	15523
877.29	15511
877.418	15542
877.546	15625
877.674	15515
877.802	15454
877.93	15572
878.058	15393
878.185	15397
878.313	15572
878.441	15538
878.568	15469
878.696	15424
878.824	15557
878.951	15641
879.079	15557
879.206	15709
879.333	15606
879.461	15591
879.588	15644
879.715	15591
879.842	15751
879.97	15538
880.097	15252
880.224	15222
880.351	15378
880.478	15454
880.605	15329
880.732	15336
880.859	15610
880.986	15428
881.112	15294
881.239	15252
881.366	15150
881.493	15074
881.619	15024
881.746	15070
881.872	14944
881.999	14982
882.125	14998
882.252	15013
882.378	15009
882.505	15135
882.631	14921
882.757	14902
882.883	14826
883.01	14826
883.136	14800
883.262	14724
883.388	14724
883.514	14807
883.64	14815
883.766	14754
883.892	14724
884.018	14727
884.143	14746
884.269	14929
884.395	14617
884.52	14552
884.646	14545
884.772	14415
884.897	14446
885.023	14674
885.148	14746
885.274	14640
885.399	14568
885.524	14579
885.65	14625
885.775	14533
885.9	14568
886.025	14663
886.15	14602
886.275	14564
886.4	14469
886.525	14579
886.65	14476
886.775	14434
886.9	14663
887.025	14758
887.149	14541
887.274	14476
887.399	14358
887.523	14309
887.648	14332
887.773	14351
887.897	14450
888.021	14370
888.146	14313
888.27	14450
888.395	14518
888.519	14412
888.643	14488
888.767	14450
888.891	14263
889.015	14267
889.139	14309
889.263	14248
889.387	14301
889.511	14393
889.635	14362
889.759	14202
889.883	14206
890.006	14294
890.13	14317
890.254	14130
890.377	14252
890.501	14043
890.624	14008
890.748	14157
890.871	13951
890.995	13856
891.118	13871
891.241	13955
891.364	13959
891.488	14031
891.611	13906
891.734	13925
891.857	13898
891.98	13925
892.103	14050
892.226	13951
892.349	13955
892.471	13769
892.594	13982
892.717	13974
892.839	13986
892.962	14020
893.085	13963
893.207	13856
893.33	13833
893.452	13997
893.575	13936
893.697	13928
893.819	14100
893.941	14138
894.064	14077
894.186	13917
894.308	13898
894.43	14077
894.552	14187
894.674	14100
894.796	13871
894.918	13993
895.04	13955
895.161	14142
895.283	14012
895.405	13955
895.526	14008
895.648	14043
895.769	14119
895.891	14199
896.012	14149
896.134	14172
896.255	14088
896.376	14077
896.498	14149
896.619	14123
896.74	14168
896.861	14046
896.982	14434
897.103	14590
897.224	14393
897.345	14358
897.466	14343
897.587	14415
897.708	14396
897.828	14446
897.949	14381
898.07	14145
898.19	14305
898.311	14533
898.431	14370
898.552	14427
898.672	14659
898.792	14541
898.913	14438
899.033	14339
899.153	14423
899.273	14191
899.393	14343
899.513	14465
899.633	14286
899.753	14282
899.873	14400
899.993	14393
900.113	14370
900.232	14358
900.352	14332
900.472	14259
900.591	14221
900.711	14149
900.83	14206
900.95	14332
901.069	14294
901.189	14153
901.308	13818
901.427	13849
901.546	13811
901.665	13841
901.784	13967
901.904	13734
902.023	13677
902.141	13430
902.26	13487
902.379	13499
902.498	13403
902.617	13392
902.735	13441
902.854	13430
902.973	13388
903.091	13187
903.21	13221
903.328	13095
903.446	13152
903.565	12897
903.683	12989
903.801	12954
903.919	12962
904.038	12996
904.156	12837
904.274	12905
904.392	12768
904.51	12848
904.627	12787
904.745	12875
904.863	12913
904.981	12559
905.098	12452
905.216	12460
905.334	12601
905.451	12460
905.569	12433
905.686	12574
905.803	12490
905.921	12353
906.038	12502
906.155	12342
906.272	12220
906.389	12262
906.506	12106
906.623	12171
906.74	12064
906.857	12038
906.974	11980
907.091	12201
907.208	12232
907.324	12209
907.441	12026
907.557	11882
907.674	11851
907.79	11783
907.907	11836
908.023	11901
908.139	11870
908.256	11794
908.372	11756
908.488	11828
908.604	11604
908.72	11695
908.836	11646
908.952	11630
909.068	11691
909.184	11680
909.3	11737
909.415	11722
909.531	11707
909.647	11387
909.762	11406
909.878	11318
909.993	11463
910.108	11368
910.224	11417
910.339	11414
910.454	11315
910.57	11315
910.685	11201
910.8	11497
910.915	11421
911.03	11345
911.145	11143
911.259	11128
911.374	11136
911.489	11060
911.604	10927
911.718	10938
911.833	10961
911.947	10828
912.062	10774
912.176	10915
912.291	10946
912.405	11010
912.519	11143
912.633	11079
912.748	10881
912.862	10866
912.976	10805
913.09	10706
913.204	10725
913.318	10816
913.431	10809
913.545	10896
913.659	10927
913.772	10763
913.886	10740
914	10626
914.113	10748
914.226	10816
914.34	10816
914.453	10588
914.566	10763
914.68	10641
914.793	10527
914.906	10459
915.019	10405
915.132	10356
915.245	10398
915.358	10451
915.47	10527
915.583	10466
915.696	10493
915.809	10592
915.921	10577
916.034	10451
916.146	10344
916.259	10249
916.371	10474
916.483	10413
916.595	10367
916.708	10428
916.82	10325
916.932	10306
917.044	10341
917.156	10276
917.268	10253
917.38	10265
917.491	10249
917.603	10257
917.715	10242
917.826	10352
917.938	10143
918.049	10139
918.161	10261
918.272	10417
918.384	10348
918.495	10280
918.606	10116
918.717	10029
918.828	10135
918.939	10131
919.05	10010
919.161	10105
919.272	9930
919.383	10055
919.494	10150
919.604	10360
919.715	10154
919.826	10082
919.936	10135
920.047	10196
920.157	10173
920.267	10352
920.378	10188
920.488	10181
920.598	10360
920.708	10440
920.818	10379
920.928	10352
921.038	10554
921.148	10500
921.258	10158
921.368	10154
921.477	10002
921.587	10048
921.697	9964
921.806	10086
921.916	9846
922.025	9785
922.134	9698
922.244	9724
922.353	9698
922.462	9587
922.571	9557
922.68	9469
922.789	9344
922.898	9435
923.007	9370
923.116	9439
923.224	9428
923.333	9420
923.442	9287
923.55	9306
923.659	9313
923.767	9389
923.876	9241
923.984	9317
924.092	9302
924.201	9275
924.309	9203
924.417	9275
924.525	9161
924.633	9245
924.741	10017
924.849	9032
924.956	9211
925.064	9020
925.172	8933
925.279	9020
925.387	9047
925.494	9165
925.602	9195
925.709	9100
925.816	9017
925.924	9062
926.031	9097
926.138	9039
926.245	9116
926.352	9047
926.459	9100
926.566	9157
926.673	8998
926.779	8952
926.886	8941
926.993	8826
927.099	8807
927.206	8682
927.312	8754
927.419	8838
927.525	8788
927.631	8834
927.737	8731
927.843	8670
927.95	8617
928.056	8640
928.162	8743
928.267	8766
928.373	9241
928.479	8724
928.585	8560
928.69	8682
928.796	8712
928.901	8625
929.007	8446
929.112	8560
929.218	8587
929.323	8492
929.428	8511
929.533	8621
929.638	8469
929.743	8507
929.848	8541
929.953	8514
930.058	8450
930.163	8161
930.267	8263
930.372	8408
930.477	8252
930.581	8537
930.685	8279
930.79	8149
930.894	8309
930.998	8221
931.103	8404
931.207	8054
931.311	7944
931.415	7875
931.519	7746
931.623	7734
