Data from test_V78500241_2001.txt Node
Date: Fri Mar 25 14:47:38 CST 2022
User: usil
Spectrometer: V785-0024
Trigger mode: 0
Integration Time (sec): 4.000000E-1
Scans to average: 1
Nonlinearity correction enabled: false
Boxcar width: 0
Storing dark spectrum: false
XAxis mode: Wavelengths
Number of Pixels in Spectrum: 1024
>>>>>Begin Spectral Data<<<<<
801.071	22116
801.214	22059
801.356	21781
801.499	21622
801.641	21519
801.783	21401
801.926	21496
802.068	21416
802.211	21237
802.353	21272
802.496	20982
802.638	21123
802.78	20921
802.923	20849
803.065	20876
803.208	20826
803.35	20910
803.492	20842
803.635	20963
803.777	20804
803.919	20937
804.061	21329
804.204	20857
804.346	20815
804.488	20689
804.63	20807
804.773	20724
804.915	20781
805.057	20815
805.199	20708
805.341	20876
805.483	20899
805.626	20830
805.768	20689
805.91	20823
806.052	20640
806.194	20663
806.336	20891
806.478	20765
806.62	20708
806.762	20773
806.904	20971
807.046	21154
807.188	21108
807.33	21028
807.472	21047
807.614	20982
807.756	20895
807.898	20929
808.04	20845
808.182	20705
808.324	20739
808.465	20868
808.607	20975
808.749	21142
808.891	21203
809.033	21230
809.174	21306
809.316	21020
809.458	21192
809.6	20979
809.741	21237
809.883	21116
810.025	21245
810.166	21332
810.308	21283
810.45	21260
810.591	21154
810.733	21112
810.875	20853
811.016	20857
811.158	20819
811.299	20933
811.441	20952
811.582	21017
811.724	20986
811.865	20830
812.007	20899
812.148	20811
812.29	20842
812.431	21028
812.573	21051
812.714	21279
812.855	21424
812.997	21458
813.138	21534
813.279	21450
813.421	21408
813.562	21268
813.703	21043
813.845	21020
813.986	20785
814.127	20621
814.268	20560
814.41	20495
814.551	20408
814.692	20465
814.833	20442
814.974	20427
815.115	20427
815.256	20191
815.397	20267
815.539	20336
815.68	20096
815.821	20145
815.962	20214
816.103	20145
816.244	20016
816.385	19913
816.526	19917
816.666	19772
816.807	19613
816.948	19670
817.089	19757
817.23	19586
817.371	19548
817.512	19586
817.653	19525
817.793	19483
817.934	19487
818.075	19548
818.216	19582
818.356	19632
818.497	19441
818.638	19175
818.778	19297
818.919	19179
819.06	19316
819.2	19434
819.341	19518
819.481	19499
819.622	19525
819.762	19856
819.903	19670
820.043	19563
820.184	19548
820.324	19453
820.465	19727
820.605	19575
820.746	19480
820.886	19419
821.026	19434
821.167	19384
821.307	19525
821.447	19441
821.588	19266
821.728	19327
821.868	19031
822.008	19012
822.149	18993
822.289	18859
822.429	18635
822.569	18715
822.709	18688
822.849	18483
822.99	18536
823.13	18426
823.27	18445
823.41	18239
823.55	18247
823.69	18350
823.83	18220
823.97	18174
824.11	17988
824.25	17893
824.389	17942
824.529	18049
824.669	17851
824.809	18136
824.949	18201
825.089	18121
825.228	18091
825.368	17790
825.508	17821
825.648	17729
825.787	17885
825.927	17889
826.067	17718
826.206	17619
826.346	17840
826.485	17786
826.625	17775
826.765	17901
826.904	17813
827.044	17611
827.183	17573
827.323	17414
827.462	17501
827.601	17459
827.741	17524
827.88	17486
828.02	17364
828.159	17425
828.298	17562
828.437	17516
828.577	17398
828.716	17592
828.855	17459
828.994	17273
829.134	17273
829.273	17296
829.412	17284
829.551	17193
829.69	17223
829.829	17223
829.968	17364
830.107	17311
830.246	17318
830.385	17258
830.524	17189
830.663	17105
830.802	16976
830.941	16858
831.08	16908
831.219	16991
831.357	16919
831.496	17060
831.635	16881
831.774	16771
831.913	16797
832.051	16713
832.19	16596
832.329	16679
832.467	16588
832.606	16462
832.744	16561
832.883	16531
833.022	16645
833.16	16664
833.299	16637
833.437	16653
833.576	16622
833.714	16615
833.852	16706
833.991	16694
834.129	16664
834.267	16694
834.406	16573
834.544	16717
834.682	16668
834.821	16569
834.959	16725
835.097	16634
835.235	16653
835.373	16653
835.511	16630
835.65	16504
835.788	16493
835.926	16333
836.064	16303
836.202	16394
836.34	16535
836.478	16546
836.615	16451
836.753	16565
836.891	16588
837.029	16493
837.167	16474
837.305	16462
837.443	16447
837.58	16341
837.718	16577
837.856	16390
837.993	16341
838.131	16382
838.269	16303
838.406	16371
838.544	16276
838.681	16169
838.819	16120
838.956	15911
839.094	16055
839.231	15994
839.369	16105
839.506	16268
839.643	16211
839.781	15941
839.918	15975
840.055	15949
840.193	15880
840.33	15922
840.467	15884
840.604	16010
840.742	16188
840.879	15831
841.016	15873
841.153	15895
841.29	16025
841.427	15972
841.564	16029
841.701	16067
841.838	15838
841.975	15857
842.112	15888
842.249	15819
842.385	15625
842.522	15937
842.659	15785
842.796	15690
842.933	15781
843.069	15618
843.206	15629
843.343	15793
843.479	15789
843.616	15785
843.752	15530
843.889	15519
844.025	15747
844.162	15481
844.298	15671
844.435	15507
844.571	15500
844.708	15656
844.844	15713
844.98	15633
845.117	15572
845.253	15523
845.389	15367
845.525	15435
845.661	15378
845.798	15306
845.934	15336
846.07	15214
846.206	15332
846.342	15473
846.478	15325
846.614	15074
846.75	15123
846.886	15066
847.022	15165
847.158	15176
847.294	15146
847.429	15199
847.565	15116
847.701	15264
847.837	14887
847.972	14796
848.108	14941
848.244	14956
848.379	14739
848.515	14651
848.65	14613
848.786	14739
848.921	14777
849.057	14807
849.192	14800
849.328	14769
849.463	14762
849.598	14701
849.734	14746
849.869	14629
850.004	14488
850.14	14526
850.275	14465
850.41	14404
850.545	14393
850.68	14434
850.815	14400
850.95	14499
851.085	14579
851.22	14533
851.355	14442
851.49	14457
851.625	14389
851.76	14408
851.895	14324
852.03	14320
852.165	14431
852.299	14404
852.434	14499
852.569	14454
852.703	14431
852.838	14514
852.973	14598
853.107	14560
853.242	14423
853.376	14450
853.511	14248
853.645	14252
853.78	14450
853.914	14351
854.048	14332
854.183	14237
854.317	14366
854.451	14503
854.585	14374
854.72	14259
854.854	14454
854.988	14317
855.122	14294
855.256	14161
855.39	14412
855.524	14377
855.658	14457
855.792	14347
855.926	14370
856.06	14370
856.194	14385
856.327	14298
856.461	14374
856.595	14377
856.729	14248
856.862	14324
856.996	14347
857.13	14339
857.263	14480
857.397	14431
857.53	14336
857.664	14438
857.797	14400
857.931	14415
858.064	14313
858.197	14495
858.331	14317
858.464	14370
858.597	14195
858.731	14275
858.864	14275
858.997	14275
859.13	14427
859.263	14320
859.396	14347
859.529	14290
859.662	14271
859.795	14248
859.928	14400
860.061	14522
860.194	14476
860.327	14332
860.46	14202
860.592	14454
860.725	14389
860.858	14465
860.99	14381
861.123	14237
861.256	14298
861.388	14415
861.521	15013
861.653	14126
861.786	14187
861.918	14256
862.05	14206
862.183	14298
862.315	14370
862.447	14320
862.58	14214
862.712	14187
862.844	14039
862.976	14142
863.108	14142
863.24	14419
863.372	14005
863.504	14024
863.636	14046
863.768	14233
863.9	14161
864.032	14039
864.164	14130
864.296	14134
864.428	14214
864.559	14164
864.691	14149
864.823	14123
864.954	14157
865.086	14103
865.217	14115
865.349	14043
865.48	14107
865.612	14142
865.743	14126
865.875	14096
866.006	14069
866.137	14084
866.269	14123
866.4	14107
866.531	13955
866.662	14012
866.793	13989
866.924	14069
867.055	14069
867.186	14020
867.317	13936
867.448	14050
867.579	13936
867.71	14058
867.841	13986
867.972	14103
868.103	14077
868.233	14092
868.364	14065
868.495	14172
868.625	14320
868.756	14419
868.886	14317
869.017	14332
869.147	14400
869.278	14465
869.408	14343
869.539	14263
869.669	14336
869.799	14457
869.929	14389
870.06	14419
870.19	14651
870.32	14640
870.45	14735
870.58	14667
870.71	14918
870.84	14754
870.97	14815
871.1	14731
871.23	14838
871.36	14899
871.489	14826
871.619	14921
871.749	14941
871.879	14861
872.008	14982
872.138	14979
872.267	14880
872.397	14773
872.526	14765
872.656	14804
872.785	14720
872.915	14944
873.044	15009
873.173	14990
873.303	15013
873.432	14937
873.561	15043
873.69	15036
873.819	14990
873.948	15032
874.077	15047
874.206	15020
874.335	14994
874.464	15195
874.593	15382
874.722	15245
874.851	15245
874.979	15237
875.108	15363
875.237	15275
875.365	15294
875.494	15279
875.623	15348
875.751	15336
875.88	15245
876.008	15507
876.136	15580
876.265	15656
876.393	15857
876.521	15827
876.65	15854
876.778	15720
876.906	15644
877.034	15618
877.162	15743
877.29	15587
877.418	15667
877.546	15808
877.674	15751
877.802	15770
877.93	15728
878.058	15762
878.185	15523
878.313	15713
878.441	15698
878.568	15580
878.696	15587
878.824	15690
878.951	15797
879.079	15968
879.206	16067
879.333	15865
879.461	15732
879.588	15751
879.715	15857
879.842	16036
879.97	15899
880.097	15553
880.224	15584
880.351	15618
880.478	15526
880.605	15557
880.732	15458
880.859	15808
880.986	15618
881.112	15633
881.239	15374
881.366	15397
881.493	15351
881.619	15252
881.746	15199
881.872	15184
881.999	15131
882.125	15074
882.252	15165
882.378	15218
882.505	15389
882.631	15260
882.757	15043
882.883	15146
883.01	15074
883.136	14979
883.262	14967
883.388	14948
883.514	15047
883.64	15032
883.766	15100
883.892	14891
884.018	14899
884.143	15089
884.269	15108
884.395	14758
884.52	14727
884.646	14720
884.772	14682
884.897	14590
885.023	14796
885.148	14781
885.274	14811
885.399	14887
885.524	14895
885.65	14785
885.775	14773
885.9	14785
886.025	14861
886.15	14777
886.275	14693
886.4	14667
886.525	14655
886.65	14678
886.775	14705
886.9	15001
887.025	14956
887.149	14758
887.274	14686
887.399	14488
887.523	14568
887.648	14480
887.773	14503
887.897	14594
888.021	14598
888.146	14492
888.27	14659
888.395	14632
888.519	14697
888.643	14640
888.767	14587
888.891	14457
889.015	14484
889.139	14476
889.263	14484
889.387	14552
889.511	14602
889.635	14488
889.759	14454
889.883	14381
890.006	14488
890.13	14587
890.254	14317
890.377	14286
890.501	14294
890.624	14278
890.748	14298
890.871	14142
890.995	14081
891.118	14005
891.241	14115
891.364	14119
891.488	14233
891.611	14092
891.734	14084
891.857	14164
891.98	14123
892.103	14233
892.226	14248
892.349	14016
892.471	13955
892.594	14081
892.717	14202
892.839	14111
892.962	14103
893.085	14130
893.207	14020
893.33	14058
893.452	14054
893.575	14191
893.697	14058
893.819	14294
893.941	14374
894.064	14355
894.186	14031
894.308	14168
894.43	14237
894.552	14362
894.674	14324
894.796	14183
894.918	14218
895.04	14237
895.161	14275
895.283	14240
895.405	14100
895.526	14225
895.648	14210
895.769	14343
895.891	14362
896.012	14301
896.134	14317
896.255	14320
896.376	14351
896.498	14256
896.619	14298
896.74	14301
896.861	14358
896.982	14659
897.103	14705
897.224	14598
897.345	14545
897.466	14526
897.587	14514
897.708	14602
897.828	14533
897.949	14530
898.07	14396
898.19	14503
898.311	14758
898.431	14651
898.552	14533
898.672	14750
898.792	14727
898.913	14632
899.033	14545
899.153	14488
899.273	14343
899.393	14423
899.513	14541
899.633	14549
899.753	14511
899.873	14568
899.993	14648
900.113	14427
900.232	14606
900.352	14431
900.472	14434
900.591	14393
900.711	14324
900.83	14328
900.95	14282
901.069	14412
901.189	14347
901.308	14138
901.427	14012
901.546	14001
901.665	14062
901.784	14012
901.904	14008
902.023	14001
902.141	13647
902.26	13609
902.379	13704
902.498	13723
902.617	13502
902.735	13666
902.854	13567
902.973	13544
903.091	13278
903.21	13320
903.328	13358
903.446	13190
903.565	13107
903.683	13206
903.801	13053
903.919	13206
904.038	13099
904.156	12977
904.274	13061
904.392	13004
904.51	12943
904.627	12943
904.745	12996
904.863	12981
904.981	12734
905.098	12692
905.216	12707
905.334	12688
905.451	12688
905.569	12570
905.686	12787
905.803	12696
905.921	12509
906.038	12650
906.155	12479
906.272	12365
906.389	12410
906.506	12289
906.623	12205
906.74	12273
906.857	12205
906.974	12190
907.091	12311
907.208	12475
907.324	12266
907.441	12182
907.557	12038
907.674	12053
907.79	11946
907.907	11988
908.023	12041
908.139	12003
908.256	11923
908.372	12060
908.488	11942
908.604	11824
908.72	11824
908.836	11805
908.952	11729
909.068	11828
909.184	11847
909.3	11805
909.415	11824
909.531	11748
909.647	11619
909.762	11623
909.878	11490
909.993	11535
910.108	11539
910.224	11490
910.339	11539
910.454	11512
910.57	11391
910.685	11421
910.8	11608
910.915	11516
911.03	11467
911.145	11326
911.259	11307
911.374	11208
911.489	11147
911.604	11223
911.718	11037
911.833	11006
911.947	10839
912.062	10805
912.176	11022
912.291	11006
912.405	10965
912.519	11208
912.633	11143
912.748	11094
912.862	11022
912.976	10927
913.09	10793
913.204	10854
913.318	10812
913.431	11022
913.545	11025
913.659	11060
913.772	10881
913.886	10771
914	10744
914.113	10809
914.226	10869
914.34	10858
914.453	10626
914.566	10934
914.68	10759
914.793	10755
914.906	10561
915.019	10519
915.132	10436
915.245	10470
915.358	10459
915.47	10485
915.583	10519
915.696	10611
915.809	10641
915.921	10698
916.034	10459
916.146	10459
916.259	10481
916.371	10577
916.483	10508
916.595	10394
916.708	10474
916.82	10428
916.932	10424
917.044	10443
917.156	10371
917.268	10325
917.38	10398
917.491	10394
917.603	10360
917.715	10474
917.826	10440
917.938	10310
918.049	10238
918.161	10379
918.272	10538
918.384	10447
918.495	10306
918.606	10253
918.717	10230
918.828	10207
918.939	10287
919.05	10131
919.161	10223
919.272	10063
919.383	10063
919.494	10314
919.604	10413
919.715	10177
919.826	10120
919.936	10314
920.047	10337
920.157	10215
920.267	10436
920.378	10276
920.488	10318
920.598	10436
920.708	10561
920.818	10413
920.928	10455
921.038	10538
921.148	10569
921.258	10238
921.368	10158
921.477	10116
921.587	10093
921.697	10013
921.806	10188
921.916	9994
922.025	9808
922.134	9808
922.244	9740
922.353	9808
922.462	9701
922.571	9648
922.68	9496
922.789	9443
922.898	9511
923.007	9382
923.116	9549
923.224	9435
923.333	9507
923.442	9344
923.55	9412
923.659	9355
923.767	9477
923.876	9340
923.984	9367
924.092	9302
924.201	9378
924.309	9363
924.417	9401
924.525	9294
924.633	9233
924.741	10234
924.849	9146
924.956	9230
925.064	9074
925.172	9089
925.279	9135
925.387	9150
925.494	9112
925.602	9283
925.709	9211
925.816	9119
925.924	9138
926.031	9253
926.138	9146
926.245	9195
926.352	9020
926.459	9192
926.566	9188
926.673	9081
926.779	8998
926.886	8944
926.993	8811
927.099	8800
927.206	8861
927.312	8834
927.419	8914
927.525	8914
927.631	8883
927.737	8811
927.843	8758
927.95	8617
928.056	8708
928.162	8701
928.267	8845
928.373	9481
928.479	8857
928.585	8613
928.69	8743
928.796	8773
928.901	8655
929.007	8640
929.112	8678
929.218	8693
929.323	8598
929.428	8648
929.533	8667
929.638	8560
929.743	8545
929.848	8564
929.953	8598
930.058	8454
930.163	8370
930.267	8351
930.372	8454
930.477	8225
930.581	8552
930.685	8404
930.79	8305
930.894	8324
930.998	8366
931.103	8427
931.207	8073
931.311	8031
931.415	7989
931.519	7788
931.623	7761
