Data from test_V78500241_942.txt Node
Date: Fri Mar 25 14:40:16 CST 2022
User: usil
Spectrometer: V785-0024
Trigger mode: 0
Integration Time (sec): 4.000000E-1
Scans to average: 1
Nonlinearity correction enabled: false
Boxcar width: 0
Storing dark spectrum: false
XAxis mode: Wavelengths
Number of Pixels in Spectrum: 1024
>>>>>Begin Spectral Data<<<<<
801.071	24357
801.214	24323
801.356	24060
801.499	23927
801.641	23783
801.783	23764
801.926	23703
802.068	23630
802.211	23463
802.353	23372
802.496	23265
802.638	23250
802.78	23258
802.923	23124
803.065	22980
803.208	23003
803.35	22976
803.492	23159
803.635	23159
803.777	23064
803.919	23094
804.061	23391
804.204	22965
804.346	23022
804.488	22877
804.63	23033
804.773	22896
804.915	22984
805.057	23109
805.199	23094
805.341	23098
805.483	23140
805.626	23113
805.768	22957
805.91	23170
806.052	23265
806.194	23048
806.336	23265
806.478	23113
806.62	23147
806.762	23212
806.904	23490
807.046	23745
807.188	23699
807.33	23802
807.472	23824
807.614	23745
807.756	23999
807.898	23931
808.04	24087
808.182	24334
808.324	24574
808.465	25031
808.607	25441
808.749	25780
808.891	26001
809.033	26153
809.174	25864
809.316	25537
809.458	25118
809.6	24776
809.741	24433
809.883	24247
810.025	24407
810.166	23939
810.308	24060
810.45	23950
810.591	23832
810.733	23642
810.875	23482
811.016	23372
811.158	23425
811.299	23570
811.441	23516
811.582	23334
811.724	23334
811.865	23239
812.007	23322
812.148	23467
812.29	23398
812.431	23501
812.573	23642
812.714	23691
812.855	23821
812.997	23901
813.138	24064
813.279	23870
813.421	23798
813.562	23707
813.703	23551
813.845	23387
813.986	23322
814.127	23048
814.268	22869
814.41	22820
814.551	22790
814.692	22809
814.833	22850
814.974	22683
815.115	22729
815.256	22634
815.397	22542
815.539	22702
815.68	22436
815.821	22497
815.962	22508
816.103	22398
816.244	22440
816.385	22223
816.526	22177
816.666	22032
816.807	21922
816.948	22109
817.089	22090
817.23	21975
817.371	21880
817.512	21838
817.653	21884
817.793	21915
817.934	21899
818.075	21922
818.216	21869
818.356	21838
818.497	21648
818.638	21549
818.778	21644
818.919	21580
819.06	21572
819.2	21705
819.341	21633
819.481	21770
819.622	21857
819.762	22036
819.903	22025
820.043	21998
820.184	21941
820.324	21907
820.465	22055
820.605	21827
820.746	21884
820.886	21812
821.026	21789
821.167	21911
821.307	21880
821.447	21755
821.588	21759
821.728	21545
821.868	21477
822.008	21180
822.149	21272
822.289	21176
822.429	21051
822.569	20849
822.709	20925
822.849	20880
822.99	20716
823.13	20838
823.27	20484
823.41	20606
823.55	20465
823.69	20488
823.83	20476
823.97	20351
824.11	20339
824.25	20309
824.389	20275
824.529	20282
824.669	20305
824.809	20294
824.949	20370
825.089	20317
825.228	20259
825.368	20107
825.508	20122
825.648	20111
825.787	20252
825.927	20183
826.067	20062
826.206	20092
826.346	20122
826.485	20027
826.625	19921
826.765	20088
826.904	20100
827.044	19837
827.183	19837
827.323	19837
827.462	19818
827.601	19704
827.741	19746
827.88	19719
828.02	19677
828.159	19590
828.298	19765
828.437	19852
828.577	19712
828.716	19871
828.855	19791
828.994	19544
829.134	19457
829.273	19476
829.412	19460
829.551	19358
829.69	19460
829.829	19403
829.968	19537
830.107	19506
830.246	19499
830.385	19236
830.524	19293
830.663	19244
830.802	19297
830.941	19000
831.08	18966
831.219	19095
831.357	19164
831.496	19209
831.635	19061
831.774	19046
831.913	18871
832.051	18730
832.19	18875
832.329	18962
832.467	18821
832.606	18627
832.744	18730
832.883	18764
833.022	18711
833.16	18810
833.299	18688
833.437	18856
833.576	18886
833.714	18791
833.852	18913
833.991	19012
834.129	19072
834.267	18833
834.406	18958
834.544	18962
834.682	18878
834.821	18859
834.959	18962
835.097	18616
835.235	18875
835.373	18745
835.511	18745
835.65	18688
835.788	18616
835.926	18528
836.064	18448
836.202	18525
836.34	18635
836.478	18757
836.615	18681
836.753	18593
836.891	18741
837.029	18616
837.167	18525
837.305	18479
837.443	18467
837.58	18464
837.718	18486
837.856	18441
837.993	18380
838.131	18486
838.269	18376
838.406	18422
838.544	18270
838.681	18182
838.819	18064
838.956	17958
839.094	18034
839.231	18022
839.369	18117
839.506	18292
839.643	18209
839.781	17870
839.918	17893
840.055	18019
840.193	17992
840.33	17889
840.467	17832
840.604	17878
840.742	18220
840.879	17809
841.016	17786
841.153	17764
841.29	17958
841.427	17942
841.564	17901
841.701	17908
841.838	17931
841.975	17745
842.112	17832
842.249	17752
842.385	17573
842.522	17817
842.659	17783
842.796	17532
842.933	17661
843.069	17642
843.206	17657
843.343	17687
843.479	17676
843.616	17756
843.752	17440
843.889	17562
844.025	17710
844.162	17539
844.298	17562
844.435	17577
844.571	17539
844.708	17532
844.844	17668
844.98	17733
845.117	17843
845.253	17752
845.389	17821
845.525	18296
845.661	18798
845.798	19537
845.934	20149
846.07	20290
846.206	20309
846.342	19776
846.478	19015
846.614	18327
846.75	17691
846.886	17368
847.022	17356
847.158	17147
847.294	17083
847.429	17162
847.565	17041
847.701	17277
847.837	16771
847.972	16710
848.108	16797
848.244	16858
848.379	16706
848.515	16592
848.65	16516
848.786	16630
848.921	16527
849.057	16683
849.192	16660
849.328	16645
849.463	16569
849.598	16470
849.734	16405
849.869	16333
850.004	16390
850.14	16333
850.275	16417
850.41	16181
850.545	16344
850.68	16303
850.815	16379
850.95	16314
851.085	16398
851.22	16352
851.355	16348
851.49	16303
851.625	16215
851.76	16284
851.895	16234
852.03	16173
852.165	16287
852.299	16382
852.434	16314
852.569	16306
852.703	16398
852.838	16352
852.973	16466
853.107	16363
853.242	16276
853.376	16131
853.511	16048
853.645	16166
853.78	16344
853.914	16268
854.048	16025
854.183	16226
854.317	16257
854.451	16447
854.585	16147
854.72	16181
854.854	16276
854.988	16071
855.122	16207
855.256	16131
855.39	16154
855.524	16234
855.658	16135
855.792	16246
855.926	16207
856.06	16192
856.194	16242
856.327	16143
856.461	16097
856.595	16044
856.729	16105
856.862	16299
856.996	16162
857.13	16226
857.263	16276
857.397	16200
857.53	16207
857.664	16207
857.797	16116
857.931	16284
858.064	16143
858.197	16284
858.331	16116
858.464	16166
858.597	15964
858.731	16135
858.864	16105
858.997	16120
859.13	16150
859.263	16173
859.396	16280
859.529	16051
859.662	16040
859.795	16105
859.928	16200
860.061	16238
860.194	16276
860.327	16169
860.46	15975
860.592	16207
860.725	16215
860.858	16185
860.99	16154
861.123	16071
861.256	16082
861.388	16204
861.521	16752
861.653	16036
861.786	15979
861.918	15945
862.05	16021
862.183	16097
862.315	16166
862.447	16139
862.58	16097
862.712	15857
862.844	15842
862.976	15854
863.108	16048
863.24	16329
863.372	15804
863.504	15892
863.636	15827
863.768	15926
863.9	15956
864.032	15755
864.164	15953
864.296	15873
864.428	16010
864.559	15827
864.691	15903
864.823	15838
864.954	15861
865.086	15793
865.217	15816
865.349	15694
865.48	15865
865.612	15759
865.743	16048
865.875	15827
866.006	15785
866.137	15804
866.269	15846
866.4	15797
866.531	15797
866.662	15781
866.793	15713
866.924	15739
867.055	15789
867.186	15755
867.317	15793
867.448	15682
867.579	15637
867.71	15686
867.841	15724
867.972	15854
868.103	15831
868.233	15861
868.364	15800
868.495	15789
868.625	16025
868.756	16147
868.886	15987
869.017	16029
869.147	16215
869.278	16215
869.408	16055
869.539	16025
869.669	16154
869.799	16044
869.929	16196
870.06	16135
870.19	16306
870.32	16386
870.45	16398
870.58	16424
870.71	16565
870.84	16493
870.97	16344
871.1	16466
871.23	16645
871.36	16558
871.489	16561
871.619	16672
871.749	16660
871.879	16698
872.008	16828
872.138	16584
872.267	16672
872.397	16569
872.526	16497
872.656	16436
872.785	16508
872.915	16668
873.044	16801
873.173	16675
873.303	16733
873.432	16721
873.561	16752
873.69	16694
873.819	16713
873.948	16812
874.077	16755
874.206	16767
874.335	16725
874.464	16877
874.593	16991
874.722	16930
874.851	17075
874.979	17128
875.108	17086
875.237	17018
875.365	16942
875.494	17022
875.623	17083
875.751	17018
875.88	17075
876.008	17208
876.136	17341
876.265	17364
876.393	17528
876.521	17615
876.65	17596
876.778	17539
876.906	17486
877.034	17509
877.162	17493
877.29	17337
877.418	17528
877.546	17653
877.674	17570
877.802	17524
877.93	17478
878.058	17505
878.185	17520
878.313	17676
878.441	17699
878.568	17577
878.696	17798
878.824	17870
878.951	17992
879.079	18353
879.206	18654
879.333	18715
879.461	18909
879.588	19126
879.715	19133
879.842	19110
879.97	18715
880.097	18262
880.224	18019
880.351	17916
880.478	17885
880.605	17699
880.732	17821
880.859	17961
880.986	17661
881.112	17695
881.239	17520
881.366	17387
881.493	17395
881.619	17337
881.746	17349
881.872	17330
881.999	17288
882.125	17387
882.252	17433
882.378	17353
882.505	17421
882.631	17216
882.757	17166
882.883	17258
883.01	17170
883.136	17162
883.262	17064
883.388	16980
883.514	17166
883.64	17048
883.766	17079
883.892	16908
884.018	16987
884.143	17086
884.269	17200
884.395	16915
884.52	16736
884.646	16809
884.772	16710
884.897	16755
885.023	16759
885.148	16927
885.274	16984
885.399	16896
885.524	16713
885.65	16908
885.775	16744
885.9	16733
886.025	16927
886.15	16797
886.275	16618
886.4	16607
886.525	16588
886.65	16660
886.775	16645
886.9	16744
887.025	16869
887.149	16664
887.274	16478
887.399	16356
887.523	16436
887.648	16268
887.773	16253
887.897	16500
888.021	16451
888.146	16295
888.27	16417
888.395	16451
888.519	16451
888.643	16421
888.767	16360
888.891	16238
889.015	16086
889.139	16196
889.263	16162
889.387	16284
889.511	16367
889.635	16249
889.759	16116
889.883	16131
890.006	16219
890.13	16196
890.254	16029
890.377	16029
890.501	16010
890.624	15895
890.748	15930
890.871	15831
890.995	15739
891.118	15660
891.241	15846
891.364	15812
891.488	15873
891.611	15732
891.734	15816
891.857	15899
891.98	15762
892.103	15797
892.226	15762
892.349	15804
892.471	15599
892.594	15709
892.717	15728
892.839	15755
892.962	15789
893.085	15781
893.207	15747
893.33	15629
893.452	15633
893.575	15770
893.697	15682
893.819	15934
893.941	15895
894.064	15895
894.186	15701
894.308	15682
894.43	15800
894.552	15812
894.674	15739
894.796	15572
894.918	15675
895.04	15633
895.161	15838
895.283	15892
895.405	15751
895.526	15793
895.648	15728
895.769	15675
895.891	15846
896.012	15850
896.134	15781
896.255	15873
896.376	15785
896.498	15835
896.619	15869
896.74	15812
896.861	15861
896.982	16120
897.103	16265
897.224	16169
897.345	16082
897.466	15998
897.587	15998
897.708	16150
897.828	16090
897.949	16040
898.07	15892
898.19	16112
898.311	16204
898.431	16074
898.552	16196
898.672	16265
898.792	16215
898.913	16181
899.033	16040
899.153	15949
899.273	15884
899.393	15983
899.513	15918
899.633	15964
899.753	15979
899.873	15972
899.993	16139
900.113	15968
900.232	16055
900.352	15907
900.472	15884
900.591	15835
900.711	15880
900.83	15736
900.95	15941
901.069	15968
901.189	15812
901.308	15568
901.427	15447
901.546	15549
901.665	15515
901.784	15485
901.904	15344
902.023	15142
902.141	15142
902.26	15043
902.379	15074
902.498	15020
902.617	14952
902.735	15043
902.854	15024
902.973	14861
903.091	14731
903.21	14701
903.328	14769
903.446	14636
903.565	14598
903.683	14507
903.801	14446
903.919	14495
904.038	14450
904.156	14374
904.274	14396
904.392	14336
904.51	14324
904.627	14263
904.745	14301
904.863	14374
904.981	14103
905.098	13997
905.216	14050
905.334	13963
905.451	14035
905.569	13955
905.686	14039
905.803	13944
905.921	13803
906.038	13811
906.155	13837
906.272	13700
906.389	13677
906.506	13647
906.623	13594
906.74	13552
906.857	13430
906.974	13529
907.091	13544
907.208	13681
907.324	13624
907.441	13483
907.557	13274
907.674	13240
907.79	13194
907.907	13316
908.023	13301
908.139	13320
908.256	13194
908.372	13202
908.488	13152
908.604	13053
908.72	12951
908.836	13031
908.952	12966
909.068	13023
909.184	13088
909.3	12894
909.415	13076
909.531	12981
909.647	12791
909.762	12715
909.878	12707
909.993	12688
910.108	12715
910.224	12726
910.339	12760
910.454	12654
910.57	12646
910.685	12506
910.8	12772
910.915	12757
911.03	12620
911.145	12437
911.259	12475
911.374	12388
911.489	12372
911.604	12323
911.718	12148
911.833	12186
911.947	11988
912.062	11954
912.176	12098
912.291	12064
912.405	12095
912.519	12353
912.633	12422
912.748	12289
912.862	12148
912.976	12053
913.09	11843
913.204	11965
913.318	12068
913.431	12102
913.545	11984
913.659	12140
913.772	11965
913.886	11935
914	11847
914.113	12015
914.226	12022
914.34	12026
914.453	11798
914.566	11874
914.68	11843
914.793	11805
914.906	11634
915.019	11566
915.132	11562
915.245	11630
915.358	11585
915.47	11592
915.583	11653
915.696	11661
915.809	11722
915.921	11783
916.034	11558
916.146	11589
916.259	11436
916.371	11718
916.483	11657
916.595	11486
916.708	11535
916.82	11551
916.932	11505
917.044	11417
917.156	11452
917.268	11387
917.38	11398
917.491	11360
917.603	11535
917.715	11524
917.826	11573
917.938	11383
918.049	11296
918.161	11334
918.272	11532
918.384	11604
918.495	11360
918.606	11197
918.717	11174
918.828	11315
918.939	11284
919.05	11045
919.161	11254
919.272	10953
919.383	11136
919.494	11239
919.604	11452
919.715	11265
919.826	11132
919.936	11181
920.047	11246
920.157	11242
920.267	11391
920.378	11250
920.488	11227
920.598	11417
920.708	11543
920.818	11368
920.928	11326
921.038	11551
921.148	11630
921.258	11227
921.368	11086
921.477	11041
921.587	11102
921.697	10972
921.806	11159
921.916	10957
922.025	10839
922.134	10782
922.244	10668
922.353	10839
922.462	10656
922.571	10550
922.68	10516
922.789	10382
922.898	10462
923.007	10344
923.116	10489
923.224	10474
923.333	10310
923.442	10318
923.55	10318
923.659	10306
923.767	10440
923.876	10230
923.984	10303
924.092	10200
924.201	10257
924.309	10147
924.417	10196
924.525	10185
924.633	10120
924.741	11003
924.849	9991
924.956	10242
925.064	9975
925.172	9945
925.279	10059
925.387	10021
925.494	10071
925.602	10169
925.709	10074
925.816	9941
925.924	9968
926.031	10071
926.138	9983
926.245	10063
926.352	9934
926.459	10055
926.566	10105
926.673	9899
926.779	9838
926.886	9888
926.993	9736
927.099	9774
927.206	9610
927.312	9633
927.419	9740
927.525	9701
927.631	9720
927.737	9580
927.843	9488
927.95	9511
928.056	9549
928.162	9625
928.267	9629
928.373	10173
928.479	9629
928.585	9462
928.69	9545
928.796	9576
928.901	9443
929.007	9329
929.112	9504
929.218	9481
929.323	9412
929.428	9329
929.533	9553
929.638	9374
929.743	9397
929.848	9431
929.953	9374
930.058	9260
930.163	9131
930.267	9142
930.372	9253
930.477	9051
930.581	9298
930.685	9203
930.79	9104
930.894	9085
930.998	9043
931.103	9237
931.207	8845
931.311	8781
931.415	8705
931.519	8571
931.623	8518
