Data from test_V78500241_1617.txt Node
Date: Fri Mar 25 14:44:58 CST 2022
User: usil
Spectrometer: V785-0024
Trigger mode: 0
Integration Time (sec): 4.000000E-1
Scans to average: 1
Nonlinearity correction enabled: false
Boxcar width: 0
Storing dark spectrum: false
XAxis mode: Wavelengths
Number of Pixels in Spectrum: 1024
>>>>>Begin Spectral Data<<<<<
801.071	22474
801.214	22272
801.356	21869
801.499	22051
801.641	21876
801.783	21785
801.926	21827
802.068	21705
802.211	21595
802.353	21424
802.496	21279
802.638	21211
802.78	21233
802.923	21135
803.065	21020
803.208	21047
803.35	21066
803.492	21150
803.635	21226
803.777	21081
803.919	21169
804.061	21473
804.204	21066
804.346	20910
804.488	21058
804.63	21020
804.773	20971
804.915	21020
805.057	21096
805.199	20952
805.341	21070
805.483	20998
805.626	21104
805.768	20834
805.91	21058
806.052	21032
806.194	20960
806.336	21074
806.478	20975
806.62	20781
806.762	21066
806.904	21184
807.046	21397
807.188	21332
807.33	21329
807.472	21412
807.614	21310
807.756	21359
807.898	21062
808.04	21051
808.182	21154
808.324	21192
808.465	21131
808.607	21405
808.749	21507
808.891	21473
809.033	21732
809.174	21595
809.316	21447
809.458	21367
809.6	21431
809.741	21530
809.883	21359
810.025	21682
810.166	21485
810.308	21545
810.45	21526
810.591	21439
810.733	21351
810.875	21089
811.016	21116
811.158	20998
811.299	21306
811.441	21249
811.582	21325
811.724	21203
811.865	21051
812.007	21081
812.148	21127
812.29	21169
812.431	21370
812.573	21568
812.714	21469
812.855	21644
812.997	21785
813.138	21884
813.279	21728
813.421	21671
813.562	21595
813.703	21382
813.845	21367
813.986	20990
814.127	20986
814.268	20739
814.41	20777
814.551	20792
814.692	20929
814.833	20659
814.974	20731
815.115	20609
815.256	20560
815.397	20606
815.539	20492
815.68	20484
815.821	20415
815.962	20476
816.103	20374
816.244	20290
816.385	20225
816.526	20149
816.666	20012
816.807	19951
816.948	19925
817.089	19978
817.23	19894
817.371	19784
817.512	19909
817.653	19791
817.793	19826
817.934	19917
818.075	19925
818.216	19879
818.356	19852
818.497	19753
818.638	19559
818.778	19582
818.919	19518
819.06	19499
819.2	19693
819.341	19689
819.481	19715
819.622	19822
819.762	20065
819.903	19917
820.043	19898
820.184	19890
820.324	19795
820.465	19906
820.605	19906
820.746	19753
820.886	19712
821.026	19822
821.167	19750
821.307	19811
821.447	19750
821.588	19567
821.728	19476
821.868	19426
822.008	19358
822.149	19061
822.289	19221
822.429	18951
822.569	18890
822.709	18958
822.849	18734
822.99	18696
823.13	18703
823.27	18677
823.41	18608
823.55	18479
823.69	18464
823.83	18574
823.97	18376
824.11	18380
824.25	18216
824.389	18289
824.529	18285
824.669	18224
824.809	18289
824.949	18365
825.089	18414
825.228	18262
825.368	18133
825.508	18110
825.648	18178
825.787	18045
825.927	18140
826.067	18045
826.206	17965
826.346	18121
826.485	17954
826.625	18117
826.765	18159
826.904	18083
827.044	17866
827.183	17798
827.323	17760
827.462	17832
827.601	17859
827.741	17786
827.88	17863
828.02	17592
828.159	17668
828.298	17767
828.437	17790
828.577	17783
828.716	17946
828.855	17672
828.994	17509
829.134	17501
829.273	17585
829.412	17478
829.551	17452
829.69	17486
829.829	17581
829.968	17703
830.107	17505
830.246	17585
830.385	17524
830.524	17376
830.663	17345
830.802	17318
830.941	17189
831.08	16965
831.219	17288
831.357	17242
831.496	17284
831.635	17037
831.774	17121
831.913	17025
832.051	16957
832.19	16862
832.329	16984
832.467	16831
832.606	16824
832.744	16812
832.883	16881
833.022	16752
833.16	16683
833.299	16843
833.437	16793
833.576	16965
833.714	16831
833.852	16942
833.991	16919
834.129	16942
834.267	16934
834.406	16896
834.544	16938
834.682	16930
834.821	16850
834.959	17048
835.097	16866
835.235	16995
835.373	16862
835.511	16923
835.65	16755
835.788	16687
835.926	16660
836.064	16603
836.202	16618
836.34	16713
836.478	17018
836.615	16835
836.753	16892
836.891	16782
837.029	16778
837.167	16679
837.305	16668
837.443	16744
837.58	16683
837.718	16645
837.856	16668
837.993	16611
838.131	16622
838.269	16531
838.406	16565
838.544	16478
838.681	16360
838.819	16363
838.956	16181
839.094	16219
839.231	16242
839.369	16322
839.506	16478
839.643	16356
839.781	16200
839.918	16150
840.055	16207
840.193	16071
840.33	16116
840.467	16147
840.604	16238
840.742	16432
840.879	16044
841.016	15994
841.153	16139
841.29	16287
841.427	16341
841.564	16185
841.701	16192
841.838	16109
841.975	16093
842.112	16059
842.249	15987
842.385	15918
842.522	16055
842.659	15953
842.796	15945
842.933	16017
843.069	15922
843.206	15918
843.343	16055
843.479	15953
843.616	15873
843.752	15698
843.889	15743
844.025	15804
844.162	15686
844.298	15823
844.435	15762
844.571	15720
844.708	15819
844.844	15880
844.98	15918
845.117	15850
845.253	15614
845.389	15580
845.525	15644
845.661	15682
845.798	15587
845.934	15576
846.07	15591
846.206	15690
846.342	15781
846.478	15580
846.614	15378
846.75	15233
846.886	15268
847.022	15329
847.158	15291
847.294	15367
847.429	15416
847.565	15233
847.701	15420
847.837	15036
847.972	15013
848.108	15036
848.244	15131
848.379	14944
848.515	14937
848.65	14929
848.786	14918
848.921	14933
849.057	15055
849.192	14979
849.328	14921
849.463	14982
849.598	14849
849.734	14902
849.869	14765
850.004	14727
850.14	14682
850.275	14621
850.41	14629
850.545	14568
850.68	14636
850.815	14629
850.95	14682
851.085	14872
851.22	14689
851.355	14590
851.49	14648
851.625	14575
851.76	14606
851.895	14499
852.03	14469
852.165	14636
852.299	14632
852.434	14785
852.569	14746
852.703	14705
852.838	14678
852.973	14693
853.107	14762
853.242	14644
853.376	14484
853.511	14484
853.645	14522
853.78	14594
853.914	14461
854.048	14507
854.183	14488
854.317	14522
854.451	14663
854.585	14446
854.72	14469
854.854	14549
854.988	14427
855.122	14530
855.256	14362
855.39	14552
855.524	14663
855.658	14549
855.792	14488
855.926	14461
856.06	14625
856.194	14632
856.327	14537
856.461	14492
856.595	14434
856.729	14530
856.862	14587
856.996	14541
857.13	14556
857.263	14632
857.397	14667
857.53	14503
857.664	14564
857.797	14606
857.931	14598
858.064	14511
858.197	14556
858.331	14530
858.464	14533
858.597	14427
858.731	14438
858.864	14533
858.997	14571
859.13	14473
859.263	14568
859.396	14655
859.529	14427
859.662	14450
859.795	14507
859.928	14594
860.061	14754
860.194	14762
860.327	14514
860.46	14457
860.592	14602
860.725	14579
860.858	14602
860.99	14514
861.123	14336
861.256	14469
861.388	14598
861.521	15256
861.653	14343
861.786	14339
861.918	14351
862.05	14476
862.183	14480
862.315	14503
862.447	14492
862.58	14389
862.712	14298
862.844	14240
862.976	14431
863.108	14320
863.24	14804
863.372	14267
863.504	14263
863.636	14237
863.768	14233
863.9	14294
864.032	14199
864.164	14149
864.296	14339
864.428	14431
864.559	14355
864.691	14370
864.823	14320
864.954	14370
865.086	14248
865.217	14358
865.349	14164
865.48	14229
865.612	14294
865.743	14393
865.875	14183
866.006	14187
866.137	14195
866.269	14267
866.4	14225
866.531	14119
866.662	14202
866.793	14225
866.924	14164
867.055	14328
867.186	14244
867.317	14271
867.448	14199
867.579	14149
867.71	14100
867.841	14214
867.972	14244
868.103	14191
868.233	14278
868.364	14248
868.495	14355
868.625	14442
868.756	14670
868.886	14400
869.017	14480
869.147	14610
869.278	14659
869.408	14492
869.539	14473
869.669	14556
869.799	14575
869.929	14769
870.06	14640
870.19	14891
870.32	14777
870.45	14819
870.58	14960
870.71	14944
870.84	14982
870.97	14880
871.1	14842
871.23	15100
871.36	15127
871.489	15036
871.619	15077
871.749	15131
871.879	15097
872.008	15081
872.138	15089
872.267	15097
872.397	14975
872.526	14967
872.656	14921
872.785	14937
872.915	15119
873.044	15176
873.173	15097
873.303	15203
873.432	15222
873.561	15192
873.69	15112
873.819	15142
873.948	15176
874.077	15207
874.206	15192
874.335	15226
874.464	15313
874.593	15492
874.722	15469
874.851	15542
874.979	15519
875.108	15542
875.237	15386
875.365	15435
875.494	15466
875.623	15545
875.751	15416
875.88	15526
876.008	15576
876.136	15713
876.265	15857
876.393	15983
876.521	16032
876.65	15991
876.778	15785
876.906	15797
877.034	15816
877.162	15816
877.29	15808
877.418	15949
877.546	15892
877.674	15926
877.802	15861
877.93	15781
878.058	15850
878.185	15793
878.313	15793
878.441	15945
878.568	15778
878.696	15819
878.824	15892
878.951	15960
879.079	16074
879.206	16211
879.333	16093
879.461	15945
879.588	16067
879.715	16120
879.842	16242
879.97	15907
880.097	15770
880.224	15675
880.351	15804
880.478	15747
880.605	15766
880.732	15671
880.859	16071
880.986	15781
881.112	15709
881.239	15614
881.366	15576
881.493	15412
881.619	15439
881.746	15462
881.872	15428
881.999	15321
882.125	15382
882.252	15454
882.378	15340
882.505	15603
882.631	15389
882.757	15150
882.883	15199
883.01	15298
883.136	15241
883.262	15169
883.388	15119
883.514	15275
883.64	15249
883.766	15176
883.892	14933
884.018	14998
884.143	15272
884.269	15363
884.395	14902
884.52	14921
884.646	14925
884.772	14883
884.897	14762
885.023	14910
885.148	14937
885.274	15017
885.399	15062
885.524	14944
885.65	14899
885.775	14971
885.9	14918
886.025	15062
886.15	14960
886.275	14845
886.4	14773
886.525	14849
886.65	14906
886.775	14876
886.9	14986
887.025	15173
887.149	14887
887.274	14758
887.399	14640
887.523	14746
887.648	14678
887.773	14545
887.897	14777
888.021	14845
888.146	14693
888.27	14800
888.395	14857
888.519	14743
888.643	14773
888.767	14845
888.891	14568
889.015	14541
889.139	14594
889.263	14568
889.387	14762
889.511	14804
889.635	14686
889.759	14579
889.883	14568
890.006	14617
890.13	14602
890.254	14549
890.377	14530
890.501	14465
890.624	14389
890.748	14347
890.871	14324
890.995	14164
891.118	14202
891.241	14339
891.364	14259
891.488	14381
891.611	14370
891.734	14237
891.857	14427
891.98	14370
892.103	14423
892.226	14324
892.349	14286
892.471	14157
892.594	14317
892.717	14317
892.839	14290
892.962	14290
893.085	14336
893.207	14282
893.33	14142
893.452	14240
893.575	14400
893.697	14176
893.819	14476
893.941	14526
894.064	14301
894.186	14218
894.308	14286
894.43	14408
894.552	14450
894.674	14377
894.796	14313
894.918	14343
895.04	14180
895.161	14366
895.283	14347
895.405	14351
895.526	14385
895.648	14408
895.769	14423
895.891	14400
896.012	14480
896.134	14499
896.255	14476
896.376	14454
896.498	14461
896.619	14469
896.74	14393
896.861	14476
896.982	14842
897.103	14925
897.224	14785
897.345	14743
897.466	14678
897.587	14739
897.708	14921
897.828	14853
897.949	14655
898.07	14670
898.19	14590
898.311	14830
898.431	14796
898.552	14792
898.672	14861
898.792	14895
898.913	14823
899.033	14731
899.153	14697
899.273	14583
899.393	14640
899.513	14674
899.633	14735
899.753	14701
899.873	14636
899.993	14796
900.113	14659
900.232	14712
900.352	14697
900.472	14495
900.591	14450
900.711	14526
900.83	14541
900.95	14632
901.069	14556
901.189	14431
901.308	14229
901.427	14138
901.546	14153
901.665	14187
901.784	14180
901.904	13951
902.023	13913
902.141	13822
902.26	13830
902.379	13883
902.498	13769
902.617	13696
902.735	13822
902.854	13704
902.973	13723
903.091	13472
903.21	13445
903.328	13563
903.446	13377
903.565	13266
903.683	13331
903.801	13255
903.919	13278
904.038	13217
904.156	13126
904.274	13149
904.392	13156
904.51	13145
904.627	13194
904.745	13175
904.863	13228
904.981	12970
905.098	12783
905.216	12757
905.334	12886
905.451	12806
905.569	12772
905.686	12821
905.803	12837
905.921	12612
906.038	12760
906.155	12677
906.272	12498
906.389	12585
906.506	12372
906.623	12376
906.74	12323
906.857	12254
906.974	12270
907.091	12403
907.208	12513
907.324	12456
907.441	12346
907.557	12148
907.674	12110
907.79	12148
907.907	12175
908.023	12213
908.139	12182
908.256	12095
908.372	12114
908.488	12095
908.604	11980
908.72	11859
908.836	11950
908.952	11824
909.068	11980
909.184	12022
909.3	11988
909.415	11927
909.531	11897
909.647	11783
909.762	11649
909.878	11562
909.993	11764
910.108	11638
910.224	11596
910.339	11638
910.454	11535
910.57	11467
910.685	11467
910.8	11745
910.915	11676
911.03	11585
911.145	11299
911.259	11307
911.374	11334
911.489	11326
911.604	11143
911.718	11083
911.833	11094
911.947	11025
912.062	11025
912.176	11162
912.291	11143
912.405	11117
912.519	11406
912.633	11322
912.748	11261
912.862	11094
912.976	11029
913.09	10793
913.204	10892
913.318	11014
913.431	11147
913.545	11014
913.659	11109
913.772	11018
913.886	10873
914	10873
914.113	10995
914.226	10991
914.34	10976
914.453	10790
914.566	10923
914.68	10835
914.793	10801
914.906	10656
915.019	10611
915.132	10592
915.245	10573
915.358	10702
915.47	10668
915.583	10656
915.696	10672
915.809	10714
915.921	10809
916.034	10550
916.146	10519
916.259	10558
916.371	10626
916.483	10615
916.595	10508
916.708	10561
916.82	10626
916.932	10569
917.044	10493
917.156	10584
917.268	10451
917.38	10493
917.491	10436
917.603	10440
917.715	10531
917.826	10611
917.938	10451
918.049	10371
918.161	10474
918.272	10569
918.384	10550
918.495	10447
918.606	10386
918.717	10261
918.828	10394
918.939	10390
919.05	10215
919.161	10333
919.272	10051
919.383	10200
919.494	10421
919.604	10561
919.715	10352
919.826	10272
919.936	10287
920.047	10379
920.157	10447
920.267	10550
920.378	10344
920.488	10329
920.598	10554
920.708	10656
920.818	10523
920.928	10550
921.038	10630
921.148	10641
921.258	10390
921.368	10284
921.477	10188
921.587	10181
921.697	10074
921.806	10192
921.916	10074
922.025	9876
922.134	9873
922.244	9880
922.353	9884
922.462	9800
922.571	9736
922.68	9584
922.789	9641
922.898	9591
923.007	9576
923.116	9644
923.224	9538
923.333	9530
923.442	9530
923.55	9515
923.659	9492
923.767	9534
923.876	9435
923.984	9485
924.092	9386
924.201	9511
924.309	9466
924.417	9405
924.525	9386
924.633	9386
924.741	10215
924.849	9222
924.956	9386
925.064	9241
925.172	9161
925.279	9214
925.387	9253
925.494	9233
925.602	9355
925.709	9230
925.816	9176
925.924	9165
926.031	9302
926.138	9222
926.245	9260
926.352	9112
926.459	9310
926.566	9370
926.673	9222
926.779	9089
926.886	9047
926.993	9039
927.099	8887
927.206	8925
927.312	8921
927.419	9005
927.525	8921
927.631	9036
927.737	8864
927.843	8883
927.95	8682
928.056	8796
928.162	8834
928.267	8925
928.373	9420
928.479	8895
928.585	8731
928.69	8769
928.796	8830
928.901	8769
929.007	8602
929.112	8739
929.218	8693
929.323	8674
929.428	8640
929.533	8727
929.638	8625
929.743	8640
929.848	8746
929.953	8640
930.058	8610
930.163	8408
930.267	8473
930.372	8549
930.477	8404
930.581	8663
930.685	8480
930.79	8317
930.894	8343
930.998	8275
931.103	8465
931.207	8164
931.311	8077
931.415	8081
931.519	7868
931.623	7864
