Data from test_V78500241_826.txt Node
Date: Fri Mar 25 14:39:28 CST 2022
User: usil
Spectrometer: V785-0024
Trigger mode: 0
Integration Time (sec): 4.000000E-1
Scans to average: 1
Nonlinearity correction enabled: false
Boxcar width: 0
Storing dark spectrum: false
XAxis mode: Wavelengths
Number of Pixels in Spectrum: 1024
>>>>>Begin Spectral Data<<<<<
801.071	26282
801.214	26077
801.356	25974
801.499	25761
801.641	25647
801.783	25613
801.926	25548
802.068	25559
802.211	25457
802.353	25476
802.496	25183
802.638	25088
802.78	25038
802.923	24928
803.065	25053
803.208	25027
803.35	25141
803.492	25148
803.635	25202
803.777	25110
803.919	25148
804.061	25464
804.204	25217
804.346	25103
804.488	25072
804.63	25217
804.773	25012
804.915	25259
805.057	25339
805.199	25365
805.341	25559
805.483	25464
805.626	25529
805.768	25597
805.91	25643
806.052	25700
806.194	25837
806.336	26138
806.478	25997
806.62	26256
806.762	26499
806.904	26587
807.046	27135
807.188	27252
807.33	27462
807.472	28010
807.614	28417
807.756	28953
807.898	29756
808.04	30844
808.182	32244
808.324	34029
808.465	35988
808.607	38259
808.749	40318
808.891	41356
809.033	41585
809.174	40333
809.316	38355
809.458	36041
809.6	33755
809.741	32008
809.883	30547
810.025	29577
810.166	28824
810.308	28276
810.45	27819
810.591	27412
810.733	26940
810.875	26773
811.016	26514
811.158	26180
811.299	26374
811.441	26305
811.582	26225
811.724	25860
811.865	25833
812.007	25849
812.148	25655
812.29	25795
812.431	25693
812.573	26001
812.714	26008
812.855	26050
812.997	26043
813.138	26111
813.279	26012
813.421	25963
813.562	26008
813.703	25742
813.845	25476
813.986	25236
814.127	25042
814.268	24951
814.41	24897
814.551	24825
814.692	24859
814.833	24817
814.974	24612
815.115	24681
815.256	24612
815.397	24642
815.539	24528
815.68	24559
815.821	24426
815.962	24437
816.103	24285
816.244	24171
816.385	24178
816.526	24038
816.666	24022
816.807	23687
816.948	23840
817.089	23874
817.23	23676
817.371	23748
817.512	23634
817.653	23668
817.793	23756
817.934	23661
818.075	23760
818.216	23661
818.356	23657
818.497	23417
818.638	23383
818.778	23349
818.919	23280
819.06	23486
819.2	23280
819.341	23653
819.481	23486
819.622	23722
819.762	23813
819.903	23847
820.043	23714
820.184	23646
820.324	23718
820.465	23661
820.605	23539
820.746	23539
820.886	23360
821.026	23539
821.167	23383
821.307	23516
821.447	23471
821.588	23337
821.728	23121
821.868	23025
822.008	22793
822.149	22839
822.289	22710
822.429	22649
822.569	22500
822.709	22599
822.849	22344
822.99	22280
823.13	22223
823.27	22185
823.41	22143
823.55	22116
823.69	22048
823.83	22040
823.97	22002
824.11	21728
824.25	21926
824.389	21842
824.529	21865
824.669	21941
824.809	21876
824.949	22010
825.089	21975
825.228	21823
825.368	21660
825.508	21808
825.648	21686
825.787	21739
825.927	21637
826.067	21580
826.206	21557
826.346	21660
826.485	21610
826.625	21682
826.765	21720
826.904	21736
827.044	21412
827.183	21340
827.323	21321
827.462	21424
827.601	21275
827.741	21291
827.88	21211
828.02	21161
828.159	21241
828.298	21173
828.437	21287
828.577	21116
828.716	21431
828.855	21093
828.994	21051
829.134	21024
829.273	21017
829.412	20914
829.551	20872
829.69	21013
829.829	20925
829.968	21066
830.107	20887
830.246	20910
830.385	20883
830.524	20796
830.663	20781
830.802	20724
830.941	20484
831.08	20556
831.219	20606
831.357	20659
831.496	20792
831.635	20556
831.774	20613
831.913	20495
832.051	20370
832.19	20446
832.329	20533
832.467	20393
832.606	20294
832.744	20294
832.883	20484
833.022	20370
833.16	20454
833.299	20613
833.437	20758
833.576	20792
833.714	20819
833.852	20986
833.991	21081
834.129	21081
834.267	21165
834.406	21081
834.544	21070
834.682	21039
834.821	20838
834.959	20929
835.097	20659
835.235	20705
835.373	20514
835.511	20465
835.65	20457
835.788	20271
835.926	20096
836.064	20008
836.202	19906
836.34	20244
836.478	20362
836.615	20027
836.753	20149
836.891	20244
837.029	20050
837.167	20081
837.305	20039
837.443	19993
837.58	19841
837.718	19982
837.856	19852
837.993	19936
838.131	19917
838.269	19887
838.406	19921
838.544	19723
838.681	19586
838.819	19514
838.956	19396
839.094	19411
839.231	19426
839.369	19419
839.506	19791
839.643	19518
839.781	19411
839.918	19308
840.055	19384
840.193	19407
840.33	19384
840.467	19282
840.604	19339
840.742	19426
840.879	19168
841.016	19251
841.153	19285
841.29	19316
841.427	19403
841.564	19362
841.701	19282
841.838	19251
841.975	19198
842.112	19202
842.249	19232
842.385	19095
842.522	19415
842.659	19225
842.796	19137
842.933	19145
843.069	19232
843.206	19168
843.343	19137
843.479	19206
843.616	19266
843.752	19023
843.889	19091
844.025	19263
844.162	19103
844.298	19274
844.435	19339
844.571	19472
844.708	19708
844.844	19982
844.98	20286
845.117	20602
845.253	21188
845.389	22344
845.525	24711
845.661	28405
845.798	33104
845.934	36894
846.07	38157
846.206	37323
846.342	34428
846.478	29767
846.614	25674
846.75	22915
846.886	21367
847.022	20446
847.158	19837
847.294	19301
847.429	19266
847.565	18973
847.701	19015
847.837	18593
847.972	18403
848.108	18471
848.244	18540
848.379	18220
848.515	18133
848.65	18144
848.786	18098
848.921	18114
849.057	18133
849.192	18247
849.328	18110
849.463	17999
849.598	17904
849.734	17973
849.869	17942
850.004	17779
850.14	17726
850.275	17866
850.41	17699
850.545	17710
850.68	17748
850.815	17824
850.95	17813
851.085	17961
851.22	17722
851.355	17794
851.49	17642
851.625	17638
851.76	17722
851.895	17714
852.03	17596
852.165	17699
852.299	17786
852.434	17832
852.569	17817
852.703	17863
852.838	17904
852.973	17923
853.107	17954
853.242	17764
853.376	17790
853.511	17687
853.645	17790
853.78	17973
853.914	17908
854.048	17843
854.183	17828
854.317	17950
854.451	18079
854.585	17908
854.72	17836
854.854	17923
854.988	17843
855.122	17756
855.256	17748
855.39	17904
855.524	17840
855.658	17668
855.792	17707
855.926	17745
856.06	17733
856.194	17764
856.327	17771
856.461	17543
856.595	17501
856.729	17623
856.862	17821
856.996	17566
857.13	17756
857.263	17710
857.397	17684
857.53	17505
857.664	17649
857.797	17573
857.931	17634
858.064	17642
858.197	17642
858.331	17596
858.464	17524
858.597	17482
858.731	17387
858.864	17482
858.997	17482
859.13	17425
859.263	17501
859.396	17611
859.529	17330
859.662	17417
859.795	17410
859.928	17471
860.061	17615
860.194	17714
860.327	17417
860.46	17463
860.592	17604
860.725	17570
860.858	17596
860.99	17573
861.123	17395
861.256	17337
861.388	17581
861.521	18072
861.653	17322
861.786	17368
861.918	17326
862.05	17478
862.183	17417
862.315	17532
862.447	17509
862.58	17444
862.712	17242
862.844	17193
862.976	17273
863.108	17258
863.24	17558
863.372	17151
863.504	17231
863.636	17227
863.768	17311
863.9	17258
864.032	17162
864.164	17083
864.296	17033
864.428	17231
864.559	17128
864.691	17337
864.823	17269
864.954	17204
865.086	17261
865.217	17265
865.349	17029
865.48	17090
865.612	17071
865.743	17223
865.875	17181
866.006	17121
866.137	17185
866.269	17128
866.4	17124
866.531	17056
866.662	17052
866.793	16999
866.924	17056
867.055	17102
867.186	17086
867.317	17094
867.448	16896
867.579	17117
867.71	16938
867.841	16961
867.972	17124
868.103	17162
868.233	17124
868.364	16995
868.495	17098
868.625	17239
868.756	17334
868.886	17292
869.017	17322
869.147	17406
869.278	17387
869.408	17330
869.539	17341
869.669	17493
869.799	17372
869.929	17452
870.06	17471
870.19	17703
870.32	17649
870.45	17627
870.58	17805
870.71	17836
870.84	17878
870.97	17790
871.1	17847
871.23	17973
871.36	17984
871.489	17885
871.619	17954
871.749	17954
871.879	18076
872.008	18125
872.138	18072
872.267	18083
872.397	17954
872.526	17904
872.656	17969
872.785	17984
872.915	18079
873.044	18182
873.173	18266
873.303	18197
873.432	18205
873.561	18186
873.69	18228
873.819	18197
873.948	18270
874.077	18155
874.206	18205
874.335	18285
874.464	18429
874.593	18635
874.722	18589
874.851	18738
874.979	18772
875.108	18852
875.237	18642
875.365	18551
875.494	18757
875.623	18894
875.751	18726
875.88	18715
876.008	18966
876.136	19095
876.265	19358
876.393	19407
876.521	19381
876.65	19438
876.778	19476
876.906	19487
877.034	19483
877.162	19518
877.29	19590
877.418	19799
877.546	19772
877.674	19803
877.802	19890
877.93	20050
878.058	20065
878.185	20195
878.313	20355
878.441	20609
878.568	20788
878.696	21180
878.824	21865
878.951	22622
879.079	23687
879.206	25099
879.333	26587
879.461	27686
879.588	28344
879.715	28478
879.842	27991
879.97	26636
880.097	25012
880.224	23794
880.351	23029
880.478	22428
880.605	21949
880.732	21789
880.859	21941
880.986	21530
881.112	21458
881.239	21252
881.366	21184
881.493	21047
881.619	21074
881.746	21131
881.872	21100
881.999	21043
882.125	21066
882.252	21272
882.378	21169
882.505	21348
882.631	21074
882.757	20948
882.883	21089
883.01	21112
883.136	20941
883.262	20823
883.388	20853
883.514	20921
883.64	21020
883.766	20830
883.892	20712
884.018	20712
884.143	20899
884.269	21062
884.395	20724
884.52	20743
884.646	20716
884.772	20667
884.897	20621
885.023	20629
885.148	20701
885.274	20765
885.399	20648
885.524	20514
885.65	20549
885.775	20366
885.9	20199
886.025	20168
886.15	20168
886.275	20016
886.4	19693
886.525	19772
886.65	19677
886.775	19491
886.9	19601
887.025	19655
887.149	19354
887.274	19141
887.399	19152
887.523	18981
887.648	19050
887.773	18848
887.897	18962
888.021	18814
888.146	18867
888.27	18741
888.395	18913
888.519	18764
888.643	18787
888.767	18726
888.891	18521
889.015	18422
889.139	18403
889.263	18338
889.387	18418
889.511	18608
889.635	18486
889.759	18216
889.883	18270
890.006	18190
890.13	18235
890.254	18087
890.377	18041
890.501	18045
890.624	17866
890.748	17882
890.871	17805
890.995	17665
891.118	17615
891.241	17710
891.364	17558
891.488	17764
891.611	17646
891.734	17703
891.857	17680
891.98	17516
892.103	17653
892.226	17619
892.349	17532
892.471	17318
892.594	17516
892.717	17520
892.839	17315
892.962	17459
893.085	17376
893.207	17353
893.33	17269
893.452	17239
893.575	17360
893.697	17353
893.819	17356
893.941	17440
894.064	17364
894.186	17204
894.308	17185
894.43	17292
894.552	17383
894.674	17311
894.796	17067
894.918	17075
895.04	17143
895.161	17258
895.283	17231
895.405	16976
895.526	17086
895.648	17121
895.769	17067
895.891	17299
896.012	17159
896.134	17159
896.255	17067
896.376	17162
896.498	17151
896.619	17258
896.74	17166
896.861	17189
896.982	17433
897.103	17573
897.224	17292
897.345	17356
897.466	17242
897.587	17235
897.708	17444
897.828	17280
897.949	17204
898.07	17136
898.19	17216
898.311	17406
898.431	17315
898.552	17398
898.672	17402
898.792	17482
898.913	17379
899.033	17246
899.153	17235
899.273	17033
899.393	17193
899.513	17147
899.633	17143
899.753	17162
899.873	17185
899.993	17189
900.113	17140
900.232	17128
900.352	17117
900.472	16919
900.591	16953
900.711	16987
900.83	16980
900.95	17010
901.069	17045
901.189	16797
901.308	16672
901.427	16523
901.546	16500
901.665	16542
901.784	16546
901.904	16447
902.023	16306
902.141	16120
902.26	16112
902.379	16188
902.498	16093
902.617	16032
902.735	16090
902.854	16074
902.973	15994
903.091	15739
903.21	15717
903.328	15717
903.446	15622
903.565	15622
903.683	15534
903.801	15473
903.919	15530
904.038	15507
904.156	15264
904.274	15439
904.392	15222
904.51	15291
904.627	15325
904.745	15294
904.863	15256
904.981	15104
905.098	15009
905.216	14891
905.334	14910
905.451	14960
905.569	14830
905.686	14914
905.803	14914
905.921	14720
906.038	14800
906.155	14632
906.272	14556
906.389	14659
906.506	14446
906.623	14503
906.74	14415
906.857	14298
906.974	14370
907.091	14415
907.208	14503
907.324	14480
907.441	14339
907.557	14233
907.674	14123
907.79	14065
907.907	14157
908.023	14183
908.139	14142
908.256	14096
908.372	14092
908.488	14008
908.604	13890
908.72	13818
908.836	13852
908.952	13833
909.068	13871
909.184	14020
909.3	13864
909.415	13913
909.531	13879
909.647	13689
909.762	13521
909.878	13643
909.993	13647
910.108	13655
910.224	13544
910.339	13533
910.454	13468
910.57	13407
910.685	13419
910.8	13609
910.915	13647
911.03	13400
911.145	13369
911.259	13297
911.374	13274
911.489	13160
911.604	13209
911.718	13042
911.833	13031
911.947	12859
912.062	12806
912.176	13031
912.291	13095
912.405	12966
912.519	13236
912.633	13187
912.748	13012
912.862	12981
912.976	12863
913.09	12692
913.204	12829
913.318	12890
913.431	12966
913.545	12970
913.659	12958
913.772	12875
913.886	12749
914	12650
914.113	12753
914.226	12882
914.34	12875
914.453	12642
914.566	12821
914.68	12692
914.793	12639
914.906	12448
915.019	12426
915.132	12384
915.245	12399
915.358	12418
915.47	12467
915.583	12483
915.696	12521
915.809	12559
915.921	12559
916.034	12410
916.146	12441
916.259	12353
916.371	12570
916.483	12448
916.595	12426
916.708	12338
916.82	12338
916.932	12289
917.044	12369
917.156	12399
917.268	12205
917.38	12247
917.491	12205
917.603	12289
917.715	12258
917.826	12338
917.938	12053
918.049	12060
918.161	12098
918.272	12399
918.384	12327
918.495	12163
918.606	12026
918.717	12003
918.828	11958
918.939	11954
919.05	11904
919.161	12011
919.272	11802
919.383	11885
919.494	11999
919.604	12175
919.715	11912
919.826	11923
919.936	11980
920.047	12015
920.157	11942
920.267	12247
920.378	12015
920.488	11908
920.598	12228
920.708	12350
920.818	12167
920.928	12243
921.038	12319
921.148	12277
921.258	11889
921.368	11824
921.477	11798
921.587	11752
921.697	11676
921.806	11752
921.916	11630
922.025	11490
922.134	11448
922.244	11376
922.353	11493
922.462	11322
922.571	11303
922.68	11094
922.789	11029
922.898	11136
923.007	11079
923.116	11124
923.224	11086
923.333	11064
923.442	11003
923.55	10968
923.659	10991
923.767	11064
923.876	10919
923.984	10927
924.092	10850
924.201	10911
924.309	10862
924.417	10949
924.525	10976
924.633	10824
924.741	11794
924.849	10615
924.956	10850
925.064	10691
925.172	10577
925.279	10763
925.387	10729
925.494	10672
925.602	10752
925.709	10717
925.816	10649
925.924	10664
926.031	10691
926.138	10691
926.245	10679
926.352	10561
926.459	10641
926.566	10618
926.673	10611
926.779	10382
926.886	10428
926.993	10329
927.099	10303
927.206	10253
927.312	10299
927.419	10379
927.525	10268
927.631	10360
927.737	10215
927.843	10112
927.95	10097
928.056	10257
928.162	10166
928.267	10238
928.373	10820
928.479	10303
928.585	9979
928.69	10223
928.796	10147
928.901	10150
929.007	9987
929.112	10097
929.218	9987
929.323	9979
929.428	9930
929.533	10131
929.638	9907
929.743	9937
929.848	9960
929.953	9941
930.058	9812
930.163	9724
930.267	9648
930.372	9888
930.477	9637
930.581	9945
930.685	9785
930.79	9595
930.894	9728
930.998	9637
931.103	9728
931.207	9424
931.311	9294
931.415	9310
931.519	9074
931.623	9135
