Data from test_V78500241_626.txt Node
Date: Fri Mar 25 14:38:04 CST 2022
User: usil
Spectrometer: V785-0024
Trigger mode: 0
Integration Time (sec): 4.000000E-1
Scans to average: 1
Nonlinearity correction enabled: false
Boxcar width: 0
Storing dark spectrum: false
XAxis mode: Wavelengths
Number of Pixels in Spectrum: 1024
>>>>>Begin Spectral Data<<<<<
801.071	27888
801.214	27857
801.356	27313
801.499	27538
801.641	27154
801.783	27195
801.926	27294
802.068	27317
802.211	27195
802.353	27047
802.496	26834
802.638	26731
802.78	26899
802.923	26933
803.065	26674
803.208	26823
803.35	26914
803.492	26940
803.635	26952
803.777	26868
803.919	26971
804.061	27340
804.204	26906
804.346	26956
804.488	26800
804.63	26982
804.773	26876
804.915	27131
805.057	27188
805.199	27275
805.341	27119
805.483	27492
805.626	27401
805.768	27397
805.91	27439
806.052	27656
806.194	27686
806.336	28048
806.478	27857
806.62	28188
806.762	28356
806.904	28542
807.046	29223
807.188	29330
807.33	29707
807.472	30190
807.614	30555
807.756	31301
807.898	32237
808.04	33294
808.182	34869
808.324	36760
808.465	39135
808.607	41687
808.749	43966
808.891	45173
809.033	45233
809.174	43917
809.316	41779
809.458	39173
809.6	36563
809.741	34554
809.883	32868
810.025	32046
810.166	30886
810.308	30285
810.45	29741
810.591	29474
810.733	28976
810.875	28740
811.016	28481
811.158	28230
811.299	28166
811.441	28284
811.582	28067
811.724	27842
811.865	27724
812.007	27614
812.148	27587
812.29	27572
812.431	27595
812.573	27827
812.714	27884
812.855	27827
812.997	28029
813.138	27991
813.279	27934
813.421	27682
813.562	27663
813.703	27545
813.845	27252
813.986	27001
814.127	26853
814.268	26708
814.41	26716
814.551	26758
814.692	26598
814.833	26450
814.974	26556
815.115	26594
815.256	26404
815.397	26423
815.539	26191
815.68	26286
815.821	26225
815.962	26164
816.103	26043
816.244	26088
816.385	25875
816.526	25822
816.666	25746
816.807	25537
816.948	25655
817.089	25708
817.23	25590
817.371	25540
817.512	25487
817.653	25601
817.793	25407
817.934	25453
818.075	25556
818.216	25441
818.356	25438
818.497	25225
818.638	25122
818.778	25110
818.919	25187
819.06	25206
819.2	25350
819.341	25346
819.481	25400
819.622	25495
819.762	25734
819.903	25620
820.043	25502
820.184	25407
820.324	25438
820.465	25400
820.605	25183
820.746	25259
820.886	25137
821.026	25339
821.167	25225
821.307	25263
821.447	25160
821.588	25023
821.728	24954
821.868	24745
822.008	24715
822.149	24585
822.289	24475
822.429	24376
822.569	24251
822.709	24258
822.849	23927
822.99	24053
823.13	24045
823.27	23980
823.41	23775
823.55	23623
823.69	23828
823.83	23775
823.97	23897
824.11	23535
824.25	23501
824.389	23623
824.529	23497
824.669	23539
824.809	23684
824.949	23516
825.089	23680
825.228	23661
825.368	23463
825.508	23284
825.648	23516
825.787	23486
825.927	23429
826.067	23330
826.206	23356
826.346	23322
826.485	23452
826.625	23391
826.765	23516
826.904	23444
827.044	23083
827.183	23185
827.323	22889
827.462	23003
827.601	23048
827.741	22957
827.88	23105
828.02	22923
828.159	23018
828.298	23006
828.437	23025
828.577	22961
828.716	23090
828.855	22930
828.994	22664
829.134	22675
829.273	22683
829.412	22668
829.551	22554
829.69	22702
829.829	22771
829.968	22736
830.107	22713
830.246	22668
830.385	22622
830.524	22531
830.663	22607
830.802	22337
830.941	22230
831.08	22268
831.219	22249
831.357	22238
831.496	22447
831.635	22291
831.774	22150
831.913	22177
832.051	22101
832.19	22021
832.329	22204
832.467	22116
832.606	21994
832.744	22044
832.883	22128
833.022	22124
833.16	22181
833.299	22390
833.437	22379
833.576	22474
833.714	22725
833.852	22774
833.991	22831
834.129	22904
834.267	22881
834.406	22915
834.544	22919
834.682	22687
834.821	22683
834.959	22755
835.097	22402
835.235	22333
835.373	22211
835.511	22158
835.65	22074
835.788	22086
835.926	21911
836.064	21827
836.202	21622
836.34	21915
836.478	21907
836.615	21895
836.753	21736
836.891	21785
837.029	21888
837.167	21739
837.305	21690
837.443	21606
837.58	21481
837.718	21663
837.856	21595
837.993	21580
838.131	21431
838.269	21526
838.406	21450
838.544	21329
838.681	21329
838.819	21188
838.956	21108
839.094	21028
839.231	21058
839.369	21066
839.506	21450
839.643	21252
839.781	21043
839.918	20842
840.055	21017
840.193	20937
840.33	20956
840.467	20937
840.604	21013
840.742	21123
840.879	20807
841.016	20800
841.153	20792
841.29	21001
841.427	20861
841.564	21024
841.701	21017
841.838	20819
841.975	20800
842.112	20921
842.249	20842
842.385	20800
842.522	20902
842.659	20727
842.796	20708
842.933	20762
843.069	20750
843.206	20625
843.343	20823
843.479	20891
843.616	20857
843.752	20686
843.889	20644
844.025	20826
844.162	20849
844.298	20956
844.435	21017
844.571	21036
844.708	21435
844.844	21724
844.98	22070
845.117	22470
845.253	23132
845.389	24551
845.525	27188
845.661	31624
845.798	36753
845.934	40946
846.07	42403
846.206	41337
846.342	37928
846.478	32686
846.614	27998
846.75	25076
846.886	23303
847.022	22219
847.158	21450
847.294	21085
847.429	20800
847.565	20636
847.701	20743
847.837	20096
847.972	20073
848.108	20134
848.244	20020
848.379	19963
848.515	19628
848.65	19632
848.786	19605
848.921	19746
849.057	19674
849.192	19731
849.328	19666
849.463	19685
849.598	19540
849.734	19449
849.869	19464
850.004	19331
850.14	19419
850.275	19312
850.41	19339
850.545	19331
850.68	19293
850.815	19320
850.95	19263
851.085	19434
851.22	19381
851.355	19244
851.49	19346
851.625	19282
851.76	19179
851.895	19263
852.03	19145
852.165	19228
852.299	19324
852.434	19324
852.569	19316
852.703	19278
852.838	19491
852.973	19567
853.107	19430
853.242	19377
853.376	19240
853.511	19175
853.645	19365
853.78	19533
853.914	19487
854.048	19430
854.183	19335
854.317	19388
854.451	19655
854.585	19449
854.72	19434
854.854	19453
854.988	19324
855.122	19312
855.256	19168
855.39	19194
855.524	19289
855.658	19381
855.792	19183
855.926	19244
856.06	19240
856.194	19160
856.327	19266
856.461	19187
856.595	19042
856.729	19126
856.862	19232
856.996	19187
857.13	19110
857.263	19107
857.397	19164
857.53	19080
857.664	19122
857.797	19042
857.931	19206
858.064	19129
858.197	19118
858.331	19076
858.464	19046
858.597	18829
858.731	18951
858.864	18863
858.997	18920
859.13	18977
859.263	19023
859.396	19107
859.529	18951
859.662	18924
859.795	18905
859.928	19053
860.061	19175
860.194	19228
860.327	18993
860.46	19031
860.592	19084
860.725	19046
860.858	19088
860.99	18947
861.123	18810
861.256	18901
861.388	18962
861.521	19628
861.653	18878
861.786	18734
861.918	18875
862.05	18867
862.183	18897
862.315	18977
862.447	19031
862.58	18943
862.712	18779
862.844	18730
862.976	18730
863.108	18764
863.24	18943
863.372	18544
863.504	18578
863.636	18563
863.768	18566
863.9	18707
864.032	18547
864.164	18513
864.296	18707
864.428	18722
864.559	18688
864.691	18612
864.823	18601
864.954	18768
865.086	18658
865.217	18585
865.349	18471
865.48	18627
865.612	18528
865.743	18661
865.875	18448
866.006	18471
866.137	18578
866.269	18547
866.4	18616
866.531	18475
866.662	18460
866.793	18460
866.924	18372
867.055	18517
867.186	18513
867.317	18486
867.448	18464
867.579	18369
867.71	18452
867.841	18460
867.972	18471
868.103	18437
868.233	18578
868.364	18536
868.495	18559
868.625	18734
868.756	18837
868.886	18684
869.017	18852
869.147	18871
869.278	18935
869.408	18779
869.539	18867
869.669	18821
869.799	18764
869.929	18821
870.06	18935
870.19	19187
870.32	19183
870.45	19160
870.58	19152
870.71	19278
870.84	19324
870.97	19270
871.1	19263
871.23	19301
871.36	19324
871.489	19434
871.619	19358
871.749	19487
871.879	19358
872.008	19651
872.138	19476
872.267	19365
872.397	19324
872.526	19419
872.656	19377
872.785	19392
872.915	19525
873.044	19727
873.173	19670
873.303	19605
873.432	19639
873.561	19746
873.69	19791
873.819	19700
873.948	19780
874.077	19681
874.206	19712
874.335	19814
874.464	19871
874.593	19963
874.722	20050
874.851	19947
874.979	20138
875.108	20191
875.237	20164
875.365	20062
875.494	20206
875.623	20305
875.751	20282
875.88	20366
876.008	20476
876.136	20602
876.265	20861
876.393	20975
876.521	20906
876.65	21085
876.778	21028
876.906	21062
877.034	21055
877.162	21074
877.29	21066
877.418	21294
877.546	21275
877.674	21355
877.802	21488
877.93	21614
878.058	21656
878.185	21785
878.313	22101
878.441	22234
878.568	22398
878.696	22961
878.824	23726
878.951	24475
879.079	25723
879.206	27249
879.333	28831
879.461	30209
879.588	31050
879.715	30996
879.842	30452
879.97	28991
880.097	27344
880.224	25986
880.351	25103
880.478	24532
880.605	23908
880.732	23691
880.859	23691
880.986	23356
881.112	23231
881.239	23265
881.366	23044
881.493	22809
881.619	22816
881.746	22843
881.872	22774
881.999	22858
882.125	22854
882.252	22987
882.378	23006
882.505	23102
882.631	22991
882.757	22889
882.883	22904
883.01	22797
883.136	22744
883.262	22694
883.388	22592
883.514	22736
883.64	22755
883.766	22618
883.892	22478
884.018	22550
884.143	22729
884.269	22774
884.395	22531
884.52	22512
884.646	22386
884.772	22310
884.897	22337
885.023	22451
885.148	22565
885.274	22603
885.399	22310
885.524	22253
885.65	22185
885.775	22067
885.9	21964
886.025	21994
886.15	21865
886.275	21663
886.4	21424
886.525	21397
886.65	21340
886.775	21252
886.9	21370
887.025	21321
887.149	21017
887.274	20823
887.399	20693
887.523	20746
887.648	20571
887.773	20507
887.897	20499
888.021	20370
888.146	20328
888.27	20400
888.395	20317
888.519	20362
888.643	20195
888.767	20229
888.891	20157
889.015	19898
889.139	19997
889.263	19894
889.387	19944
889.511	20103
889.635	19856
889.759	19776
889.883	19685
890.006	19772
890.13	19677
890.254	19624
890.377	19476
890.501	19449
890.624	19419
890.748	19392
890.871	19110
890.995	19160
891.118	19171
891.241	19118
891.364	19057
891.488	19080
891.611	19118
891.734	18989
891.857	19137
891.98	18951
892.103	19069
892.226	18973
892.349	18875
892.471	18749
892.594	18894
892.717	18730
892.839	18871
892.962	18787
893.085	18768
893.207	18779
893.33	18616
893.452	18681
893.575	18623
893.697	18616
893.819	18783
893.941	18848
894.064	18726
894.186	18521
894.308	18483
894.43	18555
894.552	18684
894.674	18601
894.796	18441
894.918	18433
895.04	18502
895.161	18585
895.283	18521
895.405	18365
895.526	18395
895.648	18353
895.769	18414
895.891	18380
896.012	18448
896.134	18513
896.255	18429
896.376	18266
896.498	18369
896.619	18433
896.74	18418
896.861	18327
896.982	18661
897.103	18783
897.224	18616
897.345	18506
897.466	18521
897.587	18589
897.708	18719
897.828	18502
897.949	18547
898.07	18361
898.19	18437
898.311	18677
898.431	18612
898.552	18456
898.672	18551
898.792	18620
898.913	18616
899.033	18464
899.153	18384
899.273	18330
899.393	18395
899.513	18376
899.633	18388
899.753	18327
899.873	18365
899.993	18384
900.113	18289
900.232	18357
900.352	18251
900.472	18247
900.591	18083
900.711	18072
900.83	18083
900.95	18216
901.069	18174
901.189	18022
901.308	17923
901.427	17729
901.546	17710
901.665	17741
901.784	17783
901.904	17558
902.023	17589
902.141	17235
902.26	17208
902.379	17376
902.498	17280
902.617	17155
902.735	17242
902.854	17121
902.973	16965
903.091	16824
903.21	16763
903.328	16824
903.446	16717
903.565	16596
903.683	16615
903.801	16428
903.919	16561
904.038	16573
904.156	16432
904.274	16436
904.392	16325
904.51	16325
904.627	16333
904.745	16382
904.863	16459
904.981	16105
905.098	16029
905.216	15998
905.334	16078
905.451	15998
905.569	15934
905.686	15998
905.803	16055
905.921	15778
906.038	15819
906.155	15720
906.272	15610
906.389	15599
906.506	15507
906.623	15549
906.74	15454
906.857	15370
906.974	15439
907.091	15580
907.208	15736
907.324	15507
907.441	15389
907.557	15313
907.674	15195
907.79	15241
907.907	15070
908.023	15272
908.139	15169
908.256	15157
908.372	15081
908.488	15108
908.604	15020
908.72	15066
908.836	14883
908.952	14895
909.068	14899
909.184	15032
909.3	14902
909.415	15036
909.531	14868
909.647	14689
909.762	14640
909.878	14632
909.993	14731
910.108	14636
910.224	14530
910.339	14617
910.454	14450
910.57	14446
910.685	14381
910.8	14705
910.915	14617
911.03	14465
911.145	14381
911.259	14252
911.374	14210
911.489	14088
911.604	14088
911.718	13932
911.833	13978
911.947	13795
912.062	13811
912.176	14005
912.291	14016
912.405	14058
912.519	14134
912.633	14107
912.748	14008
912.862	13951
912.976	13791
913.09	13681
913.204	13753
913.318	13875
913.431	13997
913.545	13913
913.659	13967
913.772	13799
913.886	13658
914	13525
914.113	13700
914.226	13830
914.34	13776
914.453	13624
914.566	13723
914.68	13632
914.793	13559
914.906	13422
915.019	13301
915.132	13324
915.245	13377
915.358	13369
915.47	13377
915.583	13422
915.696	13343
915.809	13537
915.921	13453
916.034	13384
916.146	13339
916.259	13228
916.371	13422
916.483	13339
916.595	13285
916.708	13365
916.82	13266
916.932	13354
917.044	13232
917.156	13240
917.268	13095
917.38	13175
917.491	13141
917.603	13057
917.715	13126
917.826	13156
917.938	13023
918.049	12928
918.161	13015
918.272	13133
918.384	13187
918.495	13088
918.606	12897
918.717	12791
918.828	12890
918.939	12882
919.05	12745
919.161	12844
919.272	12696
919.383	12741
919.494	12825
919.604	13034
919.715	12791
919.826	12791
919.936	12779
920.047	12875
920.157	12856
920.267	12977
920.378	12791
920.488	12825
920.598	12924
920.708	13118
920.818	12962
920.928	13019
921.038	13095
921.148	13046
921.258	12658
921.368	12684
921.477	12669
921.587	12528
921.697	12475
921.806	12604
921.916	12452
922.025	12262
922.134	12232
922.244	12258
922.353	12330
922.462	12087
922.571	12079
922.68	11927
922.789	11832
922.898	11946
923.007	11885
923.116	11942
923.224	11920
923.333	11859
923.442	11737
923.55	11737
923.659	11707
923.767	11828
923.876	11707
923.984	11802
924.092	11741
924.201	11741
924.309	11699
924.417	11585
924.525	11657
924.633	11695
924.741	12304
924.849	11391
924.956	11592
925.064	11463
925.172	11326
925.279	11307
925.387	11455
925.494	11280
925.602	11539
925.709	11463
925.816	11292
925.924	11387
926.031	11455
926.138	11356
926.245	11372
926.352	11189
926.459	11429
926.566	11452
926.673	11246
926.779	11140
926.886	11159
926.993	11018
927.099	11022
927.206	10953
927.312	10957
927.419	11006
927.525	10984
927.631	11018
927.737	10995
927.843	10869
927.95	10782
928.056	10786
928.162	10843
928.267	10946
928.373	11379
928.479	10946
928.585	10675
928.69	10854
928.796	10889
928.901	10721
929.007	10668
929.112	10763
929.218	10672
929.323	10672
929.428	10675
929.533	10725
929.638	10554
929.743	10577
929.848	10626
929.953	10588
930.058	10481
930.163	10325
930.267	10356
930.372	10508
930.477	10314
930.581	10611
930.685	10356
930.79	10295
930.894	10204
930.998	10295
931.103	10386
931.207	10002
931.311	9846
931.415	9888
931.519	9778
931.623	9637
