Data from test_V78500241_2794.txt Node
Date: Fri Mar 25 14:53:10 CST 2022
User: usil
Spectrometer: V785-0024
Trigger mode: 0
Integration Time (sec): 4.000000E-1
Scans to average: 1
Nonlinearity correction enabled: false
Boxcar width: 0
Storing dark spectrum: false
XAxis mode: Wavelengths
Number of Pixels in Spectrum: 1024
>>>>>Begin Spectral Data<<<<<
801.071	22101
801.214	21884
801.356	21633
801.499	21500
801.641	21473
801.783	21435
801.926	21397
802.068	21340
802.211	21260
802.353	21123
802.496	20929
802.638	20883
802.78	20933
802.923	20804
803.065	20625
803.208	20724
803.35	20807
803.492	20815
803.635	20918
803.777	20743
803.919	20800
804.061	21039
804.204	20796
804.346	20746
804.488	20613
804.63	20693
804.773	20606
804.915	20560
805.057	20861
805.199	20602
805.341	20754
805.483	20781
805.626	20792
805.768	20583
805.91	20640
806.052	20663
806.194	20488
806.336	20830
806.478	20777
806.62	20667
806.762	20735
806.904	20708
807.046	21062
807.188	20819
807.33	21005
807.472	20990
807.614	20823
807.756	20967
807.898	20826
808.04	20701
808.182	20727
808.324	20727
808.465	20861
808.607	21032
808.749	21055
808.891	21085
809.033	21252
809.174	21062
809.316	21047
809.458	21009
809.6	20971
809.741	20956
809.883	21119
810.025	21180
810.166	21211
810.308	21230
810.45	21112
810.591	21047
810.733	20891
810.875	20804
811.016	20697
811.158	20697
811.299	20735
811.441	20819
811.582	20906
811.724	20853
811.865	20648
812.007	20743
812.148	20712
812.29	20834
812.431	20941
812.573	21150
812.714	21207
812.855	21272
812.997	21382
813.138	21466
813.279	21454
813.421	21363
813.562	21188
813.703	20979
813.845	20956
813.986	20765
814.127	20446
814.268	20533
814.41	20465
814.551	20332
814.692	20298
814.833	20183
814.974	20282
815.115	20305
815.256	20103
815.397	20172
815.539	20164
815.68	20084
815.821	20065
815.962	20058
816.103	19974
816.244	19959
816.385	19868
816.526	19696
816.666	19563
816.807	19453
816.948	19601
817.089	19510
817.23	19586
817.371	19540
817.512	19434
817.653	19407
817.793	19377
817.934	19514
818.075	19464
818.216	19434
818.356	19335
818.497	19297
818.638	19190
818.778	19198
818.919	19129
819.06	19137
819.2	19270
819.341	19354
819.481	19415
819.622	19438
819.762	19727
819.903	19651
820.043	19540
820.184	19407
820.324	19354
820.465	19419
820.605	19464
820.746	19346
820.886	19289
821.026	19308
821.167	19434
821.307	19285
821.447	19457
821.588	19244
821.728	19031
821.868	18947
822.008	19031
822.149	18958
822.289	18833
822.429	18589
822.569	18528
822.709	18616
822.849	18410
822.99	18258
823.13	18304
823.27	18384
823.41	18239
823.55	18121
823.69	18083
823.83	18213
823.97	17923
824.11	17980
824.25	17946
824.389	17901
824.529	18068
824.669	17904
824.809	17836
824.949	17969
825.089	18030
825.228	17931
825.368	17726
825.508	17798
825.648	17687
825.787	17790
825.927	17752
826.067	17585
826.206	17657
826.346	17672
826.485	17668
826.625	17687
826.765	17817
826.904	17604
827.044	17520
827.183	17532
827.323	17395
827.462	17326
827.601	17429
827.741	17398
827.88	17417
828.02	17227
828.159	17433
828.298	17455
828.437	17463
828.577	17417
828.716	17505
828.855	17345
828.994	17307
829.134	17132
829.273	17124
829.412	17052
829.551	17041
829.69	17140
829.829	17189
829.968	17292
830.107	17162
830.246	17246
830.385	17067
830.524	17029
830.663	16972
830.802	16877
830.941	16782
831.08	16672
831.219	16824
831.357	16885
831.496	16972
831.635	16729
831.774	16694
831.913	16668
832.051	16542
832.19	16550
832.329	16531
832.467	16424
832.606	16455
832.744	16386
832.883	16413
833.022	16409
833.16	16402
833.299	16443
833.437	16497
833.576	16470
833.714	16550
833.852	16481
833.991	16584
834.129	16409
834.267	16489
834.406	16489
834.544	16588
834.682	16386
834.821	16413
834.959	16675
835.097	16481
835.235	16504
835.373	16508
835.511	16485
835.65	16497
835.788	16443
835.926	16280
836.064	16246
836.202	16257
836.34	16409
836.478	16478
836.615	16371
836.753	16379
836.891	16630
837.029	16447
837.167	16386
837.305	16329
837.443	16318
837.58	16337
837.718	16322
837.856	16341
837.993	16253
838.131	16306
838.269	16238
838.406	16261
838.544	16158
838.681	15998
838.819	15953
838.956	15778
839.094	15778
839.231	15922
839.369	15953
839.506	16299
839.643	16128
839.781	15846
839.918	15690
840.055	15861
840.193	15854
840.33	15789
840.467	15884
840.604	15865
840.742	16067
840.879	15739
841.016	15816
841.153	15747
841.29	15991
841.427	15956
841.564	15835
841.701	15915
841.838	15778
841.975	15804
842.112	15698
842.249	15701
842.385	15603
842.522	15869
842.659	15671
842.796	15530
842.933	15660
843.069	15545
843.206	15496
843.343	15747
843.479	15572
843.616	15698
843.752	15344
843.889	15511
844.025	15549
844.162	15363
844.298	15572
844.435	15447
844.571	15359
844.708	15454
844.844	15580
844.98	15530
845.117	15538
845.253	15412
845.389	15348
845.525	15260
845.661	15332
845.798	15241
845.934	15256
846.07	15207
846.206	15218
846.342	15298
846.478	15237
846.614	14998
846.75	14963
846.886	15039
847.022	15116
847.158	14975
847.294	15047
847.429	15093
847.565	14990
847.701	15294
847.837	14689
847.972	14739
848.108	14815
848.244	14705
848.379	14583
848.515	14507
848.65	14541
848.786	14594
848.921	14617
849.057	14587
849.192	14667
849.328	14625
849.463	14648
849.598	14610
849.734	14587
849.869	14427
850.004	14389
850.14	14412
850.275	14347
850.41	14252
850.545	14282
850.68	14290
850.815	14431
850.95	14366
851.085	14556
851.22	14476
851.355	14336
851.49	14339
851.625	14442
851.76	14240
851.895	14221
852.03	14237
852.165	14351
852.299	14351
852.434	14355
852.569	14454
852.703	14427
852.838	14339
852.973	14415
853.107	14476
853.242	14309
853.376	14210
853.511	14046
853.645	14195
853.78	14415
853.914	14164
854.048	14221
854.183	14225
854.317	14180
854.451	14412
854.585	14263
854.72	14199
854.854	14252
854.988	14134
855.122	14149
855.256	14062
855.39	14210
855.524	14191
855.658	14221
855.792	14294
855.926	14290
856.06	14298
856.194	14362
856.327	14275
856.461	14126
856.595	14252
856.729	14210
856.862	14290
856.996	14218
857.13	14286
857.263	14301
857.397	14252
857.53	14221
857.664	14301
857.797	14320
857.931	14282
858.064	14195
858.197	14336
858.331	14187
858.464	14172
858.597	14134
858.731	14229
858.864	14126
858.997	14100
859.13	14244
859.263	14240
859.396	14286
859.529	14134
859.662	14313
859.795	14149
859.928	14259
860.061	14362
860.194	14343
860.327	14370
860.46	14221
860.592	14358
860.725	14286
860.858	14298
860.99	14138
861.123	14100
861.256	14195
861.388	14263
861.521	14948
861.653	14107
861.786	14065
861.918	14145
862.05	14168
862.183	14164
862.315	14286
862.447	14180
862.58	14244
862.712	14107
862.844	13909
862.976	14073
863.108	14031
863.24	14419
863.372	13982
863.504	14031
863.636	13982
863.768	14073
863.9	14046
864.032	13894
864.164	13921
864.296	14001
864.428	14161
864.559	14176
864.691	14145
864.823	13967
864.954	14035
865.086	14005
865.217	13955
865.349	13951
865.48	13970
865.612	14024
865.743	14115
865.875	14016
866.006	13932
866.137	13982
866.269	13951
866.4	13917
866.531	13894
866.662	13978
866.793	13868
866.924	13925
867.055	13932
867.186	14039
867.317	13940
867.448	13902
867.579	13978
867.71	13989
867.841	13841
867.972	13982
868.103	13989
868.233	13967
868.364	14016
868.495	14058
868.625	14210
868.756	14305
868.886	14107
869.017	14210
869.147	14389
869.278	14355
869.408	14248
869.539	14298
869.669	14294
869.799	14206
869.929	14343
870.06	14294
870.19	14488
870.32	14568
870.45	14587
870.58	14655
870.71	14689
870.84	14697
870.97	14610
871.1	14644
871.23	14720
871.36	14842
871.489	14701
871.619	14819
871.749	14819
871.879	14872
872.008	14941
872.138	14845
872.267	14819
872.397	14701
872.526	14727
872.656	14674
872.785	14659
872.915	14838
873.044	14849
873.173	14963
873.303	14906
873.432	14941
873.561	15005
873.69	14948
873.819	14899
873.948	14929
874.077	14842
874.206	14883
874.335	14902
874.464	14979
874.593	15245
874.722	15142
874.851	15199
874.979	15272
875.108	15203
875.237	15180
875.365	15157
875.494	15154
875.623	15340
875.751	15279
875.88	15176
876.008	15359
876.136	15420
876.265	15644
876.393	15751
876.521	15667
876.65	15660
876.778	15599
876.906	15587
877.034	15580
877.162	15564
877.29	15656
877.418	15614
877.546	15671
877.674	15572
877.802	15603
877.93	15576
878.058	15633
878.185	15610
878.313	15572
878.441	15587
878.568	15515
878.696	15561
878.824	15606
878.951	15686
879.079	15774
879.206	15926
879.333	15717
879.461	15686
879.588	15720
879.715	15755
879.842	15823
879.97	15675
880.097	15500
880.224	15412
880.351	15519
880.478	15622
880.605	15447
880.732	15462
880.859	15751
880.986	15595
881.112	15447
881.239	15294
881.366	15256
881.493	15211
881.619	15150
881.746	15161
881.872	15043
881.999	15085
882.125	15081
882.252	15203
882.378	15173
882.505	15302
882.631	15051
882.757	14853
882.883	14998
883.01	14971
883.136	14899
883.262	14880
883.388	14739
883.514	14941
883.64	14952
883.766	14956
883.892	14792
884.018	14750
884.143	14823
884.269	15062
884.395	14754
884.52	14632
884.646	14659
884.772	14537
884.897	14522
885.023	14678
885.148	14712
885.274	14842
885.399	14712
885.524	14640
885.65	14659
885.775	14674
885.9	14594
886.025	14705
886.15	14762
886.275	14560
886.4	14526
886.525	14640
886.65	14465
886.775	14617
886.9	14758
887.025	14853
887.149	14682
887.274	14552
887.399	14484
887.523	14336
887.648	14343
887.773	14282
887.897	14476
888.021	14442
888.146	14415
888.27	14537
888.395	14659
888.519	14507
888.643	14492
888.767	14613
888.891	14370
889.015	14362
889.139	14343
889.263	14278
889.387	14404
889.511	14495
889.635	14419
889.759	14343
889.883	14400
890.006	14377
890.13	14415
890.254	14301
890.377	14336
890.501	14202
890.624	14126
890.748	14252
890.871	14111
890.995	14027
891.118	13951
891.241	14058
891.364	14081
891.488	14138
891.611	14096
891.734	13959
891.857	14054
891.98	14008
892.103	14145
892.226	14035
892.349	14020
892.471	13917
892.594	14062
892.717	13986
892.839	13982
892.962	14073
893.085	14103
893.207	14039
893.33	13917
893.452	14027
893.575	14043
893.697	13978
893.819	14210
893.941	14221
894.064	14161
894.186	13997
894.308	14020
894.43	14103
894.552	14168
894.674	14149
894.796	13989
894.918	14073
895.04	14065
895.161	14218
895.283	14199
895.405	14103
895.526	14187
895.648	14244
895.769	14149
895.891	14237
896.012	14214
896.134	14328
896.255	14187
896.376	14275
896.498	14218
896.619	14248
896.74	14187
896.861	14305
896.982	14537
897.103	14659
897.224	14393
897.345	14488
897.466	14358
897.587	14514
897.708	14560
897.828	14522
897.949	14488
898.07	14393
898.19	14473
898.311	14606
898.431	14552
898.552	14484
898.672	14670
898.792	14670
898.913	14594
899.033	14545
899.153	14450
899.273	14351
899.393	14374
899.513	14442
899.633	14431
899.753	14457
899.873	14374
899.993	14617
900.113	14461
900.232	14499
900.352	14431
900.472	14271
900.591	14286
900.711	14427
900.83	14282
900.95	14355
901.069	14492
901.189	14263
901.308	14096
901.427	13932
901.546	13887
901.665	14043
901.784	13932
901.904	13883
902.023	13753
902.141	13647
902.26	13525
902.379	13544
902.498	13472
902.617	13533
902.735	13556
902.854	13445
902.973	13422
903.091	13285
903.21	13168
903.328	13278
903.446	13213
903.565	13126
903.683	13152
903.801	13042
903.919	13076
904.038	13129
904.156	12825
904.274	12962
904.392	12867
904.51	12856
904.627	12878
904.745	12954
904.863	13027
904.981	12673
905.098	12559
905.216	12608
905.334	12623
905.451	12517
905.569	12551
905.686	12654
905.803	12669
905.921	12448
906.038	12460
906.155	12456
906.272	12308
906.389	12388
906.506	12235
906.623	12281
906.74	12342
906.857	12041
906.974	12079
907.091	12224
907.208	12407
907.324	12224
907.441	12106
907.557	12019
907.674	11916
907.79	11950
907.907	11912
908.023	11988
908.139	11996
908.256	11916
908.372	11840
908.488	11786
908.604	11798
908.72	11680
908.836	11707
908.952	11668
909.068	11779
909.184	11741
909.3	11684
909.415	11699
909.531	11741
909.647	11512
909.762	11414
909.878	11524
909.993	11539
910.108	11452
910.224	11417
910.339	11459
910.454	11356
910.57	11345
910.685	11311
910.8	11535
910.915	11463
911.03	11414
911.145	11193
911.259	11170
911.374	11204
911.489	11083
911.604	11075
911.718	10976
911.833	10953
911.947	10812
912.062	10809
912.176	10953
912.291	10919
912.405	10930
912.519	11109
912.633	11174
912.748	10961
912.862	11010
912.976	10854
913.09	10668
913.204	10805
913.318	10843
913.431	10961
913.545	10881
913.659	10911
913.772	10805
913.886	10672
914	10714
914.113	10752
914.226	10835
914.34	10816
914.453	10622
914.566	10710
914.68	10653
914.793	10668
914.906	10481
915.019	10409
915.132	10314
915.245	10341
915.358	10440
915.47	10409
915.583	10470
915.696	10455
915.809	10672
915.921	10603
916.034	10390
916.146	10436
916.259	10440
916.371	10512
916.483	10451
916.595	10363
916.708	10303
916.82	10421
916.932	10371
917.044	10390
917.156	10318
917.268	10325
917.38	10299
917.491	10227
917.603	10333
917.715	10299
917.826	10424
917.938	10215
918.049	10154
918.161	10257
918.272	10390
918.384	10394
918.495	10337
918.606	10169
918.717	10093
918.828	10246
918.939	10215
919.05	10032
919.161	10219
919.272	9953
919.383	10010
919.494	10242
919.604	10485
919.715	10200
919.826	10097
919.936	10120
920.047	10276
920.157	10295
920.267	10417
920.378	10223
920.488	10223
920.598	10390
920.708	10481
920.818	10394
920.928	10459
921.038	10451
921.148	10455
921.258	10211
921.368	10223
921.477	10048
921.587	10059
921.697	9873
921.806	10032
921.916	9945
922.025	9740
922.134	9797
922.244	9797
922.353	9804
922.462	9599
922.571	9511
922.68	9485
922.789	9370
922.898	9435
923.007	9313
923.116	9458
923.224	9473
923.333	9405
923.442	9344
923.55	9321
923.659	9340
923.767	9355
923.876	9325
923.984	9378
924.092	9203
924.201	9306
924.309	9287
924.417	9355
924.525	9359
924.633	9249
924.741	10051
924.849	9062
924.956	9241
925.064	9077
925.172	9009
925.279	8982
925.387	9116
925.494	9100
925.602	9188
925.709	9176
925.816	9051
925.924	9066
926.031	9222
926.138	9142
926.245	9138
926.352	8986
926.459	9154
926.566	9249
926.673	9032
926.779	8963
926.886	8925
926.993	8895
927.099	8785
927.206	8800
927.312	8712
927.419	8845
927.525	8819
927.631	8830
927.737	8796
927.843	8716
927.95	8644
928.056	8670
928.162	8682
928.267	8807
928.373	9428
928.479	8773
928.585	8594
928.69	8716
928.796	8727
928.901	8644
929.007	8492
929.112	8610
929.218	8575
929.323	8499
929.428	8530
929.533	8686
929.638	8400
929.743	8533
929.848	8552
929.953	8480
930.058	8423
930.163	8328
930.267	8343
930.372	8454
930.477	8305
930.581	8530
930.685	8423
930.79	8244
930.894	8294
930.998	8252
931.103	8362
931.207	8062
931.311	7967
931.415	7909
931.519	7761
931.623	7704
