Data from test_V78500241_363.txt Node
Date: Fri Mar 25 14:36:15 CST 2022
User: usil
Spectrometer: V785-0024
Trigger mode: 0
Integration Time (sec): 4.000000E-1
Scans to average: 1
Nonlinearity correction enabled: false
Boxcar width: 0
Storing dark spectrum: false
XAxis mode: Wavelengths
Number of Pixels in Spectrum: 1024
>>>>>Begin Spectral Data<<<<<
801.071	26682
801.214	26727
801.356	26469
801.499	26385
801.641	26343
801.783	26225
801.926	26275
802.068	26073
802.211	26084
802.353	26062
802.496	25913
802.638	25833
802.78	25727
802.923	25780
803.065	25616
803.208	25704
803.35	25791
803.492	25772
803.635	26039
803.777	25860
803.919	25875
804.061	26111
804.204	25849
804.346	25776
804.488	25655
804.63	25746
804.773	25791
804.915	25753
805.057	25788
805.199	25845
805.341	25970
805.483	25750
805.626	25681
805.768	25639
805.91	25833
806.052	25704
806.194	25807
806.336	25978
806.478	25731
806.62	25784
806.762	25871
806.904	26115
807.046	26381
807.188	26145
807.33	26237
807.472	26176
807.614	26012
807.756	26176
807.898	26161
808.04	25906
808.182	25944
808.324	25993
808.465	26096
808.607	26092
808.749	26336
808.891	26518
809.033	26457
809.174	26518
809.316	26298
809.458	26320
809.6	26161
809.741	26431
809.883	26377
810.025	26480
810.166	26617
810.308	26461
810.45	26453
810.591	26336
810.733	26263
810.875	26256
811.016	26107
811.158	26043
811.299	26240
811.441	26278
811.582	26381
811.724	26145
811.865	26134
812.007	26073
812.148	26161
812.29	26130
812.431	26225
812.573	26267
812.714	26415
812.855	26541
812.997	26678
813.138	26906
813.279	26701
813.421	26499
813.562	26670
813.703	26545
813.845	26317
813.986	26031
814.127	25989
814.268	25719
814.41	25826
814.551	25613
814.692	25765
814.833	25620
814.974	25655
815.115	25628
815.256	25594
815.397	25419
815.539	25434
815.68	25449
815.821	25365
815.962	25552
816.103	25426
816.244	25343
816.385	25160
816.526	25141
816.666	25080
816.807	24867
816.948	24981
817.089	24966
817.23	24764
817.371	24939
817.512	24878
817.653	24852
817.793	24814
817.934	24798
818.075	24741
818.216	24852
818.356	24669
818.497	24726
818.638	24448
818.778	24525
818.919	24513
819.06	24582
819.2	24703
819.341	24631
819.481	24696
819.622	24894
819.762	25004
819.903	25038
820.043	24886
820.184	24928
820.324	24977
820.465	24962
820.605	24814
820.746	24897
820.886	24745
821.026	24772
821.167	24719
821.307	24817
821.447	24654
821.588	24631
821.728	24536
821.868	24323
822.008	24190
822.149	24140
822.289	24224
822.429	23855
822.569	23649
822.709	23874
822.849	23596
822.99	23729
823.13	23531
823.27	23615
823.41	23402
823.55	23235
823.69	23429
823.83	23349
823.97	23261
824.11	23193
824.25	23189
824.389	23083
824.529	23299
824.669	23178
824.809	23128
824.949	23299
825.089	23265
825.228	23178
825.368	23022
825.508	23044
825.648	23075
825.787	22968
825.927	23121
826.067	22995
826.206	22885
826.346	23014
826.485	23086
826.625	23006
826.765	22953
826.904	23056
827.044	22748
827.183	22694
827.323	22622
827.462	22736
827.601	22683
827.741	22622
827.88	22592
828.02	22687
828.159	22542
828.298	22611
828.437	22744
828.577	22550
828.716	22630
828.855	22588
828.994	22409
829.134	22325
829.273	22428
829.412	22253
829.551	22200
829.69	22333
829.829	22299
829.968	22276
830.107	22398
830.246	22360
830.385	22219
830.524	22105
830.663	22059
830.802	21926
830.941	21842
831.08	21937
831.219	22040
831.357	21899
831.496	22150
831.635	21892
831.774	21808
831.913	21774
832.051	21785
832.19	21637
832.329	21774
832.467	21587
832.606	21530
832.744	21515
832.883	21622
833.022	21553
833.16	21519
833.299	21652
833.437	21515
833.576	21549
833.714	21515
833.852	21660
833.991	21583
834.129	21694
834.267	21603
834.406	21496
834.544	21618
834.682	21519
834.821	21504
834.959	21739
835.097	21595
835.235	21633
835.373	21557
835.511	21458
835.65	21351
835.788	21424
835.926	21302
836.064	21154
836.202	21203
836.34	21450
836.478	21485
836.615	21431
836.753	21340
836.891	21481
837.029	21310
837.167	21336
837.305	21447
837.443	21298
837.58	21264
837.718	21355
837.856	21203
837.993	21256
838.131	21184
838.269	21104
838.406	21169
838.544	21058
838.681	20941
838.819	20792
838.956	20758
839.094	20678
839.231	20804
839.369	20845
839.506	21032
839.643	21017
839.781	20750
839.918	20579
840.055	20689
840.193	20629
840.33	20537
840.467	20625
840.604	20541
840.742	20804
840.879	20454
841.016	20530
841.153	20377
841.29	20598
841.427	20522
841.564	20560
841.701	20644
841.838	20495
841.975	20438
842.112	20537
842.249	20343
842.385	20252
842.522	20598
842.659	20237
842.796	20286
842.933	20358
843.069	20252
843.206	20218
843.343	20385
843.479	20351
843.616	20252
843.752	20054
843.889	20119
844.025	20214
844.162	20065
844.298	20187
844.435	20008
844.571	20012
844.708	20130
844.844	20130
844.98	20077
845.117	20191
845.253	19986
845.389	19879
845.525	20103
845.661	19982
845.798	19833
845.934	19993
846.07	19856
846.206	19932
846.342	19871
846.478	19807
846.614	19719
846.75	19559
846.886	19495
847.022	19537
847.158	19616
847.294	19575
847.429	19533
847.565	19563
847.701	19693
847.837	19304
847.972	19202
848.108	19430
848.244	19270
848.379	19118
848.515	19122
848.65	19053
848.786	19129
848.921	19107
849.057	19168
849.192	19175
849.328	19175
849.463	19148
849.598	19122
849.734	19038
849.869	18943
850.004	18867
850.14	18840
850.275	18875
850.41	18738
850.545	18859
850.68	18852
850.815	18810
850.95	18798
851.085	19042
851.22	18916
851.355	18802
851.49	18897
851.625	18806
851.76	18856
851.895	18753
852.03	18734
852.165	18798
852.299	18757
852.434	18894
852.569	18795
852.703	18878
852.838	18738
852.973	18985
853.107	18844
853.242	18741
853.376	18791
853.511	18593
853.645	18620
853.78	18620
853.914	18673
854.048	18661
854.183	18593
854.317	18802
854.451	18711
854.585	18734
854.72	18681
854.854	18700
854.988	18566
855.122	18620
855.256	18525
855.39	18673
855.524	18661
855.658	18650
855.792	18635
855.926	18620
856.06	18734
856.194	18719
856.327	18688
856.461	18574
856.595	18589
856.729	18559
856.862	18905
856.996	18582
857.13	18703
857.263	18635
857.397	18658
857.53	18620
857.664	18635
857.797	18635
857.931	18734
858.064	18688
858.197	18825
858.331	18498
858.464	18547
858.597	18555
858.731	18601
858.864	18521
858.997	18460
859.13	18574
859.263	18726
859.396	18604
859.529	18494
859.662	18563
859.795	18498
859.928	18677
860.061	18749
860.194	18829
860.327	18639
860.46	18494
860.592	18601
860.725	18726
860.858	18749
860.99	18471
861.123	18490
861.256	18490
861.388	18658
861.521	19190
861.653	18623
861.786	18502
861.918	18437
862.05	18650
862.183	18570
862.315	18616
862.447	18707
862.58	18486
862.712	18403
862.844	18262
862.976	18467
863.108	18330
863.24	18669
863.372	18327
863.504	18243
863.636	18289
863.768	18441
863.9	18258
864.032	18152
864.164	18296
864.296	18395
864.428	18353
864.559	18418
864.691	18414
864.823	18304
864.954	18353
865.086	18277
865.217	18292
865.349	18152
865.48	18228
865.612	18201
865.743	18304
865.875	18289
866.006	18216
866.137	18304
866.269	18292
866.4	18239
866.531	18159
866.662	18178
866.793	18136
866.924	18148
867.055	18152
867.186	18159
867.317	18155
867.448	18079
867.579	18087
867.71	18095
867.841	18155
867.972	18182
868.103	18235
868.233	18182
868.364	18194
868.495	18247
868.625	18380
868.756	18559
868.886	18289
869.017	18441
869.147	18414
869.278	18429
869.408	18365
869.539	18429
869.669	18479
869.799	18361
869.929	18452
870.06	18498
870.19	18772
870.32	18753
870.45	18700
870.58	18817
870.71	18825
870.84	18859
870.97	18909
871.1	18859
871.23	18951
871.36	18890
871.489	18878
871.619	18909
871.749	18947
871.879	19088
872.008	18981
872.138	18996
872.267	18894
872.397	18886
872.526	18852
872.656	18863
872.785	18783
872.915	18970
873.044	19091
873.173	19046
873.303	19190
873.432	19099
873.561	19072
873.69	19000
873.819	18993
873.948	19129
874.077	19015
874.206	19023
874.335	19042
874.464	19069
874.593	19301
874.722	19225
874.851	19320
874.979	19297
875.108	19373
875.237	19346
875.365	19232
875.494	19324
875.623	19232
875.751	19266
875.88	19324
876.008	19445
876.136	19628
876.265	19704
876.393	19852
876.521	19750
876.65	19746
876.778	19776
876.906	19628
877.034	19540
877.162	19651
877.29	19674
877.418	19632
877.546	19765
877.674	19833
877.802	19753
877.93	19620
878.058	19594
878.185	19445
878.313	19571
878.441	19556
878.568	19537
878.696	19605
878.824	19780
878.951	19696
879.079	19837
879.206	20100
879.333	19894
879.461	19753
879.588	19852
879.715	19860
879.842	19959
879.97	19791
880.097	19624
880.224	19480
880.351	19415
880.478	19506
880.605	19434
880.732	19597
880.859	19784
880.986	19559
881.112	19540
881.239	19438
881.366	19365
881.493	19198
881.619	19084
881.746	19160
881.872	19194
881.999	19072
882.125	19152
882.252	19164
882.378	19187
882.505	19240
882.631	19050
882.757	18989
882.883	19012
883.01	18863
883.136	18806
883.262	18863
883.388	18802
883.514	18871
883.64	18894
883.766	18757
883.892	18612
884.018	18730
884.143	18859
884.269	18973
884.395	18570
884.52	18460
884.646	18684
884.772	18566
884.897	18433
885.023	18608
885.148	18684
885.274	18753
885.399	18741
885.524	18642
885.65	18563
885.775	18532
885.9	18521
886.025	18791
886.15	18597
886.275	18483
886.4	18433
886.525	18475
886.65	18471
886.775	18448
886.9	18635
887.025	18783
887.149	18593
887.274	18338
887.399	18395
887.523	18319
887.648	18308
887.773	18273
887.897	18486
888.021	18327
888.146	18270
888.27	18338
888.395	18536
888.519	18273
888.643	18300
888.767	18445
888.891	18281
889.015	18201
889.139	18254
889.263	18174
889.387	18224
889.511	18467
889.635	18243
889.759	18110
889.883	18072
890.006	18239
890.13	18163
890.254	18121
890.377	18110
890.501	17904
890.624	17821
890.748	17977
890.871	17786
890.995	17703
891.118	17714
891.241	17676
891.364	17756
891.488	17920
891.611	17748
891.734	17824
891.857	17847
891.98	17756
892.103	17866
892.226	17714
892.349	17729
892.471	17581
892.594	17687
892.717	17642
892.839	17756
892.962	17676
893.085	17805
893.207	17718
893.33	17638
893.452	17619
893.575	17817
893.697	17722
893.819	17817
893.941	18007
894.064	17703
894.186	17646
894.308	17611
894.43	17775
894.552	17824
894.674	17931
894.796	17714
894.918	17722
895.04	17699
895.161	17870
895.283	17703
895.405	17733
895.526	17729
895.648	17805
895.769	17695
895.891	17764
896.012	17802
896.134	17851
896.255	17821
896.376	17783
896.498	17771
896.619	17824
896.74	17889
896.861	17832
896.982	18110
897.103	18194
897.224	18114
897.345	17866
897.466	17939
897.587	17977
897.708	18182
897.828	18076
897.949	17965
898.07	17851
898.19	18003
898.311	18114
898.431	17904
898.552	18072
898.672	18106
898.792	18102
898.913	18072
899.033	17855
899.153	17847
899.273	17691
899.393	17870
899.513	17821
899.633	17733
899.753	17935
899.873	17767
899.993	17745
900.113	17726
900.232	17707
900.352	17786
900.472	17642
900.591	17524
900.711	17516
900.83	17505
900.95	17627
901.069	17775
901.189	17573
901.308	17288
901.427	17189
901.546	17315
901.665	17269
901.784	17174
901.904	17185
902.023	17064
902.141	16786
902.26	16717
902.379	16797
902.498	16660
902.617	16660
902.735	16828
902.854	16759
902.973	16721
903.091	16462
903.21	16375
903.328	16356
903.446	16424
903.565	16276
903.683	16329
903.801	16158
903.919	16219
904.038	16325
904.156	16059
904.274	16040
904.392	16135
904.51	16063
904.627	16029
904.745	16139
904.863	16078
904.981	15759
905.098	15682
905.216	15663
905.334	15743
905.451	15823
905.569	15576
905.686	15701
905.803	15739
905.921	15530
906.038	15614
906.155	15606
906.272	15492
906.389	15344
906.506	15252
906.623	15287
906.74	15268
906.857	15161
906.974	15138
907.091	15336
907.208	15473
907.324	15321
907.441	15131
907.557	14975
907.674	14998
907.79	14944
907.907	14952
908.023	15039
908.139	14933
908.256	14880
908.372	14891
908.488	14826
908.604	14674
908.72	14663
908.836	14727
908.952	14765
909.068	14697
909.184	14823
909.3	14583
909.415	14701
909.531	14663
909.647	14415
909.762	14396
909.878	14278
909.993	14393
910.108	14347
910.224	14351
910.339	14431
910.454	14271
910.57	14187
910.685	14229
910.8	14404
910.915	14332
911.03	14282
911.145	13997
911.259	13993
911.374	14058
911.489	13909
911.604	13917
911.718	13761
911.833	13769
911.947	13670
912.062	13651
912.176	13715
912.291	13784
912.405	13731
912.519	13967
912.633	13970
912.748	13852
912.862	13742
912.976	13559
913.09	13464
913.204	13537
913.318	13594
913.431	13731
913.545	13700
913.659	13613
913.772	13616
913.886	13381
914	13388
914.113	13472
914.226	13590
914.34	13449
914.453	13365
914.566	13499
914.68	13335
914.793	13335
914.906	13171
915.019	13080
915.132	12973
915.245	13103
915.358	13160
915.47	13038
915.583	13141
915.696	13160
915.809	13324
915.921	13247
916.034	13042
916.146	13080
916.259	12920
916.371	13080
916.483	13133
916.595	13042
916.708	12985
916.82	13050
916.932	12863
917.044	12920
917.156	12924
917.268	12844
917.38	12817
917.491	12867
917.603	12856
917.715	12791
917.826	12962
917.938	12711
918.049	12688
918.161	12768
918.272	12928
918.384	12905
918.495	12776
918.606	12563
918.717	12639
918.828	12642
918.939	12730
919.05	12601
919.161	12612
919.272	12426
919.383	12471
919.494	12677
919.604	12760
919.715	12616
919.826	12540
919.936	12582
920.047	12623
920.157	12604
920.267	12753
920.378	12760
920.488	12574
920.598	12810
920.708	12882
920.818	12795
920.928	12616
921.038	12951
921.148	12894
921.258	12604
921.368	12460
921.477	12403
921.587	12407
921.697	12243
921.806	12384
921.916	12201
922.025	12091
922.134	12068
922.244	12003
922.353	12007
922.462	11946
922.571	11851
922.68	11668
922.789	11680
922.898	11688
923.007	11596
923.116	11714
923.224	11634
923.333	11680
923.442	11539
923.55	11436
923.659	11554
923.767	11520
923.876	11455
923.984	11600
924.092	11406
924.201	11429
924.309	11444
924.417	11391
924.525	11376
924.633	11474
924.741	12216
924.849	11258
924.956	11364
925.064	11258
925.172	11071
925.279	11239
925.387	11334
925.494	11216
925.602	11311
925.709	11292
925.816	11086
925.924	11231
926.031	11235
926.138	11258
926.245	11166
926.352	11086
926.459	11185
926.566	11181
926.673	11094
926.779	10995
926.886	11018
926.993	10816
927.099	10873
927.206	10748
927.312	10778
927.419	10923
927.525	10847
927.631	10820
927.737	10714
927.843	10755
927.95	10527
928.056	10706
928.162	10736
928.267	10698
928.373	11326
928.479	10782
928.585	10592
928.69	10710
928.796	10645
928.901	10542
929.007	10390
929.112	10584
929.218	10683
929.323	10421
929.428	10466
929.533	10523
929.638	10276
929.743	10428
929.848	10436
929.953	10413
930.058	10337
930.163	10120
930.267	10204
930.372	10390
930.477	10090
930.581	10322
930.685	10105
930.79	10124
930.894	10105
930.998	10044
931.103	10124
931.207	9835
931.311	9751
931.415	9728
931.519	9530
931.623	9469
