Data from test_V78500241_764.txt Node
Date: Fri Mar 25 14:39:02 CST 2022
User: usil
Spectrometer: V785-0024
Trigger mode: 0
Integration Time (sec): 4.000000E-1
Scans to average: 1
Nonlinearity correction enabled: false
Boxcar width: 0
Storing dark spectrum: false
XAxis mode: Wavelengths
Number of Pixels in Spectrum: 1024
>>>>>Begin Spectral Data<<<<<
801.071	26979
801.214	26830
801.356	26655
801.499	26434
801.641	26374
801.783	26301
801.926	26221
802.068	26218
802.211	26187
802.353	26073
802.496	25750
802.638	25765
802.78	25833
802.923	25788
803.065	25738
803.208	25715
803.35	25894
803.492	25776
803.635	25917
803.777	25822
803.919	25925
804.061	26244
804.204	26062
804.346	25997
804.488	25917
804.63	25978
804.773	26069
804.915	26001
805.057	26195
805.199	26267
805.341	26450
805.483	26473
805.626	26549
805.768	26431
805.91	26564
806.052	26838
806.194	26720
806.336	27233
806.478	27176
806.62	27321
806.762	27736
806.904	28093
807.046	28615
807.188	28946
807.33	29292
807.472	29904
807.614	30475
807.756	31514
807.898	32465
808.04	33983
808.182	35912
808.324	38594
808.465	41585
808.607	44724
808.749	47691
808.891	49415
809.033	49498
809.174	47980
809.316	45138
809.458	41611
809.6	38134
809.741	35566
809.883	33420
810.025	31997
810.166	30897
810.308	30125
810.45	29417
810.591	29048
810.733	28459
810.875	28044
811.016	27694
811.158	27507
811.299	27447
811.441	27252
811.582	27237
811.724	26902
811.865	26792
812.007	26667
812.148	26750
812.29	26712
812.431	26701
812.573	26800
812.714	26811
812.855	26857
812.997	26902
813.138	26994
813.279	26895
813.421	26727
813.562	26549
813.703	26457
813.845	26351
813.986	25966
814.127	25662
814.268	25704
814.41	25597
814.551	25464
814.692	25567
814.833	25384
814.974	25426
815.115	25476
815.256	25289
815.397	25053
815.539	25183
815.68	25164
815.821	24973
815.962	24920
816.103	24905
816.244	24837
816.385	24802
816.526	24673
816.666	24467
816.807	24380
816.948	24452
817.089	24456
817.23	24346
817.371	24300
817.512	24304
817.653	24247
817.793	24197
817.934	24148
818.075	24323
818.216	24213
818.356	24235
818.497	24083
818.638	23885
818.778	23942
818.919	23916
819.06	23939
819.2	24007
819.341	24171
819.481	24041
819.622	24254
819.762	24361
819.903	24285
820.043	24216
820.184	24235
820.324	24095
820.465	24197
820.605	24030
820.746	23954
820.886	23897
821.026	24011
821.167	23950
821.307	24155
821.447	23802
821.588	23840
821.728	23543
821.868	23554
822.008	23231
822.149	23261
822.289	23242
822.429	23041
822.569	22968
822.709	22999
822.849	22809
822.99	22786
823.13	22733
823.27	22725
823.41	22565
823.55	22466
823.69	22569
823.83	22573
823.97	22493
824.11	22341
824.25	22177
824.389	22291
824.529	22318
824.669	22348
824.809	22417
824.949	22371
825.089	22322
825.228	22272
825.368	22166
825.508	22116
825.648	22139
825.787	22139
825.927	22082
826.067	22139
826.206	22074
826.346	22112
826.485	22166
826.625	22097
826.765	22230
826.904	22128
827.044	21736
827.183	21835
827.323	21728
827.462	21812
827.601	21812
827.741	21739
827.88	21728
828.02	21770
828.159	21774
828.298	21739
828.437	21724
828.577	21641
828.716	21747
828.855	21637
828.994	21538
829.134	21408
829.273	21511
829.412	21336
829.551	21424
829.69	21462
829.829	21359
829.968	21545
830.107	21466
830.246	21378
830.385	21408
830.524	21405
830.663	21348
830.802	21218
830.941	21077
831.08	21032
831.219	21123
831.357	21123
831.496	21241
831.635	20967
831.774	20918
831.913	20918
832.051	20956
832.19	20853
832.329	20952
832.467	20819
832.606	20830
832.744	20960
832.883	21135
833.022	20956
833.16	21089
833.299	21218
833.437	21336
833.576	21580
833.714	21739
833.852	21835
833.991	21884
834.129	22013
834.267	22143
834.406	21960
834.544	21941
834.682	21739
834.821	21606
834.959	21690
835.097	21340
835.235	21268
835.373	21184
835.511	21154
835.65	20948
835.788	20872
835.926	20739
836.064	20549
836.202	20419
836.34	20655
836.478	20697
836.615	20587
836.753	20568
836.891	20682
837.029	20533
837.167	20644
837.305	20503
837.443	20450
837.58	20434
837.718	20442
837.856	20434
837.993	20221
838.131	20324
838.269	20347
838.406	20423
838.544	20149
838.681	20008
838.819	20031
838.956	19879
839.094	19830
839.231	19993
839.369	20130
839.506	20218
839.643	20092
839.781	19841
839.918	19833
840.055	19689
840.193	19852
840.33	19826
840.467	19791
840.604	19830
840.742	20073
840.879	19616
841.016	19765
841.153	19727
841.29	20035
841.427	19906
841.564	19750
841.701	19788
841.838	19788
841.975	19746
842.112	19696
842.249	19616
842.385	19723
842.522	19898
842.659	19674
842.796	19548
842.933	19791
843.069	19578
843.206	19712
843.343	19746
843.479	19628
843.616	19807
843.752	19586
843.889	19567
844.025	19883
844.162	19780
844.298	19932
844.435	20062
844.571	20263
844.708	20530
844.844	21009
844.98	21382
845.117	22013
845.253	22908
845.389	24837
845.525	28356
845.661	34090
845.798	40812
845.934	45854
846.07	47809
846.206	46314
846.342	41630
846.478	34927
846.614	29132
846.75	25316
846.886	23090
847.022	21789
847.158	20933
847.294	20336
847.429	20084
847.565	19681
847.701	19849
847.837	19228
847.972	19133
848.108	19107
848.244	18890
848.379	18806
848.515	18692
848.65	18741
848.786	18654
848.921	18616
849.057	18639
849.192	18711
849.328	18753
849.463	18608
849.598	18623
849.734	18422
849.869	18407
850.004	18281
850.14	18296
850.275	18311
850.41	18163
850.545	18171
850.68	18258
850.815	18296
850.95	18213
851.085	18498
851.22	18342
851.355	18243
851.49	18197
851.625	18167
851.76	18285
851.895	18197
852.03	18155
852.165	18266
852.299	18273
852.434	18407
852.569	18357
852.703	18452
852.838	18471
852.973	18555
853.107	18521
853.242	18422
853.376	18216
853.511	18232
853.645	18338
853.78	18483
853.914	18403
854.048	18502
854.183	18410
854.317	18502
854.451	18612
854.585	18334
854.72	18502
854.854	18490
854.988	18262
855.122	18445
855.256	18174
855.39	18239
855.524	18235
855.658	18334
855.792	18277
855.926	18262
856.06	18262
856.194	18258
856.327	18098
856.461	18095
856.595	17927
856.729	17950
856.862	18239
856.996	18140
857.13	18117
857.263	18220
857.397	18235
857.53	17996
857.664	18045
857.797	18091
857.931	18114
858.064	18057
858.197	18129
858.331	18003
858.464	17931
858.597	17843
858.731	17965
858.864	18068
858.997	17889
859.13	17942
859.263	17961
859.396	18087
859.529	17805
859.662	17931
859.795	17843
859.928	17942
860.061	18083
860.194	18136
860.327	17920
860.46	17824
860.592	17901
860.725	17958
860.858	18098
860.99	17866
861.123	17752
861.256	17855
861.388	17855
861.521	18570
861.653	17794
861.786	17684
861.918	17653
862.05	17859
862.183	17779
862.315	17779
862.447	17813
862.58	17836
862.712	17611
862.844	17649
862.976	17691
863.108	17657
863.24	18068
863.372	17611
863.504	17589
863.636	17486
863.768	17566
863.9	17589
864.032	17528
864.164	17687
864.296	17608
864.428	17532
864.559	17691
864.691	17657
864.823	17600
864.954	17573
865.086	17535
865.217	17391
865.349	17440
865.48	17646
865.612	17524
865.743	17623
865.875	17573
866.006	17364
866.137	17482
866.269	17406
866.4	17535
866.531	17395
866.662	17440
866.793	17474
866.924	17406
867.055	17455
867.186	17372
867.317	17368
867.448	17421
867.579	17520
867.71	17353
867.841	17330
867.972	17551
868.103	17566
868.233	17490
868.364	17539
868.495	17653
868.625	17722
868.756	17767
868.886	17729
869.017	17649
869.147	17771
869.278	17851
869.408	17863
869.539	17699
869.669	17840
869.799	17821
869.929	17893
870.06	17912
870.19	18053
870.32	17977
870.45	18163
870.58	18152
870.71	18289
870.84	18369
870.97	18216
871.1	18152
871.23	18296
871.36	18391
871.489	18330
871.619	18346
871.749	18513
871.879	18509
872.008	18570
872.138	18490
872.267	18498
872.397	18441
872.526	18384
872.656	18441
872.785	18384
872.915	18544
873.044	18753
873.173	18703
873.303	18760
873.432	18623
873.561	18768
873.69	18745
873.819	18597
873.948	18722
874.077	18749
874.206	18730
874.335	18859
874.464	19015
874.593	19164
874.722	19255
874.851	19301
874.979	19187
875.108	19362
875.237	19312
875.365	19251
875.494	19259
875.623	19438
875.751	19343
875.88	19628
876.008	19635
876.136	19772
876.265	19928
876.393	20142
876.521	20187
876.65	20252
876.778	20240
876.906	20252
877.034	20301
877.162	20507
877.29	20469
877.418	20655
877.546	20724
877.674	20708
877.802	20868
877.93	20941
878.058	21180
878.185	21302
878.313	21553
878.441	21892
878.568	22223
878.696	22866
878.824	23748
878.951	24947
879.079	26252
879.206	28348
879.333	30254
879.461	32107
879.588	33218
879.715	33161
879.842	32377
879.97	30483
880.097	28219
880.224	26804
880.351	25464
880.478	24578
880.605	24148
880.732	23760
880.859	23600
880.986	23398
881.112	23254
881.239	23033
881.366	22957
881.493	22790
881.619	22801
881.746	22809
881.872	22862
881.999	22847
882.125	22892
882.252	22976
882.378	22987
882.505	23064
882.631	22968
882.757	22847
882.883	22942
883.01	22904
883.136	22850
883.262	22771
883.388	22538
883.514	22805
883.64	22774
883.766	22733
883.892	22580
884.018	22565
884.143	22809
884.269	22885
884.395	22748
884.52	22500
884.646	22497
884.772	22577
884.897	22653
885.023	22497
885.148	22611
885.274	22637
885.399	22497
885.524	22223
885.65	22211
885.775	22036
885.9	21956
886.025	21903
886.15	21720
886.275	21504
886.4	21226
886.525	21096
886.65	21043
886.775	20845
886.9	20933
887.025	20975
887.149	20682
887.274	20438
887.399	20278
887.523	20271
887.648	20111
887.773	20088
887.897	20046
888.021	19982
888.146	19807
888.27	20027
888.395	19959
888.519	19677
888.643	19727
888.767	19700
888.891	19502
889.015	19365
889.139	19324
889.263	19232
889.387	19415
889.511	19472
889.635	19358
889.759	19080
889.883	19099
890.006	19034
890.13	19221
890.254	18989
890.377	18970
890.501	18707
890.624	18681
890.748	18852
890.871	18604
890.995	18448
891.118	18414
891.241	18563
891.364	18372
891.488	18429
891.611	18330
891.734	18327
891.857	18399
891.98	18273
892.103	18330
892.226	18239
892.349	18152
892.471	17908
892.594	18102
892.717	18095
892.839	18026
892.962	18083
893.085	17980
893.207	18038
893.33	17840
893.452	17703
893.575	17920
893.697	17840
893.819	17942
893.941	18026
894.064	17920
894.186	17657
894.308	17672
894.43	17878
894.552	17973
894.674	17790
894.796	17528
894.918	17608
895.04	17649
895.161	17653
895.283	17722
895.405	17676
895.526	17554
895.648	17558
895.769	17619
895.891	17577
896.012	17729
896.134	17661
896.255	17680
896.376	17608
896.498	17448
896.619	17577
896.74	17493
896.861	17589
896.982	17824
897.103	18030
897.224	17809
897.345	17726
897.466	17722
897.587	17783
897.708	17923
897.828	17665
897.949	17570
898.07	17615
898.19	17600
898.311	17821
898.431	17722
898.552	17672
898.672	17741
898.792	17767
898.913	17802
899.033	17642
899.153	17604
899.273	17471
899.393	17581
899.513	17547
899.633	17516
899.753	17577
899.873	17543
899.993	17577
900.113	17452
900.232	17532
900.352	17391
900.472	17376
900.591	17246
900.711	17330
900.83	17231
900.95	17318
901.069	17372
901.189	17185
901.308	16961
901.427	16938
901.546	16942
901.665	16919
901.784	16919
901.904	16866
902.023	16554
902.141	16466
902.26	16318
902.379	16466
902.498	16337
902.617	16322
902.735	16325
902.854	16268
902.973	16162
903.091	15979
903.21	15975
903.328	16090
903.446	15918
903.565	15823
903.683	15789
903.801	15633
903.919	15701
904.038	15686
904.156	15584
904.274	15709
904.392	15507
904.51	15568
904.627	15584
904.745	15690
904.863	15485
904.981	15332
905.098	15150
905.216	15241
905.334	15207
905.451	15119
905.569	15173
905.686	15169
905.803	15165
905.921	14990
906.038	15051
906.155	14971
906.272	14872
906.389	14769
906.506	14720
906.623	14724
906.74	14636
906.857	14625
906.974	14663
907.091	14678
907.208	14785
907.324	14765
907.441	14613
907.557	14469
907.674	14434
907.79	14385
907.907	14374
908.023	14400
908.139	14423
908.256	14320
908.372	14290
908.488	14195
908.604	14199
908.72	14149
908.836	14168
908.952	14138
909.068	14168
909.184	14161
909.3	14164
909.415	14164
909.531	14119
909.647	13970
909.762	13906
909.878	13803
909.993	13944
910.108	13868
910.224	13852
910.339	13860
910.454	13769
910.57	13791
910.685	13655
910.8	13883
910.915	13860
911.03	13784
911.145	13510
911.259	13563
911.374	13693
911.489	13422
911.604	13362
911.718	13297
911.833	13190
911.947	13175
912.062	13110
912.176	13297
912.291	13206
912.405	13209
912.519	13426
912.633	13438
912.748	13282
912.862	13217
912.976	13080
913.09	13012
913.204	13088
913.318	13080
913.431	13194
913.545	13168
913.659	13232
913.772	13076
913.886	13031
914	12996
914.113	13050
914.226	13080
914.34	13099
914.453	12924
914.566	13080
914.68	12894
914.793	12840
914.906	12776
915.019	12700
915.132	12669
915.245	12696
915.358	12669
915.47	12681
915.583	12665
915.696	12738
915.809	12795
915.921	12810
916.034	12597
916.146	12555
916.259	12646
916.371	12665
916.483	12757
916.595	12608
916.708	12658
916.82	12711
916.932	12616
917.044	12608
917.156	12467
917.268	12490
917.38	12429
917.491	12407
917.603	12448
917.715	12578
917.826	12585
917.938	12304
918.049	12319
918.161	12429
918.272	12486
918.384	12452
918.495	12315
918.606	12235
918.717	12190
918.828	12247
918.939	12270
919.05	12155
919.161	12232
919.272	12034
919.383	12057
919.494	12243
919.604	12338
919.715	12251
919.826	12136
919.936	12163
920.047	12155
920.157	12205
920.267	12365
920.378	12190
920.488	12254
920.598	12433
920.708	12452
920.818	12437
920.928	12338
921.038	12471
921.148	12464
921.258	12243
921.368	12053
921.477	11961
921.587	11908
921.697	11824
921.806	11980
921.916	11866
922.025	11695
922.134	11653
922.244	11566
922.353	11554
922.462	11539
922.571	11467
922.68	11273
922.789	11204
922.898	11326
923.007	11239
923.116	11292
923.224	11303
923.333	11212
923.442	11162
923.55	11174
923.659	11185
923.767	11151
923.876	11064
923.984	11239
924.092	11155
924.201	11060
924.309	11067
924.417	11086
924.525	10991
924.633	11022
924.741	11904
924.849	10839
924.956	11006
925.064	10866
925.172	10740
925.279	10835
925.387	10782
925.494	10809
925.602	11010
925.709	10915
925.816	10763
925.924	10824
926.031	10873
926.138	10873
926.245	10949
926.352	10759
926.459	10854
926.566	10892
926.673	10752
926.779	10702
926.886	10660
926.993	10508
927.099	10489
927.206	10398
927.312	10459
927.419	10508
927.525	10512
927.631	10542
927.737	10440
927.843	10322
927.95	10261
928.056	10333
928.162	10402
928.267	10394
928.373	10961
928.479	10413
928.585	10185
928.69	10234
928.796	10413
928.901	10295
929.007	10143
929.112	10219
929.218	10181
929.323	10211
929.428	10090
929.533	10238
929.638	10082
929.743	10059
929.848	10166
929.953	10036
930.058	10059
930.163	9865
930.267	9854
930.372	10021
930.477	9793
930.581	10090
930.685	9926
930.79	9766
930.894	9770
930.998	9804
931.103	9934
931.207	9625
931.311	9481
931.415	9393
931.519	9211
931.623	9192
