Data from test_V78500241_1707.txt Node
Date: Fri Mar 25 14:45:36 CST 2022
User: usil
Spectrometer: V785-0024
Trigger mode: 0
Integration Time (sec): 4.000000E-1
Scans to average: 1
Nonlinearity correction enabled: false
Boxcar width: 0
Storing dark spectrum: false
XAxis mode: Wavelengths
Number of Pixels in Spectrum: 1024
>>>>>Begin Spectral Data<<<<<
801.071	22211
801.214	22200
801.356	21941
801.499	21743
801.641	21583
801.783	21603
801.926	21614
802.068	21648
802.211	21481
802.353	21481
802.496	21093
802.638	21047
802.78	21127
802.923	21009
803.065	20895
803.208	20876
803.35	20998
803.492	21005
803.635	21093
803.777	20933
803.919	20998
804.061	21313
804.204	21051
804.346	20857
804.488	20861
804.63	20910
804.773	20765
804.915	20960
805.057	20982
805.199	20834
805.341	20975
805.483	21058
805.626	21028
805.768	20826
805.91	20773
806.052	20891
806.194	20921
806.336	21081
806.478	20876
806.62	20792
806.762	20857
806.904	21096
807.046	21173
807.188	21233
807.33	21283
807.472	21298
807.614	21085
807.756	21154
807.898	21024
808.04	20910
808.182	20929
808.324	20925
808.465	21131
808.607	21283
808.749	21298
808.891	21439
809.033	21435
809.174	21389
809.316	21374
809.458	21294
809.6	21226
809.741	21298
809.883	21340
810.025	21492
810.166	21549
810.308	21428
810.45	21367
810.591	21291
810.733	21211
810.875	21214
811.016	21009
811.158	21028
811.299	21039
811.441	21161
811.582	21116
811.724	21089
811.865	21039
812.007	21036
812.148	21051
812.29	21131
812.431	21146
812.573	21435
812.714	21504
812.855	21595
812.997	21667
813.138	21918
813.279	21648
813.421	21469
813.562	21389
813.703	21424
813.845	21294
813.986	20948
814.127	20773
814.268	20708
814.41	20545
814.551	20594
814.692	20792
814.833	20552
814.974	20594
815.115	20568
815.256	20434
815.397	20347
815.539	20374
815.68	20434
815.821	20347
815.962	20336
816.103	20412
816.244	20244
816.385	20058
816.526	20195
816.666	19803
816.807	19826
816.948	19852
817.089	19856
817.23	19795
817.371	19750
817.512	19795
817.653	19791
817.793	19761
817.934	19651
818.075	19833
818.216	19719
818.356	19670
818.497	19693
818.638	19464
818.778	19468
818.919	19510
819.06	19491
819.2	19540
819.341	19552
819.481	19632
819.622	19772
819.762	19902
819.903	19822
820.043	19921
820.184	19651
820.324	19723
820.465	19849
820.605	19700
820.746	19712
820.886	19537
821.026	19639
821.167	19548
821.307	19605
821.447	19582
821.588	19620
821.728	19297
821.868	19209
822.008	19129
822.149	19137
822.289	19118
822.429	18924
822.569	18920
822.709	18806
822.849	18623
822.99	18661
823.13	18608
823.27	18566
823.41	18479
823.55	18395
823.69	18448
823.83	18498
823.97	18346
824.11	18144
824.25	18235
824.389	18167
824.529	18224
824.669	18110
824.809	18391
824.949	18235
825.089	18190
825.228	18140
825.368	18022
825.508	17977
825.648	17977
825.787	18022
825.927	17992
826.067	17916
826.206	17942
826.346	18102
826.485	18053
826.625	18034
826.765	18190
826.904	17977
827.044	17726
827.183	17668
827.323	17661
827.462	17710
827.601	17657
827.741	17695
827.88	17756
828.02	17573
828.159	17646
828.298	17619
828.437	17687
828.577	17623
828.716	17756
828.855	17672
828.994	17532
829.134	17322
829.273	17376
829.412	17318
829.551	17379
829.69	17414
829.829	17474
829.968	17505
830.107	17493
830.246	17417
830.385	17383
830.524	17265
830.663	17193
830.802	17216
830.941	17014
831.08	17029
831.219	17109
831.357	17071
831.496	17185
831.635	17048
831.774	16930
831.913	16949
832.051	16767
832.19	16755
832.329	16816
832.467	16641
832.606	16710
832.744	16637
832.883	16592
833.022	16782
833.16	16702
833.299	16763
833.437	16736
833.576	16816
833.714	16706
833.852	16748
833.991	16831
834.129	16809
834.267	16759
834.406	16778
834.544	16820
834.682	16767
834.821	16854
834.959	17006
835.097	16740
835.235	16816
835.373	16763
835.511	16748
835.65	16721
835.788	16774
835.926	16569
836.064	16504
836.202	16470
836.34	16717
836.478	16736
836.615	16672
836.753	16641
836.891	16721
837.029	16717
837.167	16687
837.305	16615
837.443	16550
837.58	16508
837.718	16596
837.856	16436
837.993	16561
838.131	16580
838.269	16565
838.406	16409
838.544	16371
838.681	16238
838.819	16242
838.956	16109
839.094	16120
839.231	16090
839.369	16158
839.506	16443
839.643	16295
839.781	16093
839.918	16010
840.055	16109
840.193	16101
840.33	16093
840.467	16025
840.604	16097
840.742	16356
840.879	16040
841.016	15937
841.153	15987
841.29	16200
841.427	16067
841.564	16112
841.701	16067
841.838	15987
841.975	15979
842.112	16090
842.249	15880
842.385	15778
842.522	16086
842.659	15800
842.796	15728
842.933	15956
843.069	15797
843.206	15770
843.343	15854
843.479	15945
843.616	15861
843.752	15667
843.889	15629
844.025	15743
844.162	15720
844.298	15804
844.435	15625
844.571	15618
844.708	15686
844.844	15816
844.98	15831
845.117	15755
845.253	15629
845.389	15538
845.525	15500
845.661	15538
845.798	15507
845.934	15591
846.07	15473
846.206	15511
846.342	15584
846.478	15454
846.614	15325
846.75	15188
846.886	15249
847.022	15264
847.158	15222
847.294	15260
847.429	15245
847.565	15157
847.701	15466
847.837	15020
847.972	14876
848.108	15024
848.244	15058
848.379	14910
848.515	14735
848.65	14826
848.786	14887
848.921	14785
849.057	14952
849.192	14891
849.328	14857
849.463	14792
849.598	14788
849.734	14686
849.869	14644
850.004	14545
850.14	14640
850.275	14663
850.41	14473
850.545	14530
850.68	14556
850.815	14507
850.95	14488
851.085	14834
851.22	14701
851.355	14682
851.49	14556
851.625	14564
851.76	14537
851.895	14511
852.03	14404
852.165	14541
852.299	14602
852.434	14594
852.569	14568
852.703	14610
852.838	14724
852.973	14648
853.107	14758
853.242	14507
853.376	14473
853.511	14263
853.645	14324
853.78	14514
853.914	14427
854.048	14434
854.183	14366
854.317	14461
854.451	14663
854.585	14454
854.72	14431
854.854	14575
854.988	14385
855.122	14385
855.256	14218
855.39	14355
855.524	14480
855.658	14507
855.792	14495
855.926	14473
856.06	14438
856.194	14556
856.327	14431
856.461	14404
856.595	14450
856.729	14408
856.862	14518
856.996	14457
857.13	14549
857.263	14488
857.397	14537
857.53	14362
857.664	14393
857.797	14514
857.931	14583
858.064	14419
858.197	14598
858.331	14457
858.464	14438
858.597	14431
858.731	14358
858.864	14393
858.997	14339
859.13	14393
859.263	14385
859.396	14454
859.529	14434
859.662	14332
859.795	14332
859.928	14484
860.061	14568
860.194	14655
860.327	14454
860.46	14370
860.592	14473
860.725	14606
860.858	14552
860.99	14317
861.123	14385
861.256	14374
861.388	14476
861.521	14963
861.653	14332
861.786	14320
861.918	14294
862.05	14355
862.183	14412
862.315	14526
862.447	14404
862.58	14389
862.712	14168
862.844	14130
862.976	14252
863.108	14309
863.24	14651
863.372	14100
863.504	14176
863.636	14138
863.768	14286
863.9	14225
864.032	14168
864.164	14176
864.296	14195
864.428	14347
864.559	14339
864.691	14313
864.823	14267
864.954	14130
865.086	14202
865.217	14202
865.349	14115
865.48	14115
865.612	14271
865.743	14256
865.875	14168
866.006	14142
866.137	14214
866.269	14271
866.4	14237
866.531	14180
866.662	14111
866.793	14164
866.924	14142
867.055	14252
867.186	14123
867.317	14043
867.448	14100
867.579	14092
867.71	14005
867.841	14077
867.972	14221
868.103	14176
868.233	14240
868.364	14092
868.495	14221
868.625	14484
868.756	14556
868.886	14298
869.017	14450
869.147	14621
869.278	14518
869.408	14431
869.539	14355
869.669	14518
869.799	14450
869.929	14549
870.06	14541
870.19	14727
870.32	14762
870.45	14758
870.58	14823
870.71	14891
870.84	14929
870.97	14807
871.1	14785
871.23	14986
871.36	15165
871.489	14986
871.619	15089
871.749	15020
871.879	15074
872.008	15173
872.138	15017
872.267	15066
872.397	14902
872.526	14781
872.656	14956
872.785	14899
872.915	15043
873.044	15097
873.173	15074
873.303	15161
873.432	15089
873.561	15116
873.69	15005
873.819	15108
873.948	15195
874.077	15119
874.206	15097
874.335	15199
874.464	15230
874.593	15241
874.722	15332
874.851	15424
874.979	15401
875.108	15370
875.237	15389
875.365	15302
875.494	15351
875.623	15477
875.751	15344
875.88	15504
876.008	15614
876.136	15542
876.265	15812
876.393	15979
876.521	15880
876.65	15991
876.778	15819
876.906	15736
877.034	15804
877.162	15835
877.29	15789
877.418	15903
877.546	15759
877.674	15785
877.802	15785
877.93	15827
878.058	15759
878.185	15728
878.313	15800
878.441	15846
878.568	15755
878.696	15698
878.824	15800
878.951	15816
879.079	15991
879.206	16143
879.333	15979
879.461	15903
879.588	15926
879.715	16086
879.842	16166
879.97	15903
880.097	15648
880.224	15614
880.351	15679
880.478	15705
880.605	15675
880.732	15766
880.859	15899
880.986	15686
881.112	15694
881.239	15538
881.366	15428
881.493	15351
881.619	15355
881.746	15412
881.872	15321
881.999	15363
882.125	15329
882.252	15359
882.378	15340
882.505	15439
882.631	15230
882.757	15104
882.883	15085
883.01	15036
883.136	15119
883.262	15013
883.388	14933
883.514	15176
883.64	15207
883.766	15013
883.892	14998
884.018	15001
884.143	15093
884.269	15268
884.395	14868
884.52	14868
884.646	14815
884.772	14735
884.897	14697
885.023	14872
885.148	14971
885.274	14944
885.399	14960
885.524	14929
885.65	14807
885.775	14796
885.9	14750
886.025	15017
886.15	14899
886.275	14853
886.4	14826
886.525	14781
886.65	14796
886.775	14838
886.9	15051
887.025	15051
887.149	14830
887.274	14636
887.399	14708
887.523	14625
887.648	14670
887.773	14560
887.897	14769
888.021	14781
888.146	14636
888.27	14804
888.395	14727
888.519	14693
888.643	14705
888.767	14800
888.891	14571
889.015	14526
889.139	14575
889.263	14476
889.387	14613
889.511	14811
889.635	14613
889.759	14480
889.883	14476
890.006	14549
890.13	14625
890.254	14461
890.377	14484
890.501	14339
890.624	14309
890.748	14328
890.871	14229
890.995	14195
891.118	14145
891.241	14256
891.364	14290
891.488	14389
891.611	14115
891.734	14256
891.857	14309
891.98	14271
892.103	14351
892.226	14210
892.349	14309
892.471	14092
892.594	14267
892.717	14229
892.839	14149
892.962	14229
893.085	14305
893.207	14073
893.33	14157
893.452	14081
893.575	14298
893.697	14214
893.819	14317
893.941	14408
894.064	14385
894.186	14237
894.308	14115
894.43	14469
894.552	14393
894.674	14324
894.796	14214
894.918	14142
895.04	14202
895.161	14370
895.283	14294
895.405	14256
895.526	14294
895.648	14362
895.769	14301
895.891	14434
896.012	14362
896.134	14332
896.255	14355
896.376	14324
896.498	14362
896.619	14537
896.74	14499
896.861	14530
896.982	14819
897.103	14906
897.224	14739
897.345	14629
897.466	14648
897.587	14686
897.708	14739
897.828	14610
897.949	14571
898.07	14590
898.19	14587
898.311	14777
898.431	14659
898.552	14712
898.672	14739
898.792	14842
898.913	14788
899.033	14632
899.153	14575
899.273	14457
899.393	14556
899.513	14594
899.633	14598
899.753	14613
899.873	14583
899.993	14583
900.113	14537
900.232	14644
900.352	14587
900.472	14480
900.591	14431
900.711	14530
900.83	14374
900.95	14568
901.069	14507
901.189	14484
901.308	14153
901.427	14153
901.546	14088
901.665	14176
901.784	14107
901.904	13986
902.023	13852
902.141	13727
902.26	13689
902.379	13830
902.498	13753
902.617	13616
902.735	13708
902.854	13769
902.973	13613
903.091	13472
903.21	13483
903.328	13362
903.446	13282
903.565	13278
903.683	13308
903.801	13137
903.919	13285
904.038	13118
904.156	13084
904.274	13156
904.392	13107
904.51	13038
904.627	13072
904.745	13118
904.863	13114
904.981	12833
905.098	12817
905.216	12829
905.334	12764
905.451	12810
905.569	12722
905.686	12840
905.803	12783
905.921	12650
906.038	12650
906.155	12677
906.272	12498
906.389	12460
906.506	12369
906.623	12346
906.74	12369
906.857	12327
906.974	12258
907.091	12388
907.208	12547
907.324	12441
907.441	12308
907.557	12152
907.674	12171
907.79	12045
907.907	12083
908.023	12117
908.139	12121
908.256	12026
908.372	12022
908.488	12019
908.604	11855
908.72	11824
908.836	11817
908.952	11779
909.068	11923
909.184	11980
909.3	11859
909.415	11901
909.531	11954
909.647	11589
909.762	11608
909.878	11566
909.993	11604
910.108	11615
910.224	11566
910.339	11566
910.454	11528
910.57	11558
910.685	11516
910.8	11752
910.915	11592
911.03	11455
911.145	11349
911.259	11387
911.374	11436
911.489	11318
911.604	11178
911.718	11041
911.833	11094
911.947	10995
912.062	10850
912.176	11033
912.291	11033
912.405	11075
912.519	11277
912.633	11296
912.748	11296
912.862	11151
912.976	10965
913.09	10774
913.204	10839
913.318	10915
913.431	11094
913.545	11090
913.659	11090
913.772	10953
913.886	10889
914	10797
914.113	10889
914.226	10987
914.34	10953
914.453	10771
914.566	10930
914.68	10767
914.793	10752
914.906	10626
915.019	10561
915.132	10485
915.245	10516
915.358	10500
915.47	10603
915.583	10626
915.696	10611
915.809	10729
915.921	10733
916.034	10577
916.146	10523
916.259	10523
916.371	10588
916.483	10599
916.595	10436
916.708	10584
916.82	10531
916.932	10527
917.044	10508
917.156	10455
917.268	10394
917.38	10390
917.491	10363
917.603	10436
917.715	10489
917.826	10561
917.938	10348
918.049	10356
918.161	10481
918.272	10546
918.384	10565
918.495	10295
918.606	10242
918.717	10284
918.828	10295
918.939	10310
919.05	10310
919.161	10200
919.272	10177
919.383	10139
919.494	10329
919.604	10516
919.715	10341
919.826	10238
919.936	10314
920.047	10314
920.157	10322
920.267	10561
920.378	10287
920.488	10390
920.598	10504
920.708	10580
920.818	10485
920.928	10405
921.038	10706
921.148	10580
921.258	10360
921.368	10257
921.477	10207
921.587	10135
921.697	9998
921.806	10166
921.916	10048
922.025	9873
922.134	9857
922.244	9827
922.353	9911
922.462	9717
922.571	9690
922.68	9515
922.789	9542
922.898	9469
923.007	9557
923.116	9564
923.224	9553
923.333	9603
923.442	9496
923.55	9329
923.659	9408
923.767	9545
923.876	9359
923.984	9500
924.092	9405
924.201	9405
924.309	9450
924.417	9420
924.525	9382
924.633	9340
924.741	10306
924.849	9192
924.956	9253
925.064	9237
925.172	9135
925.279	9123
925.387	9211
925.494	9157
925.602	9340
925.709	9264
925.816	9097
925.924	9203
926.031	9230
926.138	9245
926.245	9253
926.352	9108
926.459	9279
926.566	9249
926.673	9138
926.779	9055
926.886	9070
926.993	8948
927.099	8918
927.206	8914
927.312	8796
927.419	8925
927.525	8933
927.631	8952
927.737	8921
927.843	8769
927.95	8708
928.056	8777
928.162	8788
928.267	8883
928.373	9488
928.479	8895
928.585	8648
928.69	8788
928.796	8800
928.901	8670
929.007	8533
929.112	8754
929.218	8663
929.323	8701
929.428	8564
929.533	8739
929.638	8537
929.743	8575
929.848	8644
929.953	8617
930.058	8499
930.163	8450
930.267	8370
930.372	8545
930.477	8351
930.581	8610
930.685	8476
930.79	8294
930.894	8381
930.998	8347
931.103	8492
931.207	8126
931.311	8077
931.415	8008
931.519	7875
931.623	7841
