Data from test_V78500241_2743.txt Node
Date: Fri Mar 25 14:52:48 CST 2022
User: usil
Spectrometer: V785-0024
Trigger mode: 0
Integration Time (sec): 4.000000E-1
Scans to average: 1
Nonlinearity correction enabled: false
Boxcar width: 0
Storing dark spectrum: false
XAxis mode: Wavelengths
Number of Pixels in Spectrum: 1024
>>>>>Begin Spectral Data<<<<<
801.071	21960
801.214	21949
801.356	21682
801.499	21652
801.641	21511
801.783	21313
801.926	21321
802.068	21317
802.211	21264
802.353	21249
802.496	21009
802.638	20929
802.78	20883
802.923	20651
803.065	20598
803.208	20819
803.35	20655
803.492	20800
803.635	20864
803.777	20674
803.919	20754
804.061	21001
804.204	20667
804.346	20579
804.488	20598
804.63	20750
804.773	20617
804.915	20602
805.057	20712
805.199	20625
805.341	20857
805.483	20819
805.626	20815
805.768	20594
805.91	20594
806.052	20659
806.194	20499
806.336	20594
806.478	20602
806.62	20564
806.762	20720
806.904	20701
807.046	20975
807.188	21009
807.33	20963
807.472	20994
807.614	20804
807.756	20887
807.898	20804
808.04	20712
808.182	20746
808.324	20636
808.465	20792
808.607	20876
808.749	21032
808.891	21070
809.033	21218
809.174	21081
809.316	20899
809.458	21093
809.6	21028
809.741	21089
809.883	21104
810.025	21252
810.166	21188
810.308	21146
810.45	21047
810.591	20975
810.733	20925
810.875	20876
811.016	20785
811.158	20674
811.299	20758
811.441	20804
811.582	20830
811.724	20781
811.865	20708
812.007	20765
812.148	20708
812.29	20834
812.431	20979
812.573	21089
812.714	21142
812.855	21233
812.997	21344
813.138	21511
813.279	21363
813.421	21275
813.562	21252
813.703	20971
813.845	20864
813.986	20594
814.127	20488
814.268	20408
814.41	20362
814.551	20503
814.692	20385
814.833	20282
814.974	20248
815.115	20408
815.256	20240
815.397	20119
815.539	20210
815.68	20130
815.821	19921
815.962	20073
816.103	19982
816.244	19879
816.385	19830
816.526	19731
816.666	19655
816.807	19510
816.948	19510
817.089	19563
817.23	19609
817.371	19441
817.512	19407
817.653	19396
817.793	19381
817.934	19392
818.075	19430
818.216	19457
818.356	19388
818.497	19228
818.638	19175
818.778	19202
818.919	19046
819.06	19133
819.2	19251
819.341	19449
819.481	19266
819.622	19525
819.762	19681
819.903	19491
820.043	19575
820.184	19499
820.324	19369
820.465	19460
820.605	19392
820.746	19384
820.886	19282
821.026	19438
821.167	19324
821.307	19480
821.447	19343
821.588	19285
821.728	19164
821.868	19027
822.008	18875
822.149	18863
822.289	18817
822.429	18479
822.569	18456
822.709	18513
822.849	18350
822.99	18281
823.13	18300
823.27	18346
823.41	18171
823.55	18083
823.69	18030
823.83	18205
823.97	17958
824.11	17946
824.25	17798
824.389	17893
824.529	17977
824.669	17870
824.809	17977
824.949	17977
825.089	18007
825.228	17908
825.368	17710
825.508	17722
825.648	17687
825.787	17703
825.927	17741
826.067	17604
826.206	17630
826.346	17729
826.485	17764
826.625	17611
826.765	17783
826.904	17707
827.044	17391
827.183	17417
827.323	17353
827.462	17436
827.601	17383
827.741	17345
827.88	17414
828.02	17360
828.159	17429
828.298	17410
828.437	17467
828.577	17410
828.716	17486
828.855	17288
828.994	17220
829.134	17132
829.273	17136
829.412	17079
829.551	17090
829.69	17109
829.829	17132
829.968	17322
830.107	17140
830.246	17235
830.385	17105
830.524	17121
830.663	16908
830.802	16877
830.941	16759
831.08	16809
831.219	16793
831.357	16782
831.496	16987
831.635	16725
831.774	16656
831.913	16653
832.051	16546
832.19	16546
832.329	16580
832.467	16417
832.606	16485
832.744	16508
832.883	16474
833.022	16341
833.16	16535
833.299	16538
833.437	16569
833.576	16512
833.714	16531
833.852	16538
833.991	16626
834.129	16508
834.267	16558
834.406	16447
834.544	16615
834.682	16497
834.821	16478
834.959	16500
835.097	16493
835.235	16550
835.373	16478
835.511	16565
835.65	16409
835.788	16428
835.926	16211
836.064	16188
836.202	16318
836.34	16390
836.478	16417
836.615	16394
836.753	16489
836.891	16493
837.029	16542
837.167	16341
837.305	16333
837.443	16363
837.58	16261
837.718	16371
837.856	16405
837.993	16325
838.131	16276
838.269	16196
838.406	16135
838.544	16128
838.681	16051
838.819	15960
838.956	15816
839.094	15854
839.231	15888
839.369	15846
839.506	16223
839.643	16040
839.781	15983
839.918	15778
840.055	15888
840.193	15941
840.33	15873
840.467	15774
840.604	15880
840.742	16105
840.879	15797
841.016	15705
841.153	15781
841.29	15979
841.427	15842
841.564	15895
841.701	15850
841.838	15838
841.975	15766
842.112	15766
842.249	15762
842.385	15663
842.522	15778
842.659	15739
842.796	15671
842.933	15686
843.069	15496
843.206	15584
843.343	15701
843.479	15652
843.616	15629
843.752	15405
843.889	15454
844.025	15557
844.162	15466
844.298	15488
844.435	15450
844.571	15428
844.708	15485
844.844	15466
844.98	15542
845.117	15534
845.253	15291
845.389	15340
845.525	15367
845.661	15428
845.798	15192
845.934	15256
846.07	15154
846.206	15237
846.342	15294
846.478	15241
846.614	15024
846.75	14883
846.886	14960
847.022	15119
847.158	14998
847.294	14986
847.429	14933
847.565	15024
847.701	15192
847.837	14788
847.972	14686
848.108	14864
848.244	14785
848.379	14625
848.515	14659
848.65	14526
848.786	14552
848.921	14488
849.057	14659
849.192	14640
849.328	14625
849.463	14663
849.598	14583
849.734	14556
849.869	14415
850.004	14336
850.14	14347
850.275	14389
850.41	14309
850.545	14244
850.68	14248
850.815	14351
850.95	14332
851.085	14465
851.22	14465
851.355	14385
851.49	14256
851.625	14336
851.76	14294
851.895	14278
852.03	14157
852.165	14294
852.299	14431
852.434	14400
852.569	14377
852.703	14324
852.838	14442
852.973	14537
853.107	14469
853.242	14309
853.376	14225
853.511	14172
853.645	14172
853.78	14336
853.914	14267
854.048	14225
854.183	14191
854.317	14229
854.451	14339
854.585	14180
854.72	14088
854.854	14176
854.988	14149
855.122	14123
855.256	14054
855.39	14229
855.524	14210
855.658	14282
855.792	14271
855.926	14225
856.06	14305
856.194	14362
856.327	14164
856.461	14145
856.595	14134
856.729	14225
856.862	14408
856.996	14240
857.13	14267
857.263	14366
857.397	14298
857.53	14168
857.664	14301
857.797	14275
857.931	14389
858.064	14248
858.197	14298
858.331	14244
858.464	14229
858.597	14115
858.731	14259
858.864	14248
858.997	14115
859.13	14237
859.263	14320
859.396	14362
859.529	14218
859.662	14187
859.795	14142
859.928	14256
860.061	14339
860.194	14488
860.327	14298
860.46	14145
860.592	14332
860.725	14400
860.858	14347
860.99	14263
861.123	14172
861.256	14195
861.388	14142
861.521	14811
861.653	14138
861.786	13989
861.918	13970
862.05	14081
862.183	14176
862.315	14237
862.447	14278
862.58	14187
862.712	14088
862.844	13970
862.976	14157
863.108	14027
863.24	14503
863.372	13955
863.504	14100
863.636	14005
863.768	14088
863.9	14005
864.032	14031
864.164	13970
864.296	14062
864.428	14046
864.559	14100
864.691	14142
864.823	14058
864.954	14005
865.086	14092
865.217	13959
865.349	13883
865.48	13974
865.612	14062
865.743	14039
865.875	14084
866.006	13875
866.137	14031
866.269	13978
866.4	13959
866.531	14012
866.662	13913
866.793	13928
866.924	13967
867.055	14008
867.186	13970
867.317	13913
867.448	13833
867.579	13944
867.71	13906
867.841	13852
867.972	13947
868.103	13902
868.233	13947
868.364	13982
868.495	14031
868.625	14206
868.756	14317
868.886	14145
869.017	14214
869.147	14313
869.278	14309
869.408	14317
869.539	14180
869.669	14298
869.799	14301
869.929	14336
870.06	14309
870.19	14594
870.32	14541
870.45	14522
870.58	14689
870.71	14746
870.84	14762
870.97	14648
871.1	14594
871.23	14880
871.36	14811
871.489	14705
871.619	14785
871.749	14792
871.879	14826
872.008	14933
872.138	14891
872.267	14853
872.397	14731
872.526	14693
872.656	14552
872.785	14712
872.915	14845
873.044	15001
873.173	14849
873.303	14914
873.432	14853
873.561	14948
873.69	14941
873.819	14906
873.948	15032
874.077	14914
874.206	14788
874.335	14849
874.464	15036
874.593	15252
874.722	15108
874.851	15264
874.979	15260
875.108	15173
875.237	15241
875.365	15119
875.494	15116
875.623	15252
875.751	15245
875.88	15237
876.008	15359
876.136	15469
876.265	15580
876.393	15663
876.521	15724
876.65	15686
876.778	15652
876.906	15584
877.034	15534
877.162	15591
877.29	15572
877.418	15717
877.546	15576
877.674	15557
877.802	15713
877.93	15713
878.058	15561
878.185	15557
878.313	15584
878.441	15606
878.568	15443
878.696	15485
878.824	15534
878.951	15682
879.079	15755
879.206	15937
879.333	15804
879.461	15682
879.588	15709
879.715	15728
879.842	15926
879.97	15739
880.097	15447
880.224	15447
880.351	15534
880.478	15466
880.605	15389
880.732	15447
880.859	15682
880.986	15492
881.112	15538
881.239	15389
881.366	15241
881.493	15233
881.619	15036
881.746	15150
881.872	15161
881.999	15150
882.125	15097
882.252	15112
882.378	15119
882.505	15363
882.631	15127
882.757	14948
882.883	15005
883.01	14948
883.136	14937
883.262	14788
883.388	14762
883.514	14994
883.64	14982
883.766	14960
883.892	14727
884.018	14941
884.143	14895
884.269	15043
884.395	14705
884.52	14602
884.646	14667
884.772	14648
884.897	14526
885.023	14655
885.148	14697
885.274	14857
885.399	14765
885.524	14708
885.65	14590
885.775	14659
885.9	14655
886.025	14708
886.15	14670
886.275	14708
886.4	14545
886.525	14598
886.65	14514
886.775	14625
886.9	14785
887.025	14872
887.149	14644
887.274	14507
887.399	14431
887.523	14469
887.648	14408
887.773	14377
887.897	14560
888.021	14393
888.146	14381
888.27	14564
888.395	14568
888.519	14473
888.643	14518
888.767	14526
888.891	14499
889.015	14374
889.139	14343
889.263	14267
889.387	14533
889.511	14488
889.635	14495
889.759	14324
889.883	14275
890.006	14404
890.13	14499
890.254	14275
890.377	14214
890.501	14134
890.624	14073
890.748	14233
890.871	14138
890.995	13970
891.118	13967
891.241	14100
891.364	14035
891.488	14176
891.611	14164
891.734	14046
891.857	14142
891.98	14073
892.103	14123
892.226	14084
892.349	14039
892.471	13871
892.594	13993
892.717	14031
892.839	13963
892.962	14100
893.085	14149
893.207	14046
893.33	13932
893.452	14065
893.575	14103
893.697	14016
893.819	14256
893.941	14252
894.064	14138
894.186	13970
894.308	13986
894.43	14229
894.552	14267
894.674	14252
894.796	14012
894.918	14073
895.04	14069
895.161	14225
895.283	14100
895.405	14107
895.526	14119
895.648	14119
895.769	14138
895.891	14191
896.012	14282
896.134	14244
896.255	14252
896.376	14180
896.498	14202
896.619	14195
896.74	14210
896.861	14248
896.982	14564
897.103	14731
897.224	14446
897.345	14446
897.466	14370
897.587	14465
897.708	14670
897.828	14587
897.949	14450
898.07	14366
898.19	14412
898.311	14625
898.431	14454
898.552	14568
898.672	14640
898.792	14613
898.913	14541
899.033	14552
899.153	14454
899.273	14328
899.393	14381
899.513	14454
899.633	14358
899.753	14499
899.873	14298
899.993	14473
900.113	14343
900.232	14526
900.352	14366
900.472	14305
900.591	14301
900.711	14229
900.83	14317
900.95	14393
901.069	14385
901.189	14202
901.308	14035
901.427	13986
901.546	13997
901.665	14062
901.784	14050
901.904	13822
902.023	13830
902.141	13556
902.26	13586
902.379	13651
902.498	13559
902.617	13460
902.735	13689
902.854	13590
902.973	13575
903.091	13282
903.21	13213
903.328	13324
903.446	13190
903.565	13126
903.683	13110
903.801	13019
903.919	13137
904.038	13023
904.156	12890
904.274	13084
904.392	12924
904.51	12935
904.627	12943
904.745	12962
904.863	12996
904.981	12658
905.098	12521
905.216	12627
905.334	12688
905.451	12574
905.569	12585
905.686	12650
905.803	12578
905.921	12448
906.038	12479
906.155	12483
906.272	12350
906.389	12319
906.506	12243
906.623	12201
906.74	12243
906.857	12095
906.974	12167
907.091	12304
907.208	12350
907.324	12258
907.441	12079
907.557	11927
907.674	11908
907.79	11859
907.907	11946
908.023	11992
908.139	12007
908.256	11889
908.372	11912
908.488	11851
908.604	11779
908.72	11767
908.836	11707
908.952	11661
909.068	11718
909.184	11767
909.3	11745
909.415	11752
909.531	11817
909.647	11535
909.762	11535
909.878	11433
909.993	11554
910.108	11433
910.224	11455
910.339	11436
910.454	11368
910.57	11326
910.685	11242
910.8	11600
910.915	11478
911.03	11379
911.145	11159
911.259	11113
911.374	11162
911.489	11041
911.604	11079
911.718	10911
911.833	10961
911.947	10805
912.062	10725
912.176	10968
912.291	10949
912.405	10923
912.519	11178
912.633	11216
912.748	11048
912.862	10976
912.976	10850
913.09	10706
913.204	10771
913.318	10850
913.431	11010
913.545	10987
913.659	11006
913.772	10755
913.886	10771
914	10683
914.113	10812
914.226	10869
914.34	10740
914.453	10542
914.566	10778
914.68	10622
914.793	10630
914.906	10436
915.019	10382
915.132	10367
915.245	10485
915.358	10409
915.47	10470
915.583	10527
915.696	10497
915.809	10618
915.921	10649
916.034	10398
916.146	10428
916.259	10398
916.371	10478
916.483	10466
916.595	10352
916.708	10413
916.82	10356
916.932	10394
917.044	10348
917.156	10314
917.268	10299
917.38	10257
917.491	10329
917.603	10341
917.715	10348
917.826	10367
917.938	10261
918.049	10280
918.161	10291
918.272	10451
918.384	10485
918.495	10219
918.606	10131
918.717	10120
918.828	10154
918.939	10139
919.05	10029
919.161	10128
919.272	9934
919.383	10071
919.494	10204
919.604	10363
919.715	10185
919.826	10025
919.936	10101
920.047	10238
920.157	10177
920.267	10405
920.378	10242
920.488	10158
920.598	10371
920.708	10554
920.818	10363
920.928	10386
921.038	10504
921.148	10474
921.258	10268
921.368	10154
921.477	10067
921.587	9968
921.697	9869
921.806	10090
921.916	9968
922.025	9854
922.134	9797
922.244	9667
922.353	9804
922.462	9644
922.571	9542
922.68	9435
922.789	9382
922.898	9412
923.007	9367
923.116	9473
923.224	9389
923.333	9519
923.442	9439
923.55	9317
923.659	9214
923.767	9374
923.876	9283
923.984	9336
924.092	9298
924.201	9325
924.309	9268
924.417	9310
924.525	9275
924.633	9256
924.741	9975
924.849	9116
924.956	9279
925.064	9123
925.172	8986
925.279	9043
925.387	9047
925.494	9074
925.602	9207
925.709	9116
925.816	8971
925.924	9097
926.031	9161
926.138	9047
926.245	9142
926.352	9020
926.459	9089
926.566	9230
926.673	9036
926.779	8982
926.886	8887
926.993	8887
927.099	8762
927.206	8750
927.312	8701
927.419	8796
927.525	8811
927.631	8864
927.737	8724
927.843	8705
927.95	8560
928.056	8602
928.162	8712
928.267	8769
928.373	9355
928.479	8796
928.585	8594
928.69	8629
928.796	8769
928.901	8568
929.007	8495
929.112	8674
929.218	8606
929.323	8530
929.428	8473
929.533	8674
929.638	8484
929.743	8492
929.848	8575
929.953	8552
930.058	8339
930.163	8221
930.267	8225
930.372	8442
930.477	8259
930.581	8530
930.685	8286
930.79	8221
930.894	8256
930.998	8248
931.103	8404
931.207	8027
931.311	7978
931.415	7913
931.519	7757
931.623	7704
