Data from test_V78500241_2865.txt Node
Date: Fri Mar 25 14:53:39 CST 2022
User: usil
Spectrometer: V785-0024
Trigger mode: 0
Integration Time (sec): 4.000000E-1
Scans to average: 1
Nonlinearity correction enabled: false
Boxcar width: 0
Storing dark spectrum: false
XAxis mode: Wavelengths
Number of Pixels in Spectrum: 1024
>>>>>Begin Spectral Data<<<<<
801.071	22063
801.214	21766
801.356	21663
801.499	21671
801.641	21405
801.783	21393
801.926	21466
802.068	21370
802.211	21294
802.353	21249
802.496	21070
802.638	20956
802.78	20857
802.923	20804
803.065	20785
803.208	20667
803.35	20667
803.492	20754
803.635	20899
803.777	20678
803.919	20811
804.061	21131
804.204	20891
804.346	20705
804.488	20693
804.63	20727
804.773	20598
804.915	20693
805.057	20811
805.199	20549
805.341	20743
805.483	20781
805.626	20735
805.768	20754
805.91	20568
806.052	20697
806.194	20716
806.336	20868
806.478	20655
806.62	20705
806.762	20830
806.904	20838
807.046	21104
807.188	20933
807.33	21112
807.472	21032
807.614	20914
807.756	20937
807.898	20807
808.04	20765
808.182	20686
808.324	20739
808.465	20769
808.607	20838
808.749	20986
808.891	21142
809.033	21203
809.174	21150
809.316	21013
809.458	21100
809.6	21036
809.741	21032
809.883	21112
810.025	21161
810.166	21146
810.308	21165
810.45	21062
810.591	20986
810.733	20952
810.875	20823
811.016	20785
811.158	20788
811.299	20769
811.441	21009
811.582	20967
811.724	20872
811.865	20800
812.007	20678
812.148	20819
812.29	20842
812.431	20998
812.573	21058
812.714	21154
812.855	21214
812.997	21477
813.138	21500
813.279	21382
813.421	21283
813.562	21188
813.703	21066
813.845	20876
813.986	20769
814.127	20514
814.268	20347
814.41	20290
814.551	20362
814.692	20423
814.833	20267
814.974	20240
815.115	20343
815.256	20065
815.397	20103
815.539	20176
815.68	20103
815.821	20035
815.962	20126
816.103	20092
816.244	19982
816.385	19868
816.526	19826
816.666	19696
816.807	19388
816.948	19563
817.089	19616
817.23	19499
817.371	19495
817.512	19438
817.653	19480
817.793	19419
817.934	19499
818.075	19518
818.216	19483
818.356	19460
818.497	19320
818.638	19141
818.778	19206
818.919	19107
819.06	19190
819.2	19346
819.341	19415
819.481	19392
819.622	19613
819.762	19712
819.903	19533
820.043	19601
820.184	19506
820.324	19495
820.465	19544
820.605	19415
820.746	19320
820.886	19411
821.026	19472
821.167	19331
821.307	19491
821.447	19396
821.588	19244
821.728	19187
821.868	19103
822.008	18844
822.149	18837
822.289	18753
822.429	18566
822.569	18555
822.709	18456
822.849	18361
822.99	18372
823.13	18365
823.27	18319
823.41	18140
823.55	18102
823.69	18171
823.83	18220
823.97	18167
824.11	17935
824.25	17893
824.389	17893
824.529	18068
824.669	17958
824.809	18049
824.949	18022
825.089	17977
825.228	17893
825.368	17752
825.508	17699
825.648	17733
825.787	17726
825.927	17726
826.067	17627
826.206	17707
826.346	17623
826.485	17699
826.625	17729
826.765	17771
826.904	17798
827.044	17573
827.183	17627
827.323	17356
827.462	17436
827.601	17429
827.741	17433
827.88	17360
828.02	17242
828.159	17402
828.298	17429
828.437	17493
828.577	17482
828.716	17573
828.855	17334
828.994	17143
829.134	17166
829.273	17189
829.412	17079
829.551	17056
829.69	17159
829.829	17098
829.968	17208
830.107	17223
830.246	17143
830.385	16965
830.524	17014
830.663	16972
830.802	16892
830.941	16801
831.08	16733
831.219	16771
831.357	16824
831.496	17102
831.635	16702
831.774	16596
831.913	16668
832.051	16637
832.19	16523
832.329	16535
832.467	16497
832.606	16421
832.744	16451
832.883	16493
833.022	16386
833.16	16478
833.299	16554
833.437	16470
833.576	16508
833.714	16443
833.852	16516
833.991	16508
834.129	16599
834.267	16580
834.406	16504
834.544	16584
834.682	16523
834.821	16580
834.959	16721
835.097	16421
835.235	16546
835.373	16519
835.511	16523
835.65	16459
835.788	16398
835.926	16344
836.064	16356
836.202	16188
836.34	16371
836.478	16371
836.615	16455
836.753	16436
836.891	16558
837.029	16497
837.167	16405
837.305	16341
837.443	16337
837.58	16219
837.718	16360
837.856	16318
837.993	16325
838.131	16299
838.269	16177
838.406	16299
838.544	16234
838.681	15964
838.819	15987
838.956	15880
839.094	15873
839.231	15899
839.369	16010
839.506	16158
839.643	16067
839.781	15903
839.918	15781
840.055	15873
840.193	15831
840.33	15918
840.467	15759
840.604	15869
840.742	16055
840.879	15720
841.016	15694
841.153	15667
841.29	15865
841.427	15846
841.564	15808
841.701	15816
841.838	15789
841.975	15778
842.112	15781
842.249	15553
842.385	15629
842.522	15819
842.659	15675
842.796	15553
842.933	15644
843.069	15523
843.206	15568
843.343	15660
843.479	15701
843.616	15580
843.752	15344
843.889	15420
844.025	15466
844.162	15386
844.298	15610
844.435	15401
844.571	15420
844.708	15488
844.844	15572
844.98	15462
845.117	15564
845.253	15405
845.389	15252
845.525	15275
845.661	15310
845.798	15093
845.934	15211
846.07	15207
846.206	15165
846.342	15332
846.478	15214
846.614	14914
846.75	14933
846.886	14979
847.022	15066
847.158	15039
847.294	15020
847.429	15039
847.565	14960
847.701	15192
847.837	14701
847.972	14735
848.108	14781
848.244	14716
848.379	14530
848.515	14564
848.65	14541
848.786	14583
848.921	14629
849.057	14632
849.192	14689
849.328	14686
849.463	14610
849.598	14537
849.734	14423
849.869	14412
850.004	14396
850.14	14408
850.275	14374
850.41	14271
850.545	14248
850.68	14305
850.815	14347
850.95	14377
851.085	14571
851.22	14469
851.355	14332
851.49	14278
851.625	14309
851.76	14195
851.895	14248
852.03	14157
852.165	14248
852.299	14271
852.434	14434
852.569	14309
852.703	14419
852.838	14473
852.973	14503
853.107	14450
853.242	14332
853.376	14168
853.511	14130
853.645	14100
853.78	14332
853.914	14218
854.048	14187
854.183	14111
854.317	14187
854.451	14400
854.585	14210
854.72	14168
854.854	14218
854.988	14115
855.122	14180
855.256	14081
855.39	14183
855.524	14282
855.658	14218
855.792	14210
855.926	14309
856.06	14259
856.194	14366
856.327	14195
856.461	14210
856.595	14225
856.729	14172
856.862	14381
856.996	14298
857.13	14324
857.263	14309
857.397	14351
857.53	14259
857.664	14210
857.797	14317
857.931	14393
858.064	14244
858.197	14301
858.331	14191
858.464	14096
858.597	14088
858.731	14187
858.864	14267
858.997	14142
859.13	14309
859.263	14256
859.396	14309
859.529	14176
859.662	14195
859.795	14210
859.928	14225
860.061	14271
860.194	14263
860.327	14248
860.46	14183
860.592	14282
860.725	14415
860.858	14320
860.99	14240
861.123	14138
861.256	14088
861.388	14153
861.521	14716
861.653	14153
861.786	14020
861.918	14031
862.05	14157
862.183	14046
862.315	14240
862.447	14313
862.58	14088
862.712	14024
862.844	13894
862.976	14100
863.108	14027
863.24	14492
863.372	13982
863.504	14012
863.636	13932
863.768	13993
863.9	14001
864.032	13833
864.164	13974
864.296	13963
864.428	14092
864.559	14100
864.691	14100
864.823	14008
864.954	13989
865.086	14008
865.217	13982
865.349	13898
865.48	13982
865.612	13986
865.743	14126
865.875	14027
866.006	13978
866.137	13967
866.269	13951
866.4	14027
866.531	13951
866.662	13868
866.793	13951
866.924	13906
867.055	13928
867.186	13921
867.317	13932
867.448	13830
867.579	13864
867.71	13791
867.841	13902
867.972	14035
868.103	13967
868.233	14058
868.364	13974
868.495	14103
868.625	14233
868.756	14244
868.886	14012
869.017	14187
869.147	14275
869.278	14309
869.408	14214
869.539	14237
869.669	14328
869.799	14244
869.929	14374
870.06	14336
870.19	14579
870.32	14526
870.45	14606
870.58	14537
870.71	14663
870.84	14720
870.97	14708
871.1	14610
871.23	14762
871.36	14750
871.489	14712
871.619	14792
871.749	14743
871.879	14800
872.008	15024
872.138	14746
872.267	14868
872.397	14693
872.526	14590
872.656	14602
872.785	14640
872.915	14845
873.044	14986
873.173	14887
873.303	14944
873.432	14826
873.561	14849
873.69	14826
873.819	14804
873.948	14921
874.077	14849
874.206	14895
874.335	14864
874.464	14994
874.593	15058
874.722	15127
874.851	15264
874.979	15138
875.108	15176
875.237	15112
875.365	15097
875.494	15195
875.623	15173
875.751	15093
875.88	15161
876.008	15386
876.136	15389
876.265	15644
876.393	15690
876.521	15679
876.65	15667
876.778	15682
876.906	15584
877.034	15507
877.162	15580
877.29	15568
877.418	15625
877.546	15557
877.674	15606
877.802	15599
877.93	15614
878.058	15606
878.185	15500
878.313	15591
878.441	15629
878.568	15488
878.696	15534
878.824	15538
878.951	15610
879.079	15827
879.206	15876
879.333	15838
879.461	15599
879.588	15724
879.715	15831
879.842	15899
879.97	15667
880.097	15458
880.224	15431
880.351	15454
880.478	15496
880.605	15378
880.732	15458
880.859	15675
880.986	15424
881.112	15431
881.239	15272
881.366	15207
881.493	15150
881.619	15135
881.746	15173
881.872	15100
881.999	15089
882.125	15089
882.252	15123
882.378	15138
882.505	15268
882.631	14982
882.757	14899
882.883	14933
883.01	14921
883.136	14933
883.262	14849
883.388	14735
883.514	15009
883.64	14971
883.766	14960
883.892	14758
884.018	14727
884.143	14986
884.269	15020
884.395	14819
884.52	14579
884.646	14682
884.772	14549
884.897	14560
885.023	14667
885.148	14796
885.274	14746
885.399	14773
885.524	14533
885.65	14606
885.775	14670
885.9	14708
886.025	14781
886.15	14674
886.275	14621
886.4	14484
886.525	14556
886.65	14568
886.775	14503
886.9	14708
887.025	14895
887.149	14613
887.274	14469
887.399	14427
887.523	14423
887.648	14419
887.773	14351
887.897	14568
888.021	14564
888.146	14446
888.27	14549
888.395	14545
888.519	14556
888.643	14556
888.767	14522
888.891	14385
889.015	14358
889.139	14396
889.263	14377
889.387	14415
889.511	14522
889.635	14480
889.759	14286
889.883	14301
890.006	14336
890.13	14438
890.254	14286
890.377	14343
890.501	14126
890.624	14111
890.748	14252
890.871	14111
890.995	14043
891.118	13951
891.241	13967
891.364	14096
891.488	14069
891.611	14020
891.734	14005
891.857	14115
891.98	14062
892.103	14157
892.226	14035
892.349	14031
892.471	13906
892.594	13970
892.717	14008
892.839	13906
892.962	14005
893.085	14161
893.207	13947
893.33	13909
893.452	13982
893.575	14126
893.697	14012
893.819	14183
893.941	14195
894.064	14202
894.186	13986
894.308	14092
894.43	14084
894.552	14298
894.674	14134
894.796	14043
894.918	14092
895.04	14119
895.161	14210
895.283	14164
895.405	14062
895.526	14073
895.648	14050
895.769	14096
895.891	14221
896.012	14191
896.134	14157
896.255	14259
896.376	14103
896.498	14206
896.619	14252
896.74	14172
896.861	14263
896.982	14610
897.103	14686
897.224	14415
897.345	14446
897.466	14317
897.587	14492
897.708	14621
897.828	14476
897.949	14408
898.07	14419
898.19	14522
898.311	14651
898.431	14492
898.552	14526
898.672	14625
898.792	14667
898.913	14568
899.033	14495
899.153	14366
899.273	14339
899.393	14336
899.513	14454
899.633	14313
899.753	14507
899.873	14412
899.993	14450
900.113	14320
900.232	14393
900.352	14461
900.472	14256
900.591	14278
900.711	14332
900.83	14320
900.95	14423
901.069	14332
901.189	14233
901.308	13970
901.427	13902
901.546	13936
901.665	14024
901.784	13978
901.904	13879
902.023	13757
902.141	13521
902.26	13480
902.379	13651
902.498	13533
902.617	13441
902.735	13578
902.854	13472
902.973	13445
903.091	13320
903.21	13179
903.328	13297
903.446	13251
903.565	13042
903.683	13118
903.801	13000
903.919	13023
904.038	13053
904.156	12935
904.274	13065
904.392	12916
904.51	12878
904.627	12894
904.745	12962
904.863	13004
904.981	12707
905.098	12662
905.216	12612
905.334	12620
905.451	12578
905.569	12555
905.686	12730
905.803	12650
905.921	12540
906.038	12475
906.155	12407
906.272	12292
906.389	12361
906.506	12205
906.623	12129
906.74	12163
906.857	12087
906.974	12045
907.091	12216
907.208	12319
907.324	12232
907.441	12133
907.557	11920
907.674	11908
907.79	11904
907.907	11958
908.023	11904
908.139	11973
908.256	11817
908.372	11939
908.488	11836
908.604	11832
908.72	11615
908.836	11638
908.952	11707
909.068	11680
909.184	11790
909.3	11653
909.415	11657
909.531	11665
909.647	11566
909.762	11455
909.878	11478
909.993	11463
910.108	11406
910.224	11425
910.339	11509
910.454	11414
910.57	11273
910.685	11239
910.8	11570
910.915	11482
911.03	11299
911.145	11189
911.259	11105
911.374	11185
911.489	11067
911.604	11086
911.718	10908
911.833	10972
911.947	10923
912.062	10793
912.176	10953
912.291	11003
912.405	10946
912.519	11121
912.633	11117
912.748	11025
912.862	10930
912.976	10839
913.09	10748
913.204	10843
913.318	10805
913.431	10934
913.545	10896
913.659	10908
913.772	10786
913.886	10675
914	10577
914.113	10816
914.226	10752
914.34	10759
914.453	10599
914.566	10771
914.68	10736
914.793	10634
914.906	10470
915.019	10421
915.132	10371
915.245	10417
915.358	10462
915.47	10367
915.583	10538
915.696	10481
915.809	10645
915.921	10637
916.034	10417
916.146	10413
916.259	10322
916.371	10470
916.483	10394
916.595	10402
916.708	10367
916.82	10337
916.932	10367
917.044	10344
917.156	10230
917.268	10276
917.38	10299
917.491	10265
917.603	10303
917.715	10329
917.826	10344
917.938	10234
918.049	10112
918.161	10287
918.272	10478
918.384	10398
918.495	10257
918.606	10166
918.717	10048
918.828	10124
918.939	10276
919.05	10059
919.161	10051
919.272	9922
919.383	10078
919.494	10234
919.604	10375
919.715	10139
919.826	10162
919.936	10059
920.047	10280
920.157	10154
920.267	10318
920.378	10310
920.488	10181
920.598	10303
920.708	10478
920.818	10360
920.928	10322
921.038	10584
921.148	10508
921.258	10192
921.368	10105
921.477	10017
921.587	10067
921.697	9918
921.806	10025
921.916	9930
922.025	9781
922.134	9762
922.244	9660
922.353	9797
922.462	9545
922.571	9549
922.68	9466
922.789	9359
922.898	9469
923.007	9340
923.116	9477
923.224	9485
923.333	9348
923.442	9313
923.55	9264
923.659	9302
923.767	9336
923.876	9245
923.984	9363
924.092	9222
924.201	9298
924.309	9302
924.417	9310
924.525	9275
924.633	9298
924.741	10185
924.849	9074
924.956	9249
925.064	9028
925.172	8956
925.279	9066
925.387	9135
925.494	9051
925.602	9237
925.709	9222
925.816	9043
925.924	9036
926.031	9100
926.138	9097
926.245	9131
926.352	8971
926.459	9169
926.566	9237
926.673	9001
926.779	9005
926.886	8941
926.993	8845
927.099	8834
927.206	8777
927.312	8769
927.419	8796
927.525	8830
927.631	8864
927.737	8724
927.843	8720
927.95	8636
928.056	8636
928.162	8693
928.267	8781
928.373	9355
928.479	8796
928.585	8514
928.69	8686
928.796	8655
928.901	8560
929.007	8473
929.112	8674
929.218	8602
929.323	8503
929.428	8450
929.533	8682
929.638	8476
929.743	8431
929.848	8568
929.953	8488
930.058	8396
930.163	8298
930.267	8332
930.372	8492
930.477	8271
930.581	8469
930.685	8366
930.79	8248
930.894	8229
930.998	8256
931.103	8434
931.207	8050
931.311	7986
931.415	7906
931.519	7761
931.623	7662
