Data from test_V78500241_2528.txt Node
Date: Fri Mar 25 14:51:19 CST 2022
User: usil
Spectrometer: V785-0024
Trigger mode: 0
Integration Time (sec): 4.000000E-1
Scans to average: 1
Nonlinearity correction enabled: false
Boxcar width: 0
Storing dark spectrum: false
XAxis mode: Wavelengths
Number of Pixels in Spectrum: 1024
>>>>>Begin Spectral Data<<<<<
801.071	22059
801.214	21846
801.356	21637
801.499	21530
801.641	21534
801.783	21458
801.926	21367
802.068	21367
802.211	21325
802.353	21214
802.496	21009
802.638	21020
802.78	20849
802.923	20758
803.065	20689
803.208	20655
803.35	20819
803.492	20887
803.635	20826
803.777	20746
803.919	20788
804.061	21070
804.204	20735
804.346	20716
804.488	20705
804.63	20804
804.773	20549
804.915	20613
805.057	20765
805.199	20579
805.341	20655
805.483	20731
805.626	20731
805.768	20602
805.91	20655
806.052	20773
806.194	20526
806.336	20678
806.478	20617
806.62	20549
806.762	20674
806.904	20861
807.046	21062
807.188	21055
807.33	20948
807.472	21085
807.614	20887
807.756	20952
807.898	20678
808.04	20674
808.182	20769
808.324	20758
808.465	20708
808.607	20929
808.749	21070
808.891	21176
809.033	21233
809.174	21077
809.316	21036
809.458	21055
809.6	20975
809.741	21100
809.883	21070
810.025	21233
810.166	21131
810.308	21211
810.45	21051
810.591	20990
810.733	20830
810.875	20838
811.016	20727
811.158	20712
811.299	20899
811.441	20948
811.582	20921
811.724	20758
811.865	20667
812.007	20876
812.148	20769
812.29	20796
812.431	20929
812.573	21123
812.714	21237
812.855	21287
812.997	21378
813.138	21473
813.279	21313
813.421	21374
813.562	21249
813.703	20990
813.845	21020
813.986	20594
814.127	20427
814.268	20385
814.41	20377
814.551	20339
814.692	20415
814.833	20275
814.974	20263
815.115	20282
815.256	20176
815.397	20149
815.539	20111
815.68	20107
815.821	19967
815.962	20103
816.103	20012
816.244	19875
816.385	19799
816.526	19822
816.666	19552
816.807	19373
816.948	19514
817.089	19586
817.23	19464
817.371	19502
817.512	19449
817.653	19453
817.793	19464
817.934	19415
818.075	19400
818.216	19438
818.356	19483
818.497	19301
818.638	19152
818.778	19202
818.919	19141
819.06	19247
819.2	19304
819.341	19362
819.481	19350
819.622	19457
819.762	19738
819.903	19639
820.043	19552
820.184	19506
820.324	19453
820.465	19563
820.605	19388
820.746	19403
820.886	19304
821.026	19472
821.167	19304
821.307	19377
821.447	19441
821.588	19263
821.728	19168
821.868	18920
822.008	18859
822.149	18875
822.289	18951
822.429	18506
822.569	18471
822.709	18578
822.849	18433
822.99	18357
823.13	18300
823.27	18220
823.41	18178
823.55	18095
823.69	18216
823.83	18171
823.97	18110
824.11	17931
824.25	17912
824.389	17942
824.529	17988
824.669	17889
824.809	18019
824.949	17870
825.089	18022
825.228	17988
825.368	17737
825.508	17672
825.648	17676
825.787	17760
825.927	17756
826.067	17653
826.206	17661
826.346	17741
826.485	17638
826.625	17779
826.765	17821
826.904	17756
827.044	17463
827.183	17455
827.323	17311
827.462	17509
827.601	17417
827.741	17463
827.88	17417
828.02	17299
828.159	17429
828.298	17368
828.437	17532
828.577	17337
828.716	17429
828.855	17330
828.994	17208
829.134	17124
829.273	17170
829.412	17056
829.551	17109
829.69	17117
829.829	17269
829.968	17185
830.107	17132
830.246	17242
830.385	17064
830.524	17136
830.663	16934
830.802	16831
830.941	16702
831.08	16748
831.219	16904
831.357	16759
831.496	17056
831.635	16759
831.774	16691
831.913	16596
832.051	16516
832.19	16550
832.329	16580
832.467	16497
832.606	16466
832.744	16447
832.883	16466
833.022	16504
833.16	16474
833.299	16542
833.437	16485
833.576	16462
833.714	16443
833.852	16611
833.991	16500
834.129	16535
834.267	16466
834.406	16527
834.544	16603
834.682	16402
834.821	16535
834.959	16736
835.097	16447
835.235	16649
835.373	16478
835.511	16478
835.65	16375
835.788	16360
835.926	16348
836.064	16196
836.202	16314
836.34	16523
836.478	16459
836.615	16371
836.753	16443
836.891	16451
837.029	16546
837.167	16413
837.305	16436
837.443	16287
837.58	16105
837.718	16341
837.856	16409
837.993	16234
838.131	16310
838.269	16276
838.406	16261
838.544	16223
838.681	16017
838.819	15949
838.956	15895
839.094	15800
839.231	15930
839.369	15975
839.506	16230
839.643	16093
839.781	15816
839.918	15846
840.055	15842
840.193	15857
840.33	15819
840.467	15899
840.604	15953
840.742	16036
840.879	15667
841.016	15770
841.153	15713
841.29	15945
841.427	15880
841.564	15892
841.701	15895
841.838	15846
841.975	15781
842.112	15713
842.249	15618
842.385	15622
842.522	15827
842.659	15618
842.796	15553
842.933	15603
843.069	15717
843.206	15557
843.343	15728
843.479	15660
843.616	15675
843.752	15416
843.889	15435
844.025	15564
844.162	15367
844.298	15538
844.435	15393
844.571	15439
844.708	15420
844.844	15584
844.98	15557
845.117	15530
845.253	15454
845.389	15291
845.525	15298
845.661	15367
845.798	15222
845.934	15340
846.07	15268
846.206	15310
846.342	15370
846.478	15272
846.614	15081
846.75	15020
846.886	14994
847.022	15089
847.158	15058
847.294	15032
847.429	15024
847.565	14971
847.701	15260
847.837	14697
847.972	14724
848.108	14777
848.244	14868
848.379	14655
848.515	14495
848.65	14571
848.786	14556
848.921	14632
849.057	14701
849.192	14708
849.328	14693
849.463	14686
849.598	14571
849.734	14579
849.869	14507
850.004	14358
850.14	14374
850.275	14408
850.41	14343
850.545	14370
850.68	14309
850.815	14454
850.95	14320
851.085	14549
851.22	14457
851.355	14442
851.49	14339
851.625	14267
851.76	14248
851.895	14267
852.03	14252
852.165	14393
852.299	14343
852.434	14434
852.569	14419
852.703	14393
852.838	14438
852.973	14518
853.107	14560
853.242	14336
853.376	14183
853.511	14081
853.645	14210
853.78	14389
853.914	14237
854.048	14134
854.183	14210
854.317	14240
854.451	14389
854.585	14149
854.72	14221
854.854	14294
854.988	14130
855.122	14164
855.256	14172
855.39	14119
855.524	14347
855.658	14271
855.792	14271
855.926	14332
856.06	14263
856.194	14381
856.327	14164
856.461	14229
856.595	14233
856.729	14240
856.862	14400
856.996	14256
857.13	14324
857.263	14336
857.397	14286
857.53	14214
857.664	14256
857.797	14351
857.931	14343
858.064	14332
858.197	14278
858.331	14206
858.464	14199
858.597	14081
858.731	14256
858.864	14233
858.997	14180
859.13	14309
859.263	14221
859.396	14248
859.529	14267
859.662	14145
859.795	14225
859.928	14370
860.061	14415
860.194	14465
860.327	14221
860.46	14298
860.592	14374
860.725	14423
860.858	14358
860.99	14221
861.123	14187
861.256	14214
861.388	14256
861.521	14686
861.653	14195
861.786	14008
861.918	14107
862.05	14081
862.183	14259
862.315	14259
862.447	14309
862.58	14183
862.712	14062
862.844	13986
862.976	14058
863.108	14054
863.24	14385
863.372	13993
863.504	13898
863.636	14012
863.768	14130
863.9	14058
864.032	13860
864.164	13974
864.296	14043
864.428	14206
864.559	14123
864.691	14210
864.823	14168
864.954	14062
865.086	14134
865.217	13989
865.349	13940
865.48	14024
865.612	14008
865.743	14119
865.875	13993
866.006	14001
866.137	14024
866.269	14039
866.4	13989
866.531	13890
866.662	13947
866.793	13940
866.924	13947
867.055	14077
867.186	14043
867.317	13913
867.448	13921
867.579	13993
867.71	13856
867.841	13852
867.972	14043
868.103	14081
868.233	14054
868.364	13951
868.495	13989
868.625	14157
868.756	14336
868.886	14084
869.017	14176
869.147	14400
869.278	14454
869.408	14374
869.539	14214
869.669	14256
869.799	14351
869.929	14438
870.06	14362
870.19	14617
870.32	14564
870.45	14594
870.58	14659
870.71	14640
870.84	14769
870.97	14602
871.1	14686
871.23	14765
871.36	14788
871.489	14651
871.619	14750
871.749	14731
871.879	14876
872.008	14948
872.138	14830
872.267	14842
872.397	14823
872.526	14682
872.656	14716
872.785	14731
872.915	14842
873.044	15009
873.173	14960
873.303	14956
873.432	14979
873.561	14918
873.69	14876
873.819	14872
873.948	14960
874.077	14899
874.206	14921
874.335	14845
874.464	15036
874.593	15097
874.722	15108
874.851	15237
874.979	15264
875.108	15173
875.237	15070
875.365	15108
875.494	15230
875.623	15199
875.751	15302
875.88	15272
876.008	15439
876.136	15523
876.265	15656
876.393	15797
876.521	15682
876.65	15720
876.778	15618
876.906	15481
877.034	15557
877.162	15652
877.29	15603
877.418	15591
877.546	15618
877.674	15656
877.802	15584
877.93	15724
878.058	15519
878.185	15545
878.313	15633
878.441	15481
878.568	15447
878.696	15576
878.824	15724
878.951	15679
879.079	15838
879.206	15888
879.333	15797
879.461	15663
879.588	15743
879.715	15861
879.842	15926
879.97	15728
880.097	15416
880.224	15378
880.351	15485
880.478	15504
880.605	15473
880.732	15488
880.859	15743
880.986	15572
881.112	15477
881.239	15378
881.366	15260
881.493	15226
881.619	15241
881.746	15169
881.872	15169
881.999	15142
882.125	15089
882.252	15119
882.378	15070
882.505	15291
882.631	15097
882.757	15009
882.883	14948
883.01	14849
883.136	14933
883.262	14883
883.388	14838
883.514	14990
883.64	15039
883.766	14899
883.892	14834
884.018	14804
884.143	14891
884.269	15039
884.395	14705
884.52	14651
884.646	14705
884.772	14648
884.897	14514
885.023	14636
885.148	14765
885.274	14918
885.399	14815
885.524	14659
885.65	14686
885.775	14712
885.9	14617
886.025	14849
886.15	14857
886.275	14613
886.4	14484
886.525	14678
886.65	14594
886.775	14571
886.9	14773
887.025	14902
887.149	14610
887.274	14511
887.399	14461
887.523	14408
887.648	14362
887.773	14446
887.897	14560
888.021	14583
888.146	14450
888.27	14598
888.395	14651
888.519	14556
888.643	14450
888.767	14488
888.891	14336
889.015	14362
889.139	14324
889.263	14301
889.387	14457
889.511	14629
889.635	14408
889.759	14362
889.883	14423
890.006	14385
890.13	14488
890.254	14366
890.377	14278
890.501	14180
890.624	14088
890.748	14229
890.871	14103
890.995	14096
891.118	13940
891.241	14050
891.364	14130
891.488	14157
891.611	14039
891.734	14005
891.857	14069
891.98	14119
892.103	14130
892.226	14050
892.349	14103
892.471	13890
892.594	14138
892.717	13997
892.839	14031
892.962	14119
893.085	14081
893.207	14119
893.33	13921
893.452	14008
893.575	14027
893.697	14092
893.819	14305
893.941	14248
894.064	14168
894.186	14058
894.308	14039
894.43	14180
894.552	14298
894.674	14252
894.796	14016
894.918	14088
895.04	14035
895.161	14069
895.283	14237
895.405	14111
895.526	14161
895.648	14180
895.769	14202
895.891	14229
896.012	14290
896.134	14221
896.255	14263
896.376	14168
896.498	14282
896.619	14256
896.74	14142
896.861	14218
896.982	14526
897.103	14727
897.224	14507
897.345	14492
897.466	14461
897.587	14610
897.708	14606
897.828	14590
897.949	14541
898.07	14404
898.19	14408
898.311	14545
898.431	14484
898.552	14594
898.672	14583
898.792	14716
898.913	14621
899.033	14575
899.153	14377
899.273	14282
899.393	14415
899.513	14526
899.633	14404
899.753	14362
899.873	14393
899.993	14431
900.113	14442
900.232	14461
900.352	14431
900.472	14324
900.591	14309
900.711	14324
900.83	14301
900.95	14427
901.069	14389
901.189	14252
901.308	14062
901.427	14005
901.546	14039
901.665	14020
901.784	14024
901.904	13890
902.023	13788
902.141	13681
902.26	13544
902.379	13529
902.498	13480
902.617	13578
902.735	13506
902.854	13544
902.973	13476
903.091	13297
903.21	13221
903.328	13255
903.446	13190
903.565	13095
903.683	13008
903.801	13046
903.919	13053
904.038	13145
904.156	12966
904.274	13027
904.392	12920
904.51	12886
904.627	12848
904.745	13004
904.863	12867
904.981	12715
905.098	12665
905.216	12593
905.334	12707
905.451	12601
905.569	12604
905.686	12623
905.803	12650
905.921	12414
906.038	12525
906.155	12471
906.272	12399
906.389	12330
906.506	12201
906.623	12201
906.74	12205
906.857	12121
906.974	12228
907.091	12232
907.208	12372
907.324	12266
907.441	12053
907.557	11973
907.674	11988
907.79	11912
907.907	11935
908.023	12026
908.139	11984
908.256	11920
908.372	11859
908.488	11920
908.604	11771
908.72	11718
908.836	11805
908.952	11703
909.068	11752
909.184	11832
909.3	11672
909.415	11855
909.531	11710
909.647	11414
909.762	11387
909.878	11425
909.993	11516
910.108	11490
910.224	11455
910.339	11482
910.454	11322
910.57	11402
910.685	11242
910.8	11558
910.915	11497
911.03	11341
911.145	11212
911.259	11124
911.374	11201
911.489	11098
911.604	11064
911.718	10953
911.833	11037
911.947	10835
912.062	10793
912.176	10858
912.291	10930
912.405	10976
912.519	11174
912.633	11147
912.748	11025
912.862	10930
912.976	10767
913.09	10660
913.204	10748
913.318	10858
913.431	10942
913.545	10892
913.659	10908
913.772	10866
913.886	10706
914	10691
914.113	10752
914.226	10752
914.34	10820
914.453	10630
914.566	10793
914.68	10664
914.793	10725
914.906	10523
915.019	10367
915.132	10413
915.245	10451
915.358	10462
915.47	10398
915.583	10493
915.696	10421
915.809	10596
915.921	10668
916.034	10481
916.146	10451
916.259	10325
916.371	10466
916.483	10474
916.595	10318
916.708	10348
916.82	10249
916.932	10356
917.044	10356
917.156	10318
917.268	10272
917.38	10280
917.491	10253
917.603	10272
917.715	10360
917.826	10325
917.938	10303
918.049	10128
918.161	10333
918.272	10478
918.384	10424
918.495	10230
918.606	10120
918.717	10093
918.828	10093
918.939	10227
919.05	10082
919.161	10173
919.272	9998
919.383	10078
919.494	10211
919.604	10405
919.715	10238
919.826	10101
919.936	10173
920.047	10234
920.157	10192
920.267	10398
920.378	10257
920.488	10211
920.598	10348
920.708	10580
920.818	10371
920.928	10333
921.038	10550
921.148	10519
921.258	10219
921.368	10158
921.477	10166
921.587	10051
921.697	9930
921.806	10124
921.916	9892
922.025	9800
922.134	9732
922.244	9720
922.353	9869
922.462	9762
922.571	9648
922.68	9507
922.789	9500
922.898	9488
923.007	9397
923.116	9469
923.224	9492
923.333	9515
923.442	9340
923.55	9374
923.659	9428
923.767	9420
923.876	9389
923.984	9420
924.092	9306
924.201	9382
924.309	9313
924.417	9393
924.525	9226
924.633	9317
924.741	10135
924.849	9161
924.956	9363
925.064	9157
925.172	8986
925.279	9013
925.387	9108
925.494	9119
925.602	9268
925.709	9195
925.816	9104
925.924	9150
926.031	9214
926.138	9176
926.245	9188
926.352	9055
926.459	9150
926.566	9222
926.673	9058
926.779	8956
926.886	8902
926.993	8880
927.099	8899
927.206	8823
927.312	8826
927.419	8845
927.525	8880
927.631	8921
927.737	8842
927.843	8811
927.95	8655
928.056	8727
928.162	8724
928.267	8785
928.373	9401
928.479	8834
928.585	8636
928.69	8750
928.796	8746
928.901	8651
929.007	8488
929.112	8682
929.218	8640
929.323	8587
929.428	8549
929.533	8663
929.638	8450
929.743	8587
929.848	8564
929.953	8511
930.058	8431
930.163	8343
930.267	8393
930.372	8450
930.477	8294
930.581	8556
930.685	8381
930.79	8279
930.894	8336
930.998	8244
931.103	8446
931.207	8115
931.311	8001
931.415	7978
931.519	7792
931.623	7784
