Data from test_V78500241_2275.txt Node
Date: Fri Mar 25 14:49:33 CST 2022
User: usil
Spectrometer: V785-0024
Trigger mode: 0
Integration Time (sec): 4.000000E-1
Scans to average: 1
Nonlinearity correction enabled: false
Boxcar width: 0
Storing dark spectrum: false
XAxis mode: Wavelengths
Number of Pixels in Spectrum: 1024
>>>>>Begin Spectral Data<<<<<
801.071	22173
801.214	22204
801.356	21918
801.499	21736
801.641	21549
801.783	21542
801.926	21580
802.068	21408
802.211	21313
802.353	21428
802.496	21058
802.638	21135
802.78	20979
802.923	21036
803.065	20746
803.208	20914
803.35	20861
803.492	20967
803.635	21043
803.777	20857
803.919	20918
804.061	21237
804.204	21005
804.346	20708
804.488	20765
804.63	20883
804.773	20746
804.915	20804
805.057	20880
805.199	20781
805.341	20887
805.483	20876
805.626	20883
805.768	20765
805.91	20785
806.052	20788
806.194	20838
806.336	20883
806.478	20883
806.62	20804
806.762	20902
806.904	21020
807.046	21157
807.188	21135
807.33	21119
807.472	21222
807.614	21032
807.756	21184
807.898	20948
808.04	20918
808.182	20895
808.324	21020
808.465	20963
808.607	21074
808.749	21241
808.891	21313
809.033	21397
809.174	21184
809.316	21199
809.458	21180
809.6	21161
809.741	21287
809.883	21310
810.025	21344
810.166	21344
810.308	21283
810.45	21302
810.591	21119
810.733	21100
810.875	21123
811.016	20952
811.158	20918
811.299	20906
811.441	20998
811.582	21127
811.724	21009
811.865	20994
812.007	20800
812.148	21009
812.29	21043
812.431	21032
812.573	21199
812.714	21344
812.855	21454
812.997	21625
813.138	21686
813.279	21625
813.421	21583
813.562	21443
813.703	21237
813.845	21150
813.986	20880
814.127	20670
814.268	20492
814.41	20526
814.551	20488
814.692	20617
814.833	20400
814.974	20564
815.115	20518
815.256	20450
815.397	20267
815.539	20423
815.68	20214
815.821	20218
815.962	20282
816.103	20244
816.244	20062
816.385	20012
816.526	19959
816.666	19727
816.807	19715
816.948	19811
817.089	19902
817.23	19643
817.371	19628
817.512	19639
817.653	19643
817.793	19571
817.934	19685
818.075	19624
818.216	19693
818.356	19582
818.497	19487
818.638	19415
818.778	19304
818.919	19297
819.06	19384
819.2	19438
819.341	19453
819.481	19540
819.622	19719
819.762	19742
819.903	19788
820.043	19666
820.184	19731
820.324	19647
820.465	19677
820.605	19742
820.746	19620
820.886	19430
821.026	19639
821.167	19525
821.307	19738
821.447	19609
821.588	19464
821.728	19289
821.868	19129
822.008	19034
822.149	19000
822.289	19000
822.429	18719
822.569	18658
822.709	18661
822.849	18365
822.99	18589
823.13	18540
823.27	18429
823.41	18266
823.55	18334
823.69	18296
823.83	18372
823.97	18239
824.11	18087
824.25	18152
824.389	18076
824.529	18186
824.669	18030
824.809	18197
824.949	18136
825.089	18125
825.228	18083
825.368	17950
825.508	17798
825.648	17836
825.787	17912
825.927	17885
826.067	17901
826.206	17809
826.346	17832
826.485	17843
826.625	17901
826.765	17897
826.904	17775
827.044	17676
827.183	17547
827.323	17501
827.462	17592
827.601	17440
827.741	17577
827.88	17615
828.02	17463
828.159	17452
828.298	17490
828.437	17585
828.577	17554
828.716	17649
828.855	17535
828.994	17345
829.134	17398
829.273	17277
829.412	17296
829.551	17292
829.69	17231
829.829	17315
829.968	17356
830.107	17258
830.246	17280
830.385	17311
830.524	17140
830.663	17113
830.802	17071
830.941	16934
831.08	16942
831.219	16965
831.357	16957
831.496	17048
831.635	16816
831.774	16831
831.913	16801
832.051	16748
832.19	16706
832.329	16763
832.467	16592
832.606	16519
832.744	16569
832.883	16561
833.022	16504
833.16	16660
833.299	16599
833.437	16630
833.576	16698
833.714	16626
833.852	16675
833.991	16615
834.129	16660
834.267	16649
834.406	16626
834.544	16588
834.682	16683
834.821	16637
834.959	16691
835.097	16550
835.235	16782
835.373	16710
835.511	16580
835.65	16500
835.788	16500
835.926	16428
836.064	16348
836.202	16409
836.34	16561
836.478	16656
836.615	16485
836.753	16550
836.891	16569
837.029	16713
837.167	16375
837.305	16508
837.443	16440
837.58	16360
837.718	16379
837.856	16413
837.993	16500
838.131	16306
838.269	16272
838.406	16333
838.544	16261
838.681	16021
838.819	16036
838.956	15941
839.094	15987
839.231	15960
839.369	15998
839.506	16329
839.643	16124
839.781	15869
839.918	15922
840.055	15819
840.193	15884
840.33	15865
840.467	15869
840.604	15880
840.742	16006
840.879	15895
841.016	15975
841.153	15732
841.29	15968
841.427	15934
841.564	15964
841.701	15865
841.838	15964
841.975	15884
842.112	15831
842.249	15739
842.385	15732
842.522	15823
842.659	15739
842.796	15656
842.933	15755
843.069	15644
843.206	15686
843.343	15850
843.479	15701
843.616	15747
843.752	15469
843.889	15545
844.025	15663
844.162	15523
844.298	15603
844.435	15511
844.571	15424
844.708	15526
844.844	15652
844.98	15648
845.117	15591
845.253	15416
845.389	15386
845.525	15344
845.661	15370
845.798	15188
845.934	15401
846.07	15264
846.206	15332
846.342	15291
846.478	15363
846.614	15192
846.75	15058
846.886	15058
847.022	15154
847.158	15119
847.294	15028
847.429	15138
847.565	15081
847.701	15355
847.837	14796
847.972	14731
848.108	14868
848.244	14929
848.379	14724
848.515	14648
848.65	14731
848.786	14640
848.921	14575
849.057	14765
849.192	14739
849.328	14762
849.463	14667
849.598	14621
849.734	14632
849.869	14454
850.004	14415
850.14	14465
850.275	14503
850.41	14320
850.545	14328
850.68	14446
850.815	14434
850.95	14366
851.085	14564
851.22	14579
851.355	14423
851.49	14396
851.625	14404
851.76	14396
851.895	14389
852.03	14320
852.165	14446
852.299	14454
852.434	14446
852.569	14423
852.703	14431
852.838	14556
852.973	14594
853.107	14339
853.242	14469
853.376	14332
853.511	14123
853.645	14339
853.78	14408
853.914	14339
854.048	14275
854.183	14317
854.317	14221
854.451	14465
854.585	14199
854.72	14218
854.854	14324
854.988	14176
855.122	14317
855.256	14126
855.39	14263
855.524	14374
855.658	14317
855.792	14301
855.926	14282
856.06	14385
856.194	14370
856.327	14244
856.461	14252
856.595	14218
856.729	14324
856.862	14419
856.996	14324
857.13	14415
857.263	14366
857.397	14465
857.53	14267
857.664	14351
857.797	14438
857.931	14431
858.064	14301
858.197	14457
858.331	14362
858.464	14164
858.597	14191
858.731	14180
858.864	14164
858.997	14252
859.13	14286
859.263	14229
859.396	14393
859.529	14237
859.662	14202
859.795	14294
859.928	14298
860.061	14374
860.194	14434
860.327	14305
860.46	14225
860.592	14431
860.725	14511
860.858	14480
860.99	14267
861.123	14142
861.256	14229
861.388	14324
861.521	14883
861.653	14191
861.786	14123
861.918	14191
862.05	14221
862.183	14332
862.315	14343
862.447	14259
862.58	14259
862.712	14092
862.844	13978
862.976	14134
863.108	14206
863.24	14446
863.372	14016
863.504	14096
863.636	14084
863.768	14202
863.9	14115
864.032	13917
864.164	14100
864.296	14081
864.428	14115
864.559	14259
864.691	14161
864.823	14092
864.954	14073
865.086	14100
865.217	14077
865.349	14035
865.48	13947
865.612	14039
865.743	14214
865.875	14027
866.006	14088
866.137	14058
866.269	14111
866.4	14157
866.531	13944
866.662	13989
866.793	14024
866.924	13944
867.055	14069
867.186	14054
867.317	13989
867.448	13951
867.579	13928
867.71	14050
867.841	13913
867.972	14024
868.103	14046
868.233	14016
868.364	14126
868.495	14050
868.625	14305
868.756	14408
868.886	14176
869.017	14351
869.147	14339
869.278	14377
869.408	14313
869.539	14259
869.669	14290
869.799	14309
869.929	14457
870.06	14438
870.19	14632
870.32	14655
870.45	14769
870.58	14598
870.71	14826
870.84	14682
870.97	14686
871.1	14640
871.23	14891
871.36	14887
871.489	14834
871.619	14876
871.749	14731
871.879	14830
872.008	14921
872.138	14952
872.267	14819
872.397	14830
872.526	14712
872.656	14678
872.785	14853
872.915	14902
873.044	14963
873.173	14986
873.303	15017
873.432	14986
873.561	15085
873.69	14975
873.819	14979
873.948	14937
874.077	14967
874.206	14933
874.335	15024
874.464	15157
874.593	15268
874.722	15268
874.851	15374
874.979	15222
875.108	15401
875.237	15184
875.365	15188
875.494	15245
875.623	15291
875.751	15249
875.88	15264
876.008	15378
876.136	15431
876.265	15656
876.393	15785
876.521	15785
876.65	15846
876.778	15675
876.906	15584
877.034	15652
877.162	15591
877.29	15561
877.418	15679
877.546	15709
877.674	15671
877.802	15614
877.93	15663
878.058	15595
878.185	15591
878.313	15633
878.441	15682
878.568	15496
878.696	15671
878.824	15603
878.951	15781
879.079	15842
879.206	16051
879.333	15770
879.461	15698
879.588	15644
879.715	15869
879.842	15934
879.97	15743
880.097	15466
880.224	15420
880.351	15458
880.478	15625
880.605	15488
880.732	15507
880.859	15667
880.986	15564
881.112	15610
881.239	15435
881.366	15268
881.493	15207
881.619	15165
881.746	15237
881.872	15173
881.999	15150
882.125	15039
882.252	15302
882.378	15272
882.505	15298
882.631	15074
882.757	15005
882.883	15081
883.01	14994
883.136	15032
883.262	14906
883.388	14861
883.514	14967
883.64	15123
883.766	14746
883.892	14788
884.018	14872
884.143	15081
884.269	15058
884.395	14773
884.52	14697
884.646	14743
884.772	14556
884.897	14613
885.023	14678
885.148	14777
885.274	14807
885.399	14838
885.524	14743
885.65	14720
885.775	14739
885.9	14651
886.025	14842
886.15	14781
886.275	14659
886.4	14663
886.525	14739
886.65	14689
886.775	14621
886.9	14838
887.025	14906
887.149	14815
887.274	14594
887.399	14465
887.523	14511
887.648	14480
887.773	14457
887.897	14575
888.021	14606
888.146	14461
888.27	14625
888.395	14610
888.519	14575
888.643	14651
888.767	14575
888.891	14473
889.015	14450
889.139	14362
889.263	14366
889.387	14473
889.511	14621
889.635	14503
889.759	14347
889.883	14461
890.006	14427
890.13	14469
890.254	14374
890.377	14286
890.501	14195
890.624	14107
890.748	14214
890.871	14252
890.995	14084
891.118	13986
891.241	14092
891.364	14058
891.488	14278
891.611	14031
891.734	14180
891.857	14092
891.98	14145
892.103	14180
892.226	14180
892.349	14020
892.471	13993
892.594	14039
892.717	14119
892.839	14096
892.962	14100
893.085	14187
893.207	14153
893.33	14035
893.452	13978
893.575	14142
893.697	14073
893.819	14225
893.941	14355
894.064	14267
894.186	14115
894.308	14046
894.43	14191
894.552	14317
894.674	14271
894.796	14111
894.918	14092
895.04	14134
895.161	14206
895.283	14240
895.405	14221
895.526	14210
895.648	14259
895.769	14180
895.891	14347
896.012	14229
896.134	14313
896.255	14313
896.376	14271
896.498	14202
896.619	14317
896.74	14237
896.861	14396
896.982	14629
897.103	14701
897.224	14564
897.345	14598
897.466	14537
897.587	14511
897.708	14667
897.828	14571
897.949	14442
898.07	14438
898.19	14602
898.311	14617
898.431	14503
898.552	14492
898.672	14754
898.792	14648
898.913	14678
899.033	14636
899.153	14461
899.273	14336
899.393	14484
899.513	14606
899.633	14488
899.753	14450
899.873	14473
899.993	14499
900.113	14465
900.232	14522
900.352	14381
900.472	14442
900.591	14427
900.711	14336
900.83	14298
900.95	14396
901.069	14362
901.189	14123
901.308	14092
901.427	13940
901.546	14081
901.665	14092
901.784	14054
901.904	14012
902.023	13799
902.141	13651
902.26	13582
902.379	13624
902.498	13578
902.617	13578
902.735	13624
902.854	13636
902.973	13594
903.091	13335
903.21	13282
903.328	13278
903.446	13221
903.565	13183
903.683	13213
903.801	13103
903.919	13152
904.038	13190
904.156	12985
904.274	13012
904.392	13031
904.51	12954
904.627	12943
904.745	12985
904.863	13015
904.981	12829
905.098	12646
905.216	12703
905.334	12722
905.451	12669
905.569	12623
905.686	12604
905.803	12730
905.921	12471
906.038	12483
906.155	12494
906.272	12395
906.389	12414
906.506	12342
906.623	12209
906.74	12235
906.857	12121
906.974	12178
907.091	12365
907.208	12403
907.324	12334
907.441	12178
907.557	11980
907.674	11980
907.79	11958
907.907	11988
908.023	12057
908.139	12007
908.256	11950
908.372	11889
908.488	11843
908.604	11748
908.72	11745
908.836	11794
908.952	11767
909.068	11722
909.184	11843
909.3	11672
909.415	11809
909.531	11741
909.647	11665
909.762	11482
909.878	11474
909.993	11547
910.108	11520
910.224	11524
910.339	11478
910.454	11379
910.57	11455
910.685	11334
910.8	11619
910.915	11570
911.03	11395
911.145	11299
911.259	11250
911.374	11254
911.489	11166
911.604	11132
911.718	10919
911.833	11067
911.947	10915
912.062	10793
912.176	11010
912.291	11029
912.405	10987
912.519	11155
912.633	11124
912.748	11052
912.862	10976
912.976	10828
913.09	10721
913.204	10839
913.318	10889
913.431	10995
913.545	10942
913.659	10984
913.772	10881
913.886	10752
914	10714
914.113	10748
914.226	10911
914.34	10771
914.453	10573
914.566	10801
914.68	10645
914.793	10733
914.906	10478
915.019	10478
915.132	10398
915.245	10421
915.358	10523
915.47	10371
915.583	10508
915.696	10519
915.809	10634
915.921	10645
916.034	10455
916.146	10421
916.259	10516
916.371	10561
916.483	10516
916.595	10371
916.708	10504
916.82	10493
916.932	10443
917.044	10417
917.156	10440
917.268	10284
917.38	10333
917.491	10249
917.603	10306
917.715	10348
917.826	10485
917.938	10299
918.049	10158
918.161	10337
918.272	10554
918.384	10478
918.495	10371
918.606	10318
918.717	10166
918.828	10166
918.939	10272
919.05	10109
919.161	10230
919.272	10040
919.383	10112
919.494	10299
919.604	10466
919.715	10211
919.826	10188
919.936	10196
920.047	10253
920.157	10192
920.267	10493
920.378	10337
920.488	10204
920.598	10451
920.708	10577
920.818	10424
920.928	10428
921.038	10615
921.148	10554
921.258	10268
921.368	10200
921.477	10162
921.587	9983
921.697	10006
921.806	10207
921.916	9979
922.025	9835
922.134	9850
922.244	9759
922.353	9819
922.462	9743
922.571	9667
922.68	9606
922.789	9473
922.898	9485
923.007	9462
923.116	9523
923.224	9561
923.333	9523
923.442	9393
923.55	9428
923.659	9367
923.767	9447
923.876	9416
923.984	9431
924.092	9386
924.201	9340
924.309	9370
924.417	9424
924.525	9313
924.633	9351
924.741	10230
924.849	9169
924.956	9272
925.064	9146
925.172	9123
925.279	9214
925.387	9165
925.494	9119
925.602	9310
925.709	9218
925.816	9097
925.924	9154
926.031	9241
926.138	9146
926.245	9146
926.352	9081
926.459	9214
926.566	9268
926.673	9146
926.779	9001
926.886	9009
926.993	8902
927.099	8861
927.206	8792
927.312	8823
927.419	8864
927.525	8895
927.631	8963
927.737	8842
927.843	8769
927.95	8648
928.056	8807
928.162	8811
928.267	8826
928.373	9447
928.479	8830
928.585	8556
928.69	8705
928.796	8823
928.901	8598
929.007	8484
929.112	8674
929.218	8625
929.323	8598
929.428	8507
929.533	8724
929.638	8480
929.743	8625
929.848	8648
929.953	8575
930.058	8457
930.163	8351
930.267	8328
930.372	8492
930.477	8279
930.581	8579
930.685	8370
930.79	8275
930.894	8290
930.998	8332
931.103	8469
931.207	8111
931.311	8001
931.415	8016
931.519	7803
931.623	7822
