Data from test_V78500241_2344.txt Node
Date: Fri Mar 25 14:50:02 CST 2022
User: usil
Spectrometer: V785-0024
Trigger mode: 0
Integration Time (sec): 4.000000E-1
Scans to average: 1
Nonlinearity correction enabled: false
Boxcar width: 0
Storing dark spectrum: false
XAxis mode: Wavelengths
Number of Pixels in Spectrum: 1024
>>>>>Begin Spectral Data<<<<<
801.071	22143
801.214	22063
801.356	21903
801.499	21625
801.641	21523
801.783	21530
801.926	21500
802.068	21469
802.211	21492
802.353	21420
802.496	21100
802.638	21001
802.78	21036
802.923	20834
803.065	20925
803.208	20815
803.35	20811
803.492	20948
803.635	20956
803.777	20864
803.919	21005
804.061	21100
804.204	20899
804.346	20864
804.488	20731
804.63	20838
804.773	20758
804.915	20781
805.057	20921
805.199	20746
805.341	20686
805.483	20925
805.626	20861
805.768	20777
805.91	20705
806.052	20800
806.194	20743
806.336	20941
806.478	20682
806.62	20712
806.762	20823
806.904	20963
807.046	21062
807.188	21104
807.33	21070
807.472	21180
807.614	21062
807.756	20986
807.898	20941
808.04	20838
808.182	20823
808.324	20914
808.465	20830
808.607	21131
808.749	21108
808.891	21321
809.033	21310
809.174	21382
809.316	21127
809.458	21245
809.6	21260
809.741	21317
809.883	21207
810.025	21393
810.166	21408
810.308	21279
810.45	21256
810.591	21119
810.733	20948
810.875	21028
811.016	20868
811.158	20819
811.299	20925
811.441	21013
811.582	21077
811.724	20918
811.865	20845
812.007	20765
812.148	20906
812.29	20979
812.431	21150
812.573	21272
812.714	21359
812.855	21530
812.997	21428
813.138	21549
813.279	21485
813.421	21473
813.562	21389
813.703	21192
813.845	21017
813.986	20686
814.127	20705
814.268	20450
814.41	20484
814.551	20579
814.692	20579
814.833	20339
814.974	20351
815.115	20442
815.256	20221
815.397	20275
815.539	20320
815.68	20256
815.821	20183
815.962	20248
816.103	20138
816.244	20027
816.385	20031
816.526	19928
816.666	19753
816.807	19651
816.948	19700
817.089	19708
817.23	19658
817.371	19651
817.512	19616
817.653	19647
817.793	19487
817.934	19628
818.075	19594
818.216	19609
818.356	19426
818.497	19381
818.638	19251
818.778	19282
818.919	19343
819.06	19422
819.2	19476
819.341	19499
819.481	19495
819.622	19639
819.762	19761
819.903	19788
820.043	19643
820.184	19575
820.324	19575
820.465	19689
820.605	19575
820.746	19552
820.886	19491
821.026	19552
821.167	19457
821.307	19594
821.447	19525
821.588	19392
821.728	19259
821.868	19088
822.008	18954
822.149	19023
822.289	18943
822.429	18635
822.569	18639
822.709	18684
822.849	18350
822.99	18513
823.13	18448
823.27	18384
823.41	18270
823.55	18247
823.69	18213
823.83	18353
823.97	18292
824.11	18159
824.25	17946
824.389	18098
824.529	18152
824.669	17999
824.809	18125
824.949	18129
825.089	18076
825.228	18007
825.368	17771
825.508	17901
825.648	17855
825.787	17961
825.927	17859
826.067	17718
826.206	17847
826.346	17817
826.485	17748
826.625	17912
826.765	17832
826.904	17843
827.044	17547
827.183	17585
827.323	17505
827.462	17547
827.601	17505
827.741	17414
827.88	17532
828.02	17364
828.159	17486
828.298	17436
828.437	17558
828.577	17505
828.716	17608
828.855	17372
828.994	17273
829.134	17246
829.273	17250
829.412	17208
829.551	17132
829.69	17364
829.829	17330
829.968	17444
830.107	17216
830.246	17254
830.385	17174
830.524	17105
830.663	17067
830.802	16984
830.941	16896
831.08	16896
831.219	17060
831.357	16881
831.496	17075
831.635	16759
831.774	16786
831.913	16790
832.051	16603
832.19	16611
832.329	16691
832.467	16630
832.606	16451
832.744	16584
832.883	16618
833.022	16550
833.16	16634
833.299	16634
833.437	16596
833.576	16611
833.714	16611
833.852	16649
833.991	16535
834.129	16748
834.267	16729
834.406	16630
834.544	16596
834.682	16615
834.821	16592
834.959	16721
835.097	16603
835.235	16660
835.373	16656
835.511	16656
835.65	16470
835.788	16451
835.926	16409
836.064	16428
836.202	16348
836.34	16535
836.478	16622
836.615	16440
836.753	16561
836.891	16683
837.029	16573
837.167	16577
837.305	16394
837.443	16390
837.58	16356
837.718	16554
837.856	16398
837.993	16295
838.131	16459
838.269	16265
838.406	16253
838.544	16314
838.681	16067
838.819	16017
838.956	15934
839.094	15934
839.231	15937
839.369	16131
839.506	16386
839.643	16124
839.781	15968
839.918	15861
840.055	15918
840.193	15926
840.33	15899
840.467	15884
840.604	16048
840.742	16166
840.879	15770
841.016	15793
841.153	15865
841.29	16067
841.427	15998
841.564	16086
841.701	15994
841.838	15876
841.975	15823
842.112	15808
842.249	15747
842.385	15694
842.522	15785
842.659	15717
842.796	15724
842.933	15690
843.069	15641
843.206	15519
843.343	15854
843.479	15835
843.616	15713
843.752	15477
843.889	15447
844.025	15660
844.162	15473
844.298	15587
844.435	15443
844.571	15462
844.708	15542
844.844	15534
844.98	15644
845.117	15576
845.253	15523
845.389	15329
845.525	15382
845.661	15382
845.798	15199
845.934	15416
846.07	15302
846.206	15389
846.342	15477
846.478	15249
846.614	15112
846.75	15020
846.886	15001
847.022	15180
847.158	15013
847.294	14982
847.429	15100
847.565	15070
847.701	15249
847.837	14868
847.972	14853
848.108	14967
848.244	14887
848.379	14598
848.515	14682
848.65	14575
848.786	14648
848.921	14648
849.057	14750
849.192	14788
849.328	14720
849.463	14720
849.598	14575
849.734	14473
849.869	14484
850.004	14336
850.14	14442
850.275	14389
850.41	14278
850.545	14358
850.68	14336
850.815	14454
850.95	14415
851.085	14575
851.22	14545
851.355	14400
851.49	14351
851.625	14438
851.76	14381
851.895	14267
852.03	14366
852.165	14381
852.299	14389
852.434	14518
852.569	14484
852.703	14412
852.838	14454
852.973	14606
853.107	14526
853.242	14385
853.376	14309
853.511	14100
853.645	14282
853.78	14461
853.914	14358
854.048	14263
854.183	14263
854.317	14301
854.451	14377
854.585	14252
854.72	14252
854.854	14339
854.988	14275
855.122	14389
855.256	14240
855.39	14199
855.524	14396
855.658	14381
855.792	14278
855.926	14290
856.06	14377
856.194	14427
856.327	14256
856.461	14248
856.595	14229
856.729	14248
856.862	14381
856.996	14309
857.13	14408
857.263	14423
857.397	14511
857.53	14233
857.664	14457
857.797	14313
857.931	14461
858.064	14385
858.197	14355
858.331	14351
858.464	14244
858.597	14183
858.731	14278
858.864	14336
858.997	14267
859.13	14271
859.263	14309
859.396	14332
859.529	14298
859.662	14229
859.795	14202
859.928	14298
860.061	14438
860.194	14499
860.327	14377
860.46	14294
860.592	14400
860.725	14446
860.858	14370
860.99	14278
861.123	14123
861.256	14271
861.388	14267
861.521	14811
861.653	14195
861.786	14172
861.918	14161
862.05	14275
862.183	14206
862.315	14282
862.447	14339
862.58	14244
862.712	14001
862.844	14043
862.976	14103
863.108	14142
863.24	14370
863.372	13959
863.504	13940
863.636	14065
863.768	14149
863.9	14096
864.032	13997
864.164	14065
864.296	14153
864.428	14225
864.559	14111
864.691	14168
864.823	14130
864.954	14100
865.086	14119
865.217	14111
865.349	14001
865.48	14240
865.612	14031
865.743	14225
865.875	14084
866.006	14043
866.137	14103
866.269	14084
866.4	13974
866.531	13989
866.662	13936
866.793	13986
866.924	14069
867.055	14024
867.186	14054
867.317	13989
867.448	14020
867.579	13993
867.71	13883
867.841	13909
867.972	14107
868.103	14016
868.233	14054
868.364	14153
868.495	14077
868.625	14290
868.756	14404
868.886	14180
869.017	14366
869.147	14446
869.278	14465
869.408	14389
869.539	14301
869.669	14408
869.799	14320
869.929	14514
870.06	14457
870.19	14640
870.32	14590
870.45	14724
870.58	14765
870.71	14800
870.84	14777
870.97	14655
871.1	14716
871.23	14906
871.36	14891
871.489	14754
871.619	14906
871.749	14910
871.879	14921
872.008	14975
872.138	14929
872.267	14864
872.397	14819
872.526	14697
872.656	14697
872.785	14777
872.915	14937
873.044	15058
873.173	14963
873.303	14925
873.432	15001
873.561	15077
873.69	14925
873.819	14883
873.948	15013
874.077	14883
874.206	14960
874.335	15043
874.464	15100
874.593	15214
874.722	15184
874.851	15332
874.979	15252
875.108	15184
875.237	15211
875.365	15180
875.494	15294
875.623	15329
875.751	15154
875.88	15336
876.008	15408
876.136	15450
876.265	15599
876.393	15842
876.521	15774
876.65	15789
876.778	15751
876.906	15713
877.034	15625
877.162	15637
877.29	15610
877.418	15728
877.546	15675
877.674	15671
877.802	15698
877.93	15667
878.058	15553
878.185	15538
878.313	15656
878.441	15553
878.568	15538
878.696	15618
878.824	15682
878.951	15743
879.079	15838
879.206	15991
879.333	15800
879.461	15808
879.588	15732
879.715	15915
879.842	15884
879.97	15812
880.097	15580
880.224	15496
880.351	15633
880.478	15568
880.605	15408
880.732	15500
880.859	15781
880.986	15606
881.112	15530
881.239	15374
881.366	15321
881.493	15169
881.619	15241
881.746	15165
881.872	15176
881.999	15157
882.125	15127
882.252	15279
882.378	15207
882.505	15298
882.631	15112
882.757	14963
882.883	15062
883.01	14998
883.136	14975
883.262	14834
883.388	14883
883.514	15005
883.64	15077
883.766	14918
883.892	14788
884.018	14861
884.143	14986
884.269	15051
884.395	14788
884.52	14689
884.646	14743
884.772	14663
884.897	14632
885.023	14674
885.148	14845
885.274	14724
885.399	14834
885.524	14629
885.65	14777
885.775	14804
885.9	14610
886.025	14735
886.15	14743
886.275	14644
886.4	14667
886.525	14640
886.65	14590
886.775	14629
886.9	14800
887.025	15009
887.149	14701
887.274	14522
887.399	14530
887.523	14476
887.648	14415
887.773	14533
887.897	14602
888.021	14575
888.146	14446
888.27	14549
888.395	14674
888.519	14564
888.643	14705
888.767	14530
888.891	14434
889.015	14301
889.139	14400
889.263	14393
889.387	14492
889.511	14598
889.635	14518
889.759	14370
889.883	14347
890.006	14442
890.13	14381
890.254	14305
890.377	14473
890.501	14092
890.624	14138
890.748	14267
890.871	14062
890.995	14096
891.118	14001
891.241	14054
891.364	14073
891.488	14202
891.611	14054
891.734	14107
891.857	14077
891.98	14195
892.103	14142
892.226	14183
892.349	14119
892.471	13963
892.594	14073
892.717	14123
892.839	14046
892.962	14035
893.085	14172
893.207	14138
893.33	13894
893.452	13944
893.575	14111
893.697	14103
893.819	14259
893.941	14313
894.064	14240
894.186	14065
894.308	14008
894.43	14149
894.552	14301
894.674	14229
894.796	13974
894.918	14191
895.04	14103
895.161	14313
895.283	14180
895.405	14168
895.526	14233
895.648	14153
895.769	14157
895.891	14259
896.012	14282
896.134	14313
896.255	14320
896.376	14233
896.498	14256
896.619	14336
896.74	14221
896.861	14374
896.982	14629
897.103	14731
897.224	14678
897.345	14533
897.466	14427
897.587	14568
897.708	14625
897.828	14530
897.949	14503
898.07	14488
898.19	14537
898.311	14625
898.431	14549
898.552	14606
898.672	14689
898.792	14746
898.913	14667
899.033	14625
899.153	14492
899.273	14454
899.393	14476
899.513	14503
899.633	14480
899.753	14495
899.873	14370
899.993	14594
900.113	14400
900.232	14431
900.352	14511
900.472	14423
900.591	14309
900.711	14313
900.83	14347
900.95	14415
901.069	14465
901.189	14305
901.308	14149
901.427	14046
901.546	14012
901.665	14031
901.784	14096
901.904	13963
902.023	13791
902.141	13575
902.26	13616
902.379	13666
902.498	13537
902.617	13472
902.735	13624
902.854	13567
902.973	13544
903.091	13331
903.21	13343
903.328	13301
903.446	13263
903.565	13232
903.683	13114
903.801	13061
903.919	13202
904.038	13072
904.156	12970
904.274	13095
904.392	12973
904.51	12970
904.627	12951
904.745	12844
904.863	12951
904.981	12859
905.098	12707
905.216	12677
905.334	12627
905.451	12772
905.569	12585
905.686	12700
905.803	12757
905.921	12483
906.038	12646
906.155	12433
906.272	12338
906.389	12376
906.506	12228
906.623	12266
906.74	12163
906.857	12209
906.974	12140
907.091	12380
907.208	12365
907.324	12422
907.441	12220
907.557	11958
907.674	12057
907.79	11939
907.907	11885
908.023	12057
908.139	11988
908.256	11904
908.372	11897
908.488	11885
908.604	11851
908.72	11737
908.836	11817
908.952	11783
909.068	11843
909.184	11855
909.3	11642
909.415	11855
909.531	11805
909.647	11611
909.762	11551
909.878	11585
909.993	11490
910.108	11490
910.224	11619
910.339	11573
910.454	11436
910.57	11341
910.685	11307
910.8	11596
910.915	11558
911.03	11395
911.145	11227
911.259	11204
911.374	11250
911.489	11269
911.604	11174
911.718	11094
911.833	11064
911.947	10930
912.062	10957
912.176	10972
912.291	11056
912.405	11006
912.519	11162
912.633	11284
912.748	11128
912.862	11014
912.976	10862
913.09	10759
913.204	10862
913.318	10957
913.431	10972
913.545	10930
913.659	10984
913.772	10869
913.886	10824
914	10790
914.113	10843
914.226	10908
914.34	10809
914.453	10675
914.566	10892
914.68	10721
914.793	10656
914.906	10447
915.019	10386
915.132	10462
915.245	10497
915.358	10478
915.47	10546
915.583	10508
915.696	10599
915.809	10710
915.921	10641
916.034	10481
916.146	10478
916.259	10493
916.371	10626
916.483	10565
916.595	10356
916.708	10493
916.82	10390
916.932	10462
917.044	10497
917.156	10440
917.268	10310
917.38	10405
917.491	10310
917.603	10284
917.715	10497
917.826	10413
917.938	10386
918.049	10204
918.161	10417
918.272	10379
918.384	10428
918.495	10402
918.606	10215
918.717	10131
918.828	10253
918.939	10284
919.05	10139
919.161	10181
919.272	9994
919.383	10166
919.494	10310
919.604	10459
919.715	10261
919.826	10154
919.936	10230
920.047	10333
920.157	10188
920.267	10443
920.378	10227
920.488	10287
920.598	10436
920.708	10546
920.818	10424
920.928	10447
921.038	10664
921.148	10535
921.258	10242
921.368	10223
921.477	10116
921.587	10124
921.697	10025
921.806	10154
921.916	9979
922.025	9876
922.134	9743
922.244	9736
922.353	9876
922.462	9705
922.571	9682
922.68	9515
922.789	9572
922.898	9549
923.007	9428
923.116	9477
923.224	9564
923.333	9462
923.442	9374
923.55	9325
923.659	9477
923.767	9416
923.876	9359
923.984	9466
924.092	9294
924.201	9420
924.309	9363
924.417	9355
924.525	9325
924.633	9355
924.741	10101
924.849	9135
924.956	9283
925.064	9119
925.172	9032
925.279	9157
925.387	9173
925.494	9135
925.602	9310
925.709	9165
925.816	9131
925.924	9154
926.031	9207
926.138	9169
926.245	9233
926.352	9085
926.459	9184
926.566	9230
926.673	9135
926.779	9089
926.886	8979
926.993	8902
927.099	8819
927.206	8834
927.312	8918
927.419	8956
927.525	8845
927.631	8899
927.737	8781
927.843	8731
927.95	8674
928.056	8731
928.162	8743
928.267	8891
928.373	9435
928.479	8849
928.585	8663
928.69	8769
928.796	8815
928.901	8693
929.007	8575
929.112	8708
929.218	8682
929.323	8625
929.428	8579
929.533	8724
929.638	8495
929.743	8541
929.848	8621
929.953	8556
930.058	8469
930.163	8290
930.267	8408
930.372	8442
930.477	8358
930.581	8549
930.685	8476
930.79	8294
930.894	8275
930.998	8294
931.103	8461
931.207	8062
931.311	8020
931.415	7986
931.519	7776
931.623	7852
