Data from test_V78500241_1614.txt Node
Date: Fri Mar 25 14:44:57 CST 2022
User: usil
Spectrometer: V785-0024
Trigger mode: 0
Integration Time (sec): 4.000000E-1
Scans to average: 1
Nonlinearity correction enabled: false
Boxcar width: 0
Storing dark spectrum: false
XAxis mode: Wavelengths
Number of Pixels in Spectrum: 1024
>>>>>Begin Spectral Data<<<<<
801.071	22390
801.214	22215
801.356	22002
801.499	21930
801.641	21686
801.783	21686
801.926	21770
802.068	21736
802.211	21587
802.353	21500
802.496	21294
802.638	21313
802.78	21245
802.923	21077
803.065	21047
803.208	21024
803.35	21024
803.492	21146
803.635	21135
803.777	20963
803.919	21077
804.061	21348
804.204	21116
804.346	20975
804.488	20914
804.63	20998
804.773	20998
804.915	20921
805.057	21119
805.199	20994
805.341	21119
805.483	21192
805.626	21096
805.768	20849
805.91	20975
806.052	21024
806.194	20887
806.336	21039
806.478	20941
806.62	20941
806.762	21005
806.904	21336
807.046	21405
807.188	21332
807.33	21382
807.472	21458
807.614	21283
807.756	21332
807.898	21195
808.04	21081
808.182	21123
808.324	21070
808.465	21218
808.607	21416
808.749	21485
808.891	21561
809.033	21606
809.174	21580
809.316	21481
809.458	21485
809.6	21336
809.741	21561
809.883	21564
810.025	21701
810.166	21530
810.308	21511
810.45	21507
810.591	21317
810.733	21199
810.875	21150
811.016	21138
811.158	21005
811.299	21123
811.441	21393
811.582	21313
811.724	21214
811.865	21260
812.007	21127
812.148	21077
812.29	21214
812.431	21370
812.573	21549
812.714	21454
812.855	21701
812.997	21846
813.138	21846
813.279	21774
813.421	21523
813.562	21618
813.703	21378
813.845	21344
813.986	21116
814.127	20933
814.268	20788
814.41	20834
814.551	20655
814.692	20678
814.833	20686
814.974	20743
815.115	20640
815.256	20469
815.397	20571
815.539	20450
815.68	20503
815.821	20629
815.962	20480
816.103	20461
816.244	20229
816.385	20183
816.526	20142
816.666	19997
816.807	19818
816.948	20050
817.089	19955
817.23	19856
817.371	19921
817.512	19887
817.653	19852
817.793	19803
817.934	19780
818.075	19852
818.216	19890
818.356	19811
818.497	19647
818.638	19620
818.778	19537
818.919	19506
819.06	19567
819.2	19666
819.341	19780
819.481	19647
819.622	19909
819.762	20142
819.903	19906
820.043	19772
820.184	19868
820.324	19852
820.465	19833
820.605	19936
820.746	19753
820.886	19651
821.026	19803
821.167	19746
821.307	19830
821.447	19738
821.588	19700
821.728	19499
821.868	19457
822.008	19358
822.149	19251
822.289	19168
822.429	19000
822.569	18993
822.709	18909
822.849	18726
822.99	18867
823.13	18753
823.27	18753
823.41	18506
823.55	18566
823.69	18574
823.83	18631
823.97	18479
824.11	18494
824.25	18266
824.389	18327
824.529	18384
824.669	18357
824.809	18361
824.949	18376
825.089	18426
825.228	18270
825.368	18174
825.508	18239
825.648	18213
825.787	18125
825.927	18060
826.067	18117
826.206	18034
826.346	18110
826.485	18152
826.625	18110
826.765	18190
826.904	18194
827.044	17824
827.183	17840
827.323	17668
827.462	17885
827.601	17809
827.741	17726
827.88	17665
828.02	17672
828.159	17771
828.298	17790
828.437	17874
828.577	17695
828.716	17866
828.855	17668
828.994	17600
829.134	17429
829.273	17562
829.412	17482
829.551	17455
829.69	17558
829.829	17619
829.968	17634
830.107	17600
830.246	17558
830.385	17452
830.524	17429
830.663	17364
830.802	17239
830.941	17083
831.08	17155
831.219	17250
831.357	17212
831.496	17398
831.635	17220
831.774	17075
831.913	17086
832.051	16873
832.19	16915
832.329	16896
832.467	16915
832.606	16801
832.744	16824
832.883	16755
833.022	16694
833.16	16862
833.299	16850
833.437	16843
833.576	16923
833.714	16938
833.852	16854
833.991	16801
834.129	17075
834.267	16930
834.406	16782
834.544	16991
834.682	16942
834.821	16797
834.959	17060
835.097	16847
835.235	16984
835.373	16889
835.511	16923
835.65	16793
835.788	16873
835.926	16630
836.064	16538
836.202	16588
836.34	16763
836.478	16915
836.615	16740
836.753	16854
836.891	16919
837.029	16752
837.167	16702
837.305	16771
837.443	16607
837.58	16637
837.718	16687
837.856	16641
837.993	16565
838.131	16645
838.269	16622
838.406	16565
838.544	16417
838.681	16382
838.819	16318
838.956	16192
839.094	16219
839.231	16226
839.369	16363
839.506	16668
839.643	16394
839.781	16223
839.918	16097
840.055	16154
840.193	16188
840.33	16097
840.467	16200
840.604	16207
840.742	16421
840.879	16082
841.016	16112
841.153	16051
841.29	16253
841.427	16223
841.564	16261
841.701	16211
841.838	16063
841.975	16055
842.112	16078
842.249	15918
842.385	15846
842.522	16021
842.659	15949
842.796	15892
842.933	15960
843.069	15953
843.206	15949
843.343	16086
843.479	15911
843.616	16067
843.752	15774
843.889	15682
844.025	15922
844.162	15709
844.298	15808
844.435	15675
844.571	15766
844.708	15846
844.844	15895
844.98	15918
845.117	15918
845.253	15667
845.389	15606
845.525	15713
845.661	15648
845.798	15686
845.934	15743
846.07	15667
846.206	15663
846.342	15766
846.478	15603
846.614	15477
846.75	15252
846.886	15214
847.022	15378
847.158	15412
847.294	15291
847.429	15230
847.565	15378
847.701	15500
847.837	15047
847.972	14967
848.108	15104
848.244	15195
848.379	14902
848.515	14971
848.65	14864
848.786	14883
848.921	14975
849.057	15036
849.192	15013
849.328	14921
849.463	14918
849.598	14845
849.734	14811
849.869	14800
850.004	14686
850.14	14724
850.275	14689
850.41	14579
850.545	14636
850.68	14541
850.815	14686
850.95	14648
851.085	14838
851.22	14781
851.355	14693
851.49	14629
851.625	14663
851.76	14617
851.895	14606
852.03	14549
852.165	14556
852.299	14640
852.434	14724
852.569	14587
852.703	14644
852.838	14697
852.973	14811
853.107	14697
853.242	14667
853.376	14613
853.511	14385
853.645	14560
853.78	14659
853.914	14579
854.048	14522
854.183	14476
854.317	14568
854.451	14727
854.585	14484
854.72	14511
854.854	14590
854.988	14469
855.122	14541
855.256	14434
855.39	14450
855.524	14579
855.658	14625
855.792	14594
855.926	14575
856.06	14571
856.194	14701
856.327	14514
856.461	14469
856.595	14503
856.729	14556
856.862	14602
856.996	14511
857.13	14545
857.263	14571
857.397	14682
857.53	14514
857.664	14602
857.797	14590
857.931	14587
858.064	14568
858.197	14594
858.331	14465
858.464	14442
858.597	14492
858.731	14427
858.864	14514
858.997	14461
859.13	14530
859.263	14583
859.396	14518
859.529	14450
859.662	14530
859.795	14465
859.928	14598
860.061	14686
860.194	14625
860.327	14610
860.46	14431
860.592	14606
860.725	14735
860.858	14606
860.99	14499
861.123	14484
861.256	14522
861.388	14545
861.521	15329
861.653	14400
861.786	14374
861.918	14427
862.05	14389
862.183	14556
862.315	14530
862.447	14530
862.58	14393
862.712	14240
862.844	14206
862.976	14385
863.108	14324
863.24	14819
863.372	14195
863.504	14320
863.636	14317
863.768	14408
863.9	14248
864.032	14263
864.164	14225
864.296	14294
864.428	14355
864.559	14400
864.691	14454
864.823	14393
864.954	14313
865.086	14324
865.217	14252
865.349	14210
865.48	14221
865.612	14320
865.743	14400
865.875	14309
866.006	14290
866.137	14244
866.269	14233
866.4	14275
866.531	14271
866.662	14229
866.793	14221
866.924	14347
867.055	14271
867.186	14271
867.317	14313
867.448	14259
867.579	14225
867.71	14199
867.841	14176
867.972	14259
868.103	14229
868.233	14233
868.364	14332
868.495	14324
868.625	14564
868.756	14659
868.886	14492
869.017	14503
869.147	14560
869.278	14552
869.408	14530
869.539	14492
869.669	14663
869.799	14560
869.929	14617
870.06	14640
870.19	14845
870.32	14765
870.45	14807
870.58	14929
870.71	14937
870.84	15093
870.97	14921
871.1	14880
871.23	15112
871.36	15112
871.489	15020
871.619	15070
871.749	15055
871.879	15081
872.008	15188
872.138	15188
872.267	15116
872.397	14925
872.526	14979
872.656	14880
872.785	14979
872.915	15173
873.044	15169
873.173	15097
873.303	15214
873.432	15142
873.561	15173
873.69	15222
873.819	15161
873.948	15298
874.077	15230
874.206	15150
874.335	15157
874.464	15291
874.593	15428
874.722	15450
874.851	15564
874.979	15477
875.108	15469
875.237	15408
875.365	15332
875.494	15416
875.623	15553
875.751	15420
875.88	15519
876.008	15511
876.136	15595
876.265	15979
876.393	15994
876.521	16051
876.65	15945
876.778	15899
876.906	15800
877.034	15876
877.162	15804
877.29	15808
877.418	15964
877.546	15831
877.674	16017
877.802	15907
877.93	15903
878.058	15755
878.185	15823
878.313	15835
878.441	15838
878.568	15724
878.696	15842
878.824	15876
878.951	15964
879.079	16150
879.206	16185
879.333	16006
879.461	15918
879.588	16029
879.715	16166
879.842	16230
879.97	16029
880.097	15823
880.224	15724
880.351	15854
880.478	15827
880.605	15781
880.732	15751
880.859	15934
880.986	15861
881.112	15755
881.239	15591
881.366	15534
881.493	15382
881.619	15260
881.746	15435
881.872	15424
881.999	15416
882.125	15321
882.252	15428
882.378	15443
882.505	15580
882.631	15203
882.757	15233
882.883	15321
883.01	15146
883.136	15203
883.262	15032
883.388	15058
883.514	15245
883.64	15249
883.766	15154
883.892	15047
884.018	15032
884.143	15218
884.269	15306
884.395	14937
884.52	14971
884.646	14914
884.772	14773
884.897	14811
885.023	14872
885.148	14944
885.274	15001
885.399	14971
885.524	14899
885.65	14986
885.775	14910
885.9	14967
886.025	15085
886.15	15001
886.275	14830
886.4	14880
886.525	14792
886.65	14880
886.775	14754
886.9	15047
887.025	15028
887.149	14880
887.274	14697
887.399	14686
887.523	14682
887.648	14708
887.773	14636
887.897	14735
888.021	14788
888.146	14640
888.27	14849
888.395	14891
888.519	14807
888.643	14765
888.767	14853
888.891	14663
889.015	14621
889.139	14659
889.263	14545
889.387	14712
889.511	14830
889.635	14739
889.759	14594
889.883	14636
890.006	14636
890.13	14686
890.254	14564
890.377	14560
890.501	14408
890.624	14431
890.748	14469
890.871	14339
890.995	14214
891.118	14145
891.241	14294
891.364	14298
891.488	14343
891.611	14271
891.734	14301
891.857	14339
891.98	14355
892.103	14320
892.226	14244
892.349	14237
892.471	14183
892.594	14328
892.717	14366
892.839	14271
892.962	14267
893.085	14252
893.207	14313
893.33	14218
893.452	14214
893.575	14381
893.697	14191
893.819	14351
893.941	14434
894.064	14446
894.186	14248
894.308	14161
894.43	14393
894.552	14431
894.674	14404
894.796	14138
894.918	14298
895.04	14332
895.161	14442
895.283	14419
895.405	14282
895.526	14343
895.648	14343
895.769	14358
895.891	14396
896.012	14533
896.134	14438
896.255	14476
896.376	14442
896.498	14549
896.619	14446
896.74	14518
896.861	14560
896.982	14674
897.103	14975
897.224	14701
897.345	14720
897.466	14590
897.587	14758
897.708	14872
897.828	14754
897.949	14659
898.07	14625
898.19	14602
898.311	14788
898.431	14701
898.552	14720
898.672	14823
898.792	14910
898.913	14785
899.033	14739
899.153	14693
899.273	14571
899.393	14678
899.513	14636
899.633	14743
899.753	14743
899.873	14697
899.993	14682
900.113	14617
900.232	14731
900.352	14716
900.472	14583
900.591	14564
900.711	14507
900.83	14507
900.95	14526
901.069	14640
901.189	14393
901.308	14320
901.427	14092
901.546	14225
901.665	14275
901.784	14301
901.904	14073
902.023	13951
902.141	13791
902.26	13685
902.379	13917
902.498	13852
902.617	13753
902.735	13822
902.854	13715
902.973	13738
903.091	13438
903.21	13453
903.328	13510
903.446	13335
903.565	13339
903.683	13388
903.801	13263
903.919	13297
904.038	13354
904.156	13107
904.274	13145
904.392	13137
904.51	13129
904.627	13164
904.745	13061
904.863	13137
904.981	12958
905.098	12798
905.216	12821
905.334	12939
905.451	12916
905.569	12814
905.686	12966
905.803	12825
905.921	12684
906.038	12753
906.155	12707
906.272	12525
906.389	12612
906.506	12494
906.623	12391
906.74	12426
906.857	12277
906.974	12315
907.091	12464
907.208	12563
907.324	12464
907.441	12292
907.557	12232
907.674	12133
907.79	12060
907.907	12095
908.023	12125
908.139	12144
908.256	12152
908.372	12125
908.488	12072
908.604	11969
908.72	11916
908.836	11923
908.952	11866
909.068	11897
909.184	12034
909.3	11920
909.415	12011
909.531	11893
909.647	11767
909.762	11729
909.878	11592
909.993	11699
910.108	11638
910.224	11657
910.339	11589
910.454	11551
910.57	11493
910.685	11501
910.8	11779
910.915	11649
911.03	11516
911.145	11364
911.259	11406
911.374	11322
911.489	11311
911.604	11292
911.718	11151
911.833	11094
911.947	11094
912.062	10980
912.176	11121
912.291	11117
912.405	11067
912.519	11231
912.633	11337
912.748	11174
912.862	11121
912.976	11075
913.09	10885
913.204	10908
913.318	10976
913.431	11079
913.545	11174
913.659	11109
913.772	11022
913.886	10881
914	10889
914.113	10946
914.226	11033
914.34	10976
914.453	10843
914.566	10911
914.68	10774
914.793	10896
914.906	10649
915.019	10565
915.132	10580
915.245	10611
915.358	10588
915.47	10637
915.583	10672
915.696	10618
915.809	10797
915.921	10740
916.034	10668
916.146	10599
916.259	10565
916.371	10645
916.483	10577
916.595	10565
916.708	10550
916.82	10538
916.932	10573
917.044	10455
917.156	10542
917.268	10402
917.38	10478
917.491	10424
917.603	10474
917.715	10527
917.826	10615
917.938	10485
918.049	10367
918.161	10459
918.272	10637
918.384	10626
918.495	10470
918.606	10341
918.717	10261
918.828	10375
918.939	10363
919.05	10196
919.161	10371
919.272	10097
919.383	10306
919.494	10405
919.604	10508
919.715	10379
919.826	10242
919.936	10303
920.047	10394
920.157	10299
920.267	10550
920.378	10352
920.488	10382
920.598	10546
920.708	10675
920.818	10538
920.928	10588
921.038	10744
921.148	10668
921.258	10379
921.368	10318
921.477	10215
921.587	10154
921.697	10063
921.806	10177
921.916	10101
922.025	9941
922.134	9915
922.244	9800
922.353	9911
922.462	9816
922.571	9713
922.68	9648
922.789	9572
922.898	9572
923.007	9526
923.116	9656
923.224	9587
923.333	9641
923.442	9454
923.55	9469
923.659	9492
923.767	9561
923.876	9454
923.984	9549
924.092	9351
924.201	9447
924.309	9488
924.417	9473
924.525	9359
924.633	9405
924.741	10207
924.849	9165
924.956	9416
925.064	9207
925.172	9081
925.279	9207
925.387	9275
925.494	9249
925.602	9389
925.709	9306
925.816	9119
925.924	9272
926.031	9367
926.138	9233
926.245	9275
926.352	9169
926.459	9336
926.566	9355
926.673	9150
926.779	9192
926.886	9039
926.993	8994
927.099	8994
927.206	8941
927.312	8857
927.419	8963
927.525	8952
927.631	8998
927.737	8838
927.843	8834
927.95	8727
928.056	8899
928.162	8826
928.267	8834
928.373	9439
928.479	8834
928.585	8644
928.69	8788
928.796	8826
928.901	8754
929.007	8667
929.112	8762
929.218	8678
929.323	8712
929.428	8659
929.533	8807
929.638	8617
929.743	8655
929.848	8682
929.953	8659
930.058	8575
930.163	8442
930.267	8457
930.372	8579
930.477	8355
930.581	8727
930.685	8552
930.79	8324
930.894	8366
930.998	8385
931.103	8518
931.207	8206
931.311	8176
931.415	8039
931.519	7887
931.623	7913
