Data from test_V78500241_333.txt Node
Date: Fri Mar 25 14:36:02 CST 2022
User: usil
Spectrometer: V785-0024
Trigger mode: 0
Integration Time (sec): 4.000000E-1
Scans to average: 1
Nonlinearity correction enabled: false
Boxcar width: 0
Storing dark spectrum: false
XAxis mode: Wavelengths
Number of Pixels in Spectrum: 1024
>>>>>Begin Spectral Data<<<<<
801.071	26948
801.214	26948
801.356	26629
801.499	26530
801.641	26400
801.783	26412
801.926	26358
802.068	26453
802.211	26168
802.353	26092
802.496	26039
802.638	25966
802.78	25978
802.923	25982
803.065	25807
803.208	25852
803.35	25837
803.492	25944
803.635	25974
803.777	25944
803.919	26043
804.061	26305
804.204	25868
804.346	25746
804.488	25826
804.63	25898
804.773	25860
804.915	25902
805.057	26103
805.199	25921
805.341	25997
805.483	25883
805.626	25936
805.768	25879
805.91	26024
806.052	25917
806.194	25803
806.336	26039
806.478	25959
806.62	25875
806.762	26016
806.904	26294
807.046	26313
807.188	26221
807.33	26381
807.472	26313
807.614	26286
807.756	26294
807.898	26081
808.04	26149
808.182	26172
808.324	26149
808.465	25955
808.607	26301
808.749	26419
808.891	26632
809.033	26594
809.174	26465
809.316	26450
809.458	26579
809.6	26336
809.741	26575
809.883	26423
810.025	26686
810.166	26667
810.308	26571
810.45	26575
810.591	26503
810.733	26221
810.875	26343
811.016	26252
811.158	26309
811.299	26434
811.441	26385
811.582	26560
811.724	26446
811.865	26199
812.007	26237
812.148	26320
812.29	26366
812.431	26343
812.573	26629
812.714	26533
812.855	26686
812.997	26857
813.138	26910
813.279	26940
813.421	26743
813.562	26758
813.703	26617
813.845	26381
813.986	26157
814.127	26054
814.268	25871
814.41	25898
814.551	25765
814.692	25849
814.833	25738
814.974	25807
815.115	25947
815.256	25575
815.397	25658
815.539	25620
815.68	25605
815.821	25396
815.962	25643
816.103	25578
816.244	25411
816.385	25152
816.526	25308
816.666	25217
816.807	25023
816.948	24973
817.089	25061
817.23	25004
817.371	25038
817.512	25004
817.653	24928
817.793	24867
817.934	24966
818.075	24928
818.216	24928
818.356	24848
818.497	24817
818.638	24608
818.778	24623
818.919	24646
819.06	24673
819.2	24859
819.341	24882
819.481	24859
819.622	24939
819.762	25145
819.903	25027
820.043	25023
820.184	24943
820.324	24867
820.465	25088
820.605	24863
820.746	24977
820.886	24745
821.026	24882
821.167	24875
821.307	24859
821.447	24825
821.588	24753
821.728	24604
821.868	24464
822.008	24262
822.149	24281
822.289	24224
822.429	23996
822.569	23805
822.709	23897
822.849	23764
822.99	23798
823.13	23634
823.27	23672
823.41	23585
823.55	23520
823.69	23558
823.83	23497
823.97	23554
824.11	23330
824.25	23368
824.389	23330
824.529	23242
824.669	23223
824.809	23436
824.949	23334
825.089	23376
825.228	23284
825.368	23155
825.508	23170
825.648	23079
825.787	23220
825.927	23162
826.067	23147
826.206	23117
826.346	23094
826.485	23098
826.625	23086
826.765	23178
826.904	23197
827.044	22976
827.183	22923
827.323	22615
827.462	22820
827.601	22767
827.741	22797
827.88	22660
828.02	22664
828.159	22683
828.298	22824
828.437	22710
828.577	22683
828.716	22873
828.855	22603
828.994	22504
829.134	22523
829.273	22531
829.412	22519
829.551	22512
829.69	22390
829.829	22493
829.968	22497
830.107	22538
830.246	22440
830.385	22455
830.524	22291
830.663	22192
830.802	22105
830.941	22070
831.08	22074
831.219	22013
831.357	22086
831.496	22223
831.635	21994
831.774	21926
831.913	21800
832.051	21663
832.19	21808
832.329	21911
832.467	21660
832.606	21694
832.744	21774
832.883	21728
833.022	21599
833.16	21701
833.299	21656
833.437	21641
833.576	21759
833.714	21793
833.852	21717
833.991	21686
834.129	21709
834.267	21762
834.406	21618
834.544	21781
834.682	21751
834.821	21568
834.959	21724
835.097	21564
835.235	21694
835.373	21675
835.511	21633
835.65	21473
835.788	21507
835.926	21447
836.064	21283
836.202	21340
836.34	21504
836.478	21606
836.615	21504
836.753	21622
836.891	21682
837.029	21576
837.167	21492
837.305	21454
837.443	21359
837.58	21405
837.718	21348
837.856	21412
837.993	21268
838.131	21325
838.269	21279
838.406	21294
838.544	21142
838.681	21039
838.819	21024
838.956	20891
839.094	20933
839.231	20918
839.369	20914
839.506	21165
839.643	21074
839.781	20853
839.918	20857
840.055	20735
840.193	20716
840.33	20655
840.467	20697
840.604	20834
840.742	21001
840.879	20541
841.016	20537
841.153	20598
841.29	20857
841.427	20712
841.564	20902
841.701	20663
841.838	20651
841.975	20655
842.112	20640
842.249	20594
842.385	20370
842.522	20613
842.659	20492
842.796	20400
842.933	20385
843.069	20412
843.206	20408
843.343	20526
843.479	20404
843.616	20450
843.752	20259
843.889	20206
844.025	20347
844.162	20176
844.298	20294
844.435	20077
844.571	20134
844.708	20275
844.844	20252
844.98	20157
845.117	20259
845.253	20214
845.389	20161
845.525	20256
845.661	20103
845.798	20001
845.934	20172
846.07	19963
846.206	20138
846.342	20119
846.478	20016
846.614	19822
846.75	19639
846.886	19571
847.022	19723
847.158	19662
847.294	19715
847.429	19696
847.565	19643
847.701	19849
847.837	19457
847.972	19343
848.108	19487
848.244	19480
848.379	19297
848.515	19259
848.65	19278
848.786	19175
848.921	19141
849.057	19381
849.192	19263
849.328	19308
849.463	19289
849.598	19198
849.734	19069
849.869	19129
850.004	18993
850.14	18905
850.275	18958
850.41	18875
850.545	18901
850.68	18821
850.815	19031
850.95	18939
851.085	19065
851.22	18970
851.355	19015
851.49	18935
851.625	18878
851.76	18901
851.895	18741
852.03	18848
852.165	18954
852.299	18897
852.434	18962
852.569	18916
852.703	18928
852.838	18894
852.973	19133
853.107	18970
853.242	18875
853.376	18715
853.511	18715
853.645	18776
853.78	18863
853.914	18852
854.048	18760
854.183	18844
854.317	18658
854.451	18932
854.585	18715
854.72	18730
854.854	18810
854.988	18696
855.122	18795
855.256	18620
855.39	18707
855.524	18837
855.658	18844
855.792	18848
855.926	18829
856.06	18791
856.194	18806
856.327	18734
856.461	18692
856.595	18692
856.729	18734
856.862	18798
856.996	18821
857.13	18920
857.263	18913
857.397	18871
857.53	18684
857.664	18726
857.797	18764
857.931	18787
858.064	18779
858.197	18711
858.331	18669
858.464	18654
858.597	18582
858.731	18646
858.864	18745
858.997	18768
859.13	18715
859.263	18707
859.396	18783
859.529	18772
859.662	18707
859.795	18665
859.928	18669
860.061	18802
860.194	18802
860.327	18673
860.46	18707
860.592	18798
860.725	18760
860.858	18852
860.99	18661
861.123	18612
861.256	18661
861.388	18661
861.521	19392
861.653	18467
861.786	18544
861.918	18506
862.05	18601
862.183	18684
862.315	18700
862.447	18806
862.58	18555
862.712	18490
862.844	18395
862.976	18486
863.108	18490
863.24	18700
863.372	18502
863.504	18407
863.636	18429
863.768	18517
863.9	18403
864.032	18319
864.164	18395
864.296	18414
864.428	18418
864.559	18467
864.691	18464
864.823	18418
864.954	18441
865.086	18426
865.217	18330
865.349	18228
865.48	18285
865.612	18350
865.743	18410
865.875	18388
866.006	18330
866.137	18277
866.269	18388
866.4	18353
866.531	18254
866.662	18190
866.793	18285
866.924	18346
867.055	18292
867.186	18235
867.317	18323
867.448	18163
867.579	18311
867.71	18323
867.841	18220
867.972	18254
868.103	18220
868.233	18228
868.364	18330
868.495	18407
868.625	18490
868.756	18612
868.886	18441
869.017	18513
869.147	18544
869.278	18540
869.408	18502
869.539	18437
869.669	18582
869.799	18612
869.929	18540
870.06	18604
870.19	18825
870.32	18776
870.45	18901
870.58	18875
870.71	18970
870.84	18973
870.97	18821
871.1	18840
871.23	19004
871.36	19061
871.489	19012
871.619	19110
871.749	19012
871.879	19031
872.008	19168
872.138	19080
872.267	19080
872.397	18951
872.526	18894
872.656	18935
872.785	18863
872.915	19110
873.044	19217
873.173	19091
873.303	19152
873.432	19190
873.561	19289
873.69	19198
873.819	19107
873.948	19202
874.077	19118
874.206	19061
874.335	19084
874.464	19297
874.593	19476
874.722	19392
874.851	19499
874.979	19369
875.108	19415
875.237	19403
875.365	19263
875.494	19388
875.623	19533
875.751	19270
875.88	19457
876.008	19514
876.136	19624
876.265	19761
876.393	19940
876.521	19864
876.65	19947
876.778	19746
876.906	19700
877.034	19795
877.162	19765
877.29	19723
877.418	19852
877.546	19772
877.674	19845
877.802	19750
877.93	19795
878.058	19708
878.185	19658
878.313	19723
878.441	19700
878.568	19559
878.696	19727
878.824	19868
878.951	19978
879.079	19947
879.206	20115
879.333	19917
879.461	19871
879.588	20008
879.715	20020
879.842	20088
879.97	19879
880.097	19643
880.224	19605
880.351	19639
880.478	19689
880.605	19556
880.732	19632
880.859	19784
880.986	19639
881.112	19590
881.239	19491
881.366	19434
881.493	19202
881.619	19285
881.746	19247
881.872	19335
881.999	19293
882.125	19236
882.252	19335
882.378	19327
882.505	19274
882.631	19145
882.757	19023
882.883	19118
883.01	19057
883.136	18993
883.262	18951
883.388	18901
883.514	18947
883.64	18939
883.766	18966
883.892	18760
884.018	18905
884.143	18989
884.269	19012
884.395	18844
884.52	18627
884.646	18711
884.772	18654
884.897	18570
885.023	18745
885.148	18707
885.274	18840
885.399	18688
885.524	18707
885.65	18703
885.775	18646
885.9	18684
886.025	18772
886.15	18684
886.275	18616
886.4	18448
886.525	18521
886.65	18517
886.775	18627
886.9	18646
887.025	18878
887.149	18669
887.274	18445
887.399	18448
887.523	18498
887.648	18452
887.773	18308
887.897	18555
888.021	18471
888.146	18475
888.27	18528
888.395	18536
888.519	18467
888.643	18460
888.767	18452
888.891	18330
889.015	18197
889.139	18273
889.263	18209
889.387	18266
889.511	18418
889.635	18365
889.759	18197
889.883	18239
890.006	18178
890.13	18353
890.254	18129
890.377	18155
890.501	18011
890.624	17946
890.748	18114
890.871	17893
890.995	17783
891.118	17737
891.241	17863
891.364	17855
891.488	18026
891.611	17855
891.734	17847
891.857	17920
891.98	17897
892.103	17946
892.226	17840
892.349	17794
892.471	17600
892.594	17813
892.717	17775
892.839	17843
892.962	17859
893.085	17885
893.207	17779
893.33	17684
893.452	17657
893.575	17809
893.697	17733
893.819	17988
893.941	17996
894.064	17916
894.186	17741
894.308	17722
894.43	17901
894.552	17908
894.674	17935
894.796	17691
894.918	17745
895.04	17817
895.161	17851
895.283	17794
895.405	17767
895.526	17908
895.648	17828
895.769	17882
895.891	17821
896.012	17923
896.134	17855
896.255	17851
896.376	17786
896.498	17912
896.619	18049
896.74	18026
896.861	17992
896.982	18190
897.103	18361
897.224	18155
897.345	18121
897.466	18045
897.587	18136
897.708	18262
897.828	18129
897.949	18087
898.07	17893
898.19	18022
898.311	18194
898.431	18076
898.552	18163
898.672	18159
898.792	18174
898.913	18087
899.033	17916
899.153	17984
899.273	17691
899.393	17847
899.513	17931
899.633	17859
899.753	17855
899.873	17847
899.993	17885
900.113	17813
900.232	17885
900.352	17779
900.472	17824
900.591	17672
900.711	17695
900.83	17657
900.95	17752
901.069	17729
901.189	17592
901.308	17410
901.427	17296
901.546	17326
901.665	17410
901.784	17299
901.904	17185
902.023	17105
902.141	16869
902.26	16866
902.379	16877
902.498	16797
902.617	16847
902.735	16828
902.854	16858
902.973	16805
903.091	16546
903.21	16561
903.328	16516
903.446	16451
903.565	16356
903.683	16325
903.801	16272
903.919	16211
904.038	16318
904.156	16116
904.274	16158
904.392	16135
904.51	16112
904.627	16036
904.745	16101
904.863	16268
904.981	15903
905.098	15774
905.216	15785
905.334	15838
905.451	15800
905.569	15709
905.686	15739
905.803	15869
905.921	15481
906.038	15755
906.155	15564
906.272	15473
906.389	15466
906.506	15424
906.623	15408
906.74	15340
906.857	15237
906.974	15252
907.091	15355
907.208	15378
907.324	15313
907.441	15230
907.557	15100
907.674	15081
907.79	14910
907.907	15043
908.023	15043
908.139	14975
908.256	14967
908.372	14941
908.488	14876
908.604	14800
908.72	14712
908.836	14754
908.952	14697
909.068	14758
909.184	14906
909.3	14659
909.415	14727
909.531	14655
909.647	14488
909.762	14503
909.878	14434
909.993	14480
910.108	14355
910.224	14370
910.339	14469
910.454	14358
910.57	14282
910.685	14290
910.8	14450
910.915	14408
911.03	14271
911.145	14119
911.259	14058
911.374	14035
911.489	14043
911.604	13970
911.718	13890
911.833	13799
911.947	13731
912.062	13632
912.176	13795
912.291	13849
912.405	13769
912.519	14088
912.633	13932
912.748	13932
912.862	13894
912.976	13670
913.09	13582
913.204	13594
913.318	13689
913.431	13757
913.545	13655
913.659	13822
913.772	13624
913.886	13582
914	13460
914.113	13582
914.226	13712
914.34	13529
914.453	13316
914.566	13525
914.68	13460
914.793	13381
914.906	13251
915.019	13141
915.132	13069
915.245	13084
915.358	13152
915.47	13206
915.583	13133
915.696	13225
915.809	13240
915.921	13324
916.034	13206
916.146	13114
916.259	13038
916.371	13160
916.483	13133
916.595	12989
916.708	13050
916.82	13000
916.932	13126
917.044	12962
917.156	13000
917.268	12875
917.38	12951
917.491	12840
917.603	12829
917.715	12989
917.826	12909
917.938	12810
918.049	12745
918.161	12779
918.272	13015
918.384	12932
918.495	12863
918.606	12757
918.717	12642
918.828	12715
918.939	12703
919.05	12684
919.161	12589
919.272	12452
919.383	12513
919.494	12741
919.604	12897
919.715	12623
919.826	12597
919.936	12608
920.047	12829
920.157	12604
920.267	12810
920.378	12665
920.488	12601
920.598	12783
920.708	12954
920.818	12779
920.928	12814
921.038	12890
921.148	12871
921.258	12677
921.368	12517
921.477	12388
921.587	12429
921.697	12254
921.806	12437
921.916	12300
922.025	12125
922.134	12003
922.244	11954
922.353	12091
922.462	11984
922.571	11824
922.68	11805
922.789	11843
922.898	11710
923.007	11630
923.116	11752
923.224	11703
923.333	11657
923.442	11642
923.55	11551
923.659	11619
923.767	11623
923.876	11596
923.984	11695
924.092	11455
924.201	11615
924.309	11566
924.417	11505
924.525	11444
924.633	11459
924.741	12228
924.849	11239
924.956	11452
925.064	11315
925.172	11265
925.279	11185
925.387	11330
925.494	11261
925.602	11349
925.709	11242
925.816	11220
925.924	11345
926.031	11273
926.138	11277
926.245	11189
926.352	11025
926.459	11235
926.566	11337
926.673	11136
926.779	11071
926.886	11083
926.993	10930
927.099	10877
927.206	10835
927.312	10828
927.419	10942
927.525	10839
927.631	10949
927.737	10858
927.843	10717
927.95	10672
928.056	10763
928.162	10752
928.267	10809
928.373	11330
928.479	10892
928.585	10573
928.69	10740
928.796	10733
928.901	10573
929.007	10527
929.112	10596
929.218	10615
929.323	10485
929.428	10447
929.533	10554
929.638	10398
929.743	10428
929.848	10500
929.953	10455
930.058	10253
930.163	10143
930.267	10188
930.372	10280
930.477	10169
930.581	10413
930.685	10253
930.79	10135
930.894	10116
930.998	10063
931.103	10246
931.207	9838
931.311	9766
931.415	9720
931.519	9526
931.623	9492
