Data from test_V78500241_2050.txt Node
Date: Fri Mar 25 14:47:59 CST 2022
User: usil
Spectrometer: V785-0024
Trigger mode: 0
Integration Time (sec): 4.000000E-1
Scans to average: 1
Nonlinearity correction enabled: false
Boxcar width: 0
Storing dark spectrum: false
XAxis mode: Wavelengths
Number of Pixels in Spectrum: 1024
>>>>>Begin Spectral Data<<<<<
801.071	22207
801.214	21918
801.356	21701
801.499	21606
801.641	21534
801.783	21416
801.926	21412
802.068	21424
802.211	21473
802.353	21325
802.496	21104
802.638	20948
802.78	20956
802.923	20864
803.065	20823
803.208	20590
803.35	20891
803.492	20956
803.635	20960
803.777	20731
803.919	21009
804.061	21150
804.204	20788
804.346	20739
804.488	20750
804.63	20708
804.773	20724
804.915	20686
805.057	20902
805.199	20712
805.341	20773
805.483	20864
805.626	20788
805.768	20636
805.91	20785
806.052	20750
806.194	20781
806.336	20872
806.478	20796
806.62	20613
806.762	20830
806.904	21051
807.046	21138
807.188	20952
807.33	20963
807.472	21081
807.614	20944
807.756	21032
807.898	20792
808.04	20769
808.182	20701
808.324	20895
808.465	20853
808.607	20960
808.749	21142
808.891	21157
809.033	21275
809.174	21313
809.316	21112
809.458	21093
809.6	21036
809.741	21165
809.883	21192
810.025	21264
810.166	21230
810.308	21279
810.45	21203
810.591	21058
810.733	20982
810.875	20982
811.016	20819
811.158	20792
811.299	20845
811.441	20948
811.582	21009
811.724	20883
811.865	20769
812.007	20910
812.148	20895
812.29	20914
812.431	20910
812.573	21180
812.714	21279
812.855	21359
812.997	21431
813.138	21549
813.279	21504
813.421	21336
813.562	21348
813.703	21176
813.845	21081
813.986	20811
814.127	20549
814.268	20587
814.41	20457
814.551	20480
814.692	20514
814.833	20263
814.974	20202
815.115	20355
815.256	20290
815.397	20362
815.539	20298
815.68	20176
815.821	20168
815.962	20202
816.103	20218
816.244	20035
816.385	19871
816.526	19791
816.666	19704
816.807	19552
816.948	19658
817.089	19841
817.23	19689
817.371	19590
817.512	19582
817.653	19487
817.793	19464
817.934	19533
818.075	19567
818.216	19620
818.356	19403
818.497	19320
818.638	19244
818.778	19221
818.919	19274
819.06	19126
819.2	19457
819.341	19293
819.481	19392
819.622	19578
819.762	19753
819.903	19685
820.043	19548
820.184	19624
820.324	19616
820.465	19628
820.605	19518
820.746	19491
820.886	19426
821.026	19586
821.167	19533
821.307	19472
821.447	19502
821.588	19373
821.728	19327
821.868	19076
822.008	19000
822.149	19038
822.289	18939
822.429	18779
822.569	18669
822.709	18620
822.849	18540
822.99	18380
823.13	18342
823.27	18372
823.41	18239
823.55	18311
823.69	18205
823.83	18281
823.97	18220
824.11	18019
824.25	18034
824.389	18003
824.529	18022
824.669	18011
824.809	18216
824.949	18152
825.089	18194
825.228	17977
825.368	17897
825.508	17771
825.648	17874
825.787	17942
825.927	17859
826.067	17680
826.206	17623
826.346	17832
826.485	17790
826.625	17710
826.765	17851
826.904	17695
827.044	17649
827.183	17657
827.323	17474
827.462	17520
827.601	17562
827.741	17543
827.88	17497
828.02	17383
828.159	17417
828.298	17448
828.437	17619
828.577	17467
828.716	17684
828.855	17474
828.994	17296
829.134	17242
829.273	17197
829.412	17200
829.551	17159
829.69	17227
829.829	17208
829.968	17387
830.107	17425
830.246	17326
830.385	17181
830.524	17105
830.663	17083
830.802	16946
830.941	16892
831.08	16839
831.219	17018
831.357	16862
831.496	17029
831.635	16801
831.774	16702
831.913	16755
832.051	16592
832.19	16618
832.329	16710
832.467	16599
832.606	16584
832.744	16573
832.883	16497
833.022	16516
833.16	16592
833.299	16637
833.437	16527
833.576	16649
833.714	16622
833.852	16679
833.991	16626
834.129	16687
834.267	16698
834.406	16580
834.544	16592
834.682	16626
834.821	16630
834.959	16839
835.097	16592
835.235	16725
835.373	16592
835.511	16637
835.65	16474
835.788	16607
835.926	16329
836.064	16310
836.202	16428
836.34	16459
836.478	16550
836.615	16489
836.753	16577
836.891	16588
837.029	16637
837.167	16527
837.305	16421
837.443	16375
837.58	16398
837.718	16371
837.856	16409
837.993	16402
838.131	16337
838.269	16314
838.406	16352
838.544	16314
838.681	16101
838.819	16112
838.956	15876
839.094	15956
839.231	16059
839.369	16097
839.506	16371
839.643	16158
839.781	16010
839.918	15934
840.055	15850
840.193	15953
840.33	15857
840.467	15934
840.604	15964
840.742	16158
840.879	15789
841.016	15827
841.153	15907
841.29	16101
841.427	15991
841.564	16048
841.701	16006
841.838	15873
841.975	15892
842.112	15880
842.249	15812
842.385	15778
842.522	15884
842.659	15762
842.796	15705
842.933	15728
843.069	15705
843.206	15724
843.343	15831
843.479	15797
843.616	15789
843.752	15458
843.889	15625
844.025	15762
844.162	15481
844.298	15709
844.435	15439
844.571	15462
844.708	15519
844.844	15720
844.98	15652
845.117	15618
845.253	15496
845.389	15279
845.525	15431
845.661	15477
845.798	15294
845.934	15340
846.07	15359
846.206	15344
846.342	15431
846.478	15340
846.614	15222
846.75	14986
846.886	15100
847.022	15142
847.158	15043
847.294	15089
847.429	15066
847.565	15070
847.701	15340
847.837	14864
847.972	14792
848.108	15058
848.244	14914
848.379	14701
848.515	14678
848.65	14629
848.786	14708
848.921	14727
849.057	14765
849.192	14781
849.328	14785
849.463	14746
849.598	14731
849.734	14587
849.869	14480
850.004	14473
850.14	14431
850.275	14495
850.41	14366
850.545	14442
850.68	14408
850.815	14503
850.95	14522
851.085	14556
851.22	14549
851.355	14507
851.49	14389
851.625	14431
851.76	14450
851.895	14324
852.03	14332
852.165	14419
852.299	14522
852.434	14571
852.569	14522
852.703	14385
852.838	14465
852.973	14663
853.107	14602
853.242	14366
853.376	14412
853.511	14305
853.645	14237
853.78	14393
853.914	14278
854.048	14389
854.183	14328
854.317	14278
854.451	14533
854.585	14347
854.72	14286
854.854	14450
854.988	14309
855.122	14294
855.256	14183
855.39	14309
855.524	14492
855.658	14431
855.792	14374
855.926	14339
856.06	14374
856.194	14473
856.327	14343
856.461	14343
856.595	14275
856.729	14336
856.862	14442
856.996	14324
857.13	14454
857.263	14358
857.397	14446
857.53	14324
857.664	14423
857.797	14290
857.931	14476
858.064	14427
858.197	14408
858.331	14229
858.464	14275
858.597	14180
858.731	14385
858.864	14275
858.997	14294
859.13	14298
859.263	14358
859.396	14400
859.529	14324
859.662	14267
859.795	14267
859.928	14442
860.061	14522
860.194	14412
860.327	14248
860.46	14210
860.592	14370
860.725	14454
860.858	14461
860.99	14305
861.123	14233
861.256	14278
861.388	14248
861.521	15135
861.653	14256
861.786	14153
861.918	14233
862.05	14332
862.183	14256
862.315	14313
862.447	14336
862.58	14271
862.712	13989
862.844	14043
862.976	14115
863.108	14103
863.24	14499
863.372	14134
863.504	14024
863.636	14046
863.768	14107
863.9	14138
864.032	14115
864.164	14031
864.296	14084
864.428	14153
864.559	14252
864.691	14103
864.823	14157
864.954	14142
865.086	14168
865.217	14103
865.349	14069
865.48	14062
865.612	14111
865.743	14134
865.875	14134
866.006	14065
866.137	14035
866.269	14107
866.4	14020
866.531	14008
866.662	14001
866.793	14035
866.924	14058
867.055	14054
867.186	14069
867.317	14012
867.448	14058
867.579	14058
867.71	14077
867.841	13947
867.972	14115
868.103	14069
868.233	14069
868.364	14176
868.495	14126
868.625	14347
868.756	14412
868.886	14259
869.017	14324
869.147	14492
869.278	14446
869.408	14442
869.539	14389
869.669	14488
869.799	14427
869.929	14423
870.06	14461
870.19	14697
870.32	14613
870.45	14632
870.58	14682
870.71	14857
870.84	14731
870.97	14743
871.1	14777
871.23	14868
871.36	14918
871.489	14868
871.619	14925
871.749	14941
871.879	14906
872.008	15074
872.138	14933
872.267	14887
872.397	14781
872.526	14804
872.656	14739
872.785	14781
872.915	14956
873.044	15039
873.173	15009
873.303	15055
873.432	15047
873.561	15085
873.69	14960
873.819	15017
873.948	15108
874.077	14956
874.206	15001
874.335	15028
874.464	15104
874.593	15233
874.722	15211
874.851	15389
874.979	15359
875.108	15291
875.237	15169
875.365	15154
875.494	15405
875.623	15287
875.751	15245
875.88	15389
876.008	15374
876.136	15530
876.265	15694
876.393	15861
876.521	15819
876.65	15739
876.778	15732
876.906	15652
877.034	15614
877.162	15599
877.29	15663
877.418	15739
877.546	15682
877.674	15660
877.802	15717
877.93	15701
878.058	15762
878.185	15610
878.313	15614
878.441	15694
878.568	15660
878.696	15652
878.824	15705
878.951	15800
879.079	15915
879.206	15968
879.333	15850
879.461	15808
879.588	15781
879.715	15903
879.842	16017
879.97	15724
880.097	15542
880.224	15580
880.351	15629
880.478	15599
880.605	15622
880.732	15549
880.859	15835
880.986	15553
881.112	15625
881.239	15367
881.366	15344
881.493	15222
881.619	15222
881.746	15154
881.872	15317
881.999	15169
882.125	15135
882.252	15310
882.378	15230
882.505	15378
882.631	15173
882.757	14929
882.883	15077
883.01	15028
883.136	14933
883.262	14857
883.388	14929
883.514	15150
883.64	15093
883.766	15024
883.892	14807
884.018	14910
884.143	15039
884.269	15138
884.395	14769
884.52	14708
884.646	14743
884.772	14617
884.897	14587
885.023	14678
885.148	14826
885.274	14857
885.399	14933
885.524	14746
885.65	14610
885.775	14743
885.9	14655
886.025	14834
886.15	14781
886.275	14727
886.4	14735
886.525	14731
886.65	14610
886.775	14697
886.9	14902
887.025	14956
887.149	14712
887.274	14625
887.399	14514
887.523	14541
887.648	14533
887.773	14400
887.897	14674
888.021	14678
888.146	14484
888.27	14518
888.395	14708
888.519	14701
888.643	14644
888.767	14579
888.891	14469
889.015	14347
889.139	14457
889.263	14431
889.387	14598
889.511	14678
889.635	14568
889.759	14484
889.883	14385
890.006	14396
890.13	14469
890.254	14358
890.377	14408
890.501	14202
890.624	14221
890.748	14328
890.871	14199
890.995	14020
891.118	14024
891.241	14088
891.364	14187
891.488	14248
891.611	14138
891.734	14161
891.857	14183
891.98	14119
892.103	14267
892.226	14195
892.349	14039
892.471	13986
892.594	14142
892.717	14153
892.839	14142
892.962	14157
893.085	14149
893.207	14153
893.33	14123
893.452	14096
893.575	14016
893.697	14149
893.819	14351
893.941	14278
894.064	14244
894.186	14168
894.308	14233
894.43	14214
894.552	14301
894.674	14233
894.796	14145
894.918	14115
895.04	14161
895.161	14374
895.283	14259
895.405	14195
895.526	14221
895.648	14229
895.769	14161
895.891	14259
896.012	14427
896.134	14343
896.255	14309
896.376	14282
896.498	14267
896.619	14366
896.74	14225
896.861	14332
896.982	14689
897.103	14823
897.224	14629
897.345	14571
897.466	14613
897.587	14571
897.708	14629
897.828	14644
897.949	14594
898.07	14450
898.19	14511
898.311	14743
898.431	14541
898.552	14610
898.672	14743
898.792	14724
898.913	14625
899.033	14613
899.153	14446
899.273	14514
899.393	14507
899.513	14503
899.633	14514
899.753	14442
899.873	14442
899.993	14503
900.113	14476
900.232	14499
900.352	14434
900.472	14434
900.591	14412
900.711	14358
900.83	14278
900.95	14507
901.069	14530
901.189	14324
901.308	14065
901.427	14031
901.546	14069
901.665	14005
901.784	14005
901.904	13871
902.023	13807
902.141	13689
902.26	13529
902.379	13719
902.498	13613
902.617	13613
902.735	13696
902.854	13632
902.973	13521
903.091	13339
903.21	13263
903.328	13327
903.446	13365
903.565	13076
903.683	13171
903.801	13095
903.919	13202
904.038	13175
904.156	12913
904.274	12996
904.392	13008
904.51	13034
904.627	13015
904.745	13072
904.863	13034
904.981	12787
905.098	12719
905.216	12730
905.334	12715
905.451	12749
905.569	12730
905.686	12749
905.803	12650
905.921	12483
906.038	12582
906.155	12452
906.272	12395
906.389	12399
906.506	12258
906.623	12239
906.74	12296
906.857	12182
906.974	12197
907.091	12357
907.208	12399
907.324	12289
907.441	12197
907.557	12167
907.674	12076
907.79	11996
907.907	12003
908.023	12038
908.139	12064
908.256	12007
908.372	11855
908.488	11977
908.604	11832
908.72	11710
908.836	11828
908.952	11748
909.068	11859
909.184	11866
909.3	11779
909.415	11851
909.531	11672
909.647	11581
909.762	11554
909.878	11474
909.993	11577
910.108	11463
910.224	11474
910.339	11547
910.454	11455
910.57	11341
910.685	11349
910.8	11581
910.915	11570
911.03	11459
911.145	11269
911.259	11227
911.374	11189
911.489	11220
911.604	11162
911.718	11045
911.833	11022
911.947	10942
912.062	10850
912.176	11052
912.291	11033
912.405	10968
912.519	11132
912.633	11174
912.748	11117
912.862	11060
912.976	10843
913.09	10820
913.204	10801
913.318	10900
913.431	10972
913.545	11029
913.659	11033
913.772	10900
913.886	10793
914	10694
914.113	10866
914.226	10927
914.34	10790
914.453	10717
914.566	10850
914.68	10729
914.793	10698
914.906	10538
915.019	10546
915.132	10512
915.245	10447
915.358	10474
915.47	10504
915.583	10626
915.696	10577
915.809	10653
915.921	10649
916.034	10432
916.146	10485
916.259	10500
916.371	10538
916.483	10622
916.595	10470
916.708	10436
916.82	10512
916.932	10394
917.044	10417
917.156	10382
917.268	10367
917.38	10280
917.491	10325
917.603	10348
917.715	10394
917.826	10478
917.938	10344
918.049	10234
918.161	10375
918.272	10443
918.384	10497
918.495	10402
918.606	10200
918.717	10143
918.828	10207
918.939	10287
919.05	10101
919.161	10234
919.272	10025
919.383	10147
919.494	10348
919.604	10428
919.715	10303
919.826	10097
919.936	10131
920.047	10280
920.157	10227
920.267	10485
920.378	10295
920.488	10169
920.598	10356
920.708	10577
920.818	10417
920.928	10508
921.038	10618
921.148	10596
921.258	10223
921.368	10192
921.477	10173
921.587	9998
921.697	9983
921.806	10112
921.916	10029
922.025	9816
922.134	9819
922.244	9793
922.353	9876
922.462	9648
922.571	9671
922.68	9526
922.789	9515
922.898	9477
923.007	9389
923.116	9523
923.224	9450
923.333	9492
923.442	9344
923.55	9363
923.659	9408
923.767	9523
923.876	9355
923.984	9477
924.092	9370
924.201	9435
924.309	9336
924.417	9367
924.525	9291
924.633	9302
924.741	10185
924.849	9085
924.956	9382
925.064	9081
925.172	9062
925.279	9058
925.387	9176
925.494	9081
925.602	9226
925.709	9188
925.816	8986
925.924	9100
926.031	9264
926.138	9180
926.245	9233
926.352	9104
926.459	9184
926.566	9302
926.673	9081
926.779	9055
926.886	8998
926.993	8826
927.099	8834
927.206	8807
927.312	8792
927.419	8891
927.525	8842
927.631	8944
927.737	8788
927.843	8716
927.95	8648
928.056	8754
928.162	8792
928.267	8766
928.373	9374
928.479	8861
928.585	8583
928.69	8769
928.796	8807
928.901	8663
929.007	8511
929.112	8644
929.218	8705
929.323	8571
929.428	8659
929.533	8705
929.638	8488
929.743	8575
929.848	8579
929.953	8621
930.058	8488
930.163	8374
930.267	8351
930.372	8499
930.477	8313
930.581	8575
930.685	8336
930.79	8218
930.894	8343
930.998	8210
931.103	8442
931.207	8054
931.311	8005
931.415	7951
931.519	7784
931.623	7776
