Data from test_V78500241_749.txt Node
Date: Fri Mar 25 14:38:56 CST 2022
User: usil
Spectrometer: V785-0024
Trigger mode: 0
Integration Time (sec): 4.000000E-1
Scans to average: 1
Nonlinearity correction enabled: false
Boxcar width: 0
Storing dark spectrum: false
XAxis mode: Wavelengths
Number of Pixels in Spectrum: 1024
>>>>>Begin Spectral Data<<<<<
801.071	27135
801.214	26971
801.356	26575
801.499	26731
801.641	26499
801.783	26400
801.926	26514
802.068	26415
802.211	26336
802.353	26058
802.496	26054
802.638	26001
802.78	26039
802.923	25986
803.065	25898
803.208	25852
803.35	25936
803.492	25959
803.635	26145
803.777	26031
803.919	26149
804.061	26290
804.204	26176
804.346	26050
804.488	26214
804.63	26214
804.773	26134
804.915	26309
805.057	26415
805.199	26278
805.341	26453
805.483	26545
805.626	26594
805.768	26571
805.91	26800
806.052	26925
806.194	26838
806.336	27542
806.478	27515
806.62	27671
806.762	28025
806.904	28238
807.046	28919
807.188	29143
807.33	29581
807.472	30365
807.614	30783
807.756	31856
807.898	32891
808.04	34459
808.182	36715
808.324	39287
808.465	42346
808.607	45641
808.749	48623
808.891	50503
809.033	50712
809.174	49091
809.316	45983
809.458	42509
809.6	39024
809.741	36190
809.883	33873
810.025	32480
810.166	31400
810.308	30509
810.45	29649
810.591	29181
810.733	28637
810.875	28185
811.016	27888
811.158	27572
811.299	27637
811.441	27622
811.582	27218
811.724	27036
811.865	27028
812.007	26918
812.148	26746
812.29	26727
812.431	26792
812.573	26918
812.714	26944
812.855	26986
812.997	26994
813.138	27131
813.279	26838
813.421	26838
813.562	26686
813.703	26533
813.845	26377
813.986	26020
814.127	25906
814.268	25715
814.41	25719
814.551	25624
814.692	25746
814.833	25533
814.974	25529
815.115	25529
815.256	25198
815.397	25304
815.539	25346
815.68	25244
815.821	25072
815.962	25110
816.103	25164
816.244	25027
816.385	24928
816.526	24878
816.666	24589
816.807	24456
816.948	24502
817.089	24715
817.23	24437
817.371	24490
817.512	24467
817.653	24327
817.793	24220
817.934	24281
818.075	24266
818.216	24311
818.356	24171
818.497	24220
818.638	23977
818.778	24018
818.919	24011
819.06	24026
819.2	24167
819.341	24270
819.481	24308
819.622	24228
819.762	24540
819.903	24372
820.043	24403
820.184	24232
820.324	24372
820.465	24228
820.605	24152
820.746	24243
820.886	23999
821.026	24095
821.167	24068
821.307	24034
821.447	23958
821.588	23859
821.728	23775
821.868	23585
822.008	23581
822.149	23402
822.289	23486
822.429	23181
822.569	23185
822.709	23090
822.849	22930
822.99	22896
823.13	22820
823.27	22774
823.41	22683
823.55	22584
823.69	22679
823.83	22622
823.97	22622
824.11	22428
824.25	22394
824.389	22333
824.529	22478
824.669	22356
824.809	22508
824.949	22554
825.089	22390
825.228	22436
825.368	22329
825.508	22150
825.648	22211
825.787	22386
825.927	22306
826.067	22166
826.206	22173
826.346	22215
826.485	22150
826.625	22131
826.765	22363
826.904	22238
827.044	22006
827.183	22070
827.323	21888
827.462	21850
827.601	21880
827.741	21884
827.88	21903
828.02	21622
828.159	21854
828.298	21804
828.437	21884
828.577	21846
828.716	21945
828.855	21701
828.994	21622
829.134	21580
829.273	21629
829.412	21408
829.551	21462
829.69	21526
829.829	21519
829.968	21641
830.107	21614
830.246	21606
830.385	21393
830.524	21420
830.663	21428
830.802	21252
830.941	21169
831.08	21096
831.219	21302
831.357	21294
831.496	21488
831.635	21165
831.774	21138
831.913	21062
832.051	20948
832.19	21005
832.329	20986
832.467	20914
832.606	20842
832.744	20937
832.883	21066
833.022	21070
833.16	21272
833.299	21279
833.437	21504
833.576	21511
833.714	21865
833.852	21949
833.991	22093
834.129	22188
834.267	22284
834.406	22139
834.544	22036
834.682	21934
834.821	21732
834.959	21941
835.097	21473
835.235	21412
835.373	21249
835.511	21203
835.65	21032
835.788	20967
835.926	20750
836.064	20648
836.202	20735
836.34	20693
836.478	20891
836.615	20659
836.753	20830
836.891	20819
837.029	20697
837.167	20507
837.305	20613
837.443	20587
837.58	20514
837.718	20480
837.856	20434
837.993	20446
838.131	20484
838.269	20412
838.406	20313
838.544	20271
838.681	20088
838.819	20103
838.956	19902
839.094	19974
839.231	20001
839.369	19955
839.506	20206
839.643	20157
839.781	19890
839.918	19921
840.055	19974
840.193	19818
840.33	19780
840.467	19868
840.604	19989
840.742	20039
840.879	19772
841.016	19765
841.153	19814
841.29	19974
841.427	19909
841.564	19959
841.701	19959
841.838	19791
841.975	19826
842.112	19887
842.249	19811
842.385	19632
842.522	19849
842.659	19765
842.796	19700
842.933	19841
843.069	19700
843.206	19700
843.343	19913
843.479	19795
843.616	19753
843.752	19795
843.889	19727
844.025	19955
844.162	19757
844.298	20122
844.435	20126
844.571	20347
844.708	20636
844.844	21184
844.98	21526
845.117	22234
845.253	23159
845.389	25198
845.525	28850
845.661	34854
845.798	42041
845.934	47113
846.07	49088
846.206	47672
846.342	42840
846.478	35710
846.614	29668
846.75	25597
846.886	23311
847.022	21953
847.158	21058
847.294	20507
847.429	20096
847.565	19951
847.701	19906
847.837	19304
847.972	19206
848.108	19312
848.244	19141
848.379	19000
848.515	18783
848.65	18821
848.786	18871
848.921	18741
849.057	18798
849.192	18791
849.328	18639
849.463	18658
849.598	18646
849.734	18574
849.869	18551
850.004	18452
850.14	18414
850.275	18330
850.41	18289
850.545	18342
850.68	18342
850.815	18448
850.95	18296
851.085	18490
851.22	18410
851.355	18372
851.49	18513
851.625	18319
851.76	18270
851.895	18178
852.03	18342
852.165	18380
852.299	18330
852.434	18433
852.569	18467
852.703	18338
852.838	18471
852.973	18483
853.107	18627
853.242	18448
853.376	18350
853.511	18281
853.645	18540
853.78	18673
853.914	18506
854.048	18650
854.183	18559
854.317	18661
854.451	18757
854.585	18677
854.72	18448
854.854	18616
854.988	18456
855.122	18422
855.256	18296
855.39	18338
855.524	18403
855.658	18429
855.792	18273
855.926	18346
856.06	18346
856.194	18315
856.327	18163
856.461	18102
856.595	18140
856.729	18270
856.862	18270
856.996	18190
857.13	18174
857.263	18247
857.397	18190
857.53	18098
857.664	18178
857.797	18178
857.931	18300
858.064	18095
858.197	18174
858.331	18068
858.464	17969
858.597	17969
858.731	18136
858.864	17958
858.997	18098
859.13	18098
859.263	18079
859.396	17999
859.529	18038
859.662	17870
859.795	17973
859.928	17980
860.061	18174
860.194	18273
860.327	17973
860.46	17961
860.592	18060
860.725	18072
860.858	18068
860.99	18057
861.123	17893
861.256	17916
861.388	17961
861.521	18700
861.653	17824
861.786	17847
861.918	17783
862.05	17912
862.183	17984
862.315	17893
862.447	17973
862.58	17874
862.712	17726
862.844	17657
862.976	17600
863.108	17718
863.24	18136
863.372	17653
863.504	17608
863.636	17691
863.768	17775
863.9	17661
864.032	17604
864.164	17608
864.296	17707
864.428	17771
864.559	17718
864.691	17672
864.823	17729
864.954	17726
865.086	17573
865.217	17638
865.349	17535
865.48	17638
865.612	17600
865.743	17794
865.875	17608
866.006	17493
866.137	17577
866.269	17608
866.4	17581
866.531	17455
866.662	17425
866.793	17535
866.924	17627
867.055	17646
867.186	17630
867.317	17505
867.448	17524
867.579	17554
867.71	17436
867.841	17406
867.972	17554
868.103	17524
868.233	17611
868.364	17600
868.495	17722
868.625	17794
868.756	17882
868.886	17794
869.017	17699
869.147	17927
869.278	17954
869.408	17904
869.539	17824
869.669	17920
869.799	17908
869.929	18026
870.06	17961
870.19	18159
870.32	18102
870.45	18289
870.58	18152
870.71	18353
870.84	18395
870.97	18300
871.1	18262
871.23	18422
871.36	18422
871.489	18311
871.619	18528
871.749	18456
871.879	18612
872.008	18783
872.138	18464
872.267	18711
872.397	18471
872.526	18517
872.656	18426
872.785	18456
872.915	18684
873.044	18722
873.173	18802
873.303	18745
873.432	18913
873.561	18840
873.69	18749
873.819	18654
873.948	18989
874.077	18890
874.206	18890
874.335	18890
874.464	19061
874.593	19168
874.722	19190
874.851	19320
874.979	19400
875.108	19476
875.237	19381
875.365	19358
875.494	19525
875.623	19521
875.751	19445
875.88	19719
876.008	19757
876.136	19921
876.265	20138
876.393	20374
876.521	20263
876.65	20412
876.778	20404
876.906	20362
877.034	20499
877.162	20613
877.29	20408
877.418	20762
877.546	20804
877.674	20914
877.802	20960
877.93	21252
878.058	21340
878.185	21348
878.313	21819
878.441	22120
878.568	22603
878.696	23220
878.824	23965
878.951	25190
879.079	26701
879.206	28911
879.333	30916
879.461	32826
879.588	33907
879.715	33850
879.842	32937
879.97	30924
880.097	28850
880.224	27230
880.351	25849
880.478	25099
880.605	24445
880.732	24072
880.859	23961
880.986	23474
881.112	23402
881.239	23296
881.366	23124
881.493	23064
881.619	23067
881.746	23056
881.872	23166
881.999	23124
882.125	23052
882.252	23280
882.378	23330
882.505	23471
882.631	23235
882.757	23140
882.883	23102
883.01	23060
883.136	23151
883.262	22972
883.388	22946
883.514	23014
883.64	23132
883.766	23098
883.892	22892
884.018	22923
884.143	23147
884.269	23041
884.395	22904
884.52	22740
884.646	22862
884.772	22923
884.897	22809
885.023	22835
885.148	22976
885.274	22896
885.399	22668
885.524	22630
885.65	22565
885.775	22318
885.9	22131
886.025	22135
886.15	21994
886.275	21816
886.4	21515
886.525	21496
886.65	21275
886.775	21104
886.9	21249
887.025	21233
887.149	20906
887.274	20613
887.399	20533
887.523	20454
887.648	20290
887.773	20180
887.897	20161
888.021	20161
888.146	19993
888.27	20077
888.395	19989
888.519	19974
888.643	19890
888.767	19799
888.891	19628
889.015	19563
889.139	19396
889.263	19430
889.387	19441
889.511	19563
889.635	19400
889.759	19324
889.883	19263
890.006	19206
890.13	19168
890.254	19141
890.377	18985
890.501	18886
890.624	18852
890.748	18901
890.871	18726
890.995	18669
891.118	18528
891.241	18616
891.364	18639
891.488	18692
891.611	18490
891.734	18441
891.857	18532
891.98	18460
892.103	18464
892.226	18426
892.349	18273
892.471	18194
892.594	18216
892.717	18224
892.839	18102
892.962	18125
893.085	18247
893.207	18095
893.33	17901
893.452	17916
893.575	18049
893.697	17893
893.819	18095
893.941	18098
894.064	17988
894.186	17745
894.308	17855
894.43	17950
894.552	17939
894.674	17973
894.796	17676
894.918	17775
895.04	17585
895.161	17885
895.283	17760
895.405	17729
895.526	17649
895.648	17665
895.769	17695
895.891	17661
896.012	17703
896.134	17726
896.255	17745
896.376	17642
896.498	17589
896.619	17627
896.74	17585
896.861	17642
896.982	17912
897.103	18079
897.224	17885
897.345	17699
897.466	17748
897.587	17764
897.708	18003
897.828	17680
897.949	17657
898.07	17623
898.19	17672
898.311	17843
898.431	17786
898.552	17756
898.672	17817
898.792	17950
898.913	17722
899.033	17684
899.153	17733
899.273	17474
899.393	17592
899.513	17665
899.633	17551
899.753	17604
899.873	17627
899.993	17600
900.113	17414
900.232	17699
900.352	17520
900.472	17516
900.591	17444
900.711	17524
900.83	17299
900.95	17539
901.069	17391
901.189	17307
901.308	16991
901.427	16927
901.546	17075
901.665	16946
901.784	17067
901.904	16744
902.023	16812
902.141	16519
902.26	16405
902.379	16459
902.498	16428
902.617	16459
902.735	16462
902.854	16325
902.973	16306
903.091	16101
903.21	15968
903.328	16147
903.446	15998
903.565	15892
903.683	15895
903.801	15743
903.919	15922
904.038	15759
904.156	15663
904.274	15709
904.392	15568
904.51	15675
904.627	15572
904.745	15564
904.863	15671
904.981	15420
905.098	15359
905.216	15188
905.334	15340
905.451	15218
905.569	15241
905.686	15264
905.803	15287
905.921	15024
906.038	15192
906.155	15005
906.272	14956
906.389	14948
906.506	14834
906.623	14773
906.74	14849
906.857	14564
906.974	14716
907.091	14792
907.208	14876
907.324	14891
907.441	14701
907.557	14454
907.674	14454
907.79	14495
907.907	14495
908.023	14465
908.139	14514
908.256	14438
908.372	14415
908.488	14355
908.604	14168
908.72	14180
908.836	14347
908.952	14168
909.068	14206
909.184	14355
909.3	14168
909.415	14199
909.531	14218
909.647	13928
909.762	13936
909.878	13902
909.993	13921
910.108	13849
910.224	13883
910.339	13852
910.454	13925
910.57	13776
910.685	13677
910.8	14020
910.915	13883
911.03	13795
911.145	13643
911.259	13571
911.374	13578
911.489	13529
911.604	13464
911.718	13373
911.833	13415
911.947	13266
912.062	13141
912.176	13354
912.291	13396
912.405	13259
912.519	13468
912.633	13419
912.748	13369
912.862	13251
912.976	13107
913.09	13076
913.204	13114
913.318	13198
913.431	13160
913.545	13122
913.659	13297
913.772	13213
913.886	13057
914	13023
914.113	13137
914.226	13168
914.34	13008
914.453	12943
914.566	13141
914.68	12924
914.793	12916
914.906	12741
915.019	12726
915.132	12642
915.245	12749
915.358	12783
915.47	12707
915.583	12734
915.696	12821
915.809	12856
915.921	12989
916.034	12669
916.146	12715
916.259	12700
916.371	12764
916.483	12764
916.595	12741
916.708	12722
916.82	12658
916.932	12741
917.044	12711
917.156	12593
917.268	12498
917.38	12464
917.491	12521
917.603	12566
917.715	12601
917.826	12635
917.938	12448
918.049	12330
918.161	12369
918.272	12582
918.384	12593
918.495	12448
918.606	12243
918.717	12277
918.828	12327
918.939	12365
919.05	12254
919.161	12224
919.272	12019
919.383	12098
919.494	12281
919.604	12452
919.715	12319
919.826	12201
919.936	12159
920.047	12296
920.157	12258
920.267	12486
920.378	12239
920.488	12186
920.598	12452
920.708	12574
920.818	12456
920.928	12410
921.038	12490
921.148	12509
921.258	12190
921.368	12136
921.477	11954
921.587	11988
921.697	11882
921.806	12034
921.916	11961
922.025	11733
922.134	11653
922.244	11627
922.353	11710
922.462	11646
922.571	11528
922.68	11414
922.789	11376
922.898	11398
923.007	11265
923.116	11376
923.224	11330
923.333	11315
923.442	11212
923.55	11216
923.659	11273
923.767	11246
923.876	11128
923.984	11246
924.092	11121
924.201	11147
924.309	11178
924.417	11113
924.525	11033
924.633	11098
924.741	11779
924.849	10892
924.956	11060
925.064	10873
925.172	10843
925.279	10877
925.387	10900
925.494	10919
925.602	11094
925.709	10911
925.816	10771
925.924	10896
926.031	10930
926.138	10820
926.245	10980
926.352	10797
926.459	10908
926.566	10927
926.673	10774
926.779	10721
926.886	10607
926.993	10573
927.099	10596
927.206	10478
927.312	10462
927.419	10508
927.525	10542
927.631	10558
927.737	10443
927.843	10409
927.95	10344
928.056	10417
928.162	10409
928.267	10478
928.373	11003
928.479	10527
928.585	10173
928.69	10295
928.796	10409
928.901	10299
929.007	10093
929.112	10257
929.218	10276
929.323	10249
929.428	10166
929.533	10360
929.638	10116
929.743	10169
929.848	10242
929.953	10109
930.058	10017
930.163	9895
930.267	9960
930.372	9979
930.477	9808
930.581	10090
930.685	9968
930.79	9789
930.894	9789
930.998	9781
931.103	9884
931.207	9561
931.311	9534
931.415	9454
931.519	9264
931.623	9253
