Data from test_V78500241_3448.txt Node
Date: Fri Mar 25 14:57:43 CST 2022
User: usil
Spectrometer: V785-0024
Trigger mode: 0
Integration Time (sec): 4.000000E-1
Scans to average: 1
Nonlinearity correction enabled: false
Boxcar width: 0
Storing dark spectrum: false
XAxis mode: Wavelengths
Number of Pixels in Spectrum: 1024
>>>>>Begin Spectral Data<<<<<
801.071	21880
801.214	21835
801.356	21599
801.499	21526
801.641	21393
801.783	21226
801.926	21252
802.068	21249
802.211	21146
802.353	21096
802.496	20811
802.638	20819
802.78	20663
802.923	20758
803.065	20659
803.208	20651
803.35	20701
803.492	20670
803.635	20765
803.777	20564
803.919	20693
804.061	20952
804.204	20735
804.346	20549
804.488	20389
804.63	20568
804.773	20598
804.915	20518
805.057	20621
805.199	20412
805.341	20594
805.483	20598
805.626	20674
805.768	20560
805.91	20530
806.052	20636
806.194	20492
806.336	20678
806.478	20571
806.62	20419
806.762	20564
806.904	20590
807.046	20933
807.188	20986
807.33	20887
807.472	20830
807.614	20773
807.756	20720
807.898	20590
808.04	20549
808.182	20518
808.324	20644
808.465	20568
808.607	20804
808.749	20880
808.891	20918
809.033	21051
809.174	20845
809.316	20758
809.458	20845
809.6	20819
809.741	20948
809.883	20941
810.025	21131
810.166	21112
810.308	21009
810.45	20994
810.591	20838
810.733	20735
810.875	20750
811.016	20530
811.158	20568
811.299	20731
811.441	20819
811.582	20693
811.724	20686
811.865	20705
812.007	20583
812.148	20575
812.29	20602
812.431	20830
812.573	20921
812.714	21100
812.855	21176
812.997	21264
813.138	21374
813.279	21241
813.421	21104
813.562	21096
813.703	21001
813.845	20785
813.986	20438
814.127	20442
814.268	20172
814.41	20275
814.551	20149
814.692	20290
814.833	20031
814.974	20054
815.115	20145
815.256	20016
815.397	20005
815.539	20126
815.68	20001
815.821	19845
815.962	19906
816.103	19818
816.244	19818
816.385	19738
816.526	19681
816.666	19556
816.807	19388
816.948	19487
817.089	19430
817.23	19331
817.371	19324
817.512	19362
817.653	19297
817.793	19225
817.934	19396
818.075	19304
818.216	19327
818.356	19263
818.497	19122
818.638	18996
818.778	18989
818.919	18993
819.06	19080
819.2	19217
819.341	19194
819.481	19209
819.622	19343
819.762	19540
819.903	19441
820.043	19377
820.184	19259
820.324	19225
820.465	19278
820.605	19255
820.746	19278
820.886	19164
821.026	19202
821.167	19194
821.307	19297
821.447	19301
821.588	19168
821.728	19076
821.868	18806
822.008	18768
822.149	18791
822.289	18631
822.429	18399
822.569	18407
822.709	18486
822.849	18194
822.99	18300
823.13	18174
823.27	18190
823.41	18121
823.55	17942
823.69	17969
823.83	17882
823.97	17878
824.11	17805
824.25	17779
824.389	17752
824.529	17832
824.669	17859
824.809	17965
824.949	17889
825.089	17882
825.228	17805
825.368	17649
825.508	17611
825.648	17543
825.787	17551
825.927	17672
826.067	17436
826.206	17425
826.346	17566
826.485	17657
826.625	17592
826.765	17752
826.904	17554
827.044	17330
827.183	17299
827.323	17284
827.462	17356
827.601	17265
827.741	17197
827.88	17216
828.02	17178
828.159	17128
828.298	17280
828.437	17345
828.577	17246
828.716	17417
828.855	17231
828.994	16976
829.134	16995
829.273	17022
829.412	17029
829.551	16965
829.69	17071
829.829	17003
829.968	17117
830.107	17071
830.246	16980
830.385	16946
830.524	16934
830.663	16824
830.802	16782
830.941	16626
831.08	16767
831.219	16740
831.357	16702
831.496	16866
831.635	16744
831.774	16615
831.913	16542
832.051	16459
832.19	16413
832.329	16481
832.467	16413
832.606	16249
832.744	16333
832.883	16284
833.022	16219
833.16	16436
833.299	16268
833.437	16417
833.576	16329
833.714	16329
833.852	16360
833.991	16375
834.129	16455
834.267	16470
834.406	16405
834.544	16451
834.682	16333
834.821	16382
834.959	16603
835.097	16325
835.235	16550
835.373	16436
835.511	16303
835.65	16367
835.788	16318
835.926	16219
836.064	16109
836.202	16226
836.34	16417
836.478	16409
836.615	16310
836.753	16363
836.891	16432
837.029	16303
837.167	16299
837.305	16234
837.443	16188
837.58	16169
837.718	16181
837.856	16223
837.993	16124
838.131	16306
838.269	16143
838.406	16246
838.544	16120
838.681	15899
838.819	15953
838.956	15778
839.094	15816
839.231	15778
839.369	15926
839.506	16204
839.643	16086
839.781	15835
839.918	15625
840.055	15709
840.193	15701
840.33	15671
840.467	15789
840.604	15778
840.742	15949
840.879	15686
841.016	15797
841.153	15778
841.29	15884
841.427	15770
841.564	15682
841.701	15762
841.838	15660
841.975	15587
842.112	15584
842.249	15568
842.385	15576
842.522	15622
842.659	15603
842.796	15568
842.933	15538
843.069	15488
843.206	15534
843.343	15679
843.479	15584
843.616	15534
843.752	15325
843.889	15222
844.025	15443
844.162	15268
844.298	15321
844.435	15287
844.571	15332
844.708	15397
844.844	15515
844.98	15473
845.117	15462
845.253	15237
845.389	15161
845.525	15241
845.661	15157
845.798	15138
845.934	15150
846.07	15173
846.206	15112
846.342	15199
846.478	15138
846.614	14899
846.75	14826
846.886	14868
847.022	14944
847.158	14967
847.294	14887
847.429	14925
847.565	14899
847.701	15131
847.837	14705
847.972	14674
848.108	14773
848.244	14682
848.379	14556
848.515	14507
848.65	14537
848.786	14514
848.921	14545
849.057	14613
849.192	14560
849.328	14473
849.463	14492
849.598	14511
849.734	14415
849.869	14298
850.004	14328
850.14	14362
850.275	14278
850.41	14218
850.545	14282
850.68	14252
850.815	14347
850.95	14233
851.085	14415
851.22	14313
851.355	14328
851.49	14286
851.625	14263
851.76	14237
851.895	14111
852.03	14126
852.165	14100
852.299	14336
852.434	14328
852.569	14290
852.703	14313
852.838	14393
852.973	14423
853.107	14480
853.242	14240
853.376	14180
853.511	14043
853.645	14096
853.78	14244
853.914	14096
854.048	14149
854.183	14172
854.317	14088
854.451	14358
854.585	14202
854.72	14031
854.854	14126
854.988	13967
855.122	14100
855.256	14027
855.39	14218
855.524	14237
855.658	14088
855.792	14199
855.926	14206
856.06	14191
856.194	14206
856.327	14275
856.461	14123
856.595	14100
856.729	14092
856.862	14248
856.996	14176
857.13	14202
857.263	14256
857.397	14267
857.53	14058
857.664	14176
857.797	14180
857.931	14294
858.064	14214
858.197	14240
858.331	14153
858.464	14107
858.597	14096
858.731	14046
858.864	14081
858.997	14130
859.13	14153
859.263	14252
859.396	14199
859.529	14077
859.662	14058
859.795	14081
859.928	14206
860.061	14275
860.194	14263
860.327	14161
860.46	14126
860.592	14206
860.725	14145
860.858	14267
860.99	14157
861.123	14039
861.256	14142
861.388	14172
861.521	14823
861.653	14092
861.786	13955
861.918	14024
862.05	14024
862.183	14073
862.315	14183
862.447	14164
862.58	14084
862.712	13887
862.844	13868
862.976	13921
863.108	13913
863.24	14301
863.372	13814
863.504	13940
863.636	13917
863.768	13955
863.9	13894
864.032	13814
864.164	13974
864.296	14046
864.428	14012
864.559	14054
864.691	14020
864.823	14001
864.954	14001
865.086	13944
865.217	13917
865.349	13879
865.48	13906
865.612	13951
865.743	14027
865.875	13921
866.006	13947
866.137	13875
866.269	13784
866.4	13841
866.531	13906
866.662	13871
866.793	13791
866.924	13936
867.055	13909
867.186	13928
867.317	13849
867.448	13814
867.579	13959
867.71	13746
867.841	13883
867.972	13902
868.103	13883
868.233	13772
868.364	13917
868.495	13921
868.625	14149
868.756	14180
868.886	14164
869.017	14100
869.147	14172
869.278	14240
869.408	14176
869.539	14126
869.669	14221
869.799	14206
869.929	14282
870.06	14271
870.19	14450
870.32	14457
870.45	14419
870.58	14564
870.71	14621
870.84	14739
870.97	14549
871.1	14594
871.23	14731
871.36	14731
871.489	14655
871.619	14731
871.749	14758
871.879	14804
872.008	14914
872.138	14712
872.267	14720
872.397	14754
872.526	14583
872.656	14602
872.785	14640
872.915	14792
873.044	14967
873.173	14788
873.303	14842
873.432	14811
873.561	14849
873.69	14826
873.819	14826
873.948	14868
874.077	14800
874.206	14712
874.335	14899
874.464	14933
874.593	15112
874.722	15070
874.851	15131
874.979	15070
875.108	15089
875.237	15032
875.365	15028
875.494	15097
875.623	15089
875.751	15077
875.88	15135
876.008	15321
876.136	15260
876.265	15530
876.393	15679
876.521	15739
876.65	15739
876.778	15530
876.906	15523
877.034	15534
877.162	15515
877.29	15469
877.418	15614
877.546	15599
877.674	15530
877.802	15534
877.93	15595
878.058	15466
878.185	15428
878.313	15431
878.441	15557
878.568	15344
878.696	15496
878.824	15523
878.951	15717
879.079	15709
879.206	15709
879.333	15686
879.461	15671
879.588	15675
879.715	15759
879.842	15857
879.97	15614
880.097	15431
880.224	15397
880.351	15488
880.478	15519
880.605	15363
880.732	15389
880.859	15739
880.986	15450
881.112	15481
881.239	15443
881.366	15165
881.493	15108
881.619	15104
881.746	15192
881.872	15093
881.999	15051
882.125	15066
882.252	15077
882.378	15108
882.505	15184
882.631	15005
882.757	14967
882.883	14948
883.01	14918
883.136	14826
883.262	14750
883.388	14773
883.514	15001
883.64	15051
883.766	14899
883.892	14686
884.018	14781
884.143	14883
884.269	15017
884.395	14705
884.52	14636
884.646	14575
884.772	14590
884.897	14560
885.023	14564
885.148	14796
885.274	14811
885.399	14644
885.524	14613
885.65	14602
885.775	14617
885.9	14590
886.025	14746
886.15	14606
886.275	14568
886.4	14560
886.525	14537
886.65	14465
886.775	14556
886.9	14765
887.025	14853
887.149	14701
887.274	14423
887.399	14423
887.523	14355
887.648	14275
887.773	14286
887.897	14446
888.021	14610
888.146	14488
888.27	14499
888.395	14564
888.519	14488
888.643	14442
888.767	14522
888.891	14488
889.015	14252
889.139	14347
889.263	14256
889.387	14385
889.511	14442
889.635	14480
889.759	14263
889.883	14389
890.006	14324
890.13	14385
890.254	14237
890.377	14317
890.501	14069
890.624	14126
890.748	14195
890.871	14069
890.995	14001
891.118	13940
891.241	14050
891.364	13925
891.488	14164
891.611	14008
891.734	13993
891.857	14020
891.98	13955
892.103	14073
892.226	14020
892.349	14046
892.471	13776
892.594	13967
892.717	13993
892.839	14012
892.962	14058
893.085	14001
893.207	13978
893.33	13982
893.452	13944
893.575	14031
893.697	13970
893.819	14210
893.941	14176
894.064	14259
894.186	13902
894.308	13906
894.43	14172
894.552	14183
894.674	14115
894.796	14031
894.918	14103
895.04	14123
895.161	14199
895.283	14111
895.405	14100
895.526	13989
895.648	14142
895.769	14123
895.891	14225
896.012	14267
896.134	14218
896.255	14126
896.376	14130
896.498	14240
896.619	14301
896.74	14145
896.861	14298
896.982	14518
897.103	14632
897.224	14355
897.345	14385
897.466	14358
897.587	14473
897.708	14530
897.828	14393
897.949	14480
898.07	14298
898.19	14469
898.311	14545
898.431	14454
898.552	14495
898.672	14667
898.792	14632
898.913	14537
899.033	14419
899.153	14385
899.273	14275
899.393	14343
899.513	14309
899.633	14408
899.753	14400
899.873	14278
899.993	14473
900.113	14343
900.232	14393
900.352	14404
900.472	14233
900.591	14225
900.711	14195
900.83	14199
900.95	14393
901.069	14275
901.189	14214
901.308	14065
901.427	13856
901.546	13947
901.665	13925
901.784	13963
901.904	13811
902.023	13696
902.141	13552
902.26	13411
902.379	13666
902.498	13434
902.617	13441
902.735	13597
902.854	13457
902.973	13381
903.091	13251
903.21	13244
903.328	13209
903.446	13107
903.565	13129
903.683	13179
903.801	12947
903.919	13042
904.038	13069
904.156	12840
904.274	12829
904.392	12821
904.51	12814
904.627	12814
904.745	12825
904.863	12985
904.981	12608
905.098	12601
905.216	12642
905.334	12612
905.451	12635
905.569	12635
905.686	12673
905.803	12597
905.921	12399
906.038	12475
906.155	12414
906.272	12304
906.389	12315
906.506	12095
906.623	12136
906.74	12148
906.857	11999
906.974	12155
907.091	12262
907.208	12327
907.324	12262
907.441	12072
907.557	11897
907.674	11996
907.79	11889
907.907	11836
908.023	11958
908.139	11870
908.256	11885
908.372	11866
908.488	11745
908.604	11672
908.72	11672
908.836	11558
908.952	11642
909.068	11748
909.184	11828
909.3	11699
909.415	11767
909.531	11707
909.647	11482
909.762	11455
909.878	11421
909.993	11493
910.108	11436
910.224	11425
910.339	11417
910.454	11414
910.57	11307
910.685	11246
910.8	11539
910.915	11421
911.03	11364
911.145	11239
911.259	11159
911.374	11128
911.489	11094
911.604	11041
911.718	10881
911.833	10919
911.947	10752
912.062	10675
912.176	10968
912.291	10892
912.405	10843
912.519	11079
912.633	11178
912.748	10946
912.862	10938
912.976	10786
913.09	10607
913.204	10687
913.318	10725
913.431	10843
913.545	10850
913.659	10774
913.772	10736
913.886	10748
914	10679
914.113	10869
914.226	10812
914.34	10702
914.453	10588
914.566	10740
914.68	10538
914.793	10637
914.906	10390
915.019	10409
915.132	10409
915.245	10371
915.358	10447
915.47	10481
915.583	10371
915.696	10443
915.809	10599
915.921	10634
916.034	10413
916.146	10428
916.259	10352
916.371	10424
916.483	10443
916.595	10303
916.708	10341
916.82	10402
916.932	10314
917.044	10325
917.156	10291
917.268	10223
917.38	10227
917.491	10200
917.603	10360
917.715	10367
917.826	10337
917.938	10211
918.049	10090
918.161	10238
918.272	10428
918.384	10367
918.495	10303
918.606	10169
918.717	10078
918.828	10204
918.939	10124
919.05	10002
919.161	10101
919.272	9876
919.383	9968
919.494	10185
919.604	10337
919.715	10101
919.826	10078
919.936	10078
920.047	10219
920.157	10234
920.267	10375
920.378	10147
920.488	10093
920.598	10451
920.708	10497
920.818	10314
920.928	10348
921.038	10500
921.148	10493
921.258	10291
921.368	10071
921.477	10048
921.587	10017
921.697	9876
921.806	9991
921.916	9895
922.025	9698
922.134	9755
922.244	9629
922.353	9740
922.462	9572
922.571	9545
922.68	9458
922.789	9386
922.898	9450
923.007	9359
923.116	9431
923.224	9374
923.333	9454
923.442	9321
923.55	9203
923.659	9344
923.767	9382
923.876	9237
923.984	9348
924.092	9123
924.201	9287
924.309	9268
924.417	9310
924.525	9226
924.633	9237
924.741	10112
924.849	9089
924.956	9154
925.064	8952
925.172	9024
925.279	8986
925.387	9070
925.494	9131
925.602	9195
925.709	9157
925.816	8982
925.924	9100
926.031	9104
926.138	9104
926.245	9119
926.352	9074
926.459	9116
926.566	9154
926.673	9055
926.779	8918
926.886	8921
926.993	8887
927.099	8868
927.206	8750
927.312	8689
927.419	8834
927.525	8811
927.631	8929
927.737	8727
927.843	8705
927.95	8594
928.056	8678
928.162	8663
928.267	8769
928.373	9370
928.479	8788
928.585	8503
928.69	8670
928.796	8781
928.901	8613
929.007	8434
929.112	8625
929.218	8579
929.323	8533
929.428	8518
929.533	8712
929.638	8404
929.743	8461
929.848	8537
929.953	8518
930.058	8419
930.163	8240
930.267	8355
930.372	8400
930.477	8225
930.581	8465
930.685	8374
930.79	8126
930.894	8244
930.998	8195
931.103	8282
931.207	7955
931.311	7967
931.415	7868
931.519	7704
931.623	7738
