Data from test_V78500241_380.txt Node
Date: Fri Mar 25 14:36:22 CST 2022
User: usil
Spectrometer: V785-0024
Trigger mode: 0
Integration Time (sec): 4.000000E-1
Scans to average: 1
Nonlinearity correction enabled: false
Boxcar width: 0
Storing dark spectrum: false
XAxis mode: Wavelengths
Number of Pixels in Spectrum: 1024
>>>>>Begin Spectral Data<<<<<
801.071	26785
801.214	26724
801.356	26442
801.499	26404
801.641	26240
801.783	26240
801.926	26221
802.068	26111
802.211	26039
802.353	25917
802.496	25978
802.638	25753
802.78	25795
802.923	25841
803.065	25830
803.208	25594
803.35	25571
803.492	25807
803.635	25696
803.777	25936
803.919	25925
804.061	26073
804.204	25742
804.346	25715
804.488	25651
804.63	25750
804.773	25704
804.915	25696
805.057	25864
805.199	25704
805.341	25761
805.483	25780
805.626	25856
805.768	25845
805.91	25643
806.052	25776
806.194	25635
806.336	25871
806.478	25799
806.62	25818
806.762	25921
806.904	26008
807.046	26180
807.188	26088
807.33	26130
807.472	26229
807.614	26161
807.756	26065
807.898	25925
808.04	25963
808.182	25860
808.324	25982
808.465	25879
808.607	26088
808.749	26115
808.891	26415
809.033	26431
809.174	26427
809.316	26229
809.458	26301
809.6	26062
809.741	26347
809.883	26298
810.025	26522
810.166	26438
810.308	26336
810.45	26484
810.591	26374
810.733	26138
810.875	26157
811.016	26145
811.158	25989
811.299	26126
811.441	26218
811.582	26214
811.724	26134
811.865	26073
812.007	25993
812.148	25955
812.29	26111
812.431	26111
812.573	26362
812.714	26419
812.855	26552
812.997	26621
813.138	26792
813.279	26739
813.421	26632
813.562	26514
813.703	26328
813.845	26320
813.986	26073
814.127	25784
814.268	25681
814.41	25605
814.551	25689
814.692	25693
814.833	25655
814.974	25658
815.115	25639
815.256	25441
815.397	25430
815.539	25575
815.68	25419
815.821	25419
815.962	25373
816.103	25438
816.244	25369
816.385	25126
816.526	25061
816.666	25053
816.807	24665
816.948	24844
817.089	24856
817.23	24897
817.371	24806
817.512	24764
817.653	24719
817.793	24776
817.934	24802
818.075	24707
818.216	24711
818.356	24658
818.497	24536
818.638	24426
818.778	24433
818.919	24479
819.06	24509
819.2	24661
819.341	24730
819.481	24650
819.622	24837
819.762	24916
819.903	24848
820.043	24768
820.184	24726
820.324	24753
820.465	24719
820.605	24616
820.746	24768
820.886	24703
821.026	24810
821.167	24703
821.307	24779
821.447	24726
821.588	24467
821.728	24353
821.868	24327
822.008	23946
822.149	24136
822.289	24049
822.429	23832
822.569	23748
822.709	23741
822.849	23551
822.99	23501
823.13	23482
823.27	23630
823.41	23376
823.55	23113
823.69	23345
823.83	23277
823.97	23280
824.11	23216
824.25	23117
824.389	23071
824.529	23151
824.669	23052
824.809	23315
824.949	23166
825.089	23166
825.228	23113
825.368	22972
825.508	22873
825.648	22877
825.787	22896
825.927	23006
826.067	22847
826.206	22877
826.346	22873
826.485	22915
826.625	22847
826.765	22984
826.904	22972
827.044	22748
827.183	22550
827.323	22516
827.462	22512
827.601	22656
827.741	22611
827.88	22615
828.02	22409
828.159	22565
828.298	22603
828.437	22569
828.577	22542
828.716	22634
828.855	22542
828.994	22280
829.134	22181
829.273	22379
829.412	22299
829.551	22109
829.69	22230
829.829	22268
829.968	22386
830.107	22238
830.246	22211
830.385	22131
830.524	22063
830.663	22010
830.802	22040
830.941	21759
831.08	21835
831.219	21819
831.357	21895
831.496	22067
831.635	21838
831.774	21705
831.913	21713
832.051	21564
832.19	21599
832.329	21492
832.467	21568
832.606	21557
832.744	21298
832.883	21561
833.022	21485
833.16	21504
833.299	21504
833.437	21625
833.576	21610
833.714	21500
833.852	21458
833.991	21466
834.129	21641
834.267	21679
834.406	21492
834.544	21507
834.682	21538
834.821	21401
834.959	21587
835.097	21397
835.235	21534
835.373	21492
835.511	21515
835.65	21264
835.788	21382
835.926	21233
836.064	21161
836.202	21119
836.34	21420
836.478	21519
836.615	21294
836.753	21283
836.891	21393
837.029	21325
837.167	21203
837.305	21207
837.443	21138
837.58	21203
837.718	21283
837.856	21298
837.993	21081
838.131	21096
838.269	21176
838.406	21192
838.544	21032
838.681	20929
838.819	20819
838.956	20636
839.094	20583
839.231	20537
839.369	20693
839.506	21020
839.643	20891
839.781	20678
839.918	20632
840.055	20705
840.193	20621
840.33	20454
840.467	20594
840.604	20530
840.742	20686
840.879	20412
841.016	20347
841.153	20434
841.29	20587
841.427	20594
841.564	20537
841.701	20518
841.838	20537
841.975	20423
842.112	20404
842.249	20324
842.385	20233
842.522	20431
842.659	20149
842.796	20218
842.933	20328
843.069	20282
843.206	20237
843.343	20301
843.479	20366
843.616	20214
843.752	20084
843.889	20039
844.025	20153
844.162	19940
844.298	20081
844.435	20054
844.571	20016
844.708	20103
844.844	20119
844.98	20161
845.117	20168
845.253	19845
845.389	19951
845.525	19917
845.661	19902
845.798	19784
845.934	19799
846.07	19780
846.206	19868
846.342	19982
846.478	19761
846.614	19624
846.75	19502
846.886	19521
847.022	19483
847.158	19487
847.294	19441
847.429	19449
847.565	19392
847.701	19628
847.837	19240
847.972	19175
848.108	19362
848.244	19285
848.379	19057
848.515	19004
848.65	18996
848.786	19072
848.921	18932
849.057	19107
849.192	19053
849.328	19099
849.463	19095
849.598	19118
849.734	18973
849.869	18916
850.004	18871
850.14	18852
850.275	18802
850.41	18806
850.545	18867
850.68	18677
850.815	18958
850.95	18886
851.085	18943
851.22	18848
851.355	18897
851.49	18802
851.625	18703
851.76	18829
851.895	18661
852.03	18700
852.165	18791
852.299	18783
852.434	18939
852.569	18802
852.703	18852
852.838	18928
852.973	18962
853.107	18844
853.242	18734
853.376	18559
853.511	18521
853.645	18612
853.78	18817
853.914	18635
854.048	18612
854.183	18604
854.317	18566
854.451	18817
854.585	18612
854.72	18604
854.854	18692
854.988	18509
855.122	18627
855.256	18532
855.39	18578
855.524	18627
855.658	18726
855.792	18585
855.926	18574
856.06	18658
856.194	18688
856.327	18669
856.461	18574
856.595	18635
856.729	18528
856.862	18757
856.996	18612
857.13	18707
857.263	18722
857.397	18745
857.53	18566
857.664	18612
857.797	18631
857.931	18711
858.064	18661
858.197	18665
858.331	18574
858.464	18486
858.597	18464
858.731	18429
858.864	18483
858.997	18551
859.13	18620
859.263	18616
859.396	18593
859.529	18612
859.662	18513
859.795	18448
859.928	18601
860.061	18639
860.194	18719
860.327	18635
860.46	18513
860.592	18684
860.725	18719
860.858	18719
860.99	18635
861.123	18441
861.256	18544
861.388	18566
861.521	19331
861.653	18464
861.786	18357
861.918	18521
862.05	18445
862.183	18517
862.315	18578
862.447	18707
862.58	18540
862.712	18369
862.844	18216
862.976	18395
863.108	18353
863.24	18722
863.372	18152
863.504	18228
863.636	18270
863.768	18277
863.9	18334
864.032	18228
864.164	18296
864.296	18235
864.428	18327
864.559	18281
864.691	18319
864.823	18342
864.954	18216
865.086	18296
865.217	18201
865.349	18258
865.48	18197
865.612	18235
865.743	18167
865.875	18152
866.006	18186
866.137	18144
866.269	18152
866.4	18140
866.531	18163
866.662	18114
866.793	18129
866.924	18117
867.055	18091
867.186	18144
867.317	18117
867.448	18053
867.579	18125
867.71	18038
867.841	18003
867.972	18254
868.103	18098
868.233	18125
868.364	18117
868.495	18311
868.625	18391
868.756	18532
868.886	18365
869.017	18350
869.147	18547
869.278	18448
869.408	18369
869.539	18357
869.669	18308
869.799	18433
869.929	18445
870.06	18467
870.19	18612
870.32	18528
870.45	18795
870.58	18741
870.71	18783
870.84	18859
870.97	18749
871.1	18711
871.23	18916
871.36	18913
871.489	18878
871.619	18897
871.749	19053
871.879	19031
872.008	19114
872.138	19103
872.267	18833
872.397	18837
872.526	18833
872.656	18814
872.785	18745
872.915	18939
873.044	18951
873.173	19046
873.303	18932
873.432	18989
873.561	19122
873.69	18993
873.819	19038
873.948	19118
874.077	19031
874.206	18897
874.335	19023
874.464	19072
874.593	19244
874.722	19156
874.851	19335
874.979	19396
875.108	19411
875.237	19179
875.365	19141
875.494	19316
875.623	19415
875.751	19164
875.88	19251
876.008	19415
876.136	19441
876.265	19738
876.393	19868
876.521	19776
876.65	19776
876.778	19601
876.906	19662
877.034	19681
877.162	19704
877.29	19590
877.418	19750
877.546	19674
877.674	19647
877.802	19499
877.93	19689
878.058	19571
878.185	19597
878.313	19689
878.441	19685
878.568	19613
878.696	19605
878.824	19788
878.951	19734
879.079	19898
879.206	19970
879.333	19898
879.461	19814
879.588	19845
879.715	19978
879.842	20046
879.97	19647
880.097	19537
880.224	19483
880.351	19620
880.478	19430
880.605	19483
880.732	19514
880.859	19651
880.986	19476
881.112	19453
881.239	19312
881.366	19297
881.493	19148
881.619	19076
881.746	19209
881.872	19069
881.999	19114
882.125	19110
882.252	19156
882.378	19053
882.505	19278
882.631	19031
882.757	18947
882.883	18932
883.01	18844
883.136	18806
883.262	18711
883.388	18745
883.514	18886
883.64	18856
883.766	18817
883.892	18696
884.018	18703
884.143	18833
884.269	18871
884.395	18582
884.52	18593
884.646	18517
884.772	18486
884.897	18410
885.023	18502
885.148	18593
885.274	18658
885.399	18627
885.524	18502
885.65	18589
885.775	18566
885.9	18410
886.025	18597
886.15	18688
886.275	18464
886.4	18467
886.525	18509
886.65	18403
886.775	18445
886.9	18509
887.025	18753
887.149	18513
887.274	18292
887.399	18357
887.523	18300
887.648	18194
887.773	18148
887.897	18353
888.021	18388
888.146	18144
888.27	18308
888.395	18410
888.519	18300
888.643	18315
888.767	18201
888.891	18110
889.015	18121
889.139	18197
889.263	17996
889.387	18159
889.511	18300
889.635	18194
889.759	18030
889.883	18129
890.006	18148
890.13	18091
890.254	18011
890.377	18026
890.501	17931
890.624	17828
890.748	17999
890.871	17729
890.995	17676
891.118	17737
891.241	17756
891.364	17752
891.488	17863
891.611	17798
891.734	17668
891.857	17756
891.98	17771
892.103	17767
892.226	17695
892.349	17767
892.471	17570
892.594	17718
892.717	17532
892.839	17676
892.962	17623
893.085	17748
893.207	17615
893.33	17627
893.452	17638
893.575	17672
893.697	17741
893.819	17817
893.941	17836
894.064	17707
894.186	17646
894.308	17558
894.43	17619
894.552	17893
894.674	17775
894.796	17535
894.918	17649
895.04	17748
895.161	17748
895.283	17783
895.405	17672
895.526	17699
895.648	17756
895.769	17665
895.891	17745
896.012	17863
896.134	17813
896.255	17741
896.376	17767
896.498	17737
896.619	17859
896.74	17756
896.861	17882
896.982	18114
897.103	18296
897.224	18087
897.345	18034
897.466	17927
897.587	17923
897.708	18155
897.828	18030
897.949	17984
898.07	17847
898.19	17950
898.311	18117
898.431	17950
898.552	17999
898.672	17950
898.792	18133
898.913	18087
899.033	17901
899.153	17767
899.273	17783
899.393	17676
899.513	17737
899.633	17726
899.753	17710
899.873	17767
899.993	17775
900.113	17722
900.232	17794
900.352	17668
900.472	17581
900.591	17512
900.711	17676
900.83	17592
900.95	17646
901.069	17604
901.189	17425
901.308	17307
901.427	17185
901.546	17284
901.665	17223
901.784	17246
901.904	17086
902.023	16995
902.141	16801
902.26	16771
902.379	16816
902.498	16786
902.617	16683
902.735	16774
902.854	16759
902.973	16615
903.091	16512
903.21	16417
903.328	16436
903.446	16367
903.565	16280
903.683	16253
903.801	16154
903.919	16226
904.038	16124
904.156	16021
904.274	16029
904.392	16048
904.51	16048
904.627	15968
904.745	16082
904.863	16013
904.981	15842
905.098	15732
905.216	15671
905.334	15751
905.451	15633
905.569	15690
905.686	15675
905.803	15690
905.921	15420
906.038	15595
906.155	15553
906.272	15355
906.389	15370
906.506	15230
906.623	15211
906.74	15214
906.857	15108
906.974	15036
907.091	15317
907.208	15397
907.324	15161
907.441	15180
907.557	15058
907.674	14960
907.79	14811
907.907	14929
908.023	14838
908.139	14925
908.256	14899
908.372	14937
908.488	14773
908.604	14739
908.72	14644
908.836	14670
908.952	14640
909.068	14762
909.184	14743
909.3	14648
909.415	14682
909.531	14697
909.647	14343
909.762	14400
909.878	14286
909.993	14343
910.108	14370
910.224	14415
910.339	14358
910.454	14225
910.57	14229
910.685	14084
910.8	14385
910.915	14396
911.03	14164
911.145	14035
911.259	13993
911.374	14050
911.489	13947
911.604	13860
911.718	13734
911.833	13776
911.947	13662
912.062	13491
912.176	13780
912.291	13765
912.405	13700
912.519	13845
912.633	13940
912.748	13818
912.862	13731
912.976	13502
913.09	13392
913.204	13502
913.318	13666
913.431	13605
913.545	13597
913.659	13571
913.772	13552
913.886	13445
914	13365
914.113	13544
914.226	13464
914.34	13514
914.453	13320
914.566	13392
914.68	13285
914.793	13369
914.906	13149
915.019	13015
915.132	13019
915.245	13031
915.358	13183
915.47	13091
915.583	13027
915.696	13137
915.809	13217
915.921	13217
916.034	12966
916.146	13012
916.259	12958
916.371	13114
916.483	13103
916.595	13000
916.708	13031
916.82	13004
916.932	12905
917.044	12928
917.156	12871
917.268	12783
917.38	12783
917.491	12787
917.603	12837
917.715	12878
917.826	12852
917.938	12760
918.049	12665
918.161	12692
918.272	12958
918.384	12943
918.495	12715
918.606	12604
918.717	12555
918.828	12677
918.939	12673
919.05	12528
919.161	12593
919.272	12414
919.383	12448
919.494	12608
919.604	12825
919.715	12559
919.826	12426
919.936	12448
920.047	12665
920.157	12646
920.267	12692
920.378	12532
920.488	12494
920.598	12791
920.708	12837
920.818	12620
920.928	12726
921.038	12741
921.148	12726
921.258	12593
921.368	12437
921.477	12399
921.587	12304
921.697	12247
921.806	12319
921.916	12186
922.025	12015
922.134	12034
922.244	11988
922.353	12060
922.462	11840
922.571	11863
922.68	11676
922.789	11684
922.898	11718
923.007	11596
923.116	11649
923.224	11688
923.333	11558
923.442	11493
923.55	11467
923.659	11433
923.767	11543
923.876	11478
923.984	11547
924.092	11330
924.201	11455
924.309	11452
924.417	11539
924.525	11459
924.633	11326
924.741	12330
924.849	11197
924.956	11345
925.064	11220
925.172	11201
925.279	11166
925.387	11231
925.494	11189
925.602	11292
925.709	11277
925.816	11151
925.924	11185
926.031	11315
926.138	11193
926.245	11254
926.352	11086
926.459	11216
926.566	11269
926.673	11045
926.779	10968
926.886	11003
926.993	10885
927.099	10812
927.206	10717
927.312	10805
927.419	10801
927.525	10786
927.631	10869
927.737	10725
927.843	10729
927.95	10573
928.056	10637
928.162	10729
928.267	10729
928.373	11311
928.479	10687
928.585	10565
928.69	10641
928.796	10733
928.901	10679
929.007	10394
929.112	10538
929.218	10527
929.323	10417
929.428	10402
929.533	10615
929.638	10405
929.743	10341
929.848	10379
929.953	10386
930.058	10310
930.163	10166
930.267	10135
930.372	10238
930.477	10120
930.581	10375
930.685	10166
930.79	10082
930.894	10021
930.998	10010
931.103	10188
931.207	9785
931.311	9698
931.415	9629
931.519	9431
931.623	9428
