Data from test_V78500241_1023.txt Node
Date: Fri Mar 25 14:40:50 CST 2022
User: usil
Spectrometer: V785-0024
Trigger mode: 0
Integration Time (sec): 4.000000E-1
Scans to average: 1
Nonlinearity correction enabled: false
Boxcar width: 0
Storing dark spectrum: false
XAxis mode: Wavelengths
Number of Pixels in Spectrum: 1024
>>>>>Begin Spectral Data<<<<<
801.071	22919
801.214	22934
801.356	22668
801.499	22592
801.641	22417
801.783	22230
801.926	22276
802.068	22325
802.211	22192
802.353	22177
802.496	21831
802.638	21812
802.78	21766
802.923	21797
803.065	21629
803.208	21686
803.35	21686
803.492	21774
803.635	21755
803.777	21732
803.919	21698
804.061	22002
804.204	21793
804.346	21656
804.488	21595
804.63	21652
804.773	21553
804.915	21603
805.057	21614
805.199	21587
805.341	21751
805.483	21720
805.626	21717
805.768	21587
805.91	21473
806.052	21625
806.194	21583
806.336	21816
806.478	21755
806.62	21701
806.762	21739
806.904	21960
807.046	22086
807.188	22150
807.33	22097
807.472	22185
807.614	21960
807.756	22181
807.898	22162
808.04	21979
808.182	22120
808.324	22234
808.465	22402
808.607	22763
808.749	22900
808.891	22987
809.033	23109
809.174	22908
809.316	22729
809.458	22596
809.6	22440
809.741	22538
809.883	22478
810.025	22634
810.166	22352
810.308	22322
810.45	22246
810.591	22173
810.733	22139
810.875	21987
811.016	21865
811.158	21846
811.299	21941
811.441	21926
811.582	21846
811.724	21857
811.865	21823
812.007	21869
812.148	21812
812.29	21751
812.431	22044
812.573	22177
812.714	22101
812.855	22363
812.997	22519
813.138	22588
813.279	22500
813.421	22459
813.562	22295
813.703	22128
813.845	22044
813.986	21709
814.127	21538
814.268	21428
814.41	21496
814.551	21412
814.692	21519
814.833	21435
814.974	21462
815.115	21294
815.256	21348
815.397	21138
815.539	21306
815.68	21058
815.821	21070
815.962	21074
816.103	21081
816.244	20849
816.385	20849
816.526	20838
816.666	20686
816.807	20606
816.948	20575
817.089	20670
817.23	20575
817.371	20552
817.512	20522
817.653	20415
817.793	20537
817.934	20579
818.075	20587
818.216	20530
818.356	20427
818.497	20282
818.638	20142
818.778	20172
818.919	20305
819.06	20195
819.2	20370
819.341	20400
819.481	20305
819.622	20560
819.762	20701
819.903	20655
820.043	20541
820.184	20598
820.324	20545
820.465	20564
820.605	20442
820.746	20412
820.886	20370
821.026	20480
821.167	20381
821.307	20480
821.447	20476
821.588	20301
821.728	20176
821.868	20126
822.008	19761
822.149	19791
822.289	19890
822.429	19586
822.569	19460
822.709	19662
822.849	19422
822.99	19441
823.13	19434
823.27	19369
823.41	19126
823.55	19061
823.69	19240
823.83	19194
823.97	19095
824.11	19072
824.25	18943
824.389	18977
824.529	18973
824.669	18920
824.809	18996
824.949	19107
825.089	19038
825.228	18882
825.368	18715
825.508	18692
825.648	18833
825.787	18871
825.927	18764
826.067	18696
826.206	18779
826.346	18791
826.485	18814
826.625	18589
826.765	18859
826.904	18681
827.044	18475
827.183	18486
827.323	18418
827.462	18471
827.601	18407
827.741	18407
827.88	18353
828.02	18247
828.159	18433
828.298	18403
828.437	18395
828.577	18384
828.716	18513
828.855	18285
828.994	18060
829.134	18315
829.273	18171
829.412	18209
829.551	17999
829.69	18121
829.829	18327
829.968	18224
830.107	18125
830.246	18216
830.385	18155
830.524	18079
830.663	17969
830.802	17920
830.941	17752
831.08	17741
831.219	17908
831.357	17939
831.496	17946
831.635	17741
831.774	17634
831.913	17672
832.051	17505
832.19	17585
832.329	17592
832.467	17539
832.606	17414
832.744	17482
832.883	17452
833.022	17463
833.16	17558
833.299	17509
833.437	17547
833.576	17474
833.714	17630
833.852	17585
833.991	17642
834.129	17726
834.267	17566
834.406	17687
834.544	17573
834.682	17577
834.821	17532
834.959	17680
835.097	17509
835.235	17752
835.373	17562
835.511	17551
835.65	17482
835.788	17421
835.926	17364
836.064	17235
836.202	17280
836.34	17410
836.478	17532
836.615	17364
836.753	17448
836.891	17474
837.029	17608
837.167	17455
837.305	17402
837.443	17315
837.58	17246
837.718	17387
837.856	17315
837.993	17299
838.131	17345
838.269	17265
838.406	17246
838.544	17079
838.681	16976
838.819	16991
838.956	16778
839.094	16858
839.231	16854
839.369	17041
839.506	17250
839.643	17200
839.781	16816
839.918	16809
840.055	16812
840.193	16812
840.33	16812
840.467	16809
840.604	16850
840.742	17121
840.879	16675
841.016	16763
841.153	16694
841.29	16949
841.427	16843
841.564	16816
841.701	16847
841.838	16820
841.975	16706
842.112	16847
842.249	16618
842.385	16497
842.522	16812
842.659	16584
842.796	16675
842.933	16626
843.069	16527
843.206	16466
843.343	16675
843.479	16611
843.616	16596
843.752	16455
843.889	16371
844.025	16584
844.162	16367
844.298	16504
844.435	16424
844.571	16379
844.708	16489
844.844	16618
844.98	16577
845.117	16558
845.253	16447
845.389	16451
845.525	16546
845.661	16763
845.798	17086
845.934	17132
846.07	17147
846.206	17353
846.342	17200
846.478	16809
846.614	16413
846.75	16249
846.886	16071
847.022	16230
847.158	16013
847.294	16010
847.429	16029
847.565	15964
847.701	16192
847.837	15743
847.972	15644
848.108	15819
848.244	15762
848.379	15534
848.515	15519
848.65	15538
848.786	15587
848.921	15549
849.057	15572
849.192	15705
849.328	15538
849.463	15511
849.598	15500
849.734	15473
849.869	15389
850.004	15252
850.14	15374
850.275	15332
850.41	15287
850.545	15249
850.68	15275
850.815	15306
850.95	15374
851.085	15549
851.22	15310
851.355	15302
851.49	15348
851.625	15306
851.76	15188
851.895	15169
852.03	15157
852.165	15302
852.299	15203
852.434	15393
852.569	15298
852.703	15412
852.838	15462
852.973	15374
853.107	15405
853.242	15344
853.376	15211
853.511	15146
853.645	15097
853.78	15249
853.914	15173
854.048	15100
854.183	15138
854.317	15203
854.451	15370
854.585	15203
854.72	15058
854.854	15222
854.988	15119
855.122	15108
855.256	15097
855.39	15154
855.524	15260
855.658	15135
855.792	15222
855.926	15188
856.06	15146
856.194	15252
856.327	15100
856.461	15157
856.595	15142
856.729	15135
856.862	15313
856.996	15173
857.13	15291
857.263	15230
857.397	15298
857.53	15184
857.664	15249
857.797	15123
857.931	15260
858.064	15279
858.197	15268
858.331	15154
858.464	15043
858.597	15070
858.731	15165
858.864	15150
858.997	15093
859.13	15081
859.263	15169
859.396	15176
859.529	15154
859.662	15127
859.795	15032
859.928	15146
860.061	15245
860.194	15340
860.327	15214
860.46	15104
860.592	15233
860.725	15195
860.858	15233
860.99	15150
861.123	15150
861.256	15127
861.388	15233
861.521	15747
861.653	14902
861.786	15009
861.918	15055
862.05	15058
862.183	15058
862.315	15104
862.447	15123
862.58	15062
862.712	14914
862.844	14838
862.976	15017
863.108	14979
863.24	15283
863.372	14842
863.504	14899
863.636	14910
863.768	15028
863.9	14990
864.032	14834
864.164	14963
864.296	14963
864.428	14975
864.559	15043
864.691	15001
864.823	14967
864.954	14979
865.086	14956
865.217	14982
865.349	14819
865.48	14944
865.612	14883
865.743	15051
865.875	14994
866.006	14872
866.137	14941
866.269	14815
866.4	14811
866.531	14834
866.662	14762
866.793	14815
866.924	14792
867.055	14876
867.186	14967
867.317	14819
867.448	14872
867.579	14762
867.71	14804
867.841	14735
867.972	14857
868.103	14902
868.233	14819
868.364	14849
868.495	14986
868.625	15142
868.756	15207
868.886	15077
869.017	15157
869.147	15294
869.278	15317
869.408	15081
869.539	15093
869.669	15157
869.799	15199
869.929	15283
870.06	15321
870.19	15355
870.32	15412
870.45	15386
870.58	15473
870.71	15622
870.84	15682
870.97	15519
871.1	15462
871.23	15633
871.36	15736
871.489	15629
871.619	15698
871.749	15682
871.879	15778
872.008	15869
872.138	15717
872.267	15743
872.397	15648
872.526	15557
872.656	15473
872.785	15641
872.915	15762
873.044	15781
873.173	15709
873.303	15838
873.432	15778
873.561	15812
873.69	15663
873.819	15717
873.948	15739
874.077	15823
874.206	15713
874.335	15781
874.464	15876
874.593	16059
874.722	16101
874.851	16135
874.979	16105
875.108	16093
875.237	16002
875.365	16032
875.494	16010
875.623	16196
875.751	16109
875.88	16071
876.008	16287
876.136	16341
876.265	16481
876.393	16599
876.521	16558
876.65	16630
876.778	16588
876.906	16550
877.034	16451
877.162	16538
877.29	16519
877.418	16459
877.546	16523
877.674	16550
877.802	16573
877.93	16569
878.058	16504
878.185	16493
878.313	16584
878.441	16577
878.568	16519
878.696	16508
878.824	16634
878.951	16778
879.079	16930
879.206	17200
879.333	17189
879.461	17067
879.588	17155
879.715	17246
879.842	17364
879.97	16946
880.097	16653
880.224	16527
880.351	16569
880.478	16592
880.605	16409
880.732	16531
880.859	16850
880.986	16481
881.112	16531
881.239	16382
881.366	16287
881.493	16284
881.619	16086
881.746	16116
881.872	16101
881.999	16071
882.125	16036
882.252	16200
882.378	16169
882.505	16226
882.631	16048
882.757	15934
882.883	15930
883.01	15895
883.136	15918
883.262	15899
883.388	15743
883.514	15953
883.64	16051
883.766	15945
883.892	15823
884.018	15827
884.143	15888
884.269	15968
884.395	15701
884.52	15701
884.646	15656
884.772	15641
884.897	15523
885.023	15591
885.148	15793
885.274	15876
885.399	15751
885.524	15610
885.65	15595
885.775	15747
885.9	15736
886.025	15827
886.15	15644
886.275	15549
886.4	15492
886.525	15572
886.65	15526
886.775	15473
886.9	15671
887.025	15800
887.149	15690
887.274	15462
887.399	15378
887.523	15340
887.648	15332
887.773	15325
887.897	15401
888.021	15447
888.146	15450
888.27	15359
888.395	15538
888.519	15405
888.643	15431
888.767	15485
888.891	15348
889.015	15252
889.139	15313
889.263	15195
889.387	15279
889.511	15416
889.635	15344
889.759	15230
889.883	15192
890.006	15146
890.13	15370
890.254	15058
890.377	15169
890.501	15020
890.624	14986
890.748	14944
890.871	15017
890.995	14830
891.118	14712
891.241	14853
891.364	14910
891.488	14933
891.611	14830
891.734	14910
891.857	14937
891.98	14880
892.103	14914
892.226	14906
892.349	14807
892.471	14800
892.594	14792
892.717	14902
892.839	14861
892.962	14941
893.085	14887
893.207	14880
893.33	14811
893.452	14735
893.575	14921
893.697	14796
893.819	14933
893.941	14975
894.064	15066
894.186	14773
894.308	14891
894.43	14960
894.552	15017
894.674	14994
894.796	14743
894.918	14712
895.04	14838
895.161	14994
895.283	14899
895.405	14773
895.526	14883
895.648	14861
895.769	14857
895.891	14952
896.012	15020
896.134	15005
896.255	14899
896.376	15058
896.498	14944
896.619	15116
896.74	14899
896.861	14998
896.982	15252
897.103	15545
897.224	15279
897.345	15268
897.466	15161
897.587	15237
897.708	15507
897.828	15306
897.949	15203
898.07	15051
898.19	15180
898.311	15412
898.431	15291
898.552	15313
898.672	15450
898.792	15545
898.913	15329
899.033	15260
899.153	15154
899.273	15138
899.393	15207
899.513	15195
899.633	15222
899.753	15192
899.873	15116
899.993	15169
900.113	15108
900.232	15298
900.352	15176
900.472	15119
900.591	14971
900.711	14990
900.83	15062
900.95	15138
901.069	15161
901.189	14963
901.308	14731
901.427	14629
901.546	14716
901.665	14735
901.784	14701
901.904	14606
902.023	14488
902.141	14240
902.26	14263
902.379	14305
902.498	14210
902.617	14161
902.735	14305
902.854	14278
902.973	14199
903.091	14005
903.21	13955
903.328	14035
903.446	13986
903.565	13860
903.683	13868
903.801	13700
903.919	13750
904.038	13731
904.156	13613
904.274	13666
904.392	13597
904.51	13647
904.627	13518
904.745	13677
904.863	13590
904.981	13381
905.098	13316
905.216	13244
905.334	13365
905.451	13297
905.569	13327
905.686	13339
905.803	13270
905.921	13122
906.038	13149
906.155	13069
906.272	13008
906.389	13088
906.506	12776
906.623	12795
906.74	12856
906.857	12734
906.974	12852
907.091	12897
907.208	12996
907.324	12848
907.441	12810
907.557	12669
907.674	12631
907.79	12601
907.907	12578
908.023	12654
908.139	12601
908.256	12544
908.372	12483
908.488	12498
908.604	12429
908.72	12334
908.836	12311
908.952	12239
909.068	12391
909.184	12445
909.3	12327
909.415	12388
909.531	12327
909.647	12079
909.762	12140
909.878	12129
909.993	12159
910.108	12178
910.224	12095
910.339	12186
910.454	12045
910.57	11996
910.685	11821
910.8	12209
910.915	12152
911.03	11958
911.145	11832
911.259	11832
911.374	11798
911.489	11741
911.604	11619
911.718	11497
911.833	11516
911.947	11433
912.062	11433
912.176	11429
912.291	11554
912.405	11478
912.519	11722
912.633	11748
912.748	11611
912.862	11608
912.976	11398
913.09	11280
913.204	11414
913.318	11486
913.431	11482
913.545	11512
913.659	11554
913.772	11459
913.886	11284
914	11216
914.113	11368
914.226	11414
914.34	11383
914.453	11178
914.566	11398
914.68	11178
914.793	11227
914.906	11083
915.019	10968
915.132	10987
915.245	11041
915.358	11064
915.47	10999
915.583	11079
915.696	11132
915.809	11197
915.921	11178
916.034	11033
916.146	11033
916.259	10942
916.371	11105
916.483	10980
916.595	10919
916.708	11025
916.82	10938
916.932	10946
917.044	10957
917.156	10896
917.268	10774
917.38	10835
917.491	10782
917.603	10831
917.715	10881
917.826	10968
917.938	10858
918.049	10698
918.161	10839
918.272	10949
918.384	11003
918.495	10790
918.606	10710
918.717	10618
918.828	10816
918.939	10714
919.05	10698
919.161	10736
919.272	10485
919.383	10565
919.494	10828
919.604	10919
919.715	10759
919.826	10679
919.936	10698
920.047	10790
920.157	10717
920.267	10869
920.378	10740
920.488	10626
920.598	10843
920.708	11083
920.818	10927
920.928	10949
921.038	11014
921.148	11014
921.258	10717
921.368	10714
921.477	10588
921.587	10546
921.697	10386
921.806	10607
921.916	10432
922.025	10360
922.134	10261
922.244	10303
922.353	10230
922.462	10078
922.571	10082
922.68	9930
922.789	9941
922.898	9972
923.007	9884
923.116	9930
923.224	9918
923.333	9915
923.442	9823
923.55	9728
923.659	9823
923.767	9865
923.876	9743
923.984	9850
924.092	9690
924.201	9778
924.309	9800
924.417	9781
924.525	9694
924.633	9694
924.741	10653
924.849	9591
924.956	9740
925.064	9500
925.172	9473
925.279	9526
925.387	9603
925.494	9572
925.602	9671
925.709	9633
925.816	9481
925.924	9526
926.031	9633
926.138	9568
926.245	9641
926.352	9469
926.459	9549
926.566	9629
926.673	9504
926.779	9447
926.886	9420
926.993	9325
927.099	9245
927.206	9203
927.312	9150
927.419	9336
927.525	9291
927.631	9275
927.737	9188
927.843	9097
927.95	9062
928.056	9074
928.162	9150
928.267	9214
928.373	9816
928.479	9283
928.585	8998
928.69	9062
928.796	9135
928.901	9062
929.007	8872
929.112	9157
929.218	9024
929.323	8937
929.428	8967
929.533	9097
929.638	8864
929.743	8887
929.848	8994
929.953	8967
930.058	8925
930.163	8720
930.267	8693
930.372	8811
930.477	8571
930.581	8944
930.685	8754
930.79	8644
930.894	8746
930.998	8648
931.103	8785
931.207	8381
931.311	8347
931.415	8336
931.519	8126
931.623	8107
