Data from test_V78500241_955.txt Node
Date: Fri Mar 25 14:40:22 CST 2022
User: usil
Spectrometer: V785-0024
Trigger mode: 0
Integration Time (sec): 4.000000E-1
Scans to average: 1
Nonlinearity correction enabled: false
Boxcar width: 0
Storing dark spectrum: false
XAxis mode: Wavelengths
Number of Pixels in Spectrum: 1024
>>>>>Begin Spectral Data<<<<<
801.071	23543
801.214	23417
801.356	23155
801.499	23079
801.641	23022
801.783	22961
801.926	22889
802.068	22816
802.211	22702
802.353	22573
802.496	22474
802.638	22367
802.78	22379
802.923	22253
803.065	22272
803.208	22265
803.35	22310
803.492	22413
803.635	22447
803.777	22303
803.919	22451
804.061	22729
804.204	22390
804.346	22082
804.488	22135
804.63	22192
804.773	22158
804.915	22154
805.057	22329
805.199	22101
805.341	22291
805.483	22432
805.626	22246
805.768	22177
805.91	22188
806.052	22352
806.194	22128
806.336	22497
806.478	22185
806.62	22409
806.762	22447
806.904	22611
807.046	22835
807.188	22744
807.33	22767
807.472	22915
807.614	22850
807.756	22927
807.898	23060
808.04	23204
808.182	23391
808.324	23619
808.465	23824
808.607	24319
808.749	24741
808.891	24856
809.033	24996
809.174	24658
809.316	24399
809.458	24041
809.6	23676
809.741	23471
809.883	23436
810.025	23349
810.166	23162
810.308	23109
810.45	22976
810.591	22961
810.733	22729
810.875	22668
811.016	22485
811.158	22538
811.299	22637
811.441	22660
811.582	22618
811.724	22481
811.865	22443
812.007	22379
812.148	22645
812.29	22497
812.431	22694
812.573	22820
812.714	22767
812.855	23132
812.997	23048
813.138	23216
813.279	22927
813.421	22953
813.562	22889
813.703	22691
813.845	22603
813.986	22192
814.127	22242
814.268	22082
814.41	21991
814.551	21915
814.692	22017
814.833	21865
814.974	21861
815.115	21953
815.256	21835
815.397	21793
815.539	21774
815.68	21648
815.821	21648
815.962	21736
816.103	21690
816.244	21641
816.385	21500
816.526	21397
816.666	21245
816.807	21127
816.948	21142
817.089	21203
817.23	21188
817.371	21112
817.512	21241
817.653	21062
817.793	21116
817.934	21036
818.075	21150
818.216	21135
818.356	20986
818.497	20941
818.638	20743
818.778	20716
818.919	20686
819.06	20667
819.2	20925
819.341	20941
819.481	20861
819.622	21032
819.762	21294
819.903	21199
820.043	21074
820.184	21127
820.324	21039
820.465	20998
820.605	21096
820.746	21036
820.886	20819
821.026	21127
821.167	20960
821.307	20944
821.447	21013
821.588	20823
821.728	20670
821.868	20613
822.008	20457
822.149	20393
822.289	20320
822.429	20206
822.569	20172
822.709	20134
822.849	19875
822.99	19757
823.13	19909
823.27	19822
823.41	19791
823.55	19689
823.69	19674
823.83	19696
823.97	19689
824.11	19529
824.25	19457
824.389	19468
824.529	19594
824.669	19567
824.809	19525
824.949	19525
825.089	19487
825.228	19571
825.368	19308
825.508	19331
825.648	19339
825.787	19358
825.927	19400
826.067	19331
826.206	19251
826.346	19377
826.485	19301
826.625	19266
826.765	19403
826.904	19343
827.044	19148
827.183	19008
827.323	18878
827.462	18920
827.601	18871
827.741	18973
827.88	18897
828.02	18871
828.159	18954
828.298	18924
828.437	18954
828.577	18909
828.716	19038
828.855	18882
828.994	18639
829.134	18681
829.273	18719
829.412	18635
829.551	18646
829.69	18517
829.829	18627
829.968	18776
830.107	18722
830.246	18734
830.385	18563
830.524	18578
830.663	18525
830.802	18407
830.941	18270
831.08	18311
831.219	18391
831.357	18353
831.496	18582
831.635	18308
831.774	18167
831.913	18205
832.051	18117
832.19	18125
832.329	18220
832.467	17999
832.606	17935
832.744	17912
832.883	17942
833.022	17935
833.16	18133
833.299	18022
833.437	18011
833.576	18083
833.714	18114
833.852	18197
833.991	18083
834.129	18273
834.267	18167
834.406	18178
834.544	18072
834.682	18030
834.821	18045
834.959	18148
835.097	17996
835.235	18087
835.373	18167
835.511	18049
835.65	17855
835.788	17805
835.926	17783
836.064	17764
836.202	17745
836.34	17885
836.478	17980
836.615	17866
836.753	17912
836.891	17927
837.029	17889
837.167	17874
837.305	17760
837.443	17718
837.58	17756
837.718	17863
837.856	17707
837.993	17722
838.131	17802
838.269	17699
838.406	17714
838.544	17630
838.681	17372
838.819	17406
838.956	17311
839.094	17208
839.231	17326
839.369	17414
839.506	17680
839.643	17490
839.781	17166
839.918	17223
840.055	17197
840.193	17178
840.33	17246
840.467	17242
840.604	17296
840.742	17463
840.879	17094
841.016	17189
841.153	17098
841.29	17292
841.427	17197
841.564	17239
841.701	17094
841.838	17143
841.975	17086
842.112	17189
842.249	17094
842.385	17056
842.522	17197
842.659	17105
842.796	16965
842.933	16980
843.069	16946
843.206	16984
843.343	17086
843.479	16995
843.616	17060
843.752	16816
843.889	16812
844.025	16900
844.162	16755
844.298	16892
844.435	16892
844.571	16885
844.708	16805
844.844	17060
844.98	17113
845.117	17181
845.253	17018
845.389	17121
845.525	17463
845.661	17916
845.798	18433
845.934	18985
846.07	19213
846.206	19168
846.342	18783
846.478	18140
846.614	17429
846.75	16885
846.886	16725
847.022	16596
847.158	16508
847.294	16508
847.429	16443
847.565	16371
847.701	16561
847.837	16200
847.972	16071
848.108	16131
848.244	16234
848.379	15945
848.515	15949
848.65	15854
848.786	15968
848.921	15979
849.057	15998
849.192	15998
849.328	15884
849.463	15922
849.598	15846
849.734	15808
849.869	15770
850.004	15755
850.14	15762
850.275	15717
850.41	15580
850.545	15739
850.68	15660
850.815	15717
850.95	15743
851.085	15835
851.22	15827
851.355	15652
851.49	15629
851.625	15606
851.76	15717
851.895	15534
852.03	15587
852.165	15690
852.299	15660
852.434	15694
852.569	15770
852.703	15770
852.838	15766
852.973	15857
853.107	15888
853.242	15625
853.376	15648
853.511	15424
853.645	15477
853.78	15595
853.914	15656
854.048	15534
854.183	15557
854.317	15663
854.451	15766
854.585	15469
854.72	15511
854.854	15629
854.988	15428
855.122	15507
855.256	15443
855.39	15447
855.524	15599
855.658	15561
855.792	15561
855.926	15530
856.06	15656
856.194	15618
856.327	15504
856.461	15485
856.595	15496
856.729	15466
856.862	15637
856.996	15515
857.13	15667
857.263	15584
857.397	15732
857.53	15450
857.664	15545
857.797	15652
857.931	15625
858.064	15549
858.197	15606
858.331	15667
858.464	15447
858.597	15420
858.731	15481
858.864	15545
858.997	15473
859.13	15603
859.263	15610
859.396	15526
859.529	15568
859.662	15420
859.795	15477
859.928	15473
860.061	15641
860.194	15720
860.327	15511
860.46	15485
860.592	15610
860.725	15633
860.858	15557
860.99	15523
861.123	15519
861.256	15530
861.388	15504
861.521	16090
861.653	15367
861.786	15367
861.918	15374
862.05	15351
862.183	15587
862.315	15545
862.447	15606
862.58	15500
862.712	15283
862.844	15252
862.976	15370
863.108	15275
863.24	15739
863.372	15142
863.504	15249
863.636	15313
863.768	15317
863.9	15233
864.032	15268
864.164	15310
864.296	15287
864.428	15306
864.559	15363
864.691	15370
864.823	15272
864.954	15245
865.086	15173
865.217	15268
865.349	15302
865.48	15252
865.612	15264
865.743	15321
865.875	15336
866.006	15268
866.137	15180
866.269	15214
866.4	15195
866.531	15176
866.662	15199
866.793	15249
866.924	15203
867.055	15176
867.186	15176
867.317	15131
867.448	15195
867.579	15188
867.71	15161
867.841	15169
867.972	15211
868.103	15306
868.233	15074
868.364	15157
868.495	15287
868.625	15481
868.756	15580
868.886	15397
869.017	15431
869.147	15580
869.278	15568
869.408	15504
869.539	15428
869.669	15469
869.799	15485
869.929	15629
870.06	15523
870.19	15804
870.32	15648
870.45	15793
870.58	15880
870.71	15918
870.84	16006
870.97	15819
871.1	15759
871.23	15972
871.36	16090
871.489	15941
871.619	16063
871.749	16044
871.879	16036
872.008	16158
872.138	15979
872.267	16013
872.397	15972
872.526	15895
872.656	15888
872.785	15892
872.915	16051
873.044	16166
873.173	16128
873.303	16223
873.432	16166
873.561	16219
873.69	16154
873.819	16086
873.948	16253
874.077	16177
874.206	16143
874.335	16105
874.464	16329
874.593	16394
874.722	16379
874.851	16421
874.979	16462
875.108	16394
875.237	16432
875.365	16398
875.494	16436
875.623	16512
875.751	16481
875.88	16561
876.008	16615
876.136	16702
876.265	16889
876.393	17220
876.521	17010
876.65	16972
876.778	16961
876.906	16896
877.034	16835
877.162	16946
877.29	16847
877.418	16991
877.546	16919
877.674	16976
877.802	17033
877.93	16995
878.058	16991
878.185	16972
878.313	17075
878.441	17029
878.568	16987
878.696	17105
878.824	17102
878.951	17410
879.079	17703
879.206	17942
879.333	17958
879.461	18114
879.588	18258
879.715	18315
879.842	18456
879.97	17866
880.097	17600
880.224	17288
880.351	17288
880.478	17124
880.605	17029
880.732	17010
880.859	17208
880.986	17086
881.112	17105
881.239	16934
881.366	16740
881.493	16706
881.619	16637
881.746	16752
881.872	16630
881.999	16618
882.125	16611
882.252	16767
882.378	16675
882.505	16869
882.631	16713
882.757	16649
882.883	16558
883.01	16470
883.136	16386
883.262	16360
883.388	16485
883.514	16535
883.64	16535
883.766	16516
883.892	16386
884.018	16390
884.143	16573
884.269	16546
884.395	16322
884.52	16188
884.646	16147
884.772	16215
884.897	16082
885.023	16150
885.148	16367
885.274	16371
885.399	16299
885.524	16169
885.65	16116
885.775	16162
885.9	16090
886.025	16230
886.15	16158
886.275	16021
886.4	16101
886.525	16017
886.65	15934
886.775	16036
886.9	16109
887.025	16246
887.149	16055
887.274	15846
887.399	15922
887.523	15880
887.648	15743
887.773	15747
887.897	15922
888.021	15888
888.146	15682
888.27	15892
888.395	15926
888.519	15800
888.643	15861
888.767	15797
888.891	15694
889.015	15622
889.139	15629
889.263	15511
889.387	15709
889.511	15785
889.635	15755
889.759	15618
889.883	15660
890.006	15557
890.13	15682
890.254	15420
890.377	15500
890.501	15431
890.624	15428
890.748	15412
890.871	15313
890.995	15173
891.118	15017
891.241	15241
891.364	15241
891.488	15298
891.611	15222
891.734	15116
891.857	15260
891.98	15241
892.103	15237
892.226	15279
892.349	15230
892.471	15036
892.594	15252
892.717	15321
892.839	15138
892.962	15207
893.085	15275
893.207	15146
893.33	15146
893.452	15214
893.575	15226
893.697	15173
893.819	15401
893.941	15367
894.064	15351
894.186	15119
894.308	15230
894.43	15294
894.552	15401
894.674	15325
894.796	15097
894.918	15146
895.04	15146
895.161	15325
895.283	15291
895.405	15214
895.526	15256
895.648	15245
895.769	15310
895.891	15291
896.012	15382
896.134	15329
896.255	15351
896.376	15275
896.498	15359
896.619	15363
896.74	15317
896.861	15439
896.982	15576
897.103	15781
897.224	15622
897.345	15618
897.466	15477
897.587	15622
897.708	15709
897.828	15500
897.949	15584
898.07	15405
898.19	15606
898.311	15720
898.431	15641
898.552	15705
898.672	15732
898.792	15755
898.913	15751
899.033	15538
899.153	15515
899.273	15302
899.393	15378
899.513	15584
899.633	15511
899.753	15576
899.873	15492
899.993	15526
900.113	15576
900.232	15530
900.352	15458
900.472	15367
900.591	15420
900.711	15340
900.83	15344
900.95	15473
901.069	15454
901.189	15332
901.308	15085
901.427	15062
901.546	15047
901.665	14986
901.784	15032
901.904	14941
902.023	14853
902.141	14667
902.26	14625
902.379	14632
902.498	14549
902.617	14537
902.735	14651
902.854	14575
902.973	14446
903.091	14301
903.21	14233
903.328	14294
903.446	14161
903.565	14107
903.683	14187
903.801	14050
903.919	14020
904.038	14062
904.156	13898
904.274	13947
904.392	13898
904.51	13917
904.627	13894
904.745	13879
904.863	13967
904.981	13677
905.098	13594
905.216	13544
905.334	13693
905.451	13639
905.569	13575
905.686	13575
905.803	13582
905.921	13350
906.038	13514
906.155	13525
906.272	13266
906.389	13221
906.506	13145
906.623	13084
906.74	13129
906.857	13042
906.974	13012
907.091	13221
907.208	13312
907.324	13110
907.441	13046
907.557	12856
907.674	12916
907.79	12817
907.907	12867
908.023	12875
908.139	12810
908.256	12776
908.372	12806
908.488	12738
908.604	12627
908.72	12608
908.836	12544
908.952	12513
909.068	12658
909.184	12684
909.3	12646
909.415	12658
909.531	12669
909.647	12350
909.762	12342
909.878	12243
909.993	12323
910.108	12433
910.224	12285
910.339	12357
910.454	12292
910.57	12213
910.685	12125
910.8	12437
910.915	12395
911.03	12254
911.145	11992
911.259	12034
911.374	12053
911.489	12011
911.604	11897
911.718	11676
911.833	11805
911.947	11680
912.062	11512
912.176	11722
912.291	11726
912.405	11847
912.519	11973
912.633	11954
912.748	11908
912.862	11794
912.976	11615
913.09	11570
913.204	11577
913.318	11592
913.431	11707
913.545	11661
913.659	11680
913.772	11665
913.886	11478
914	11528
914.113	11653
914.226	11672
914.34	11615
914.453	11452
914.566	11528
914.68	11391
914.793	11543
914.906	11303
915.019	11189
915.132	11166
915.245	11254
915.358	11208
915.47	11265
915.583	11299
915.696	11322
915.809	11433
915.921	11410
916.034	11242
916.146	11117
916.259	11185
916.371	11288
916.483	11246
916.595	11197
916.708	11193
916.82	11178
916.932	11147
917.044	11151
917.156	11071
917.268	11037
917.38	11029
917.491	11071
917.603	11048
917.715	11151
917.826	11098
917.938	10972
918.049	10892
918.161	11064
918.272	11212
918.384	11269
918.495	11033
918.606	10923
918.717	10885
918.828	10942
918.939	10968
919.05	10828
919.161	10892
919.272	10793
919.383	10801
919.494	10930
919.604	11128
919.715	10900
919.826	10862
919.936	10885
920.047	10953
920.157	10862
920.267	11071
920.378	10911
920.488	10896
920.598	11075
920.708	11231
920.818	11071
920.928	11067
921.038	11273
921.148	11178
921.258	10965
921.368	10835
921.477	10790
921.587	10744
921.697	10588
921.806	10755
921.916	10580
922.025	10466
922.134	10386
922.244	10432
922.353	10402
922.462	10318
922.571	10177
922.68	10173
922.789	10078
922.898	10101
923.007	10059
923.116	10158
923.224	10120
923.333	10071
923.442	10051
923.55	9968
923.659	9926
923.767	10074
923.876	9903
923.984	9975
924.092	9911
924.201	9979
924.309	9964
924.417	9975
924.525	9922
924.633	10044
924.741	10717
924.849	9709
924.956	9930
925.064	9713
925.172	9633
925.279	9694
925.387	9774
925.494	9705
925.602	9850
925.709	9793
925.816	9663
925.924	9698
926.031	9838
926.138	9671
926.245	9747
926.352	9625
926.459	9774
926.566	9857
926.673	9648
926.779	9652
926.886	9568
926.993	9473
927.099	9477
927.206	9329
927.312	9405
927.419	9447
927.525	9378
927.631	9447
927.737	9336
927.843	9283
927.95	9211
928.056	9321
928.162	9287
928.267	9393
928.373	9797
928.479	9340
928.585	9157
928.69	9363
928.796	9279
928.901	9226
929.007	9047
929.112	9184
929.218	9192
929.323	9154
929.428	9013
929.533	9294
929.638	9051
929.743	9089
929.848	9230
929.953	9142
930.058	8990
930.163	8804
930.267	8895
930.372	9039
930.477	8750
930.581	9077
930.685	8918
930.79	8800
930.894	8857
930.998	8766
931.103	8944
931.207	8621
931.311	8503
931.415	8511
931.519	8294
931.623	8252
