Data from test_V78500241_2453.txt Node
Date: Fri Mar 25 14:50:47 CST 2022
User: usil
Spectrometer: V785-0024
Trigger mode: 0
Integration Time (sec): 4.000000E-1
Scans to average: 1
Nonlinearity correction enabled: false
Boxcar width: 0
Storing dark spectrum: false
XAxis mode: Wavelengths
Number of Pixels in Spectrum: 1024
>>>>>Begin Spectral Data<<<<<
801.071	22044
801.214	21892
801.356	21880
801.499	21614
801.641	21473
801.783	21458
801.926	21515
802.068	21321
802.211	21348
802.353	21268
802.496	21062
802.638	20921
802.78	20899
802.923	20910
803.065	20754
803.208	20746
803.35	20682
803.492	20853
803.635	20880
803.777	20864
803.919	20880
804.061	21180
804.204	20762
804.346	20739
804.488	20640
804.63	20781
804.773	20689
804.915	20701
805.057	20796
805.199	20640
805.341	20781
805.483	20929
805.626	20682
805.768	20640
805.91	20815
806.052	20712
806.194	20693
806.336	20876
806.478	20686
806.62	20552
806.762	20785
806.904	20960
807.046	21001
807.188	20998
807.33	21032
807.472	21184
807.614	20971
807.756	20929
807.898	20823
808.04	20796
808.182	20682
808.324	20792
808.465	20796
808.607	20929
808.749	21066
808.891	21131
809.033	21161
809.174	21287
809.316	21119
809.458	21173
809.6	21039
809.741	21138
809.883	21226
810.025	21283
810.166	21264
810.308	21157
810.45	21081
810.591	21013
810.733	20891
810.875	20960
811.016	20727
811.158	20838
811.299	20902
811.441	20902
811.582	20963
811.724	20887
811.865	20769
812.007	20861
812.148	20819
812.29	20887
812.431	21070
812.573	21199
812.714	21237
812.855	21397
812.997	21473
813.138	21614
813.279	21534
813.421	21287
813.562	21287
813.703	21062
813.845	20956
813.986	20682
814.127	20617
814.268	20469
814.41	20461
814.551	20278
814.692	20492
814.833	20404
814.974	20301
815.115	20533
815.256	20259
815.397	20191
815.539	20347
815.68	20172
815.821	20073
815.962	20183
816.103	20062
816.244	19970
816.385	19791
816.526	19902
816.666	19658
816.807	19499
816.948	19639
817.089	19666
817.23	19628
817.371	19624
817.512	19586
817.653	19472
817.793	19567
817.934	19529
818.075	19457
818.216	19468
818.356	19476
818.497	19343
818.638	19274
818.778	19156
818.919	19225
819.06	19312
819.2	19343
819.341	19430
819.481	19464
819.622	19529
819.762	19715
819.903	19643
820.043	19548
820.184	19613
820.324	19499
820.465	19594
820.605	19601
820.746	19445
820.886	19384
821.026	19483
821.167	19460
821.307	19601
821.447	19495
821.588	19285
821.728	19289
821.868	19110
822.008	18932
822.149	19004
822.289	18817
822.429	18612
822.569	18597
822.709	18574
822.849	18403
822.99	18300
823.13	18422
823.27	18315
823.41	18186
823.55	18224
823.69	18174
823.83	18296
823.97	18178
824.11	18110
824.25	18049
824.389	17920
824.529	18136
824.669	18007
824.809	18095
824.949	17961
825.089	18079
825.228	17931
825.368	17805
825.508	17821
825.648	17870
825.787	17824
825.927	17813
826.067	17729
826.206	17790
826.346	17821
826.485	17859
826.625	17745
826.765	17847
826.904	17859
827.044	17600
827.183	17482
827.323	17547
827.462	17551
827.601	17383
827.741	17433
827.88	17524
828.02	17330
828.159	17452
828.298	17440
828.437	17516
828.577	17433
828.716	17551
828.855	17467
828.994	17277
829.134	17303
829.273	17318
829.412	17128
829.551	17197
829.69	17223
829.829	17159
829.968	17337
830.107	17345
830.246	17311
830.385	17197
830.524	17090
830.663	17086
830.802	16980
830.941	16824
831.08	16843
831.219	16927
831.357	16980
831.496	17041
831.635	16889
831.774	16866
831.913	16649
832.051	16687
832.19	16725
832.329	16664
832.467	16626
832.606	16485
832.744	16558
832.883	16573
833.022	16550
833.16	16489
833.299	16493
833.437	16554
833.576	16645
833.714	16603
833.852	16645
833.991	16561
834.129	16630
834.267	16656
834.406	16584
834.544	16698
834.682	16550
834.821	16584
834.959	16725
835.097	16546
835.235	16634
835.373	16645
835.511	16519
835.65	16615
835.788	16481
835.926	16348
836.064	16394
836.202	16322
836.34	16440
836.478	16569
836.615	16500
836.753	16493
836.891	16462
837.029	16523
837.167	16470
837.305	16462
837.443	16409
837.58	16318
837.718	16421
837.856	16356
837.993	16341
838.131	16394
838.269	16284
838.406	16341
838.544	16249
838.681	16139
838.819	16074
838.956	15964
839.094	15926
839.231	16010
839.369	15972
839.506	16299
839.643	16207
839.781	15937
839.918	15743
840.055	15911
840.193	15911
840.33	15808
840.467	15918
840.604	15899
840.742	16158
840.879	15823
841.016	15774
841.153	15918
841.29	16040
841.427	15975
841.564	15941
841.701	15994
841.838	15804
841.975	15766
842.112	15869
842.249	15663
842.385	15679
842.522	15888
842.659	15728
842.796	15671
842.933	15739
843.069	15618
843.206	15591
843.343	15816
843.479	15698
843.616	15694
843.752	15443
843.889	15530
844.025	15644
844.162	15469
844.298	15587
844.435	15424
844.571	15454
844.708	15641
844.844	15641
844.98	15698
845.117	15648
845.253	15534
845.389	15386
845.525	15431
845.661	15355
845.798	15302
845.934	15260
846.07	15294
846.206	15233
846.342	15374
846.478	15260
846.614	15176
846.75	15005
846.886	15043
847.022	15256
847.158	15119
847.294	15036
847.429	15009
847.565	15108
847.701	15241
847.837	14826
847.972	14781
848.108	14899
848.244	14906
848.379	14663
848.515	14651
848.65	14651
848.786	14659
848.921	14655
849.057	14788
849.192	14750
849.328	14731
849.463	14617
849.598	14648
849.734	14583
849.869	14473
850.004	14423
850.14	14473
850.275	14431
850.41	14393
850.545	14324
850.68	14381
850.815	14408
850.95	14499
851.085	14663
851.22	14511
851.355	14457
851.49	14381
851.625	14385
851.76	14450
851.895	14286
852.03	14298
852.165	14347
852.299	14404
852.434	14533
852.569	14412
852.703	14408
852.838	14511
852.973	14552
853.107	14541
853.242	14377
853.376	14332
853.511	14130
853.645	14195
853.78	14446
853.914	14244
854.048	14214
854.183	14343
854.317	14351
854.451	14358
854.585	14313
854.72	14221
854.854	14412
854.988	14221
855.122	14267
855.256	14123
855.39	14286
855.524	14431
855.658	14374
855.792	14282
855.926	14324
856.06	14396
856.194	14396
856.327	14187
856.461	14237
856.595	14271
856.729	14256
856.862	14305
856.996	14362
857.13	14434
857.263	14370
857.397	14355
857.53	14301
857.664	14377
857.797	14343
857.931	14332
858.064	14278
858.197	14385
858.331	14332
858.464	14267
858.597	14096
858.731	14317
858.864	14355
858.997	14248
859.13	14366
859.263	14320
859.396	14362
859.529	14278
859.662	14225
859.795	14199
859.928	14298
860.061	14423
860.194	14400
860.327	14358
860.46	14252
860.592	14358
860.725	14370
860.858	14427
860.99	14339
861.123	14107
861.256	14199
861.388	14244
861.521	14842
861.653	14161
861.786	14027
861.918	14039
862.05	14256
862.183	14229
862.315	14298
862.447	14256
862.58	14282
862.712	14073
862.844	14031
862.976	14161
863.108	14191
863.24	14526
863.372	13951
863.504	14138
863.636	14092
863.768	14142
863.9	14138
864.032	14031
864.164	13970
864.296	14119
864.428	14062
864.559	14161
864.691	14100
864.823	14092
864.954	14115
865.086	14039
865.217	14088
865.349	14043
865.48	14020
865.612	13940
865.743	14218
865.875	13978
866.006	13974
866.137	14084
866.269	13955
866.4	14031
866.531	13982
866.662	13928
866.793	13936
866.924	13955
867.055	13997
867.186	13997
867.317	13951
867.448	13875
867.579	13997
867.71	13978
867.841	13921
867.972	14001
868.103	14062
868.233	14149
868.364	14065
868.495	14229
868.625	14343
868.756	14404
868.886	14225
869.017	14206
869.147	14362
869.278	14400
869.408	14305
869.539	14240
869.669	14427
869.799	14347
869.929	14294
870.06	14412
870.19	14613
870.32	14564
870.45	14610
870.58	14720
870.71	14735
870.84	14777
870.97	14644
871.1	14689
871.23	14899
871.36	14849
871.489	14804
871.619	14925
871.749	14819
871.879	14925
872.008	14986
872.138	14849
872.267	14933
872.397	14769
872.526	14769
872.656	14686
872.785	14750
872.915	14971
873.044	14986
873.173	14910
873.303	14891
873.432	15005
873.561	15077
873.69	14937
873.819	14914
873.948	15081
874.077	14963
874.206	14891
874.335	14948
874.464	15100
874.593	15169
874.722	15157
874.851	15268
874.979	15317
875.108	15359
875.237	15256
875.365	15055
875.494	15108
875.623	15279
875.751	15233
875.88	15294
876.008	15374
876.136	15473
876.265	15663
876.393	15793
876.521	15766
876.65	15846
876.778	15732
876.906	15618
877.034	15603
877.162	15606
877.29	15690
877.418	15736
877.546	15679
877.674	15629
877.802	15534
877.93	15778
878.058	15625
878.185	15534
878.313	15622
878.441	15599
878.568	15538
878.696	15599
878.824	15774
878.951	15728
879.079	15846
879.206	16055
879.333	15842
879.461	15717
879.588	15755
879.715	15827
879.842	15899
879.97	15739
880.097	15515
880.224	15538
880.351	15492
880.478	15553
880.605	15564
880.732	15591
880.859	15747
880.986	15576
881.112	15462
881.239	15481
881.366	15272
881.493	15249
881.619	15119
881.746	15306
881.872	15116
881.999	15127
882.125	15226
882.252	15173
882.378	15173
882.505	15252
882.631	15062
882.757	15074
882.883	15127
883.01	14979
883.136	14929
883.262	14800
883.388	14864
883.514	15020
883.64	14944
883.766	14979
883.892	14861
884.018	14819
884.143	14971
884.269	15028
884.395	14735
884.52	14655
884.646	14712
884.772	14746
884.897	14526
885.023	14773
885.148	14819
885.274	14773
885.399	14864
885.524	14701
885.65	14754
885.775	14712
885.9	14602
886.025	14746
886.15	14849
886.275	14621
886.4	14670
886.525	14659
886.65	14606
886.775	14499
886.9	14739
887.025	14883
887.149	14682
887.274	14514
887.399	14480
887.523	14503
887.648	14495
887.773	14454
887.897	14583
888.021	14530
888.146	14484
888.27	14629
888.395	14636
888.519	14590
888.643	14473
888.767	14564
888.891	14446
889.015	14427
889.139	14438
889.263	14339
889.387	14537
889.511	14522
889.635	14484
889.759	14267
889.883	14370
890.006	14305
890.13	14579
890.254	14278
890.377	14336
890.501	14259
890.624	14096
890.748	14298
890.871	14191
890.995	14005
891.118	13974
891.241	14065
891.364	13993
891.488	14240
891.611	14126
891.734	14069
891.857	14225
891.98	14016
892.103	14161
892.226	14073
892.349	14134
892.471	13909
892.594	14050
892.717	14100
892.839	13989
892.962	14046
893.085	14168
893.207	14069
893.33	13970
893.452	13959
893.575	14115
893.697	13947
893.819	14271
893.941	14278
894.064	14218
894.186	14039
894.308	13997
894.43	14149
894.552	14332
894.674	14229
894.796	14065
894.918	14168
895.04	14084
895.161	14214
895.283	14248
895.405	14111
895.526	14119
895.648	14149
895.769	14183
895.891	14183
896.012	14267
896.134	14339
896.255	14305
896.376	14206
896.498	14111
896.619	14305
896.74	14229
896.861	14324
896.982	14629
897.103	14754
897.224	14571
897.345	14465
897.466	14473
897.587	14461
897.708	14655
897.828	14621
897.949	14552
898.07	14317
898.19	14522
898.311	14705
898.431	14587
898.552	14575
898.672	14617
898.792	14678
898.913	14583
899.033	14579
899.153	14511
899.273	14499
899.393	14412
899.513	14427
899.633	14579
899.753	14511
899.873	14560
899.993	14419
900.113	14404
900.232	14461
900.352	14507
900.472	14313
900.591	14229
900.711	14415
900.83	14237
900.95	14434
901.069	14412
901.189	14313
901.308	14100
901.427	13925
901.546	14024
901.665	14073
901.784	14092
901.904	13940
902.023	13757
902.141	13620
902.26	13666
902.379	13708
902.498	13620
902.617	13502
902.735	13582
902.854	13529
902.973	13582
903.091	13362
903.21	13316
903.328	13259
903.446	13209
903.565	13198
903.683	13190
903.801	13088
903.919	13164
904.038	13122
904.156	12951
904.274	13031
904.392	12932
904.51	12856
904.627	12928
904.745	13008
904.863	13012
904.981	12745
905.098	12589
905.216	12673
905.334	12715
905.451	12616
905.569	12597
905.686	12654
905.803	12658
905.921	12456
906.038	12597
906.155	12547
906.272	12361
906.389	12429
906.506	12258
906.623	12209
906.74	12277
906.857	12022
906.974	12194
907.091	12357
907.208	12369
907.324	12300
907.441	12178
907.557	12083
907.674	12026
907.79	11935
907.907	11935
908.023	12064
908.139	12041
908.256	11961
908.372	11904
908.488	12003
908.604	11813
908.72	11741
908.836	11767
908.952	11737
909.068	11813
909.184	11912
909.3	11863
909.415	11722
909.531	11824
909.647	11619
909.762	11535
909.878	11463
909.993	11497
910.108	11573
910.224	11566
910.339	11600
910.454	11383
910.57	11436
910.685	11345
910.8	11642
910.915	11528
911.03	11455
911.145	11280
911.259	11242
911.374	11220
911.489	11105
911.604	11136
911.718	11048
911.833	11003
911.947	10866
912.062	10809
912.176	10930
912.291	11064
912.405	10923
912.519	11162
912.633	11208
912.748	11105
912.862	11067
912.976	10923
913.09	10793
913.204	10900
913.318	10869
913.431	10919
913.545	10976
913.659	11041
913.772	10858
913.886	10793
914	10759
914.113	10828
914.226	10862
914.34	10877
914.453	10672
914.566	10866
914.68	10714
914.793	10714
914.906	10599
915.019	10413
915.132	10470
915.245	10497
915.358	10485
915.47	10519
915.583	10550
915.696	10516
915.809	10664
915.921	10668
916.034	10527
916.146	10466
916.259	10474
916.371	10641
916.483	10523
916.595	10432
916.708	10451
916.82	10447
916.932	10421
917.044	10394
917.156	10382
917.268	10325
917.38	10360
917.491	10291
917.603	10348
917.715	10443
917.826	10424
917.938	10280
918.049	10162
918.161	10382
918.272	10508
918.384	10466
918.495	10367
918.606	10238
918.717	10265
918.828	10215
918.939	10204
919.05	10150
919.161	10253
919.272	9972
919.383	10044
919.494	10291
919.604	10398
919.715	10360
919.826	10143
919.936	10169
920.047	10344
920.157	10276
920.267	10451
920.378	10303
920.488	10261
920.598	10489
920.708	10577
920.818	10379
920.928	10443
921.038	10535
921.148	10451
921.258	10314
921.368	10185
921.477	10120
921.587	10067
921.697	10006
921.806	10086
921.916	10021
922.025	9876
922.134	9778
922.244	9762
922.353	9869
922.462	9717
922.571	9618
922.68	9557
922.789	9488
922.898	9500
923.007	9386
923.116	9538
923.224	9496
923.333	9519
923.442	9355
923.55	9469
923.659	9408
923.767	9534
923.876	9386
923.984	9389
924.092	9317
924.201	9420
924.309	9332
924.417	9374
924.525	9291
924.633	9340
924.741	10074
924.849	9138
924.956	9291
925.064	9161
925.172	9074
925.279	9180
925.387	9192
925.494	9169
925.602	9199
925.709	9237
925.816	9119
925.924	9150
926.031	9264
926.138	9154
926.245	9119
926.352	9116
926.459	9161
926.566	9253
926.673	9013
926.779	9013
926.886	9028
926.993	8883
927.099	8826
927.206	8868
927.312	8758
927.419	8864
927.525	8906
927.631	8823
927.737	8781
927.843	8735
927.95	8762
928.056	8727
928.162	8746
928.267	8876
928.373	9443
928.479	8830
928.585	8575
928.69	8804
928.796	8724
928.901	8674
929.007	8511
929.112	8686
929.218	8674
929.323	8587
929.428	8549
929.533	8674
929.638	8530
929.743	8552
929.848	8564
929.953	8583
930.058	8446
930.163	8298
930.267	8374
930.372	8484
930.477	8332
930.581	8533
930.685	8320
930.79	8252
930.894	8336
930.998	8301
931.103	8457
931.207	8153
931.311	8073
931.415	7978
931.519	7860
931.623	7772
