Data from test_V78500241_1350.txt Node
Date: Fri Mar 25 14:43:06 CST 2022
User: usil
Spectrometer: V785-0024
Trigger mode: 0
Integration Time (sec): 4.000000E-1
Scans to average: 1
Nonlinearity correction enabled: false
Boxcar width: 0
Storing dark spectrum: false
XAxis mode: Wavelengths
Number of Pixels in Spectrum: 1024
>>>>>Begin Spectral Data<<<<<
801.071	22516
801.214	22337
801.356	22036
801.499	21983
801.641	21907
801.783	21682
801.926	21869
802.068	21739
802.211	21667
802.353	21431
802.496	21405
802.638	21359
802.78	21218
802.923	21214
803.065	21066
803.208	21074
803.35	21211
803.492	21249
803.635	21272
803.777	21108
803.919	21241
804.061	21507
804.204	21329
804.346	21203
804.488	20933
804.63	20990
804.773	20914
804.915	21184
805.057	21230
805.199	21116
805.341	21093
805.483	21188
805.626	21100
805.768	21017
805.91	21112
806.052	21173
806.194	20910
806.336	21237
806.478	21100
806.62	20986
806.762	21100
806.904	21192
807.046	21500
807.188	21473
807.33	21447
807.472	21458
807.614	21363
807.756	21302
807.898	21249
808.04	21275
808.182	21283
808.324	21382
808.465	21313
808.607	21492
808.749	21785
808.891	21762
809.033	21831
809.174	21759
809.316	21663
809.458	21759
809.6	21545
809.741	21553
809.883	21633
810.025	21606
810.166	21679
810.308	21656
810.45	21431
810.591	21439
810.733	21378
810.875	21321
811.016	21218
811.158	21108
811.299	21332
811.441	21389
811.582	21310
811.724	21260
811.865	21112
812.007	21199
812.148	21192
812.29	21355
812.431	21462
812.573	21587
812.714	21587
812.855	21804
812.997	21850
813.138	21937
813.279	21804
813.421	21739
813.562	21538
813.703	21534
813.845	21351
813.986	21195
814.127	20910
814.268	20868
814.41	20979
814.551	20857
814.692	20849
814.833	20724
814.974	20735
815.115	20617
815.256	20720
815.397	20537
815.539	20617
815.68	20454
815.821	20343
815.962	20621
816.103	20594
816.244	20362
816.385	20237
816.526	20191
816.666	20161
816.807	19947
816.948	20027
817.089	20065
817.23	19963
817.371	19932
817.512	19944
817.653	19959
817.793	19970
817.934	19925
818.075	19906
818.216	19993
818.356	19967
818.497	19860
818.638	19681
818.778	19533
818.919	19704
819.06	19742
819.2	19715
819.341	19860
819.481	19803
819.622	20058
819.762	20138
819.903	20073
820.043	19967
820.184	19963
820.324	19883
820.465	19997
820.605	19978
820.746	19883
820.886	19791
821.026	19791
821.167	19894
821.307	19902
821.447	19879
821.588	19769
821.728	19540
821.868	19472
822.008	19358
822.149	19183
822.289	19388
822.429	19141
822.569	18989
822.709	19076
822.849	18966
822.99	18806
823.13	18787
823.27	18871
823.41	18726
823.55	18574
823.69	18681
823.83	18601
823.97	18536
824.11	18376
824.25	18460
824.389	18433
824.529	18350
824.669	18471
824.809	18555
824.949	18445
825.089	18509
825.228	18456
825.368	18251
825.508	18254
825.648	18121
825.787	18201
825.927	18167
826.067	18148
826.206	18144
826.346	18163
826.485	18209
826.625	18243
826.765	18273
826.904	18190
827.044	17897
827.183	17904
827.323	17885
827.462	17954
827.601	17855
827.741	17794
827.88	17824
828.02	17783
828.159	17882
828.298	17996
828.437	18091
828.577	17882
828.716	18015
828.855	17783
828.994	17657
829.134	17722
829.273	17691
829.412	17745
829.551	17619
829.69	17710
829.829	17615
829.968	17676
830.107	17680
830.246	17764
830.385	17577
830.524	17573
830.663	17425
830.802	17315
830.941	17242
831.08	17246
831.219	17372
831.357	17265
831.496	17360
831.635	17261
831.774	17208
831.913	17109
832.051	17090
832.19	16991
832.329	17083
832.467	17045
832.606	16980
832.744	16972
832.883	17037
833.022	16934
833.16	16942
833.299	16938
833.437	17067
833.576	16976
833.714	16991
833.852	17086
833.991	17041
834.129	17071
834.267	17170
834.406	16972
834.544	17045
834.682	17083
834.821	17006
834.959	17121
835.097	16927
835.235	17113
835.373	17117
835.511	16984
835.65	16869
835.788	17033
835.926	16713
836.064	16733
836.202	16729
836.34	16900
836.478	17079
836.615	16816
836.753	16915
836.891	16976
837.029	16896
837.167	16858
837.305	16911
837.443	16843
837.58	16767
837.718	16904
837.856	16752
837.993	16733
838.131	16755
838.269	16634
838.406	16717
838.544	16558
838.681	16470
838.819	16375
838.956	16234
839.094	16291
839.231	16314
839.369	16447
839.506	16653
839.643	16607
839.781	16249
839.918	16272
840.055	16356
840.193	16352
840.33	16318
840.467	16314
840.604	16268
840.742	16546
840.879	16166
841.016	16207
841.153	16135
841.29	16417
841.427	16306
841.564	16333
841.701	16417
841.838	16310
841.975	16295
842.112	16207
842.249	16112
842.385	16071
842.522	16249
842.659	16139
842.796	16063
842.933	16105
843.069	16017
843.206	16010
843.343	16109
843.479	16173
843.616	16181
843.752	15895
843.889	15926
844.025	15983
844.162	15865
844.298	16006
844.435	15823
844.571	15907
844.708	15953
844.844	16124
844.98	16032
845.117	16013
845.253	15850
845.389	15778
845.525	15888
845.661	15831
845.798	15876
845.934	16051
846.07	15979
846.206	16025
846.342	16097
846.478	15865
846.614	15557
846.75	15492
846.886	15500
847.022	15538
847.158	15469
847.294	15466
847.429	15496
847.565	15325
847.701	15705
847.837	15157
847.972	15165
848.108	15340
848.244	15203
848.379	15085
848.515	15062
848.65	14998
848.786	15104
848.921	15009
849.057	15180
849.192	15093
849.328	15062
849.463	15066
849.598	14929
849.734	14937
849.869	14952
850.004	14857
850.14	14823
850.275	14773
850.41	14743
850.545	14746
850.68	14693
850.815	14788
850.95	14746
851.085	14918
851.22	14883
851.355	14849
851.49	14769
851.625	14773
851.76	14785
851.895	14648
852.03	14727
852.165	14712
852.299	14910
852.434	14944
852.569	14724
852.703	14830
852.838	14933
852.973	14921
853.107	14906
853.242	14720
853.376	14682
853.511	14533
853.645	14727
853.78	14796
853.914	14689
854.048	14758
854.183	14727
854.317	14705
854.451	14765
854.585	14670
854.72	14678
854.854	14689
854.988	14564
855.122	14610
855.256	14617
855.39	14648
855.524	14777
855.658	14796
855.792	14621
855.926	14701
856.06	14777
856.194	14804
856.327	14663
856.461	14636
856.595	14670
856.729	14648
856.862	14762
856.996	14678
857.13	14735
857.263	14823
857.397	14823
857.53	14705
857.664	14769
857.797	14705
857.931	14781
858.064	14750
858.197	14735
858.331	14724
858.464	14583
858.597	14697
858.731	14667
858.864	14644
858.997	14598
859.13	14765
859.263	14651
859.396	14750
859.529	14629
859.662	14560
859.795	14587
859.928	14621
860.061	14887
860.194	14857
860.327	14746
860.46	14682
860.592	14724
860.725	14811
860.858	14743
860.99	14705
861.123	14518
861.256	14556
861.388	14621
861.521	15348
861.653	14530
861.786	14511
861.918	14484
862.05	14507
862.183	14568
862.315	14602
862.447	14708
862.58	14644
862.712	14507
862.844	14370
862.976	14511
863.108	14568
863.24	14792
863.372	14431
863.504	14389
863.636	14419
863.768	14419
863.9	14533
864.032	14370
864.164	14446
864.296	14488
864.428	14507
864.559	14594
864.691	14507
864.823	14469
864.954	14495
865.086	14438
865.217	14446
865.349	14393
865.48	14442
865.612	14446
865.743	14560
865.875	14431
866.006	14396
866.137	14457
866.269	14434
866.4	14339
866.531	14351
866.662	14336
866.793	14332
866.924	14358
867.055	14317
867.186	14423
867.317	14442
867.448	14355
867.579	14366
867.71	14324
867.841	14290
867.972	14423
868.103	14465
868.233	14526
868.364	14457
868.495	14511
868.625	14617
868.756	14781
868.886	14533
869.017	14606
869.147	14750
869.278	14857
869.408	14644
869.539	14678
869.669	14750
869.799	14746
869.929	14743
870.06	14705
870.19	15047
870.32	15013
870.45	15013
870.58	15074
870.71	15237
870.84	15184
870.97	15116
871.1	15104
871.23	15222
871.36	15260
871.489	15100
871.619	15116
871.749	15237
871.879	15294
872.008	15386
872.138	15252
872.267	15165
872.397	15131
872.526	15116
872.656	15100
872.785	15104
872.915	15176
873.044	15279
873.173	15252
873.303	15428
873.432	15283
873.561	15435
873.69	15332
873.819	15332
873.948	15378
874.077	15325
874.206	15367
874.335	15431
874.464	15488
874.593	15485
874.722	15496
874.851	15724
874.979	15709
875.108	15622
875.237	15618
875.365	15545
875.494	15603
875.623	15652
875.751	15587
875.88	15682
876.008	15937
876.136	15861
876.265	15991
876.393	16150
876.521	16166
876.65	16078
876.778	16158
876.906	16017
877.034	15964
877.162	16101
877.29	15926
877.418	16040
877.546	16067
877.674	16082
877.802	16013
877.93	16032
878.058	15968
878.185	16013
878.313	16071
878.441	16097
878.568	15884
878.696	15968
878.824	16150
878.951	16112
879.079	16242
879.206	16371
879.333	16329
879.461	16207
879.588	16234
879.715	16287
879.842	16424
879.97	16162
880.097	15987
880.224	15934
880.351	16040
880.478	15987
880.605	15934
880.732	15956
880.859	16090
880.986	15884
881.112	15960
881.239	15793
881.366	15682
881.493	15580
881.619	15473
881.746	15553
881.872	15538
881.999	15515
882.125	15576
882.252	15564
882.378	15542
882.505	15747
882.631	15515
882.757	15450
882.883	15530
883.01	15447
883.136	15325
883.262	15245
883.388	15176
883.514	15389
883.64	15351
883.766	15378
883.892	15207
884.018	15138
884.143	15389
884.269	15393
884.395	15135
884.52	15024
884.646	15138
884.772	15001
884.897	14971
885.023	15020
885.148	15226
885.274	15119
885.399	15157
885.524	15070
885.65	15184
885.775	15062
885.9	15085
886.025	15161
886.15	15074
886.275	15051
886.4	14944
886.525	15081
886.65	14948
886.775	15017
886.9	15207
887.025	15264
887.149	14994
887.274	14880
887.399	14868
887.523	14853
887.648	14746
887.773	14777
887.897	14971
888.021	14899
888.146	14872
888.27	14823
888.395	15013
888.519	14994
888.643	14918
888.767	14918
888.891	14891
889.015	14712
889.139	14750
889.263	14678
889.387	14807
889.511	14929
889.635	14941
889.759	14724
889.883	14693
890.006	14731
890.13	14861
890.254	14579
890.377	14655
890.501	14598
890.624	14541
890.748	14571
890.871	14442
890.995	14328
891.118	14358
891.241	14419
891.364	14434
891.488	14541
891.611	14465
891.734	14419
891.857	14461
891.98	14492
892.103	14514
892.226	14461
892.349	14438
892.471	14336
892.594	14461
892.717	14446
892.839	14381
892.962	14412
893.085	14393
893.207	14465
893.33	14138
893.452	14366
893.575	14442
893.697	14431
893.819	14625
893.941	14621
894.064	14495
894.186	14381
894.308	14351
894.43	14560
894.552	14648
894.674	14533
894.796	14461
894.918	14393
895.04	14427
895.161	14571
895.283	14533
895.405	14457
895.526	14480
895.648	14530
895.769	14480
895.891	14492
896.012	14674
896.134	14621
896.255	14541
896.376	14537
896.498	14480
896.619	14678
896.74	14526
896.861	14648
896.982	14849
897.103	15116
897.224	14899
897.345	14781
897.466	14712
897.587	14880
897.708	14933
897.828	14845
897.949	14739
898.07	14697
898.19	14800
898.311	14975
898.431	14838
898.552	14842
898.672	15066
898.792	15058
898.913	14971
899.033	14800
899.153	14796
899.273	14716
899.393	14682
899.513	14655
899.633	14670
899.753	14762
899.873	14697
899.993	14823
900.113	14765
900.232	14792
900.352	14731
900.472	14670
900.591	14655
900.711	14621
900.83	14602
900.95	14735
901.069	14708
901.189	14545
901.308	14370
901.427	14275
901.546	14324
901.665	14271
901.784	14374
901.904	14103
902.023	14050
902.141	13890
902.26	13849
902.379	13993
902.498	13928
902.617	13856
902.735	13909
902.854	13875
902.973	13814
903.091	13529
903.21	13693
903.328	13506
903.446	13571
903.565	13438
903.683	13438
903.801	13384
903.919	13381
904.038	13308
904.156	13183
904.274	13339
904.392	13244
904.51	13213
904.627	13251
904.745	13228
904.863	13339
904.981	13076
905.098	12970
905.216	12825
905.334	12943
905.451	12954
905.569	12844
905.686	13015
905.803	12951
905.921	12760
906.038	12878
906.155	12726
906.272	12677
906.389	12753
906.506	12582
906.623	12559
906.74	12559
906.857	12464
906.974	12490
907.091	12662
907.208	12669
907.324	12521
907.441	12544
907.557	12247
907.674	12346
907.79	12213
907.907	12201
908.023	12353
908.139	12239
908.256	12163
908.372	12133
908.488	12243
908.604	12068
908.72	12007
908.836	11965
908.952	12041
909.068	12098
909.184	12125
909.3	11988
909.415	12091
909.531	11973
909.647	11714
909.762	11790
909.878	11752
909.993	11760
910.108	11771
910.224	11752
910.339	11779
910.454	11699
910.57	11566
910.685	11573
910.8	11916
910.915	11817
911.03	11680
911.145	11490
911.259	11490
911.374	11482
911.489	11406
911.604	11322
911.718	11204
911.833	11189
911.947	11151
912.062	11052
912.176	11250
912.291	11254
912.405	11216
912.519	11368
912.633	11547
912.748	11307
912.862	11261
912.976	11181
913.09	10995
913.204	11151
913.318	11086
913.431	11231
913.545	11220
913.659	11128
913.772	11132
913.886	11006
914	10957
914.113	11166
914.226	11052
914.34	11162
914.453	10892
914.566	11083
914.68	10896
914.793	10885
914.906	10771
915.019	10687
915.132	10584
915.245	10702
915.358	10687
915.47	10736
915.583	10683
915.696	10710
915.809	10911
915.921	10835
916.034	10702
916.146	10683
916.259	10607
916.371	10763
916.483	10687
916.595	10626
916.708	10584
916.82	10664
916.932	10645
917.044	10626
917.156	10656
917.268	10459
917.38	10596
917.491	10413
917.603	10558
917.715	10622
917.826	10668
917.938	10523
918.049	10478
918.161	10679
918.272	10683
918.384	10660
918.495	10565
918.606	10474
918.717	10371
918.828	10481
918.939	10360
919.05	10375
919.161	10386
919.272	10230
919.383	10265
919.494	10459
919.604	10573
919.715	10402
919.826	10352
919.936	10382
920.047	10523
920.157	10478
920.267	10622
920.378	10459
920.488	10413
920.598	10698
920.708	10873
920.818	10634
920.928	10599
921.038	10797
921.148	10683
921.258	10489
921.368	10417
921.477	10291
921.587	10276
921.697	10166
921.806	10310
921.916	10135
922.025	10051
922.134	9994
922.244	9922
922.353	10017
922.462	9899
922.571	9751
922.68	9698
922.789	9648
922.898	9671
923.007	9603
923.116	9701
923.224	9667
923.333	9572
923.442	9576
923.55	9530
923.659	9561
923.767	9603
923.876	9469
923.984	9557
924.092	9435
924.201	9545
924.309	9519
924.417	9492
924.525	9523
924.633	9568
924.741	10508
924.849	9325
924.956	9435
925.064	9272
925.172	9192
925.279	9321
925.387	9401
925.494	9351
925.602	9416
925.709	9374
925.816	9260
925.924	9348
926.031	9351
926.138	9321
926.245	9336
926.352	9237
926.459	9359
926.566	9458
926.673	9283
926.779	9199
926.886	9199
926.993	9051
927.099	9036
927.206	8956
927.312	8960
927.419	9047
927.525	9001
927.631	9074
927.737	8902
927.843	8952
927.95	8807
928.056	8876
928.162	8925
928.267	8963
928.373	9576
928.479	9028
928.585	8758
928.69	8891
928.796	8994
928.901	8769
929.007	8697
929.112	8781
929.218	8727
929.323	8792
929.428	8731
929.533	8864
929.638	8659
929.743	8674
929.848	8766
929.953	8716
930.058	8587
930.163	8461
930.267	8568
930.372	8632
930.477	8545
930.581	8689
930.685	8579
930.79	8404
930.894	8503
930.998	8389
931.103	8552
931.207	8210
931.311	8267
931.415	8142
931.519	7963
931.623	7894
