Data from test_V78500241_1499.txt Node
Date: Fri Mar 25 14:44:09 CST 2022
User: usil
Spectrometer: V785-0024
Trigger mode: 0
Integration Time (sec): 4.000000E-1
Scans to average: 1
Nonlinearity correction enabled: false
Boxcar width: 0
Storing dark spectrum: false
XAxis mode: Wavelengths
Number of Pixels in Spectrum: 1024
>>>>>Begin Spectral Data<<<<<
801.071	22508
801.214	22360
801.356	22131
801.499	22120
801.641	21800
801.783	21778
801.926	21892
802.068	21644
802.211	21690
802.353	21709
802.496	21378
802.638	21336
802.78	21313
802.923	21211
803.065	21138
803.208	21093
803.35	21165
803.492	21260
803.635	21313
803.777	21176
803.919	21154
804.061	21428
804.204	21252
804.346	21062
804.488	21051
804.63	21096
804.773	21009
804.915	21100
805.057	21233
805.199	21055
805.341	21226
805.483	21310
805.626	21104
805.768	21028
805.91	21028
806.052	21165
806.194	20990
806.336	21291
806.478	21127
806.62	21066
806.762	21142
806.904	21245
807.046	21466
807.188	21458
807.33	21344
807.472	21538
807.614	21336
807.756	21249
807.898	21412
808.04	21214
808.182	21256
808.324	21351
808.465	21344
808.607	21431
808.749	21686
808.891	21728
809.033	21785
809.174	21766
809.316	21583
809.458	21576
809.6	21595
809.741	21511
809.883	21534
810.025	21732
810.166	21641
810.308	21770
810.45	21583
810.591	21568
810.733	21408
810.875	21336
811.016	21154
811.158	21241
811.299	21412
811.441	21401
811.582	21321
811.724	21321
811.865	21298
812.007	21165
812.148	21211
812.29	21241
812.431	21397
812.573	21564
812.714	21614
812.855	21789
812.997	21717
813.138	22059
813.279	21934
813.421	21797
813.562	21587
813.703	21572
813.845	21428
813.986	21161
814.127	20975
814.268	20914
814.41	20834
814.551	20735
814.692	20868
814.833	20735
814.974	20746
815.115	20689
815.256	20606
815.397	20617
815.539	20511
815.68	20533
815.821	20492
815.962	20492
816.103	20541
816.244	20366
816.385	20187
816.526	20336
816.666	20065
816.807	19879
816.948	20012
817.089	20168
817.23	20046
817.371	19989
817.512	19921
817.653	20001
817.793	19856
817.934	19887
818.075	19849
818.216	19871
818.356	19807
818.497	19712
818.638	19639
818.778	19757
818.919	19594
819.06	19696
819.2	19715
819.341	19890
819.481	19708
819.622	19986
819.762	20065
819.903	20054
820.043	19989
820.184	19925
820.324	19890
820.465	20008
820.605	19986
820.746	19803
820.886	19856
821.026	19913
821.167	19894
821.307	19936
821.447	19868
821.588	19731
821.728	19597
821.868	19369
822.008	19285
822.149	19381
822.289	19278
822.429	19069
822.569	19057
822.709	19008
822.849	18779
822.99	18875
823.13	18719
823.27	18817
823.41	18654
823.55	18593
823.69	18635
823.83	18627
823.97	18555
824.11	18323
824.25	18391
824.389	18433
824.529	18445
824.669	18471
824.809	18426
824.949	18467
825.089	18494
825.228	18418
825.368	18216
825.508	18182
825.648	18159
825.787	18216
825.927	18254
826.067	18117
826.206	18136
826.346	18289
826.485	18091
826.625	18163
826.765	18369
826.904	18228
827.044	17961
827.183	17885
827.323	17866
827.462	17931
827.601	17836
827.741	17908
827.88	17961
828.02	17821
828.159	17870
828.298	17912
828.437	17912
828.577	17798
828.716	18015
828.855	17832
828.994	17638
829.134	17554
829.273	17600
829.412	17505
829.551	17512
829.69	17554
829.829	17729
829.968	17665
830.107	17627
830.246	17611
830.385	17490
830.524	17573
830.663	17463
830.802	17258
830.941	17197
831.08	17223
831.219	17311
831.357	17284
831.496	17448
831.635	17231
831.774	17113
831.913	17033
832.051	17071
832.19	17018
832.329	17094
832.467	16908
832.606	16877
832.744	16854
832.883	16961
833.022	16835
833.16	16984
833.299	16949
833.437	16930
833.576	16900
833.714	16991
833.852	16953
833.991	17010
834.129	17060
834.267	16877
834.406	17014
834.544	16919
834.682	16987
834.821	16957
834.959	17105
835.097	16896
835.235	17071
835.373	16995
835.511	16938
835.65	16854
835.788	16873
835.926	16736
836.064	16687
836.202	16584
836.34	16843
836.478	16953
836.615	16793
836.753	16820
836.891	16908
837.029	16828
837.167	16835
837.305	16755
837.443	16778
837.58	16645
837.718	16713
837.856	16702
837.993	16592
838.131	16736
838.269	16630
838.406	16580
838.544	16531
838.681	16409
838.819	16440
838.956	16230
839.094	16265
839.231	16322
839.369	16398
839.506	16588
839.643	16474
839.781	16249
839.918	16147
840.055	16246
840.193	16200
840.33	16166
840.467	16211
840.604	16272
840.742	16519
840.879	16086
841.016	16086
841.153	16135
841.29	16382
841.427	16257
841.564	16166
841.701	16211
841.838	16139
841.975	16154
842.112	16032
842.249	16055
842.385	15991
842.522	16181
842.659	15949
842.796	15934
842.933	16040
843.069	15949
843.206	15968
843.343	16093
843.479	15968
843.616	15960
843.752	15797
843.889	15823
844.025	15911
844.162	15732
844.298	15888
844.435	15781
844.571	15766
844.708	15812
844.844	15915
844.98	15892
845.117	16063
845.253	15819
845.389	15713
845.525	15698
845.661	15816
845.798	15679
845.934	15899
846.07	15816
846.206	15789
846.342	15930
846.478	15694
846.614	15523
846.75	15370
846.886	15359
847.022	15557
847.158	15416
847.294	15416
847.429	15386
847.565	15298
847.701	15656
847.837	15081
847.972	15039
848.108	15230
848.244	15226
848.379	15055
848.515	14906
848.65	14864
848.786	14914
848.921	14891
849.057	15047
849.192	15074
849.328	14994
849.463	14994
849.598	14941
849.734	14834
849.869	14815
850.004	14640
850.14	14765
850.275	14708
850.41	14659
850.545	14552
850.68	14667
850.815	14746
850.95	14701
851.085	14872
851.22	14788
851.355	14735
851.49	14689
851.625	14617
851.76	14693
851.895	14568
852.03	14621
852.165	14716
852.299	14739
852.434	14746
852.569	14765
852.703	14785
852.838	14796
852.973	14872
853.107	14902
853.242	14644
853.376	14522
853.511	14484
853.645	14617
853.78	14640
853.914	14541
854.048	14522
854.183	14568
854.317	14674
854.451	14739
854.585	14552
854.72	14518
854.854	14655
854.988	14480
855.122	14556
855.256	14499
855.39	14507
855.524	14621
855.658	14598
855.792	14564
855.926	14606
856.06	14640
856.194	14720
856.327	14473
856.461	14560
856.595	14457
856.729	14590
856.862	14670
856.996	14674
857.13	14537
857.263	14644
857.397	14724
857.53	14503
857.664	14644
857.797	14678
857.931	14712
858.064	14495
858.197	14697
858.331	14564
858.464	14568
858.597	14454
858.731	14659
858.864	14480
858.997	14511
859.13	14594
859.263	14602
859.396	14678
859.529	14552
859.662	14526
859.795	14473
859.928	14598
860.061	14708
860.194	14796
860.327	14625
860.46	14629
860.592	14758
860.725	14712
860.858	14682
860.99	14617
861.123	14454
861.256	14507
861.388	14560
861.521	15131
861.653	14423
861.786	14404
861.918	14518
862.05	14514
862.183	14545
862.315	14568
862.447	14583
862.58	14522
862.712	14465
862.844	14256
862.976	14461
863.108	14461
863.24	14819
863.372	14187
863.504	14332
863.636	14294
863.768	14305
863.9	14290
864.032	14210
864.164	14339
864.296	14396
864.428	14454
864.559	14457
864.691	14396
864.823	14336
864.954	14385
865.086	14377
865.217	14351
865.349	14191
865.48	14278
865.612	14396
865.743	14587
865.875	14332
866.006	14233
866.137	14339
866.269	14343
866.4	14343
866.531	14317
866.662	14309
866.793	14256
866.924	14355
867.055	14355
867.186	14351
867.317	14358
867.448	14153
867.579	14263
867.71	14320
867.841	14221
867.972	14267
868.103	14389
868.233	14301
868.364	14309
868.495	14446
868.625	14427
868.756	14712
868.886	14427
869.017	14648
869.147	14629
869.278	14625
869.408	14606
869.539	14629
869.669	14670
869.799	14629
869.929	14667
870.06	14754
870.19	14872
870.32	14845
870.45	14796
870.58	14895
870.71	15066
870.84	15100
870.97	14986
871.1	14914
871.23	15195
871.36	15077
871.489	14994
871.619	15047
871.749	15245
871.879	15237
872.008	15192
872.138	15169
872.267	15127
872.397	14982
872.526	14963
872.656	15005
872.785	14967
872.915	15173
873.044	15245
873.173	15214
873.303	15241
873.432	15272
873.561	15245
873.69	15272
873.819	15146
873.948	15283
874.077	15237
874.206	15199
874.335	15336
874.464	15428
874.593	15641
874.722	15496
874.851	15595
874.979	15507
875.108	15580
875.237	15458
875.365	15507
875.494	15408
875.623	15606
875.751	15515
875.88	15622
876.008	15694
876.136	15690
876.265	15842
876.393	16093
876.521	15991
876.65	16025
876.778	15960
876.906	15915
877.034	15895
877.162	15911
877.29	15922
877.418	15880
877.546	16063
877.674	15975
877.802	15941
877.93	15918
878.058	15915
878.185	15861
878.313	15998
878.441	15987
878.568	15819
878.696	15918
878.824	16082
878.951	16120
879.079	16150
879.206	16329
879.333	16139
879.461	16093
879.588	16154
879.715	16257
879.842	16382
879.97	16230
880.097	15804
880.224	15869
880.351	15827
880.478	15941
880.605	15762
880.732	15876
880.859	16029
880.986	15816
881.112	15857
881.239	15663
881.366	15561
881.493	15450
881.619	15481
881.746	15530
881.872	15462
881.999	15443
882.125	15351
882.252	15534
882.378	15469
882.505	15641
882.631	15542
882.757	15268
882.883	15348
883.01	15222
883.136	15298
883.262	15176
883.388	15131
883.514	15340
883.64	15275
883.766	15245
883.892	15108
884.018	15081
884.143	15336
884.269	15336
884.395	15108
884.52	15089
884.646	15024
884.772	14830
884.897	14918
885.023	15017
885.148	15116
885.274	15150
885.399	15154
885.524	15074
885.65	14952
885.775	15093
885.9	14891
886.025	15028
886.15	14960
886.275	15009
886.4	14800
886.525	14902
886.65	14910
886.775	14944
886.9	15173
887.025	15249
887.149	14994
887.274	14788
887.399	14807
887.523	14823
887.648	14792
887.773	14762
887.897	14834
888.021	14804
888.146	14724
888.27	14857
888.395	14941
888.519	14899
888.643	14880
888.767	14842
888.891	14689
889.015	14575
889.139	14720
889.263	14655
889.387	14815
889.511	14872
889.635	14777
889.759	14750
889.883	14579
890.006	14731
890.13	14754
890.254	14552
890.377	14568
890.501	14499
890.624	14461
890.748	14522
890.871	14305
890.995	14305
891.118	14290
891.241	14343
891.364	14366
891.488	14461
891.611	14370
891.734	14473
891.857	14465
891.98	14427
892.103	14473
892.226	14381
892.349	14358
892.471	14221
892.594	14290
892.717	14298
892.839	14305
892.962	14256
893.085	14507
893.207	14343
893.33	14309
893.452	14183
893.575	14431
893.697	14332
893.819	14465
893.941	14571
894.064	14560
894.186	14393
894.308	14332
894.43	14412
894.552	14507
894.674	14549
894.796	14351
894.918	14415
895.04	14377
895.161	14389
895.283	14412
895.405	14385
895.526	14362
895.648	14427
895.769	14438
895.891	14579
896.012	14552
896.134	14568
896.255	14507
896.376	14541
896.498	14518
896.619	14549
896.74	14537
896.861	14590
896.982	14872
897.103	14994
897.224	14800
897.345	14727
897.466	14598
897.587	14800
897.708	14899
897.828	14838
897.949	14708
898.07	14720
898.19	14785
898.311	14963
898.431	14716
898.552	14849
898.672	14895
898.792	15055
898.913	14948
899.033	14880
899.153	14682
899.273	14689
899.393	14606
899.513	14724
899.633	14705
899.753	14792
899.873	14594
899.993	14815
900.113	14629
900.232	14769
900.352	14750
900.472	14670
900.591	14507
900.711	14670
900.83	14606
900.95	14689
901.069	14667
901.189	14396
901.308	14275
901.427	14309
901.546	14221
901.665	14256
901.784	14282
901.904	14183
902.023	14138
902.141	13822
902.26	13772
902.379	13906
902.498	13818
902.617	13795
902.735	13906
902.854	13833
902.973	13791
903.091	13487
903.21	13525
903.328	13540
903.446	13381
903.565	13331
903.683	13388
903.801	13327
903.919	13373
904.038	13335
904.156	13255
904.274	13251
904.392	13107
904.51	13228
904.627	13114
904.745	13198
904.863	13202
904.981	13000
905.098	12890
905.216	12886
905.334	12924
905.451	12909
905.569	12768
905.686	12920
905.803	12943
905.921	12719
906.038	12848
906.155	12772
906.272	12620
906.389	12517
906.506	12399
906.623	12471
906.74	12403
906.857	12407
906.974	12361
907.091	12551
907.208	12570
907.324	12475
907.441	12380
907.557	12247
907.674	12159
907.79	12087
907.907	12201
908.023	12235
908.139	12163
908.256	12155
908.372	12110
908.488	12106
908.604	11977
908.72	11882
908.836	11992
908.952	11977
909.068	11973
909.184	12007
909.3	11939
909.415	11961
909.531	11893
909.647	11859
909.762	11729
909.878	11729
909.993	11707
910.108	11691
910.224	11642
910.339	11786
910.454	11745
910.57	11558
910.685	11482
910.8	11832
910.915	11767
911.03	11691
911.145	11490
911.259	11421
911.374	11383
911.489	11421
911.604	11334
911.718	11208
911.833	11151
911.947	11067
912.062	11003
912.176	11140
912.291	11223
912.405	11193
912.519	11307
912.633	11395
912.748	11269
912.862	11162
912.976	11090
913.09	10949
913.204	11071
913.318	10999
913.431	11109
913.545	11132
913.659	11170
913.772	11056
913.886	10995
914	10831
914.113	10961
914.226	11098
914.34	11025
914.453	10843
914.566	10968
914.68	10805
914.793	10797
914.906	10702
915.019	10618
915.132	10649
915.245	10607
915.358	10694
915.47	10630
915.583	10725
915.696	10691
915.809	10858
915.921	10767
916.034	10618
916.146	10634
916.259	10573
916.371	10592
916.483	10698
916.595	10535
916.708	10531
916.82	10637
916.932	10527
917.044	10516
917.156	10565
917.268	10497
917.38	10493
917.491	10462
917.603	10402
917.715	10558
917.826	10622
917.938	10508
918.049	10417
918.161	10554
918.272	10599
918.384	10634
918.495	10519
918.606	10394
918.717	10299
918.828	10379
918.939	10382
919.05	10234
919.161	10363
919.272	10166
919.383	10207
919.494	10417
919.604	10649
919.715	10413
919.826	10333
919.936	10356
920.047	10447
920.157	10398
920.267	10565
920.378	10436
920.488	10402
920.598	10558
920.708	10683
920.818	10569
920.928	10573
921.038	10778
921.148	10691
921.258	10424
921.368	10318
921.477	10261
921.587	10158
921.697	10169
921.806	10188
921.916	10105
922.025	10044
922.134	10021
922.244	9899
922.353	9903
922.462	9800
922.571	9686
922.68	9622
922.789	9530
922.898	9580
923.007	9530
923.116	9660
923.224	9618
923.333	9603
923.442	9511
923.55	9473
923.659	9580
923.767	9584
923.876	9435
923.984	9580
924.092	9454
924.201	9504
924.309	9466
924.417	9507
924.525	9424
924.633	9443
924.741	10310
924.849	9336
924.956	9435
925.064	9184
925.172	9184
925.279	9226
925.387	9268
925.494	9279
925.602	9382
925.709	9374
925.816	9192
925.924	9279
926.031	9306
926.138	9283
926.245	9260
926.352	9207
926.459	9310
926.566	9401
926.673	9264
926.779	9180
926.886	9127
926.993	8998
927.099	8952
927.206	8960
927.312	8975
927.419	8979
927.525	8967
927.631	9009
927.737	8929
927.843	8960
927.95	8750
928.056	8891
928.162	8914
928.267	8982
928.373	9397
928.479	9005
928.585	8686
928.69	8838
928.796	8880
928.901	8834
929.007	8674
929.112	8815
929.218	8758
929.323	8682
929.428	8659
929.533	8815
929.638	8651
929.743	8629
929.848	8773
929.953	8693
930.058	8686
930.163	8408
930.267	8446
930.372	8648
930.477	8412
930.581	8686
930.685	8537
930.79	8381
930.894	8385
930.998	8396
931.103	8541
931.207	8183
931.311	8168
931.415	8062
931.519	7875
931.623	7989
