Data from test_V78500241_3218.txt Node
Date: Fri Mar 25 14:56:07 CST 2022
User: usil
Spectrometer: V785-0024
Trigger mode: 0
Integration Time (sec): 4.000000E-1
Scans to average: 1
Nonlinearity correction enabled: false
Boxcar width: 0
Storing dark spectrum: false
XAxis mode: Wavelengths
Number of Pixels in Spectrum: 1024
>>>>>Begin Spectral Data<<<<<
801.071	21994
801.214	21831
801.356	21667
801.499	21561
801.641	21405
801.783	21424
801.926	21420
802.068	21298
802.211	21256
802.353	21169
802.496	20902
802.638	20762
802.78	20807
802.923	20781
803.065	20629
803.208	20655
803.35	20682
803.492	20769
803.635	20880
803.777	20583
803.919	20754
804.061	20956
804.204	20819
804.346	20682
804.488	20655
804.63	20743
804.773	20587
804.915	20693
805.057	20720
805.199	20495
805.341	20693
805.483	20777
805.626	20648
805.768	20499
805.91	20629
806.052	20530
806.194	20377
806.336	20629
806.478	20632
806.62	20632
806.762	20594
806.904	20823
807.046	21043
807.188	20921
807.33	20834
807.472	20933
807.614	20765
807.756	20857
807.898	20838
808.04	20682
808.182	20609
808.324	20693
808.465	20758
808.607	20906
808.749	20971
808.891	21058
809.033	21093
809.174	21043
809.316	20941
809.458	20842
809.6	20857
809.741	20933
809.883	20975
810.025	21119
810.166	21123
810.308	21020
810.45	21051
810.591	20941
810.733	20777
810.875	20678
811.016	20682
811.158	20705
811.299	20769
811.441	20948
811.582	20792
811.724	20701
811.865	20682
812.007	20724
812.148	20720
812.29	20826
812.431	20830
812.573	20948
812.714	21195
812.855	21127
812.997	21294
813.138	21428
813.279	21344
813.421	21173
813.562	21154
813.703	20883
813.845	20842
813.986	20556
814.127	20362
814.268	20320
814.41	20210
814.551	20202
814.692	20286
814.833	20252
814.974	20180
815.115	20313
815.256	20134
815.397	20122
815.539	20115
815.68	19986
815.821	19772
815.962	19982
816.103	19856
816.244	19841
816.385	19620
816.526	19689
816.666	19510
816.807	19373
816.948	19457
817.089	19567
817.23	19373
817.371	19373
817.512	19400
817.653	19453
817.793	19335
817.934	19327
818.075	19449
818.216	19392
818.356	19320
818.497	19217
818.638	19076
818.778	19034
818.919	19141
819.06	19118
819.2	19236
819.341	19373
819.481	19236
819.622	19426
819.762	19434
819.903	19472
820.043	19464
820.184	19426
820.324	19419
820.465	19358
820.605	19377
820.746	19331
820.886	19122
821.026	19308
821.167	19244
821.307	19304
821.447	19297
821.588	19179
821.728	18977
821.868	18913
822.008	18810
822.149	18753
822.289	18776
822.429	18494
822.569	18536
822.709	18456
822.849	18239
822.99	18285
823.13	18251
823.27	18213
823.41	18068
823.55	17950
823.69	18194
823.83	18087
823.97	17950
824.11	17836
824.25	17802
824.389	17828
824.529	17961
824.669	17847
824.809	17882
824.949	17931
825.089	17878
825.228	17741
825.368	17687
825.508	17680
825.648	17634
825.787	17665
825.927	17699
826.067	17589
826.206	17630
826.346	17680
826.485	17649
826.625	17573
826.765	17687
826.904	17630
827.044	17379
827.183	17402
827.323	17307
827.462	17322
827.601	17322
827.741	17303
827.88	17379
828.02	17269
828.159	17242
828.298	17383
828.437	17379
828.577	17288
828.716	17391
828.855	17368
828.994	17147
829.134	17178
829.273	17159
829.412	16972
829.551	16984
829.69	17064
829.829	17048
829.968	17204
830.107	17090
830.246	17060
830.385	17022
830.524	16824
830.663	16752
830.802	16698
830.941	16752
831.08	16706
831.219	16759
831.357	16672
831.496	16824
831.635	16706
831.774	16618
831.913	16596
832.051	16462
832.19	16428
832.329	16535
832.467	16363
832.606	16306
832.744	16356
832.883	16352
833.022	16352
833.16	16428
833.299	16394
833.437	16474
833.576	16462
833.714	16402
833.852	16550
833.991	16375
834.129	16512
834.267	16531
834.406	16417
834.544	16516
834.682	16417
834.821	16462
834.959	16592
835.097	16451
835.235	16455
835.373	16409
835.511	16459
835.65	16363
835.788	16325
835.926	16204
836.064	16162
836.202	16181
836.34	16276
836.478	16405
836.615	16287
836.753	16470
836.891	16402
837.029	16325
837.167	16284
837.305	16360
837.443	16211
837.58	16124
837.718	16322
837.856	16249
837.993	16196
838.131	16306
838.269	16192
838.406	16238
838.544	16139
838.681	15869
838.819	15903
838.956	15835
839.094	15690
839.231	15835
839.369	15854
839.506	16219
839.643	15994
839.781	15797
839.918	15675
840.055	15724
840.193	15751
840.33	15720
840.467	15774
840.604	15850
840.742	15994
840.879	15660
841.016	15667
841.153	15694
841.29	15915
841.427	15759
841.564	15778
841.701	15888
841.838	15724
841.975	15629
842.112	15663
842.249	15675
842.385	15534
842.522	15747
842.659	15682
842.796	15492
842.933	15591
843.069	15542
843.206	15370
843.343	15610
843.479	15545
843.616	15515
843.752	15500
843.889	15428
844.025	15469
844.162	15325
844.298	15370
844.435	15291
844.571	15264
844.708	15393
844.844	15519
844.98	15443
845.117	15450
845.253	15287
845.389	15135
845.525	15268
845.661	15233
845.798	15142
845.934	15214
846.07	15028
846.206	15226
846.342	15169
846.478	15176
846.614	14849
846.75	14849
846.886	14868
847.022	14918
847.158	14895
847.294	14979
847.429	14937
847.565	14906
847.701	15123
847.837	14659
847.972	14621
848.108	14735
848.244	14682
848.379	14537
848.515	14507
848.65	14446
848.786	14514
848.921	14526
849.057	14629
849.192	14545
849.328	14530
849.463	14613
849.598	14492
849.734	14454
849.869	14446
850.004	14347
850.14	14275
850.275	14271
850.41	14191
850.545	14202
850.68	14267
850.815	14248
850.95	14221
851.085	14419
851.22	14457
851.355	14286
851.49	14202
851.625	14180
851.76	14149
851.895	14172
852.03	14084
852.165	14233
852.299	14282
852.434	14381
852.569	14343
852.703	14278
852.838	14351
852.973	14393
853.107	14256
853.242	14290
853.376	14062
853.511	13989
853.645	14115
853.78	14244
853.914	14123
854.048	14157
854.183	14111
854.317	14100
854.451	14278
854.585	13986
854.72	14077
854.854	14134
854.988	14096
855.122	14134
855.256	13947
855.39	14054
855.524	14233
855.658	14092
855.792	14199
855.926	14134
856.06	14282
856.194	14218
856.327	14138
856.461	14054
856.595	14096
856.729	14103
856.862	14187
856.996	14157
857.13	14161
857.263	14298
857.397	14286
857.53	14134
857.664	14252
857.797	14180
857.931	14225
858.064	14183
858.197	14172
858.331	14088
858.464	14138
858.597	14012
858.731	14199
858.864	14111
858.997	14176
859.13	14256
859.263	14161
859.396	14305
859.529	14123
859.662	14202
859.795	14100
859.928	14130
860.061	14305
860.194	14339
860.327	14134
860.46	14107
860.592	14180
860.725	14240
860.858	14244
860.99	14119
861.123	14050
861.256	14100
861.388	14225
861.521	14944
861.653	14084
861.786	13951
861.918	13959
862.05	13982
862.183	14100
862.315	14130
862.447	14191
862.58	14126
862.712	14088
862.844	13909
862.976	13978
863.108	13913
863.24	14366
863.372	13906
863.504	13921
863.636	13947
863.768	13974
863.9	14008
864.032	13875
864.164	13951
864.296	13936
864.428	13970
864.559	14031
864.691	14111
864.823	14084
864.954	13932
865.086	13932
865.217	13917
865.349	13845
865.48	13902
865.612	13868
865.743	14005
865.875	13947
866.006	13890
866.137	13871
866.269	13906
866.4	13921
866.531	13871
866.662	13849
866.793	13822
866.924	13837
867.055	14046
867.186	13932
867.317	13845
867.448	13906
867.579	13795
867.71	13879
867.841	13830
867.972	13940
868.103	13837
868.233	13959
868.364	13906
868.495	13982
868.625	14054
868.756	14199
868.886	14043
869.017	14119
869.147	14259
869.278	14229
869.408	14142
869.539	14123
869.669	14237
869.799	14233
869.929	14320
870.06	14202
870.19	14533
870.32	14480
870.45	14461
870.58	14518
870.71	14720
870.84	14720
870.97	14617
871.1	14571
871.23	14735
871.36	14777
871.489	14739
871.619	14697
871.749	14781
871.879	14788
872.008	14971
872.138	14834
872.267	14746
872.397	14663
872.526	14640
872.656	14617
872.785	14583
872.915	14716
873.044	14891
873.173	14716
873.303	14823
873.432	14891
873.561	14975
873.69	14845
873.819	14800
873.948	14941
874.077	14811
874.206	14823
874.335	14788
874.464	15051
874.593	15138
874.722	15055
874.851	15165
874.979	15146
875.108	15165
875.237	15108
875.365	15047
875.494	15104
875.623	15245
875.751	15062
875.88	15142
876.008	15321
876.136	15367
876.265	15466
876.393	15713
876.521	15530
876.65	15644
876.778	15515
876.906	15504
877.034	15580
877.162	15519
877.29	15549
877.418	15469
877.546	15587
877.674	15553
877.802	15622
877.93	15591
878.058	15454
878.185	15359
878.313	15561
878.441	15591
878.568	15389
878.696	15485
878.824	15485
878.951	15652
879.079	15667
879.206	15785
879.333	15724
879.461	15534
879.588	15595
879.715	15663
879.842	15865
879.97	15507
880.097	15526
880.224	15401
880.351	15466
880.478	15462
880.605	15359
880.732	15458
880.859	15652
880.986	15420
881.112	15447
881.239	15332
881.366	15150
881.493	15119
881.619	15032
881.746	15062
881.872	15039
881.999	15032
882.125	14895
882.252	15108
882.378	15157
882.505	15218
882.631	14914
882.757	14807
882.883	14948
883.01	14864
883.136	14693
883.262	14739
883.388	14689
883.514	14845
883.64	14887
883.766	14819
883.892	14716
884.018	14708
884.143	14868
884.269	14971
884.395	14667
884.52	14560
884.646	14636
884.772	14511
884.897	14450
885.023	14613
885.148	14701
885.274	14621
885.399	14632
885.524	14564
885.65	14511
885.775	14575
885.9	14564
886.025	14636
886.15	14651
886.275	14488
886.4	14476
886.525	14537
886.65	14541
886.775	14514
886.9	14777
887.025	14750
887.149	14670
887.274	14408
887.399	14358
887.523	14366
887.648	14336
887.773	14267
887.897	14484
888.021	14442
888.146	14320
888.27	14484
888.395	14518
888.519	14419
888.643	14434
888.767	14617
888.891	14282
889.015	14324
889.139	14336
889.263	14206
889.387	14313
889.511	14419
889.635	14415
889.759	14199
889.883	14244
890.006	14267
890.13	14446
890.254	14218
890.377	14214
890.501	14168
890.624	14096
890.748	14149
890.871	14062
890.995	13959
891.118	13883
891.241	14058
891.364	13997
891.488	14035
891.611	13967
891.734	13970
891.857	14035
891.98	13887
892.103	14031
892.226	14073
892.349	14024
892.471	13845
892.594	13978
892.717	14020
892.839	13856
892.962	13974
893.085	14027
893.207	13986
893.33	13902
893.452	13947
893.575	14065
893.697	14008
893.819	14153
893.941	14176
894.064	14088
894.186	13974
894.308	13951
894.43	14126
894.552	14218
894.674	14233
894.796	13936
894.918	14062
895.04	14035
895.161	14191
895.283	14126
895.405	14027
895.526	14176
895.648	14153
895.769	14103
895.891	14176
896.012	14199
896.134	14278
896.255	14107
896.376	14130
896.498	14149
896.619	14278
896.74	14145
896.861	14290
896.982	14495
897.103	14701
897.224	14488
897.345	14427
897.466	14404
897.587	14423
897.708	14518
897.828	14556
897.949	14343
898.07	14351
898.19	14366
898.311	14568
898.431	14347
898.552	14480
898.672	14514
898.792	14564
898.913	14465
899.033	14419
899.153	14404
899.273	14248
899.393	14385
899.513	14377
899.633	14385
899.753	14366
899.873	14347
899.993	14450
900.113	14282
900.232	14377
900.352	14332
900.472	14210
900.591	14191
900.711	14202
900.83	14278
900.95	14377
901.069	14404
901.189	14153
901.308	13909
901.427	13871
901.546	13837
901.665	13986
901.784	13986
901.904	13738
902.023	13708
902.141	13476
902.26	13544
902.379	13575
902.498	13483
902.617	13381
902.735	13594
902.854	13510
902.973	13438
903.091	13129
903.21	13152
903.328	13194
903.446	13133
903.565	12993
903.683	13038
903.801	13008
903.919	13050
904.038	13031
904.156	12875
904.274	12989
904.392	12833
904.51	12840
904.627	12905
904.745	12935
904.863	12856
904.981	12779
905.098	12498
905.216	12616
905.334	12555
905.451	12574
905.569	12574
905.686	12684
905.803	12662
905.921	12422
906.038	12540
906.155	12410
906.272	12296
906.389	12338
906.506	12102
906.623	12148
906.74	12102
906.857	12019
906.974	12049
907.091	12178
907.208	12334
907.324	12159
907.441	12098
907.557	11939
907.674	11988
907.79	11836
907.907	11931
908.023	11908
908.139	11931
908.256	11885
908.372	11931
908.488	11779
908.604	11726
908.72	11672
908.836	11676
908.952	11649
909.068	11688
909.184	11817
909.3	11649
909.415	11760
909.531	11691
909.647	11448
909.762	11505
909.878	11516
909.993	11436
910.108	11478
910.224	11402
910.339	11478
910.454	11360
910.57	11303
910.685	11303
910.8	11577
910.915	11501
911.03	11349
911.145	11109
911.259	11113
911.374	11079
911.489	11014
911.604	11029
911.718	10866
911.833	10896
911.947	10706
912.062	10740
912.176	10820
912.291	10904
912.405	10980
912.519	11029
912.633	11113
912.748	10991
912.862	10934
912.976	10729
913.09	10641
913.204	10698
913.318	10755
913.431	10915
913.545	10858
913.659	10847
913.772	10664
913.886	10767
914	10596
914.113	10645
914.226	10774
914.34	10702
914.453	10702
914.566	10763
914.68	10523
914.793	10573
914.906	10382
915.019	10303
915.132	10413
915.245	10470
915.358	10398
915.47	10424
915.583	10386
915.696	10371
915.809	10546
915.921	10626
916.034	10352
916.146	10398
916.259	10440
916.371	10546
916.483	10489
916.595	10238
916.708	10390
916.82	10314
916.932	10306
917.044	10375
917.156	10200
917.268	10246
917.38	10196
917.491	10242
917.603	10265
917.715	10287
917.826	10344
917.938	10223
918.049	10234
918.161	10207
918.272	10318
918.384	10295
918.495	10310
918.606	10162
918.717	9994
918.828	10230
918.939	10124
919.05	9960
919.161	10139
919.272	9869
919.383	9956
919.494	10173
919.604	10363
919.715	10219
919.826	10074
919.936	10086
920.047	10143
920.157	10158
920.267	10432
920.378	10215
920.488	10048
920.598	10261
920.708	10470
920.818	10367
920.928	10386
921.038	10470
921.148	10478
921.258	10154
921.368	10090
921.477	10059
921.587	9956
921.697	9869
921.806	10025
921.916	9854
922.025	9819
922.134	9736
922.244	9682
922.353	9732
922.462	9576
922.571	9530
922.68	9412
922.789	9355
922.898	9348
923.007	9351
923.116	9397
923.224	9401
923.333	9412
923.442	9253
923.55	9173
923.659	9268
923.767	9317
923.876	9184
923.984	9351
924.092	9199
924.201	9211
924.309	9279
924.417	9272
924.525	9135
924.633	9279
924.741	10150
924.849	9009
924.956	9138
925.064	9081
925.172	9013
925.279	9043
925.387	9055
925.494	9077
925.602	9173
925.709	9043
925.816	9017
925.924	9001
926.031	9154
926.138	9043
926.245	9047
926.352	8998
926.459	9119
926.566	9146
926.673	9001
926.779	8933
926.886	8921
926.993	8777
927.099	8766
927.206	8659
927.312	8727
927.419	8807
927.525	8781
927.631	8792
927.737	8716
927.843	8689
927.95	8522
928.056	8644
928.162	8659
928.267	8720
928.373	9195
928.479	8735
928.585	8545
928.69	8659
928.796	8651
928.901	8583
929.007	8450
929.112	8659
929.218	8598
929.323	8457
929.428	8503
929.533	8651
929.638	8427
929.743	8480
929.848	8541
929.953	8507
930.058	8320
930.163	8187
930.267	8275
930.372	8415
930.477	8259
930.581	8473
930.685	8309
930.79	8218
930.894	8153
930.998	8240
931.103	8347
931.207	7993
931.311	7917
931.415	7898
931.519	7704
931.623	7731
