Data from test_V78500241_1375.txt Node
Date: Fri Mar 25 14:43:17 CST 2022
User: usil
Spectrometer: V785-0024
Trigger mode: 0
Integration Time (sec): 4.000000E-1
Scans to average: 1
Nonlinearity correction enabled: false
Boxcar width: 0
Storing dark spectrum: false
XAxis mode: Wavelengths
Number of Pixels in Spectrum: 1024
>>>>>Begin Spectral Data<<<<<
801.071	22474
801.214	22295
801.356	22131
801.499	22040
801.641	21793
801.783	21793
801.926	21869
802.068	21816
802.211	21568
802.353	21663
802.496	21389
802.638	21287
802.78	21188
802.923	21260
803.065	21165
803.208	21066
803.35	21157
803.492	21256
803.635	21298
803.777	21077
803.919	21252
804.061	21462
804.204	21131
804.346	20998
804.488	21043
804.63	21047
804.773	20971
804.915	21188
805.057	21211
805.199	21032
805.341	21142
805.483	21180
805.626	21100
805.768	21009
805.91	21051
806.052	21081
806.194	20929
806.336	21237
806.478	21043
806.62	20990
806.762	21093
806.904	21131
807.046	21469
807.188	21485
807.33	21382
807.472	21485
807.614	21450
807.756	21424
807.898	21363
808.04	21256
808.182	21218
808.324	21348
808.465	21268
808.607	21671
808.749	21686
808.891	21873
809.033	21930
809.174	21720
809.316	21614
809.458	21534
809.6	21389
809.741	21648
809.883	21629
810.025	21652
810.166	21766
810.308	21728
810.45	21641
810.591	21568
810.733	21386
810.875	21302
811.016	21146
811.158	21313
811.299	21386
811.441	21408
811.582	21389
811.724	21298
811.865	21283
812.007	21222
812.148	21195
812.29	21363
812.431	21321
812.573	21466
812.714	21629
812.855	21690
812.997	21831
813.138	21953
813.279	21751
813.421	21682
813.562	21720
813.703	21439
813.845	21313
813.986	21093
814.127	20849
814.268	20716
814.41	20872
814.551	20708
814.692	20788
814.833	20765
814.974	20655
815.115	20811
815.256	20583
815.397	20663
815.539	20556
815.68	20556
815.821	20473
815.962	20454
816.103	20434
816.244	20301
816.385	20286
816.526	20271
816.666	20069
816.807	19940
816.948	20092
817.089	20145
817.23	19898
817.371	19951
817.512	19936
817.653	19894
817.793	19875
817.934	19947
818.075	19997
818.216	19978
818.356	19898
818.497	19780
818.638	19567
818.778	19552
818.919	19761
819.06	19727
819.2	19674
819.341	19757
819.481	19791
819.622	19841
819.762	20077
819.903	20119
820.043	19917
820.184	19955
820.324	19917
820.465	19845
820.605	19875
820.746	19818
820.886	19791
821.026	19978
821.167	19936
821.307	19890
821.447	19814
821.588	19674
821.728	19590
821.868	19537
822.008	19221
822.149	19263
822.289	19358
822.429	18916
822.569	19076
822.709	18913
822.849	18852
822.99	18924
823.13	18829
823.27	18681
823.41	18665
823.55	18517
823.69	18585
823.83	18506
823.97	18464
824.11	18445
824.25	18391
824.389	18327
824.529	18433
824.669	18464
824.809	18479
824.949	18521
825.089	18532
825.228	18403
825.368	18125
825.508	18216
825.648	18235
825.787	18247
825.927	18254
826.067	18171
826.206	18038
826.346	18136
826.485	18296
826.625	18110
826.765	18235
826.904	18235
827.044	17923
827.183	17901
827.323	17737
827.462	17889
827.601	17764
827.741	17802
827.88	17927
828.02	17893
828.159	17939
828.298	17912
828.437	17923
828.577	17794
828.716	17958
828.855	17855
828.994	17570
829.134	17627
829.273	17581
829.412	17558
829.551	17478
829.69	17573
829.829	17646
829.968	17741
830.107	17684
830.246	17558
830.385	17589
830.524	17570
830.663	17311
830.802	17402
830.941	17265
831.08	17261
831.219	17326
831.357	17235
831.496	17478
831.635	17235
831.774	17155
831.913	17113
832.051	17064
832.19	16961
832.329	16968
832.467	16923
832.606	16771
832.744	16869
832.883	16968
833.022	16835
833.16	16911
833.299	16934
833.437	16930
833.576	16953
833.714	16927
833.852	16980
833.991	17056
834.129	17052
834.267	17083
834.406	17018
834.544	16991
834.682	17003
834.821	16957
834.959	17018
835.097	16790
835.235	17102
835.373	17132
835.511	17102
835.65	16858
835.788	16881
835.926	16755
836.064	16622
836.202	16679
836.34	16812
836.478	16949
836.615	16847
836.753	16915
836.891	16984
837.029	16908
837.167	16744
837.305	16911
837.443	16782
837.58	16672
837.718	16755
837.856	16771
837.993	16668
838.131	16660
838.269	16694
838.406	16622
838.544	16451
838.681	16535
838.819	16398
838.956	16196
839.094	16162
839.231	16341
839.369	16504
839.506	16771
839.643	16447
839.781	16246
839.918	16211
840.055	16280
840.193	16261
840.33	16303
840.467	16299
840.604	16424
840.742	16584
840.879	16154
841.016	16166
841.153	16204
841.29	16382
841.427	16325
841.564	16280
841.701	16363
841.838	16177
841.975	16135
842.112	16242
842.249	16078
842.385	16051
842.522	16238
842.659	16040
842.796	15979
842.933	16093
843.069	16010
843.206	16040
843.343	16200
843.479	16017
843.616	16017
843.752	15774
843.889	15850
844.025	15956
844.162	15831
844.298	16067
844.435	15819
844.571	15861
844.708	15892
844.844	15979
844.98	16063
845.117	15945
845.253	15880
845.389	15671
845.525	15884
845.661	15926
845.798	15934
845.934	15968
846.07	15949
846.206	15934
846.342	15964
846.478	15747
846.614	15591
846.75	15454
846.886	15488
847.022	15644
847.158	15401
847.294	15454
847.429	15477
847.565	15382
847.701	15648
847.837	15123
847.972	15192
848.108	15252
848.244	15108
848.379	15074
848.515	15032
848.65	14906
848.786	15089
848.921	15047
849.057	14994
849.192	15055
849.328	15077
849.463	15001
849.598	15009
849.734	14918
849.869	14861
850.004	14750
850.14	14872
850.275	14705
850.41	14701
850.545	14811
850.68	14686
850.815	14823
850.95	14682
851.085	14906
851.22	14887
851.355	14720
851.49	14777
851.625	14625
851.76	14750
851.895	14674
852.03	14705
852.165	14838
852.299	14773
852.434	14815
852.569	14807
852.703	14762
852.838	14838
852.973	14876
853.107	14960
853.242	14735
853.376	14579
853.511	14507
853.645	14648
853.78	14644
853.914	14594
854.048	14598
854.183	14530
854.317	14655
854.451	14845
854.585	14594
854.72	14575
854.854	14602
854.988	14598
855.122	14571
855.256	14545
855.39	14610
855.524	14785
855.658	14686
855.792	14625
855.926	14678
856.06	14575
856.194	14746
856.327	14617
856.461	14708
856.595	14541
856.729	14598
856.862	14606
856.996	14636
857.13	14701
857.263	14746
857.397	14792
857.53	14590
857.664	14731
857.797	14727
857.931	14689
858.064	14739
858.197	14651
858.331	14606
858.464	14575
858.597	14526
858.731	14670
858.864	14636
858.997	14686
859.13	14689
859.263	14629
859.396	14720
859.529	14632
859.662	14621
859.795	14610
859.928	14613
860.061	14716
860.194	14727
860.327	14693
860.46	14640
860.592	14765
860.725	14682
860.858	14807
860.99	14678
861.123	14552
861.256	14613
861.388	14659
861.521	15428
861.653	14427
861.786	14507
861.918	14522
862.05	14507
862.183	14629
862.315	14587
862.447	14705
862.58	14495
862.712	14438
862.844	14370
862.976	14465
863.108	14385
863.24	14796
863.372	14248
863.504	14400
863.636	14415
863.768	14511
863.9	14370
864.032	14267
864.164	14374
864.296	14431
864.428	14396
864.559	14492
864.691	14511
864.823	14438
864.954	14484
865.086	14377
865.217	14317
865.349	14252
865.48	14362
865.612	14465
865.743	14499
865.875	14415
866.006	14480
866.137	14366
866.269	14358
866.4	14259
866.531	14305
866.662	14320
866.793	14324
866.924	14374
867.055	14301
867.186	14393
867.317	14404
867.448	14248
867.579	14229
867.71	14377
867.841	14317
867.972	14324
868.103	14328
868.233	14404
868.364	14362
868.495	14442
868.625	14522
868.756	14731
868.886	14503
869.017	14503
869.147	14777
869.278	14754
869.408	14655
869.539	14708
869.669	14701
869.799	14598
869.929	14800
870.06	14678
870.19	14891
870.32	14952
870.45	14941
870.58	14971
870.71	15131
870.84	15116
870.97	15100
871.1	14998
871.23	15157
871.36	15275
871.489	15089
871.619	15150
871.749	15226
871.879	15294
872.008	15443
872.138	15184
872.267	15195
872.397	15085
872.526	15100
872.656	15097
872.785	15081
872.915	15180
873.044	15386
873.173	15245
873.303	15237
873.432	15359
873.561	15332
873.69	15363
873.819	15249
873.948	15321
874.077	15237
874.206	15283
874.335	15283
874.464	15416
874.593	15637
874.722	15530
874.851	15599
874.979	15652
875.108	15618
875.237	15606
875.365	15500
875.494	15545
875.623	15660
875.751	15629
875.88	15660
876.008	15838
876.136	15827
876.265	16029
876.393	16131
876.521	16051
876.65	16059
876.778	15994
876.906	15892
877.034	15968
877.162	15960
877.29	15934
877.418	15972
877.546	16044
877.674	16010
877.802	15998
877.93	15998
878.058	16063
878.185	15945
878.313	15975
878.441	16013
878.568	15930
878.696	15998
878.824	15964
878.951	16112
879.079	16226
879.206	16382
879.333	16238
879.461	16181
879.588	16280
879.715	16367
879.842	16421
879.97	16154
880.097	15945
880.224	15884
880.351	15983
880.478	15899
880.605	15770
880.732	15945
880.859	16071
880.986	15979
881.112	15949
881.239	15838
881.366	15720
881.493	15656
881.619	15462
881.746	15534
881.872	15572
881.999	15370
882.125	15412
882.252	15679
882.378	15580
882.505	15675
882.631	15492
882.757	15313
882.883	15435
883.01	15355
883.136	15291
883.262	15184
883.388	15180
883.514	15435
883.64	15374
883.766	15397
883.892	15230
884.018	15131
884.143	15329
884.269	15473
884.395	15104
884.52	15055
884.646	15085
884.772	15013
884.897	14861
885.023	14994
885.148	15142
885.274	15241
885.399	15195
885.524	15036
885.65	15108
885.775	15074
885.9	15074
886.025	15272
886.15	15157
886.275	14967
886.4	14925
886.525	15089
886.65	15017
886.775	15013
886.9	15230
887.025	15241
887.149	15150
887.274	14823
887.399	14868
887.523	14788
887.648	14807
887.773	14716
887.897	14887
888.021	14941
888.146	14815
888.27	14941
888.395	14956
888.519	14921
888.643	14952
888.767	14941
888.891	14697
889.015	14674
889.139	14743
889.263	14693
889.387	14815
889.511	14902
889.635	14838
889.759	14682
889.883	14636
890.006	14697
890.13	14861
890.254	14697
890.377	14579
890.501	14457
890.624	14507
890.748	14606
890.871	14442
890.995	14343
891.118	14374
891.241	14389
891.364	14431
891.488	14530
891.611	14473
891.734	14408
891.857	14518
891.98	14434
892.103	14488
892.226	14408
892.349	14396
892.471	14191
892.594	14408
892.717	14454
892.839	14320
892.962	14377
893.085	14473
893.207	14396
893.33	14355
893.452	14271
893.575	14492
893.697	14370
893.819	14594
893.941	14663
894.064	14541
894.186	14415
894.308	14252
894.43	14495
894.552	14621
894.674	14522
894.796	14389
894.918	14427
895.04	14438
895.161	14461
895.283	14469
895.405	14415
895.526	14476
895.648	14484
895.769	14473
895.891	14621
896.012	14606
896.134	14625
896.255	14552
896.376	14579
896.498	14670
896.619	14682
896.74	14571
896.861	14686
896.982	14910
897.103	15055
897.224	14899
897.345	14845
897.466	14743
897.587	14708
897.708	14971
897.828	14906
897.949	14769
898.07	14648
898.19	14838
898.311	15005
898.431	14838
898.552	14811
898.672	14982
898.792	14918
898.913	14952
899.033	14762
899.153	14754
899.273	14663
899.393	14693
899.513	14807
899.633	14807
899.753	14800
899.873	14712
899.993	14788
900.113	14811
900.232	14823
900.352	14720
900.472	14636
900.591	14613
900.711	14667
900.83	14594
900.95	14724
901.069	14716
901.189	14541
901.308	14377
901.427	14214
901.546	14290
901.665	14286
901.784	14366
901.904	14164
902.023	14100
902.141	13959
902.26	13822
902.379	14031
902.498	13818
902.617	13841
902.735	13871
902.854	13856
902.973	13742
903.091	13632
903.21	13529
903.328	13613
903.446	13556
903.565	13441
903.683	13434
903.801	13339
903.919	13381
904.038	13343
904.156	13187
904.274	13293
904.392	13206
904.51	13297
904.627	13221
904.745	13297
904.863	13236
904.981	12985
905.098	12962
905.216	12996
905.334	12878
905.451	12856
905.569	12989
905.686	12935
905.803	12951
905.921	12783
906.038	12844
906.155	12741
906.272	12642
906.389	12673
906.506	12475
906.623	12517
906.74	12445
906.857	12376
906.974	12467
907.091	12525
907.208	12589
907.324	12585
907.441	12346
907.557	12197
907.674	12178
907.79	12175
907.907	12205
908.023	12285
908.139	12338
908.256	12155
908.372	12209
908.488	12133
908.604	11999
908.72	12026
908.836	12022
908.952	11958
909.068	12034
909.184	12155
909.3	12095
909.415	12060
909.531	11969
909.647	11908
909.762	11843
909.878	11710
909.993	11805
910.108	11680
910.224	11752
910.339	11878
910.454	11688
910.57	11562
910.685	11566
910.8	11775
910.915	11843
911.03	11668
911.145	11551
911.259	11387
911.374	11501
911.489	11455
911.604	11269
911.718	11261
911.833	11288
911.947	11083
912.062	11041
912.176	11162
912.291	11216
912.405	11208
912.519	11402
912.633	11349
912.748	11208
912.862	11170
912.976	11109
913.09	10965
913.204	11018
913.318	11143
913.431	11181
913.545	11113
913.659	11239
913.772	11060
913.886	10942
914	11071
914.113	11090
914.226	11079
914.34	11071
914.453	10877
914.566	11056
914.68	10919
914.793	10869
914.906	10801
915.019	10691
915.132	10626
915.245	10679
915.358	10687
915.47	10744
915.583	10736
915.696	10729
915.809	10812
915.921	10847
916.034	10694
916.146	10622
916.259	10558
916.371	10694
916.483	10767
916.595	10672
916.708	10634
916.82	10626
916.932	10599
917.044	10599
917.156	10607
917.268	10508
917.38	10550
917.491	10538
917.603	10527
917.715	10558
917.826	10698
917.938	10512
918.049	10379
918.161	10508
918.272	10714
918.384	10660
918.495	10615
918.606	10421
918.717	10447
918.828	10474
918.939	10436
919.05	10299
919.161	10386
919.272	10207
919.383	10257
919.494	10481
919.604	10622
919.715	10462
919.826	10402
919.936	10413
920.047	10512
920.157	10322
920.267	10637
920.378	10478
920.488	10424
920.598	10630
920.708	10744
920.818	10630
920.928	10630
921.038	10820
921.148	10801
921.258	10382
921.368	10402
921.477	10310
921.587	10234
921.697	10128
921.806	10352
921.916	10143
922.025	10025
922.134	9979
922.244	9930
922.353	10093
922.462	9907
922.571	9816
922.68	9641
922.789	9599
922.898	9667
923.007	9591
923.116	9663
923.224	9629
923.333	9679
923.442	9485
923.55	9496
923.659	9568
923.767	9595
923.876	9515
923.984	9580
924.092	9443
924.201	9481
924.309	9580
924.417	9561
924.525	9469
924.633	9473
924.741	10375
924.849	9298
924.956	9530
925.064	9268
925.172	9218
925.279	9226
925.387	9241
925.494	9260
925.602	9412
925.709	9386
925.816	9275
925.924	9374
926.031	9382
926.138	9237
926.245	9393
926.352	9173
926.459	9348
926.566	9443
926.673	9211
926.779	9241
926.886	9165
926.993	9051
927.099	8956
927.206	8941
927.312	8937
927.419	9062
927.525	8990
927.631	9066
927.737	8975
927.843	8891
927.95	8819
928.056	8914
928.162	8891
928.267	8899
928.373	9584
928.479	9055
928.585	8785
928.69	8861
928.796	8937
928.901	8769
929.007	8712
929.112	8807
929.218	8861
929.323	8758
929.428	8708
929.533	8853
929.638	8629
929.743	8762
929.848	8716
929.953	8708
930.058	8712
930.163	8480
930.267	8507
930.372	8602
930.477	8476
930.581	8686
930.685	8575
930.79	8431
930.894	8469
930.998	8465
931.103	8575
931.207	8248
931.311	8157
931.415	8065
931.519	7944
931.623	7928
