Data from test_V78500241_235.txt Node
Date: Fri Mar 25 14:35:21 CST 2022
User: usil
Spectrometer: V785-0024
Trigger mode: 0
Integration Time (sec): 4.000000E-1
Scans to average: 1
Nonlinearity correction enabled: false
Boxcar width: 0
Storing dark spectrum: false
XAxis mode: Wavelengths
Number of Pixels in Spectrum: 1024
>>>>>Begin Spectral Data<<<<<
801.071	27583
801.214	27545
801.356	27298
801.499	27329
801.641	27252
801.783	27112
801.926	27138
802.068	27104
802.211	26925
802.353	26705
802.496	26762
802.638	26746
802.78	26720
802.923	26590
803.065	26568
803.208	26533
803.35	26541
803.492	26461
803.635	26613
803.777	26556
803.919	26724
804.061	27001
804.204	26746
804.346	26530
804.488	26503
804.63	26545
804.773	26499
804.915	26590
805.057	26788
805.199	26579
805.341	26530
805.483	26613
805.626	26689
805.768	26571
805.91	26727
806.052	26716
806.194	26602
806.336	26792
806.478	26655
806.62	26609
806.762	26765
806.904	26739
807.046	27112
807.188	27039
807.33	27055
807.472	27116
807.614	27009
807.756	27058
807.898	26910
808.04	26914
808.182	26727
808.324	26967
808.465	27028
808.607	27302
808.749	27317
808.891	27447
809.033	27564
809.174	27534
809.316	27530
809.458	27431
809.6	27226
809.741	27165
809.883	27287
810.025	27351
810.166	27374
810.308	27230
810.45	27283
810.591	27252
810.733	27260
810.875	27173
811.016	27047
811.158	26986
811.299	27108
811.441	27112
811.582	26971
811.724	26921
811.865	27062
812.007	27024
812.148	26956
812.29	27032
812.431	27184
812.573	27226
812.714	27435
812.855	27420
812.997	27633
813.138	27591
813.279	27496
813.421	27370
813.562	27408
813.703	27306
813.845	27195
813.986	26857
814.127	26769
814.268	26575
814.41	26807
814.551	26651
814.692	26530
814.833	26503
814.974	26480
815.115	26602
815.256	26412
815.397	26423
815.539	26366
815.68	26370
815.821	26199
815.962	26347
816.103	26328
816.244	26161
816.385	26043
816.526	26020
816.666	25890
816.807	25685
816.948	25803
817.089	25833
817.23	25635
817.371	25677
817.512	25647
817.653	25624
817.793	25479
817.934	25651
818.075	25704
818.216	25620
818.356	25552
818.497	25575
818.638	25453
818.778	25434
818.919	25445
819.06	25407
819.2	25533
819.341	25635
819.481	25552
819.622	25670
819.762	25818
819.903	25826
820.043	25727
820.184	25628
820.324	25700
820.465	25700
820.605	25601
820.746	25518
820.886	25499
821.026	25563
821.167	25590
821.307	25632
821.447	25548
821.588	25388
821.728	25247
821.868	25084
822.008	25027
822.149	25076
822.289	24977
822.429	24635
822.569	24646
822.709	24498
822.849	24589
822.99	24509
823.13	24460
823.27	24365
823.41	24224
823.55	24251
823.69	24353
823.83	24239
823.97	24365
824.11	24152
824.25	23950
824.389	23984
824.529	24095
824.669	23912
824.809	24148
824.949	24015
825.089	24068
825.228	24148
825.368	23828
825.508	23855
825.648	23912
825.787	23942
825.927	23707
826.067	23680
826.206	23824
826.346	23866
826.485	23855
826.625	23840
826.765	23790
826.904	23843
827.044	23577
827.183	23581
827.323	23444
827.462	23455
827.601	23463
827.741	23505
827.88	23467
828.02	23402
828.159	23448
828.298	23433
828.437	23547
828.577	23436
828.716	23436
828.855	23406
828.994	23212
829.134	23136
829.273	23178
829.412	23075
829.551	23166
829.69	23200
829.829	23159
829.968	23159
830.107	23166
830.246	23242
830.385	23132
830.524	22980
830.663	22949
830.802	22812
830.941	22820
831.08	22805
831.219	22824
831.357	22672
831.496	22984
831.635	22733
831.774	22653
831.913	22660
832.051	22607
832.19	22409
832.329	22428
832.467	22413
832.606	22341
832.744	22253
832.883	22295
833.022	22310
833.16	22367
833.299	22409
833.437	22516
833.576	22344
833.714	22318
833.852	22417
833.991	22398
834.129	22485
834.267	22447
834.406	22493
834.544	22299
834.682	22436
834.821	22246
834.959	22516
835.097	22337
835.235	22333
835.373	22375
835.511	22344
835.65	22299
835.788	22215
835.926	22124
836.064	21873
836.202	22029
836.34	22226
836.478	22196
836.615	22234
836.753	22226
836.891	22253
837.029	22303
837.167	22238
837.305	22093
837.443	21991
837.58	21983
837.718	22105
837.856	22040
837.993	21998
838.131	22040
838.269	21838
838.406	21968
838.544	21789
838.681	21637
838.819	21656
838.956	21564
839.094	21431
839.231	21454
839.369	21698
839.506	21743
839.643	21637
839.781	21408
839.918	21252
840.055	21450
840.193	21382
840.33	21397
840.467	21329
840.604	21370
840.742	21705
840.879	21275
841.016	21302
841.153	21291
841.29	21568
841.427	21408
841.564	21336
841.701	21329
841.838	21447
841.975	21230
842.112	21313
842.249	21116
842.385	21051
842.522	21279
842.659	21142
842.796	21100
842.933	21055
843.069	21032
843.206	21077
843.343	21138
843.479	21211
843.616	21058
843.752	20765
843.889	20990
844.025	20937
844.162	20758
844.298	20963
844.435	20815
844.571	20876
844.708	20952
844.844	21020
844.98	20921
845.117	20895
845.253	20872
845.389	20739
845.525	20785
845.661	20838
845.798	20819
845.934	20929
846.07	20819
846.206	20956
846.342	21169
846.478	20758
846.614	20450
846.75	20370
846.886	20294
847.022	20393
847.158	20404
847.294	20256
847.429	20248
847.565	20225
847.701	20415
847.837	19989
847.972	19978
848.108	20187
848.244	20058
848.379	19898
848.515	19849
848.65	19822
848.786	19856
848.921	19807
849.057	19883
849.192	19860
849.328	19803
849.463	19765
849.598	19715
849.734	19776
849.869	19605
850.004	19658
850.14	19556
850.275	19613
850.41	19434
850.545	19518
850.68	19620
850.815	19502
850.95	19445
851.085	19639
851.22	19594
851.355	19556
851.49	19529
851.625	19495
851.76	19514
851.895	19434
852.03	19552
852.165	19441
852.299	19571
852.434	19624
852.569	19525
852.703	19476
852.838	19552
852.973	19700
853.107	19712
853.242	19480
853.376	19324
853.511	19263
853.645	19274
853.78	19422
853.914	19411
854.048	19304
854.183	19346
854.317	19487
854.451	19578
854.585	19362
854.72	19270
854.854	19453
854.988	19202
855.122	19346
855.256	19244
855.39	19369
855.524	19388
855.658	19384
855.792	19441
855.926	19358
856.06	19365
856.194	19407
856.327	19396
856.461	19312
856.595	19377
856.729	19206
856.862	19335
856.996	19350
857.13	19388
857.263	19457
857.397	19285
857.53	19415
857.664	19476
857.797	19388
857.931	19373
858.064	19415
858.197	19289
858.331	19312
858.464	19289
858.597	19206
858.731	19187
858.864	19255
858.997	19206
859.13	19183
859.263	19285
859.396	19373
859.529	19266
859.662	19251
859.795	19198
859.928	19259
860.061	19308
860.194	19514
860.327	19312
860.46	19285
860.592	19274
860.725	19381
860.858	19441
860.99	19228
861.123	19110
861.256	19145
861.388	19274
861.521	19826
861.653	19050
861.786	19129
861.918	19141
862.05	19232
862.183	19236
862.315	19327
862.447	19381
862.58	19244
862.712	19084
862.844	19023
862.976	19171
863.108	19133
863.24	19320
863.372	18981
863.504	19015
863.636	18993
863.768	19061
863.9	18871
864.032	18932
864.164	19004
864.296	18951
864.428	19118
864.559	19065
864.691	18943
864.823	19122
864.954	18996
865.086	18958
865.217	18753
865.349	18848
865.48	18935
865.612	18863
865.743	19000
865.875	18924
866.006	18806
866.137	18802
866.269	18989
866.4	18943
866.531	18863
866.662	18875
866.793	18757
866.924	18776
867.055	18776
867.186	18882
867.317	18776
867.448	18669
867.579	18783
867.71	18738
867.841	18783
867.972	18810
868.103	18913
868.233	18867
868.364	18947
868.495	18924
868.625	19110
868.756	19110
868.886	19012
869.017	18989
869.147	19069
869.278	19247
869.408	19179
869.539	19114
869.669	19084
869.799	19175
869.929	19168
870.06	19129
870.19	19339
870.32	19278
870.45	19407
870.58	19403
870.71	19597
870.84	19521
870.97	19472
871.1	19529
871.23	19605
871.36	19624
871.489	19525
871.619	19548
871.749	19635
871.879	19715
872.008	19757
872.138	19662
872.267	19624
872.397	19670
872.526	19476
872.656	19499
872.785	19422
872.915	19655
873.044	19677
873.173	19632
873.303	19719
873.432	19734
873.561	19784
873.69	19826
873.819	19746
873.948	19818
874.077	19700
874.206	19647
874.335	19670
874.464	19700
874.593	19898
874.722	19921
874.851	20107
874.979	19978
875.108	20012
875.237	19890
875.365	19856
875.494	19970
875.623	20126
875.751	19959
875.88	20039
876.008	20130
876.136	20134
876.265	20320
876.393	20442
876.521	20461
876.65	20408
876.778	20423
876.906	20400
877.034	20415
877.162	20415
877.29	20286
877.418	20317
877.546	20332
877.674	20324
877.802	20370
877.93	20400
878.058	20248
878.185	20252
878.313	20343
878.441	20233
878.568	20145
878.696	20275
878.824	20423
878.951	20484
879.079	20480
879.206	20750
879.333	20674
879.461	20522
879.588	20640
879.715	20788
879.842	20823
879.97	20533
880.097	20282
880.224	20195
880.351	20244
880.478	20336
880.605	20176
880.732	20271
880.859	20415
880.986	20278
881.112	20263
881.239	20115
881.366	19997
881.493	19780
881.619	19814
881.746	19830
881.872	19887
881.999	19784
882.125	19780
882.252	19871
882.378	19849
882.505	19951
882.631	19784
882.757	19575
882.883	19666
883.01	19582
883.136	19609
883.262	19441
883.388	19445
883.514	19635
883.64	19750
883.766	19457
883.892	19441
884.018	19358
884.143	19590
884.269	19605
884.395	19369
884.52	19278
884.646	19187
884.772	19206
884.897	19179
885.023	19324
885.148	19327
885.274	19362
885.399	19266
885.524	19251
885.65	19225
885.775	19152
885.9	19213
886.025	19316
886.15	19365
886.275	19141
886.4	19038
886.525	19110
886.65	19202
886.775	19141
886.9	19312
887.025	19324
887.149	19110
887.274	19008
887.399	19019
887.523	19027
887.648	18962
887.773	18897
887.897	18985
888.021	18958
888.146	18924
888.27	19107
888.395	19061
888.519	19015
888.643	18924
888.767	18973
888.891	18856
889.015	18787
889.139	18856
889.263	18753
889.387	18970
889.511	19076
889.635	18764
889.759	18810
889.883	18669
890.006	18798
890.13	18810
890.254	18715
890.377	18627
890.501	18502
890.624	18528
890.748	18547
890.871	18445
890.995	18334
891.118	18296
891.241	18429
891.364	18277
891.488	18388
891.611	18361
891.734	18372
891.857	18414
891.98	18437
892.103	18407
892.226	18403
892.349	18277
892.471	18095
892.594	18243
892.717	18399
892.839	18292
892.962	18254
893.085	18407
893.207	18300
893.33	18064
893.452	18174
893.575	18300
893.697	18388
893.819	18456
893.941	18467
894.064	18441
894.186	18266
894.308	18178
894.43	18334
894.552	18464
894.674	18315
894.796	18228
894.918	18388
895.04	18232
895.161	18429
895.283	18426
895.405	18239
895.526	18285
895.648	18213
895.769	18319
895.891	18182
896.012	18361
896.134	18433
896.255	18448
896.376	18224
896.498	18338
896.619	18338
896.74	18369
896.861	18506
896.982	18726
897.103	18779
897.224	18692
897.345	18486
897.466	18429
897.587	18471
897.708	18623
897.828	18608
897.949	18589
898.07	18395
898.19	18517
898.311	18688
898.431	18536
898.552	18467
898.672	18692
898.792	18429
898.913	18585
899.033	18494
899.153	18441
899.273	18273
899.393	18304
899.513	18376
899.633	18418
899.753	18395
899.873	18251
899.993	18369
900.113	18346
900.232	18369
900.352	18220
900.472	18190
900.591	18121
900.711	18182
900.83	18114
900.95	18300
901.069	18281
901.189	18102
901.308	17920
901.427	17866
901.546	17805
901.665	17813
901.784	17866
901.904	17672
902.023	17547
902.141	17395
902.26	17417
902.379	17452
902.498	17303
902.617	17239
902.735	17444
902.854	17254
902.973	17223
903.091	17006
903.21	17033
903.328	16942
903.446	16839
903.565	16889
903.683	16740
903.801	16668
903.919	16790
904.038	16771
904.156	16580
904.274	16637
904.392	16531
904.51	16538
904.627	16592
904.745	16542
904.863	16569
904.981	16379
905.098	16135
905.216	16207
905.334	16230
905.451	16230
905.569	16109
905.686	16306
905.803	16112
905.921	15991
906.038	15987
906.155	15964
906.272	15823
906.389	15899
906.506	15671
906.623	15743
906.74	15728
906.857	15622
906.974	15618
907.091	15701
907.208	15857
907.324	15800
907.441	15686
907.557	15466
907.674	15500
907.79	15355
907.907	15351
908.023	15496
908.139	15416
908.256	15310
908.372	15252
908.488	15230
908.604	15192
908.72	15169
908.836	15260
908.952	15032
909.068	15161
909.184	15211
909.3	15127
909.415	15161
909.531	15173
909.647	14853
909.762	14914
909.878	14921
909.993	14864
910.108	14807
910.224	14811
910.339	14800
910.454	14724
910.57	14640
910.685	14522
910.8	14887
910.915	14838
911.03	14678
911.145	14476
911.259	14499
911.374	14511
911.489	14415
911.604	14313
911.718	14286
911.833	14191
911.947	14107
912.062	14024
912.176	14259
912.291	14221
912.405	14202
912.519	14324
912.633	14431
912.748	14290
912.862	14111
912.976	14054
913.09	13902
913.204	14058
913.318	14012
913.431	14107
913.545	14126
913.659	14202
913.772	14073
913.886	13772
914	13921
914.113	13989
914.226	14081
914.34	13925
914.453	13849
914.566	13944
914.68	13750
914.793	13731
914.906	13609
915.019	13594
915.132	13544
915.245	13616
915.358	13567
915.47	13567
915.583	13563
915.696	13594
915.809	13715
915.921	13666
916.034	13540
916.146	13434
916.259	13480
916.371	13544
916.483	13521
916.595	13438
916.708	13426
916.82	13422
916.932	13502
917.044	13354
917.156	13362
917.268	13236
917.38	13343
917.491	13194
917.603	13304
917.715	13411
917.826	13400
917.938	13190
918.049	13091
918.161	13152
918.272	13350
918.384	13331
918.495	13236
918.606	13103
918.717	12977
918.828	13080
918.939	13133
919.05	12867
919.161	13061
919.272	12821
919.383	12844
919.494	13168
919.604	13217
919.715	13034
919.826	12928
919.936	12962
920.047	13061
920.157	13053
920.267	13251
920.378	12989
920.488	12939
920.598	13156
920.708	13320
920.818	13099
920.928	13137
921.038	13156
921.148	13236
921.258	13015
921.368	12943
921.477	12802
921.587	12806
921.697	12696
921.806	12802
921.916	12528
922.025	12414
922.134	12506
922.244	12369
922.353	12441
922.462	12220
922.571	12171
922.68	12114
922.789	12102
922.898	12129
923.007	11969
923.116	12136
923.224	12022
923.333	12102
923.442	11984
923.55	11866
923.659	11992
923.767	12045
923.876	11870
923.984	12026
924.092	11821
924.201	11863
924.309	11828
924.417	11882
924.525	11786
924.633	11828
924.741	12707
924.849	11657
924.956	11756
925.064	11722
925.172	11543
925.279	11577
925.387	11680
925.494	11554
925.602	11745
925.709	11729
925.816	11532
925.924	11558
926.031	11547
926.138	11528
926.245	11619
926.352	11417
926.459	11512
926.566	11532
926.673	11474
926.779	11459
926.886	11391
926.993	11299
927.099	11242
927.206	11128
927.312	11174
927.419	11261
927.525	11170
927.631	11143
927.737	11090
927.843	11098
927.95	10896
928.056	11014
928.162	11105
928.267	11037
928.373	11562
928.479	11178
928.585	10896
928.69	10980
928.796	11022
928.901	10835
929.007	10774
929.112	10934
929.218	10847
929.323	10839
929.428	10679
929.533	10862
929.638	10691
929.743	10752
929.848	10828
929.953	10694
930.058	10752
930.163	10527
930.267	10554
930.372	10649
930.477	10432
930.581	10687
930.685	10523
930.79	10421
930.894	10379
930.998	10367
931.103	10447
931.207	10135
931.311	10112
931.415	9926
931.519	9861
931.623	9865
