Data from test_V78500241_2095.txt Node
Date: Fri Mar 25 14:48:18 CST 2022
User: usil
Spectrometer: V785-0024
Trigger mode: 0
Integration Time (sec): 4.000000E-1
Scans to average: 1
Nonlinearity correction enabled: false
Boxcar width: 0
Storing dark spectrum: false
XAxis mode: Wavelengths
Number of Pixels in Spectrum: 1024
>>>>>Begin Spectral Data<<<<<
801.071	22059
801.214	21953
801.356	21774
801.499	21660
801.641	21572
801.783	21424
801.926	21538
802.068	21386
802.211	21397
802.353	21325
802.496	20994
802.638	21009
802.78	20902
802.923	20788
803.065	20853
803.208	20811
803.35	20777
803.492	20933
803.635	20880
803.777	20811
803.919	20941
804.061	21226
804.204	20811
804.346	20632
804.488	20746
804.63	20819
804.773	20636
804.915	20739
805.057	20792
805.199	20708
805.341	20735
805.483	20883
805.626	20804
805.768	20746
805.91	20705
806.052	20785
806.194	20670
806.336	20876
806.478	20735
806.62	20655
806.762	20762
806.904	20826
807.046	21173
807.188	21085
807.33	20994
807.472	21081
807.614	20925
807.756	21036
807.898	20754
808.04	20746
808.182	20739
808.324	20811
808.465	20834
808.607	21028
808.749	21116
808.891	21275
809.033	21291
809.174	21135
809.316	21005
809.458	21218
809.6	21032
809.741	21096
809.883	21195
810.025	21344
810.166	21211
810.308	21249
810.45	21237
810.591	21241
810.733	20963
810.875	20944
811.016	20811
811.158	20823
811.299	20929
811.441	20982
811.582	21013
811.724	20834
811.865	20857
812.007	20830
812.148	20842
812.29	20849
812.431	21001
812.573	21195
812.714	21317
812.855	21332
812.997	21405
813.138	21561
813.279	21450
813.421	21469
813.562	21154
813.703	21161
813.845	20960
813.986	20735
814.127	20564
814.268	20404
814.41	20518
814.551	20476
814.692	20480
814.833	20393
814.974	20560
815.115	20343
815.256	20240
815.397	20259
815.539	20161
815.68	20210
815.821	20001
815.962	20206
816.103	20187
816.244	19940
816.385	19959
816.526	19883
816.666	19746
816.807	19518
816.948	19670
817.089	19681
817.23	19651
817.371	19552
817.512	19483
817.653	19548
817.793	19441
817.934	19571
818.075	19537
818.216	19491
818.356	19521
818.497	19358
818.638	19198
818.778	19198
818.919	19240
819.06	19236
819.2	19362
819.341	19445
819.481	19388
819.622	19685
819.762	19731
819.903	19658
820.043	19662
820.184	19510
820.324	19590
820.465	19597
820.605	19628
820.746	19575
820.886	19324
821.026	19460
821.167	19502
821.307	19567
821.447	19441
821.588	19396
821.728	19297
821.868	19156
822.008	18966
822.149	18905
822.289	19015
822.429	18677
822.569	18623
822.709	18715
822.849	18376
822.99	18414
823.13	18452
823.27	18380
823.41	18235
823.55	18201
823.69	18220
823.83	18338
823.97	18190
824.11	17980
824.25	17984
824.389	18007
824.529	18102
824.669	18091
824.809	18136
824.949	18026
825.089	18106
825.228	17992
825.368	17893
825.508	17665
825.648	17786
825.787	17809
825.927	17874
826.067	17836
826.206	17767
826.346	17737
826.485	17790
826.625	17748
826.765	17931
826.904	17931
827.044	17596
827.183	17551
827.323	17528
827.462	17501
827.601	17463
827.741	17433
827.88	17558
828.02	17303
828.159	17410
828.298	17414
828.437	17592
828.577	17448
828.716	17630
828.855	17391
828.994	17280
829.134	17208
829.273	17216
829.412	17197
829.551	17181
829.69	17204
829.829	17368
829.968	17334
830.107	17227
830.246	17307
830.385	17235
830.524	17147
830.663	17022
830.802	16938
830.941	16904
831.08	16889
831.219	16965
831.357	16968
831.496	17079
831.635	16927
831.774	16774
831.913	16786
832.051	16542
832.19	16554
832.329	16618
832.467	16569
832.606	16485
832.744	16497
832.883	16558
833.022	16519
833.16	16580
833.299	16611
833.437	16580
833.576	16569
833.714	16599
833.852	16626
833.991	16660
834.129	16748
834.267	16672
834.406	16706
834.544	16675
834.682	16630
834.821	16550
834.959	16759
835.097	16599
835.235	16599
835.373	16637
835.511	16584
835.65	16405
835.788	16443
835.926	16462
836.064	16303
836.202	16295
836.34	16546
836.478	16542
836.615	16493
836.753	16596
836.891	16622
837.029	16622
837.167	16394
837.305	16440
837.443	16440
837.58	16386
837.718	16447
837.856	16344
837.993	16249
838.131	16341
838.269	16333
838.406	16272
838.544	16268
838.681	16116
838.819	16090
838.956	15857
839.094	15987
839.231	16025
839.369	16097
839.506	16314
839.643	16128
839.781	15915
839.918	15918
840.055	15892
840.193	15812
840.33	15846
840.467	15861
840.604	15987
840.742	16120
840.879	15705
841.016	15899
841.153	15846
841.29	15979
841.427	15869
841.564	15915
841.701	16021
841.838	15956
841.975	15838
842.112	15774
842.249	15637
842.385	15705
842.522	15861
842.659	15762
842.796	15728
842.933	15774
843.069	15648
843.206	15682
843.343	15759
843.479	15766
843.616	15701
843.752	15492
843.889	15462
844.025	15576
844.162	15443
844.298	15599
844.435	15435
844.571	15515
844.708	15530
844.844	15709
844.98	15641
845.117	15595
845.253	15424
845.389	15367
845.525	15420
845.661	15317
845.798	15283
845.934	15439
846.07	15321
846.206	15355
846.342	15424
846.478	15317
846.614	15161
846.75	15028
846.886	15093
847.022	15195
847.158	15047
847.294	15192
847.429	15085
847.565	15043
847.701	15340
847.837	14971
847.972	14811
848.108	14990
848.244	14975
848.379	14807
848.515	14746
848.65	14686
848.786	14689
848.921	14731
849.057	14883
849.192	14853
849.328	14716
849.463	14765
849.598	14644
849.734	14545
849.869	14632
850.004	14461
850.14	14518
850.275	14560
850.41	14385
850.545	14415
850.68	14423
850.815	14549
850.95	14473
851.085	14560
851.22	14488
851.355	14454
851.49	14404
851.625	14393
851.76	14408
851.895	14438
852.03	14389
852.165	14393
852.299	14514
852.434	14530
852.569	14602
852.703	14575
852.838	14613
852.973	14625
853.107	14602
853.242	14476
853.376	14339
853.511	14282
853.645	14317
853.78	14537
853.914	14450
854.048	14358
854.183	14400
854.317	14396
854.451	14545
854.585	14275
854.72	14328
854.854	14415
854.988	14244
855.122	14332
855.256	14267
855.39	14301
855.524	14431
855.658	14431
855.792	14442
855.926	14408
856.06	14381
856.194	14552
856.327	14259
856.461	14252
856.595	14317
856.729	14362
856.862	14469
856.996	14427
857.13	14431
857.263	14488
857.397	14530
857.53	14347
857.664	14385
857.797	14427
857.931	14393
858.064	14419
858.197	14412
858.331	14343
858.464	14355
858.597	14214
858.731	14396
858.864	14370
858.997	14339
859.13	14358
859.263	14313
859.396	14564
859.529	14366
859.662	14324
859.795	14328
859.928	14370
860.061	14457
860.194	14511
860.327	14377
860.46	14370
860.592	14431
860.725	14579
860.858	14400
860.99	14313
861.123	14290
861.256	14355
861.388	14343
861.521	14941
861.653	14278
861.786	14145
861.918	14225
862.05	14313
862.183	14282
862.315	14339
862.447	14282
862.58	14252
862.712	14218
862.844	14096
862.976	14187
863.108	14084
863.24	14446
863.372	14103
863.504	14092
863.636	14123
863.768	14172
863.9	14149
864.032	14100
864.164	14027
864.296	14157
864.428	14225
864.559	14221
864.691	14267
864.823	14180
864.954	14123
865.086	14138
865.217	14096
865.349	14065
865.48	14058
865.612	14081
865.743	14237
865.875	14107
866.006	14084
866.137	14020
866.269	14123
866.4	14081
866.531	14008
866.662	14012
866.793	14092
866.924	14027
867.055	14111
867.186	14043
867.317	14050
867.448	14096
867.579	14119
867.71	14065
867.841	14069
867.972	14062
868.103	14134
868.233	14062
868.364	14073
868.495	14244
868.625	14317
868.756	14370
868.886	14313
869.017	14358
869.147	14431
869.278	14427
869.408	14256
869.539	14400
869.669	14374
869.799	14393
869.929	14473
870.06	14454
870.19	14590
870.32	14587
870.45	14758
870.58	14781
870.71	14861
870.84	14781
870.97	14712
871.1	14716
871.23	14918
871.36	14910
871.489	14861
871.619	15013
871.749	14971
871.879	15009
872.008	15005
872.138	14948
872.267	14880
872.397	14750
872.526	14891
872.656	14727
872.785	14796
872.915	14960
873.044	15100
873.173	14967
873.303	14990
873.432	14933
873.561	14960
873.69	14963
873.819	15024
873.948	15150
874.077	15020
874.206	14998
874.335	15119
874.464	15195
874.593	15298
874.722	15287
874.851	15408
874.979	15370
875.108	15382
875.237	15256
875.365	15218
875.494	15214
875.623	15367
875.751	15291
875.88	15408
876.008	15469
876.136	15523
876.265	15686
876.393	15838
876.521	15930
876.65	15804
876.778	15698
876.906	15660
877.034	15698
877.162	15618
877.29	15606
877.418	15755
877.546	15770
877.674	15701
877.802	15766
877.93	15781
878.058	15694
878.185	15622
878.313	15705
878.441	15614
878.568	15492
878.696	15656
878.824	15751
878.951	15793
879.079	15869
879.206	16082
879.333	15983
879.461	15800
879.588	15812
879.715	15926
879.842	15987
879.97	15861
880.097	15595
880.224	15595
880.351	15652
880.478	15561
880.605	15523
880.732	15519
880.859	15762
880.986	15584
881.112	15667
881.239	15450
881.366	15306
881.493	15302
881.619	15275
881.746	15226
881.872	15306
881.999	15294
882.125	15249
882.252	15291
882.378	15291
882.505	15393
882.631	15199
882.757	14948
882.883	15100
883.01	15074
883.136	14963
883.262	14842
883.388	14891
883.514	15047
883.64	15123
883.766	15005
883.892	14872
884.018	14830
884.143	15077
884.269	15131
884.395	14819
884.52	14727
884.646	14727
884.772	14731
884.897	14712
885.023	14769
885.148	14785
885.274	14899
885.399	14819
885.524	14769
885.65	14743
885.775	14773
885.9	14743
886.025	14819
886.15	14788
886.275	14765
886.4	14667
886.525	14743
886.65	14659
886.775	14659
886.9	14944
887.025	15043
887.149	14769
887.274	14663
887.399	14503
887.523	14644
887.648	14492
887.773	14495
887.897	14636
888.021	14644
888.146	14507
888.27	14670
888.395	14697
888.519	14625
888.643	14552
888.767	14682
888.891	14480
889.015	14438
889.139	14423
889.263	14431
889.387	14571
889.511	14621
889.635	14526
889.759	14404
889.883	14419
890.006	14507
890.13	14545
890.254	14412
890.377	14317
890.501	14229
890.624	14290
890.748	14278
890.871	14062
890.995	14065
891.118	14073
891.241	14050
891.364	14107
891.488	14305
891.611	14157
891.734	14107
891.857	14195
891.98	14111
892.103	14180
892.226	14240
892.349	14050
892.471	14058
892.594	14172
892.717	14237
892.839	14115
892.962	14225
893.085	14202
893.207	14176
893.33	13993
893.452	14107
893.575	14145
893.697	14001
893.819	14290
893.941	14301
894.064	14248
894.186	14084
894.308	14050
894.43	14278
894.552	14252
894.674	14313
894.796	14031
894.918	14142
895.04	14077
895.161	14358
895.283	14259
895.405	14134
895.526	14199
895.648	14286
895.769	14301
895.891	14290
896.012	14476
896.134	14332
896.255	14301
896.376	14343
896.498	14240
896.619	14309
896.74	14355
896.861	14400
896.982	14659
897.103	14804
897.224	14598
897.345	14507
897.466	14511
897.587	14610
897.708	14670
897.828	14716
897.949	14587
898.07	14488
898.19	14541
898.311	14693
898.431	14663
898.552	14724
898.672	14708
898.792	14655
898.913	14655
899.033	14602
899.153	14480
899.273	14492
899.393	14492
899.513	14552
899.633	14488
899.753	14545
899.873	14446
899.993	14587
900.113	14503
900.232	14549
900.352	14499
900.472	14393
900.591	14324
900.711	14408
900.83	14336
900.95	14461
901.069	14400
901.189	14457
901.308	14119
901.427	14027
901.546	14058
901.665	14012
901.784	14161
901.904	13970
902.023	13837
902.141	13670
902.26	13666
902.379	13788
902.498	13620
902.617	13540
902.735	13643
902.854	13552
902.973	13559
903.091	13445
903.21	13274
903.328	13362
903.446	13381
903.565	13141
903.683	13042
903.801	13145
903.919	13240
904.038	13190
904.156	13050
904.274	13107
904.392	12947
904.51	12932
904.627	13008
904.745	13053
904.863	13114
904.981	12791
905.098	12722
905.216	12623
905.334	12669
905.451	12707
905.569	12662
905.686	12684
905.803	12711
905.921	12452
906.038	12521
906.155	12521
906.272	12441
906.389	12376
906.506	12292
906.623	12273
906.74	12315
906.857	12186
906.974	12167
907.091	12365
907.208	12452
907.324	12330
907.441	12258
907.557	11969
907.674	12003
907.79	11992
907.907	12007
908.023	12079
908.139	12022
908.256	11988
908.372	12041
908.488	11908
908.604	11783
908.72	11714
908.836	11786
908.952	11726
909.068	11775
909.184	11866
909.3	11805
909.415	11817
909.531	11840
909.647	11543
909.762	11493
909.878	11512
909.993	11551
910.108	11532
910.224	11478
910.339	11516
910.454	11429
910.57	11395
910.685	11376
910.8	11562
910.915	11688
911.03	11490
911.145	11360
911.259	11292
911.374	11231
911.489	11235
911.604	11121
911.718	11075
911.833	10995
911.947	10942
912.062	10927
912.176	11033
912.291	10999
912.405	10972
912.519	11185
912.633	11162
912.748	11094
912.862	11003
912.976	10915
913.09	10759
913.204	10869
913.318	10904
913.431	11022
913.545	11003
913.659	10991
913.772	10866
913.886	10816
914	10774
914.113	10858
914.226	10934
914.34	10835
914.453	10679
914.566	10934
914.68	10744
914.793	10656
914.906	10485
915.019	10436
915.132	10382
915.245	10512
915.358	10500
915.47	10527
915.583	10569
915.696	10592
915.809	10637
915.921	10653
916.034	10500
916.146	10474
916.259	10432
916.371	10618
916.483	10565
916.595	10485
916.708	10493
916.82	10519
916.932	10424
917.044	10538
917.156	10432
917.268	10382
917.38	10367
917.491	10375
917.603	10371
917.715	10455
917.826	10451
917.938	10375
918.049	10276
918.161	10325
918.272	10538
918.384	10508
918.495	10379
918.606	10265
918.717	10242
918.828	10246
918.939	10276
919.05	10207
919.161	10230
919.272	9960
919.383	10147
919.494	10291
919.604	10493
919.715	10230
919.826	10128
919.936	10280
920.047	10432
920.157	10310
920.267	10550
920.378	10306
920.488	10337
920.598	10519
920.708	10618
920.818	10466
920.928	10466
921.038	10607
921.148	10618
921.258	10337
921.368	10200
921.477	10097
921.587	10116
921.697	9998
921.806	10169
921.916	9964
922.025	9880
922.134	9808
922.244	9728
922.353	9846
922.462	9660
922.571	9736
922.68	9507
922.789	9504
922.898	9515
923.007	9504
923.116	9603
923.224	9511
923.333	9500
923.442	9439
923.55	9374
923.659	9416
923.767	9488
923.876	9401
923.984	9462
924.092	9351
924.201	9389
924.309	9416
924.417	9393
924.525	9393
924.633	9348
924.741	10287
924.849	9211
924.956	9264
925.064	9138
925.172	9055
925.279	9104
925.387	9199
925.494	9203
925.602	9374
925.709	9302
925.816	9074
925.924	9214
926.031	9256
926.138	9207
926.245	9268
926.352	9146
926.459	9268
926.566	9283
926.673	9093
926.779	9013
926.886	9055
926.993	8952
927.099	8857
927.206	8849
927.312	8819
927.419	8982
927.525	8902
927.631	8941
927.737	8849
927.843	8758
927.95	8697
928.056	8823
928.162	8773
928.267	8826
928.373	9389
928.479	8933
928.585	8663
928.69	8823
928.796	8773
928.901	8689
929.007	8625
929.112	8693
929.218	8629
929.323	8667
929.428	8590
929.533	8663
929.638	8583
929.743	8579
929.848	8617
929.953	8629
930.058	8457
930.163	8381
930.267	8355
930.372	8560
930.477	8305
930.581	8590
930.685	8476
930.79	8263
930.894	8389
930.998	8366
931.103	8465
931.207	8084
931.311	8062
931.415	8005
931.519	7807
931.623	7780
