Data from test_V78500241_1118.txt Node
Date: Fri Mar 25 14:41:30 CST 2022
User: usil
Spectrometer: V785-0024
Trigger mode: 0
Integration Time (sec): 4.000000E-1
Scans to average: 1
Nonlinearity correction enabled: false
Boxcar width: 0
Storing dark spectrum: false
XAxis mode: Wavelengths
Number of Pixels in Spectrum: 1024
>>>>>Begin Spectral Data<<<<<
801.071	22668
801.214	22519
801.356	22356
801.499	22181
801.641	22086
801.783	22067
801.926	22051
802.068	21991
802.211	21724
802.353	21705
802.496	21481
802.638	21454
802.78	21477
802.923	21397
803.065	21279
803.208	21340
803.35	21348
803.492	21542
803.635	21488
803.777	21283
803.919	21336
804.061	21614
804.204	21321
804.346	21348
804.488	21389
804.63	21329
804.773	21165
804.915	21173
805.057	21408
805.199	21176
805.341	21332
805.483	21481
805.626	21370
805.768	21154
805.91	21237
806.052	21241
806.194	21226
806.336	21469
806.478	21264
806.62	21249
806.762	21325
806.904	21625
807.046	21759
807.188	21633
807.33	21587
807.472	21641
807.614	21603
807.756	21591
807.898	21663
808.04	21405
808.182	21496
808.324	21542
808.465	21660
808.607	21930
808.749	21968
808.891	22070
809.033	22147
809.174	22090
809.316	21884
809.458	21861
809.6	21816
809.741	21831
809.883	21892
810.025	21979
810.166	21975
810.308	21873
810.45	21793
810.591	21698
810.733	21652
810.875	21507
811.016	21359
811.158	21374
811.299	21507
811.441	21583
811.582	21507
811.724	21450
811.865	21321
812.007	21367
812.148	21408
812.29	21538
812.431	21591
812.573	21724
812.714	21762
812.855	21937
812.997	22044
813.138	22131
813.279	22048
813.421	21972
813.562	21823
813.703	21778
813.845	21622
813.986	21317
814.127	21135
814.268	20990
814.41	21024
814.551	20986
814.692	21146
814.833	20910
814.974	20918
815.115	20952
815.256	20918
815.397	20849
815.539	20819
815.68	20693
815.821	20697
815.962	20765
816.103	20689
816.244	20480
816.385	20571
816.526	20396
816.666	20317
816.807	20161
816.948	20336
817.089	20381
817.23	20130
817.371	20202
817.512	20081
817.653	20168
817.793	20065
817.934	20092
818.075	20286
818.216	20199
818.356	20195
818.497	19967
818.638	19826
818.778	19852
818.919	19807
819.06	19784
819.2	19921
819.341	20050
819.481	20001
819.622	20347
819.762	20400
819.903	20313
820.043	20214
820.184	20206
820.324	20084
820.465	20168
820.605	20119
820.746	20107
820.886	19955
821.026	20107
821.167	20024
821.307	20031
821.447	20058
821.588	19849
821.728	19776
821.868	19651
822.008	19563
822.149	19510
822.289	19468
822.429	19263
822.569	19232
822.709	19320
822.849	18966
822.99	19038
823.13	19019
823.27	18890
823.41	18954
823.55	18787
823.69	18897
823.83	18985
823.97	18722
824.11	18627
824.25	18589
824.389	18566
824.529	18749
824.669	18559
824.809	18688
824.949	18703
825.089	18707
825.228	18620
825.368	18441
825.508	18475
825.648	18410
825.787	18452
825.927	18517
826.067	18418
826.206	18369
826.346	18384
826.485	18437
826.625	18376
826.765	18612
826.904	18384
827.044	18201
827.183	18144
827.323	18201
827.462	18216
827.601	18129
827.741	17999
827.88	18194
828.02	17958
828.159	18057
828.298	18216
828.437	18129
828.577	18019
828.716	18247
828.855	17992
828.994	17836
829.134	17878
829.273	17904
829.412	17691
829.551	17783
829.69	17946
829.829	17802
829.968	17996
830.107	17851
830.246	17908
830.385	17821
830.524	17661
830.663	17661
830.802	17589
830.941	17501
831.08	17406
831.219	17585
831.357	17672
831.496	17718
831.635	17433
831.774	17349
831.913	17277
832.051	17288
832.19	17197
832.329	17220
832.467	17166
832.606	17132
832.744	17216
832.883	17261
833.022	17124
833.16	17128
833.299	17242
833.437	17178
833.576	17239
833.714	17299
833.852	17246
833.991	17273
834.129	17391
834.267	17204
834.406	17124
834.544	17239
834.682	17261
834.821	17193
834.959	17474
835.097	17094
835.235	17421
835.373	17189
835.511	17189
835.65	17029
835.788	17079
835.926	17064
836.064	16866
836.202	16991
836.34	17159
836.478	17200
836.615	17109
836.753	17121
836.891	17189
837.029	17121
837.167	17083
837.305	17124
837.443	17018
837.58	16961
837.718	17121
837.856	17052
837.993	16866
838.131	16968
838.269	16843
838.406	16904
838.544	16835
838.681	16706
838.819	16618
838.956	16519
839.094	16554
839.231	16634
839.369	16664
839.506	16942
839.643	16774
839.781	16641
839.918	16451
840.055	16516
840.193	16462
840.33	16565
840.467	16535
840.604	16622
840.742	16740
840.879	16440
841.016	16470
841.153	16367
841.29	16535
841.427	16523
841.564	16508
841.701	16561
841.838	16436
841.975	16344
842.112	16584
842.249	16276
842.385	16386
842.522	16497
842.659	16356
842.796	16257
842.933	16287
843.069	16295
843.206	16158
843.343	16409
843.479	16363
843.616	16306
843.752	16143
843.889	16150
844.025	16295
844.162	16074
844.298	16143
844.435	16173
844.571	16082
844.708	16143
844.844	16253
844.98	16253
845.117	16215
845.253	16097
845.389	16002
845.525	16032
845.661	16078
845.798	16116
845.934	16287
846.07	16131
846.206	16230
846.342	16341
846.478	16177
846.614	15705
846.75	15789
846.886	15610
847.022	15743
847.158	15663
847.294	15698
847.429	15705
847.565	15614
847.701	15941
847.837	15313
847.972	15340
848.108	15435
848.244	15408
848.379	15298
848.515	15313
848.65	15249
848.786	15306
848.921	15230
849.057	15279
849.192	15306
849.328	15336
849.463	15279
849.598	15192
849.734	15211
849.869	15093
850.004	15089
850.14	14921
850.275	14952
850.41	14933
850.545	14925
850.68	14982
850.815	14982
850.95	14998
851.085	15104
851.22	15047
851.355	15017
851.49	14872
851.625	14960
851.76	14986
851.895	14804
852.03	14998
852.165	14944
852.299	15058
852.434	15108
852.569	15001
852.703	15036
852.838	15085
852.973	15108
853.107	15173
853.242	14876
853.376	14921
853.511	14765
853.645	14815
853.78	14982
853.914	14944
854.048	14883
854.183	14800
854.317	14906
854.451	15085
854.585	14804
854.72	14800
854.854	14826
854.988	14754
855.122	14842
855.256	14765
855.39	14921
855.524	14979
855.658	14975
855.792	14868
855.926	14883
856.06	14952
856.194	14952
856.327	14925
856.461	14739
856.595	14796
856.729	14773
856.862	14933
856.996	14944
857.13	14887
857.263	15043
857.397	15032
857.53	14807
857.664	14914
857.797	14906
857.931	14990
858.064	14921
858.197	15009
858.331	14853
858.464	14887
858.597	14876
858.731	14777
858.864	14830
858.997	14746
859.13	14887
859.263	14864
859.396	14971
859.529	14716
859.662	14941
859.795	14845
859.928	14925
860.061	15138
860.194	15009
860.327	14807
860.46	14796
860.592	14994
860.725	14956
860.858	15020
860.99	14804
861.123	14765
861.256	14800
861.388	14880
861.521	15545
861.653	14739
861.786	14670
861.918	14735
862.05	14716
862.183	14842
862.315	14876
862.447	14815
862.58	14823
862.712	14587
862.844	14549
862.976	14659
863.108	14701
863.24	15028
863.372	14556
863.504	14552
863.636	14720
863.768	14568
863.9	14735
864.032	14571
864.164	14583
864.296	14686
864.428	14769
864.559	14724
864.691	14708
864.823	14720
864.954	14689
865.086	14648
865.217	14629
865.349	14541
865.48	14651
865.612	14522
865.743	14731
865.875	14651
866.006	14583
866.137	14587
866.269	14571
866.4	14587
866.531	14579
866.662	14511
866.793	14541
866.924	14648
867.055	14526
867.186	14708
867.317	14587
867.448	14461
867.579	14560
867.71	14522
867.841	14408
867.972	14655
868.103	14617
868.233	14549
868.364	14648
868.495	14602
868.625	14906
868.756	14933
868.886	14868
869.017	14861
869.147	14902
869.278	14982
869.408	14891
869.539	14864
869.669	15001
869.799	14921
869.929	14975
870.06	14933
870.19	15150
870.32	15112
870.45	15127
870.58	15283
870.71	15397
870.84	15313
870.97	15336
871.1	15138
871.23	15435
871.36	15416
871.489	15431
871.619	15382
871.749	15443
871.879	15473
872.008	15420
872.138	15408
872.267	15485
872.397	15310
872.526	15329
872.656	15294
872.785	15275
872.915	15466
873.044	15549
873.173	15466
873.303	15584
873.432	15576
873.561	15584
873.69	15595
873.819	15485
873.948	15614
874.077	15530
874.206	15447
874.335	15553
874.464	15663
874.593	15808
874.722	15736
874.851	15857
874.979	15850
875.108	15793
875.237	15675
875.365	15800
875.494	15884
875.623	15823
875.751	15747
875.88	15895
876.008	15987
876.136	16044
876.265	16230
876.393	16367
876.521	16253
876.65	16249
876.778	16272
876.906	16147
877.034	16204
877.162	16204
877.29	16177
877.418	16188
877.546	16177
877.674	16276
877.802	16306
877.93	16154
878.058	16211
878.185	16124
878.313	16238
878.441	16226
878.568	16097
878.696	16181
878.824	16337
878.951	16424
879.079	16504
879.206	16637
879.333	16447
879.461	16565
879.588	16546
879.715	16577
879.842	16721
879.97	16432
880.097	16246
880.224	16135
880.351	16249
880.478	16147
880.605	16112
880.732	16143
880.859	16322
880.986	16154
881.112	16249
881.239	15926
881.366	15857
881.493	15781
881.619	15751
881.746	15842
881.872	15846
881.999	15739
882.125	15686
882.252	15865
882.378	15762
882.505	15770
882.631	15694
882.757	15584
882.883	15739
883.01	15663
883.136	15545
883.262	15450
883.388	15462
883.514	15637
883.64	15625
883.766	15614
883.892	15348
884.018	15416
884.143	15625
884.269	15629
884.395	15313
884.52	15294
884.646	15332
884.772	15214
884.897	15249
885.023	15332
885.148	15389
885.274	15443
885.399	15386
885.524	15272
885.65	15268
885.775	15230
885.9	15237
886.025	15428
886.15	15325
886.275	15306
886.4	15184
886.525	15241
886.65	15180
886.775	15203
886.9	15416
887.025	15469
887.149	15336
887.274	15100
887.399	15058
887.523	15055
887.648	15017
887.773	15028
887.897	15222
888.021	15199
888.146	15074
888.27	15199
888.395	15233
888.519	15127
888.643	15157
888.767	15127
888.891	15005
889.015	14967
889.139	15062
889.263	14891
889.387	14971
889.511	15176
889.635	15074
889.759	14861
889.883	15032
890.006	14929
890.13	15009
890.254	14948
890.377	14921
890.501	14758
890.624	14670
890.748	14800
890.871	14727
890.995	14552
891.118	14549
891.241	14655
891.364	14590
891.488	14739
891.611	14651
891.734	14636
891.857	14648
891.98	14743
892.103	14697
892.226	14705
892.349	14598
892.471	14488
892.594	14545
892.717	14621
892.839	14587
892.962	14533
893.085	14636
893.207	14617
893.33	14450
893.452	14537
893.575	14617
893.697	14537
893.819	14758
893.941	14708
894.064	14743
894.186	14522
894.308	14533
894.43	14693
894.552	14769
894.674	14811
894.796	14568
894.918	14621
895.04	14621
895.161	14826
895.283	14731
895.405	14632
895.526	14758
895.648	14804
895.769	14731
895.891	14758
896.012	14826
896.134	14785
896.255	14853
896.376	14758
896.498	14724
896.619	14754
896.74	14689
896.861	14849
896.982	15074
897.103	15256
897.224	15081
897.345	14960
897.466	14975
897.587	15039
897.708	15203
897.828	14990
897.949	15032
898.07	14918
898.19	14963
898.311	15104
898.431	15024
898.552	15131
898.672	15150
898.792	15211
898.913	15043
899.033	15024
899.153	14891
899.273	14880
899.393	14895
899.513	15020
899.633	14952
899.753	14990
899.873	14929
899.993	15077
900.113	14914
900.232	14941
900.352	14902
900.472	14864
900.591	14815
900.711	14815
900.83	14727
900.95	14887
901.069	14902
901.189	14716
901.308	14533
901.427	14415
901.546	14454
901.665	14518
901.784	14503
901.904	14256
902.023	14298
902.141	14180
902.26	13955
902.379	14046
902.498	14065
902.617	13989
902.735	14035
902.854	14008
902.973	13993
903.091	13776
903.21	13689
903.328	13750
903.446	13651
903.565	13643
903.683	13563
903.801	13476
903.919	13537
904.038	13480
904.156	13388
904.274	13468
904.392	13362
904.51	13392
904.627	13343
904.745	13499
904.863	13415
904.981	13168
905.098	13038
905.216	13133
905.334	13168
905.451	13099
905.569	13012
905.686	13221
905.803	13179
905.921	12939
906.038	13000
906.155	12920
906.272	12734
906.389	12867
906.506	12741
906.623	12688
906.74	12627
906.857	12566
906.974	12566
907.091	12768
907.208	12749
907.324	12760
907.441	12601
907.557	12437
907.674	12414
907.79	12399
907.907	12357
908.023	12445
908.139	12540
908.256	12319
908.372	12285
908.488	12300
908.604	12243
908.72	12144
908.836	12178
908.952	12152
909.068	12216
909.184	12197
909.3	12220
909.415	12216
909.531	12087
909.647	11992
909.762	11961
909.878	11859
909.993	11946
910.108	11912
910.224	11923
910.339	11923
910.454	11828
910.57	11851
910.685	11714
910.8	11996
910.915	12038
911.03	11756
911.145	11646
911.259	11661
911.374	11630
911.489	11611
911.604	11448
911.718	11421
911.833	11372
911.947	11269
912.062	11189
912.176	11311
912.291	11379
912.405	11376
912.519	11551
912.633	11600
912.748	11474
912.862	11376
912.976	11227
913.09	11094
913.204	11189
913.318	11254
913.431	11315
913.545	11436
913.659	11330
913.772	11212
913.886	11155
914	11124
914.113	11246
914.226	11250
914.34	11212
914.453	10987
914.566	11223
914.68	11060
914.793	11136
914.906	10923
915.019	10847
915.132	10858
915.245	10915
915.358	10835
915.47	10835
915.583	10896
915.696	10885
915.809	11041
915.921	10999
916.034	10873
916.146	10858
916.259	10733
916.371	10908
916.483	10885
916.595	10805
916.708	10904
916.82	10786
916.932	10824
917.044	10702
917.156	10668
917.268	10603
917.38	10790
917.491	10748
917.603	10668
917.715	10740
917.826	10759
917.938	10675
918.049	10516
918.161	10717
918.272	10881
918.384	10805
918.495	10733
918.606	10554
918.717	10481
918.828	10565
918.939	10565
919.05	10519
919.161	10611
919.272	10329
919.383	10394
919.494	10687
919.604	10786
919.715	10542
919.826	10500
919.936	10493
920.047	10679
920.157	10550
920.267	10759
920.378	10577
920.488	10474
920.598	10774
920.708	10843
920.818	10755
920.928	10717
921.038	10919
921.148	10847
921.258	10653
921.368	10565
921.477	10417
921.587	10432
921.697	10276
921.806	10440
921.916	10257
922.025	10101
922.134	10032
922.244	10067
922.353	10143
922.462	9987
922.571	9930
922.68	9797
922.789	9774
922.898	9793
923.007	9774
923.116	9831
923.224	9781
923.333	9812
923.442	9671
923.55	9675
923.659	9701
923.767	9724
923.876	9648
923.984	9705
924.092	9705
924.201	9656
924.309	9701
924.417	9644
924.525	9644
924.633	9580
924.741	10314
924.849	9378
924.956	9572
925.064	9370
925.172	9306
925.279	9412
925.387	9386
925.494	9469
925.602	9534
925.709	9564
925.816	9405
925.924	9477
926.031	9492
926.138	9454
926.245	9412
926.352	9302
926.459	9477
926.566	9519
926.673	9382
926.779	9275
926.886	9336
926.993	9165
927.099	9093
927.206	9146
927.312	9112
927.419	9176
927.525	9173
927.631	9203
927.737	9051
927.843	9055
927.95	8845
928.056	8979
928.162	9032
928.267	9127
928.373	9698
928.479	9116
928.585	8887
928.69	9062
928.796	8998
928.901	8929
929.007	8743
929.112	8921
929.218	8918
929.323	8826
929.428	8830
929.533	8925
929.638	8735
929.743	8823
929.848	8918
929.953	8769
930.058	8705
930.163	8610
930.267	8617
930.372	8712
930.477	8568
930.581	8766
930.685	8708
930.79	8514
930.894	8526
930.998	8484
931.103	8701
931.207	8313
931.311	8305
931.415	8237
931.519	8100
931.623	7921
