Data from test_V78500241_1872.txt Node
Date: Fri Mar 25 14:46:44 CST 2022
User: usil
Spectrometer: V785-0024
Trigger mode: 0
Integration Time (sec): 4.000000E-1
Scans to average: 1
Nonlinearity correction enabled: false
Boxcar width: 0
Storing dark spectrum: false
XAxis mode: Wavelengths
Number of Pixels in Spectrum: 1024
>>>>>Begin Spectral Data<<<<<
801.071	22196
801.214	22063
801.356	21778
801.499	21660
801.641	21549
801.783	21488
801.926	21587
802.068	21462
802.211	21397
802.353	21298
802.496	21081
802.638	21055
802.78	21017
802.923	20952
803.065	20823
803.208	20792
803.35	20864
803.492	20834
803.635	21005
803.777	20807
803.919	20944
804.061	21199
804.204	20887
804.346	20773
804.488	20845
804.63	20826
804.773	20762
804.915	20693
805.057	20876
805.199	20800
805.341	20868
805.483	20944
805.626	20804
805.768	20811
805.91	20765
806.052	20864
806.194	20743
806.336	20880
806.478	20830
806.62	20735
806.762	20781
806.904	20918
807.046	21047
807.188	21173
807.33	21047
807.472	21005
807.614	20933
807.756	20910
807.898	20899
808.04	20819
808.182	20990
808.324	20811
808.465	20967
808.607	21051
808.749	21074
808.891	21195
809.033	21359
809.174	21195
809.316	21085
809.458	21074
809.6	21066
809.741	21062
809.883	21264
810.025	21336
810.166	21127
810.308	21310
810.45	21218
810.591	21211
810.733	21036
810.875	21013
811.016	20941
811.158	20842
811.299	20982
811.441	20994
811.582	21081
811.724	20842
811.865	20883
812.007	20857
812.148	20948
812.29	20967
812.431	21070
812.573	21154
812.714	21249
812.855	21439
812.997	21504
813.138	21595
813.279	21534
813.421	21507
813.562	21340
813.703	21085
813.845	21058
813.986	20834
814.127	20568
814.268	20476
814.41	20473
814.551	20537
814.692	20522
814.833	20419
814.974	20248
815.115	20450
815.256	20301
815.397	20259
815.539	20259
815.68	20233
815.821	20191
815.962	20233
816.103	20168
816.244	20012
816.385	19921
816.526	19890
816.666	19734
816.807	19594
816.948	19605
817.089	19780
817.23	19632
817.371	19590
817.512	19620
817.653	19567
817.793	19468
817.934	19552
818.075	19609
818.216	19548
818.356	19533
818.497	19510
818.638	19255
818.778	19213
818.919	19270
819.06	19308
819.2	19419
819.341	19358
819.481	19480
819.622	19567
819.762	19776
819.903	19670
820.043	19769
820.184	19620
820.324	19594
820.465	19548
820.605	19563
820.746	19605
820.886	19453
821.026	19563
821.167	19552
821.307	19559
821.447	19544
821.588	19381
821.728	19297
821.868	19156
822.008	18996
822.149	18993
822.289	18920
822.429	18642
822.569	18578
822.709	18661
822.849	18448
822.99	18490
823.13	18452
823.27	18384
823.41	18338
823.55	18178
823.69	18254
823.83	18197
823.97	18262
824.11	18072
824.25	18030
824.389	18102
824.529	18125
824.669	18045
824.809	18110
824.949	18106
825.089	18155
825.228	17988
825.368	17813
825.508	17798
825.648	17912
825.787	17999
825.927	17942
826.067	17817
826.206	17779
826.346	17923
826.485	17866
826.625	17756
826.765	17893
826.904	17775
827.044	17642
827.183	17649
827.323	17554
827.462	17657
827.601	17585
827.741	17566
827.88	17570
828.02	17417
828.159	17543
828.298	17604
828.437	17543
828.577	17459
828.716	17684
828.855	17467
828.994	17387
829.134	17353
829.273	17311
829.412	17292
829.551	17193
829.69	17231
829.829	17303
829.968	17387
830.107	17414
830.246	17330
830.385	17246
830.524	17242
830.663	17197
830.802	17094
830.941	16949
831.08	16911
831.219	16987
831.357	17071
831.496	17231
831.635	16866
831.774	16812
831.913	16881
832.051	16748
832.19	16679
832.329	16892
832.467	16694
832.606	16668
832.744	16626
832.883	16694
833.022	16462
833.16	16599
833.299	16755
833.437	16656
833.576	16672
833.714	16675
833.852	16698
833.991	16645
834.129	16786
834.267	16782
834.406	16717
834.544	16679
834.682	16698
834.821	16729
834.959	16809
835.097	16626
835.235	16748
835.373	16733
835.511	16706
835.65	16554
835.788	16588
835.926	16516
836.064	16333
836.202	16436
836.34	16641
836.478	16607
836.615	16531
836.753	16538
836.891	16713
837.029	16721
837.167	16554
837.305	16516
837.443	16432
837.58	16462
837.718	16615
837.856	16531
837.993	16405
838.131	16432
838.269	16337
838.406	16432
838.544	16367
838.681	16265
838.819	16169
838.956	16029
839.094	16067
839.231	16044
839.369	16211
839.506	16489
839.643	16181
839.781	16006
839.918	16002
840.055	16067
840.193	15968
840.33	16013
840.467	16006
840.604	15983
840.742	16310
840.879	15994
841.016	15983
841.153	16032
841.29	16109
841.427	16036
841.564	16063
841.701	16063
841.838	15827
841.975	15979
842.112	15956
842.249	15873
842.385	15823
842.522	15949
842.659	15876
842.796	15766
842.933	15778
843.069	15625
843.206	15861
843.343	15861
843.479	15857
843.616	15888
843.752	15580
843.889	15663
844.025	15724
844.162	15584
844.298	15781
844.435	15542
844.571	15606
844.708	15641
844.844	15736
844.98	15797
845.117	15766
845.253	15587
845.389	15458
845.525	15485
845.661	15481
845.798	15443
845.934	15462
846.07	15332
846.206	15332
846.342	15492
846.478	15359
846.614	15138
846.75	15188
846.886	15032
847.022	15260
847.158	15119
847.294	15272
847.429	15135
847.565	15176
847.701	15405
847.837	14883
847.972	14861
848.108	14979
848.244	14986
848.379	14750
848.515	14701
848.65	14727
848.786	14804
848.921	14750
849.057	14914
849.192	14830
849.328	14792
849.463	14773
849.598	14758
849.734	14655
849.869	14590
850.004	14617
850.14	14552
850.275	14564
850.41	14473
850.545	14549
850.68	14499
850.815	14541
850.95	14484
851.085	14625
851.22	14495
851.355	14511
851.49	14419
851.625	14552
851.76	14442
851.895	14347
852.03	14412
852.165	14476
852.299	14564
852.434	14716
852.569	14560
852.703	14533
852.838	14590
852.973	14754
853.107	14625
853.242	14446
853.376	14396
853.511	14271
853.645	14336
853.78	14583
853.914	14419
854.048	14419
854.183	14370
854.317	14434
854.451	14526
854.585	14454
854.72	14415
854.854	14450
854.988	14324
855.122	14324
855.256	14259
855.39	14415
855.524	14507
855.658	14385
855.792	14358
855.926	14389
856.06	14511
856.194	14492
856.327	14381
856.461	14336
856.595	14400
856.729	14431
856.862	14404
856.996	14377
857.13	14518
857.263	14404
857.397	14590
857.53	14408
857.664	14495
857.797	14446
857.931	14457
858.064	14374
858.197	14598
858.331	14362
858.464	14434
858.597	14210
858.731	14362
858.864	14362
858.997	14336
859.13	14499
859.263	14385
859.396	14514
859.529	14317
859.662	14358
859.795	14290
859.928	14476
860.061	14549
860.194	14575
860.327	14351
860.46	14370
860.592	14511
860.725	14541
860.858	14461
860.99	14298
861.123	14355
861.256	14305
861.388	14358
861.521	14906
861.653	14256
861.786	14168
861.918	14225
862.05	14320
862.183	14366
862.315	14427
862.447	14355
862.58	14282
862.712	14115
862.844	14138
862.976	14225
863.108	14199
863.24	14541
863.372	14149
863.504	14123
863.636	14058
863.768	14218
863.9	14191
864.032	14145
864.164	14123
864.296	14195
864.428	14328
864.559	14214
864.691	14278
864.823	14237
864.954	14123
865.086	14191
865.217	14130
865.349	14096
865.48	14191
865.612	14073
865.743	14374
865.875	14138
866.006	14161
866.137	14138
866.269	14187
866.4	14119
866.531	14145
866.662	14107
866.793	14115
866.924	14164
867.055	14183
867.186	14195
867.317	14119
867.448	14050
867.579	14092
867.71	14054
867.841	14069
867.972	14115
868.103	14187
868.233	14206
868.364	14138
868.495	14393
868.625	14324
868.756	14412
868.886	14313
869.017	14355
869.147	14492
869.278	14564
869.408	14450
869.539	14355
869.669	14412
869.799	14450
869.929	14575
870.06	14488
870.19	14727
870.32	14686
870.45	14807
870.58	14880
870.71	15013
870.84	14883
870.97	14724
871.1	14815
871.23	15097
871.36	15108
871.489	14921
871.619	14998
871.749	15024
871.879	15020
872.008	15146
872.138	14990
872.267	14982
872.397	14857
872.526	14819
872.656	14861
872.785	14781
872.915	15005
873.044	15032
873.173	15047
873.303	15112
873.432	15039
873.561	15127
873.69	14990
873.819	15043
873.948	15116
874.077	15066
874.206	14967
874.335	15093
874.464	15233
874.593	15302
874.722	15405
874.851	15332
874.979	15378
875.108	15367
875.237	15298
875.365	15207
875.494	15351
875.623	15416
875.751	15283
875.88	15393
876.008	15549
876.136	15504
876.265	15812
876.393	15854
876.521	15835
876.65	15892
876.778	15766
876.906	15717
877.034	15679
877.162	15663
877.29	15656
877.418	15793
877.546	15709
877.674	15812
877.802	15827
877.93	15759
878.058	15717
878.185	15720
878.313	15869
878.441	15850
878.568	15580
878.696	15755
878.824	15690
878.951	15778
879.079	15949
879.206	16067
879.333	15987
879.461	15819
879.588	15827
879.715	15941
879.842	15934
879.97	15812
880.097	15686
880.224	15610
880.351	15663
880.478	15610
880.605	15591
880.732	15587
880.859	15873
880.986	15633
881.112	15614
881.239	15481
881.366	15359
881.493	15408
881.619	15317
881.746	15287
881.872	15275
881.999	15188
882.125	15275
882.252	15264
882.378	15321
882.505	15504
882.631	15142
882.757	15085
882.883	15104
883.01	15116
883.136	15058
883.262	14990
883.388	14914
883.514	15135
883.64	15127
883.766	14998
883.892	14921
884.018	14960
884.143	15066
884.269	15165
884.395	14883
884.52	14724
884.646	14849
884.772	14697
884.897	14625
885.023	14712
885.148	14891
885.274	14918
885.399	14876
885.524	14845
885.65	14807
885.775	14826
885.9	14758
886.025	14960
886.15	14834
886.275	14648
886.4	14720
886.525	14792
886.65	14724
886.775	14781
886.9	14914
887.025	14918
887.149	14842
887.274	14590
887.399	14579
887.523	14556
887.648	14571
887.773	14442
887.897	14651
888.021	14651
888.146	14507
888.27	14777
888.395	14826
888.519	14625
888.643	14613
888.767	14648
888.891	14537
889.015	14385
889.139	14583
889.263	14476
889.387	14617
889.511	14598
889.635	14705
889.759	14465
889.883	14526
890.006	14484
890.13	14514
890.254	14362
890.377	14522
890.501	14320
890.624	14309
890.748	14355
890.871	14199
890.995	14183
891.118	14084
891.241	14210
891.364	14123
891.488	14275
891.611	14126
891.734	14221
891.857	14210
891.98	14145
892.103	14358
892.226	14183
892.349	14138
892.471	14077
892.594	14157
892.717	14149
892.839	14191
892.962	14191
893.085	14252
893.207	14252
893.33	14092
893.452	14252
893.575	14199
893.697	14172
893.819	14317
893.941	14358
894.064	14298
894.186	14199
894.308	14164
894.43	14240
894.552	14366
894.674	14278
894.796	14153
894.918	14237
895.04	14180
895.161	14244
895.283	14339
895.405	14168
895.526	14332
895.648	14358
895.769	14301
895.891	14389
896.012	14400
896.134	14328
896.255	14366
896.376	14309
896.498	14351
896.619	14328
896.74	14278
896.861	14381
896.982	14659
897.103	14792
897.224	14636
897.345	14541
897.466	14541
897.587	14602
897.708	14826
897.828	14606
897.949	14579
898.07	14400
898.19	14587
898.311	14769
898.431	14636
898.552	14686
898.672	14743
898.792	14781
898.913	14674
899.033	14640
899.153	14533
899.273	14427
899.393	14610
899.513	14632
899.633	14499
899.753	14564
899.873	14488
899.993	14617
900.113	14629
900.232	14613
900.352	14549
900.472	14446
900.591	14404
900.711	14465
900.83	14301
900.95	14434
901.069	14412
901.189	14294
901.308	14119
901.427	14035
901.546	14119
901.665	14043
901.784	14138
901.904	13982
902.023	13947
902.141	13723
902.26	13685
902.379	13738
902.498	13643
902.617	13609
902.735	13704
902.854	13624
902.973	13548
903.091	13396
903.21	13449
903.328	13350
903.446	13263
903.565	13225
903.683	13278
903.801	13118
903.919	13179
904.038	13206
904.156	13046
904.274	13110
904.392	13004
904.51	12981
904.627	12947
904.745	13099
904.863	13050
904.981	12852
905.098	12669
905.216	12806
905.334	12802
905.451	12681
905.569	12787
905.686	12810
905.803	12677
905.921	12570
906.038	12696
906.155	12570
906.272	12448
906.389	12467
906.506	12361
906.623	12319
906.74	12228
906.857	12209
906.974	12197
907.091	12426
907.208	12376
907.324	12407
907.441	12319
907.557	12034
907.674	12038
907.79	11961
907.907	12038
908.023	12030
908.139	12083
908.256	12007
908.372	11988
908.488	11984
908.604	11878
908.72	11786
908.836	11783
908.952	11779
909.068	11851
909.184	11935
909.3	11855
909.415	11824
909.531	11764
909.647	11680
909.762	11589
909.878	11474
909.993	11661
910.108	11467
910.224	11570
910.339	11512
910.454	11444
910.57	11425
910.685	11364
910.8	11634
910.915	11611
911.03	11493
911.145	11383
911.259	11269
911.374	11273
911.489	11162
911.604	11197
911.718	11083
911.833	11056
911.947	10965
912.062	10908
912.176	11041
912.291	11136
912.405	11025
912.519	11239
912.633	11326
912.748	11094
912.862	11052
912.976	11029
913.09	10816
913.204	10862
913.318	10961
913.431	11071
913.545	10984
913.659	11067
913.772	10946
913.886	10786
914	10744
914.113	10854
914.226	10923
914.34	10790
914.453	10733
914.566	10847
914.68	10755
914.793	10687
914.906	10531
915.019	10508
915.132	10466
915.245	10489
915.358	10603
915.47	10531
915.583	10630
915.696	10588
915.809	10721
915.921	10698
916.034	10558
916.146	10535
916.259	10527
916.371	10592
916.483	10546
916.595	10550
916.708	10523
916.82	10428
916.932	10451
917.044	10512
917.156	10405
917.268	10325
917.38	10428
917.491	10306
917.603	10417
917.715	10466
917.826	10443
917.938	10409
918.049	10291
918.161	10329
918.272	10550
918.384	10527
918.495	10447
918.606	10322
918.717	10177
918.828	10356
918.939	10333
919.05	10215
919.161	10257
919.272	10010
919.383	10067
919.494	10314
919.604	10565
919.715	10295
919.826	10177
919.936	10173
920.047	10318
920.157	10196
920.267	10417
920.378	10295
920.488	10249
920.598	10508
920.708	10702
920.818	10470
920.928	10440
921.038	10538
921.148	10523
921.258	10261
921.368	10109
921.477	10166
921.587	10135
921.697	9972
921.806	10135
921.916	10017
922.025	9873
922.134	9800
922.244	9812
922.353	9846
922.462	9675
922.571	9599
922.68	9443
922.789	9443
922.898	9549
923.007	9469
923.116	9564
923.224	9580
923.333	9473
923.442	9428
923.55	9351
923.659	9454
923.767	9447
923.876	9340
923.984	9431
924.092	9283
924.201	9382
924.309	9325
924.417	9344
924.525	9279
924.633	9302
924.741	10261
924.849	9195
924.956	9272
925.064	9169
925.172	9104
925.279	9173
925.387	9214
925.494	9131
925.602	9310
925.709	9306
925.816	9077
925.924	9150
926.031	9249
926.138	9157
926.245	9195
926.352	9100
926.459	9135
926.566	9302
926.673	9119
926.779	9108
926.886	8941
926.993	8921
927.099	8910
927.206	8842
927.312	8910
927.419	8952
927.525	8933
927.631	8910
927.737	8815
927.843	8762
927.95	8686
928.056	8785
928.162	8815
928.267	8830
928.373	9336
928.479	8921
928.585	8651
928.69	8762
928.796	8842
928.901	8724
929.007	8564
929.112	8686
929.218	8625
929.323	8598
929.428	8583
929.533	8754
929.638	8511
929.743	8571
929.848	8636
929.953	8613
930.058	8465
930.163	8343
930.267	8377
930.372	8530
930.477	8362
930.581	8598
930.685	8457
930.79	8317
930.894	8339
930.998	8248
931.103	8442
931.207	8111
931.311	8039
931.415	8020
931.519	7772
931.623	7814
