Data from test_V78500241_854.txt Node
Date: Fri Mar 25 14:39:39 CST 2022
User: usil
Spectrometer: V785-0024
Trigger mode: 0
Integration Time (sec): 4.000000E-1
Scans to average: 1
Nonlinearity correction enabled: false
Boxcar width: 0
Storing dark spectrum: false
XAxis mode: Wavelengths
Number of Pixels in Spectrum: 1024
>>>>>Begin Spectral Data<<<<<
801.071	25727
801.214	25658
801.356	25381
801.499	25434
801.641	25228
801.783	25232
801.926	25126
802.068	25065
802.211	24939
802.353	24928
802.496	24722
802.638	24563
802.78	24639
802.923	24601
803.065	24517
803.208	24593
803.35	24601
803.492	24635
803.635	24806
803.777	24536
803.919	24745
804.061	24985
804.204	24650
804.346	24608
804.488	24601
804.63	24700
804.773	24597
804.915	24795
805.057	24871
805.199	24810
805.341	24977
805.483	24992
805.626	25038
805.768	24878
805.91	24970
806.052	25031
806.194	25004
806.336	25335
806.478	25251
806.62	25468
806.762	25502
806.904	25757
807.046	26313
807.188	26237
807.33	26629
807.472	26834
807.614	27116
807.756	27599
807.898	28063
808.04	28812
808.182	29942
808.324	31118
808.465	32621
808.607	34245
808.749	35665
808.891	36719
809.033	36650
809.174	35646
809.316	34162
809.458	32617
809.6	30935
809.741	29699
809.883	28664
810.025	28086
810.166	27507
810.308	27055
810.45	26826
810.591	26374
810.733	26240
810.875	25940
811.016	25693
811.158	25457
811.299	25601
811.441	25544
811.582	25468
811.724	25381
811.865	25217
812.007	25202
812.148	25053
812.29	25137
812.431	25198
812.573	25335
812.714	25453
812.855	25563
812.997	25655
813.138	25719
813.279	25651
813.421	25521
813.562	25369
813.703	25232
813.845	25076
813.986	24776
814.127	24544
814.268	24532
814.41	24475
814.551	24365
814.692	24384
814.833	24270
814.974	24209
815.115	24384
815.256	24178
815.397	24125
815.539	24273
815.68	24159
815.821	23942
815.962	24064
816.103	23931
816.244	23878
816.385	23600
816.526	23737
816.666	23516
816.807	23516
816.948	23524
817.089	23452
817.23	23486
817.371	23273
817.512	23406
817.653	23193
817.793	23220
817.934	23277
818.075	23269
818.216	23197
818.356	23223
818.497	23113
818.638	22908
818.778	23041
818.919	23006
819.06	23041
819.2	23128
819.341	23109
819.481	23254
819.622	23136
819.762	23425
819.903	23417
820.043	23318
820.184	23254
820.324	23280
820.465	23337
820.605	23220
820.746	23094
820.886	23041
821.026	23121
821.167	22995
821.307	23197
821.447	23025
821.588	22908
821.728	22869
821.868	22649
822.008	22546
822.149	22489
822.289	22508
822.429	22272
822.569	22120
822.709	22131
822.849	22078
822.99	21835
823.13	22051
823.27	21979
823.41	21762
823.55	21701
823.69	21778
823.83	21880
823.97	21743
824.11	21538
824.25	21534
824.389	21477
824.529	21557
824.669	21545
824.809	21591
824.949	21625
825.089	21698
825.228	21511
825.368	21321
825.508	21355
825.648	21329
825.787	21325
825.927	21272
826.067	21226
826.206	21222
826.346	21249
826.485	21336
826.625	21370
826.765	21462
826.904	21272
827.044	21074
827.183	21123
827.323	21028
827.462	20952
827.601	20910
827.741	21005
827.88	21028
828.02	20815
828.159	20929
828.298	20902
828.437	20921
828.577	20880
828.716	21024
828.855	20910
828.994	20659
829.134	20762
829.273	20788
829.412	20682
829.551	20564
829.69	20773
829.829	20716
829.968	20693
830.107	20644
830.246	20571
830.385	20480
830.524	20480
830.663	20358
830.802	20381
830.941	20210
831.08	20305
831.219	20347
831.357	20355
831.496	20663
831.635	20229
831.774	20149
831.913	20024
832.051	19970
832.19	20107
832.329	20134
832.467	20081
832.606	19898
832.744	19970
832.883	20149
833.022	20153
833.16	20191
833.299	20210
833.437	20161
833.576	20377
833.714	20366
833.852	20469
833.991	20583
834.129	20659
834.267	20697
834.406	20499
834.544	20549
834.682	20434
834.821	20336
834.959	20488
835.097	20214
835.235	20168
835.373	20122
835.511	20115
835.65	19947
835.788	19902
835.926	19704
836.064	19647
836.202	19651
836.34	19856
836.478	19868
836.615	19780
836.753	19849
836.891	19887
837.029	19890
837.167	19750
837.305	19590
837.443	19734
837.58	19594
837.718	19575
837.856	19537
837.993	19613
838.131	19567
838.269	19514
838.406	19506
838.544	19556
838.681	19206
838.819	19282
838.956	19160
839.094	19168
839.231	19148
839.369	19206
839.506	19464
839.643	19293
839.781	19046
839.918	19088
840.055	19000
840.193	18989
840.33	19065
840.467	19012
840.604	19050
840.742	19369
840.879	18985
841.016	18829
841.153	18894
841.29	19141
841.427	19110
841.564	19065
841.701	19103
841.838	19012
841.975	18920
842.112	18962
842.249	18859
842.385	18814
842.522	19031
842.659	18882
842.796	18863
842.933	18890
843.069	18817
843.206	18719
843.343	18920
843.479	18894
843.616	18833
843.752	18696
843.889	18776
844.025	18806
844.162	18650
844.298	18798
844.435	18852
844.571	18909
844.708	19152
844.844	19483
844.98	19529
845.117	19875
845.253	20259
845.389	20914
845.525	22725
845.661	25312
845.798	28637
845.934	31304
846.07	32549
846.206	32077
846.342	29980
846.478	26526
846.614	23459
846.75	21443
846.886	20225
847.022	19597
847.158	19148
847.294	18764
847.429	18650
847.565	18376
847.701	18608
847.837	18220
847.972	18034
848.108	18106
848.244	18136
848.379	17821
848.515	17863
848.65	17779
848.786	17729
848.921	17718
849.057	17794
849.192	17870
849.328	17733
849.463	17726
849.598	17665
849.734	17520
849.869	17547
850.004	17398
850.14	17486
850.275	17410
850.41	17383
850.545	17372
850.68	17410
850.815	17471
850.95	17280
851.085	17566
851.22	17444
851.355	17353
851.49	17512
851.625	17395
851.76	17368
851.895	17326
852.03	17143
852.165	17436
852.299	17421
852.434	17467
852.569	17539
852.703	17406
852.838	17532
852.973	17562
853.107	17627
853.242	17410
853.376	17345
853.511	17303
853.645	17318
853.78	17589
853.914	17566
854.048	17467
854.183	17467
854.317	17379
854.451	17741
854.585	17337
854.72	17322
854.854	17589
854.988	17395
855.122	17376
855.256	17200
855.39	17383
855.524	17467
855.658	17334
855.792	17356
855.926	17311
856.06	17425
856.194	17315
856.327	17223
856.461	17223
856.595	17254
856.729	17235
856.862	17360
856.996	17280
857.13	17250
857.263	17410
857.397	17284
857.53	17216
857.664	17181
857.797	17303
857.931	17315
858.064	17227
858.197	17349
858.331	17223
858.464	17155
858.597	17060
858.731	17292
858.864	17045
858.997	17254
859.13	17239
859.263	17208
859.396	17356
859.529	17094
859.662	17151
859.795	17048
859.928	17132
860.061	17292
860.194	17368
860.327	17239
860.46	17162
860.592	17288
860.725	17280
860.858	17216
860.99	17170
861.123	16991
861.256	17121
861.388	17170
861.521	17805
861.653	17029
861.786	16942
861.918	17025
862.05	17208
862.183	17170
862.315	17098
862.447	17109
862.58	17200
862.712	16991
862.844	16824
862.976	16938
863.108	16889
863.24	17235
863.372	16835
863.504	16896
863.636	16820
863.768	16919
863.9	16847
864.032	16835
864.164	16904
864.296	16889
864.428	16953
864.559	16949
864.691	17006
864.823	16927
864.954	16923
865.086	16942
865.217	16710
865.349	16824
865.48	16828
865.612	16820
865.743	17018
865.875	16809
866.006	16847
866.137	16713
866.269	16733
866.4	16736
866.531	16748
866.662	16759
866.793	16763
866.924	16717
867.055	16786
867.186	16866
867.317	16717
867.448	16611
867.579	16713
867.71	16542
867.841	16835
867.972	16793
868.103	16771
868.233	16816
868.364	16713
868.495	16805
868.625	16957
868.756	17102
868.886	16972
869.017	16968
869.147	17102
869.278	17143
869.408	17022
869.539	17079
869.669	17185
869.799	17197
869.929	17079
870.06	17170
870.19	17345
870.32	17273
870.45	17383
870.58	17524
870.71	17600
870.84	17589
870.97	17501
871.1	17429
871.23	17646
871.36	17687
871.489	17566
871.619	17623
871.749	17668
871.879	17771
872.008	17802
872.138	17642
872.267	17707
872.397	17528
872.526	17512
872.656	17573
872.785	17611
872.915	17771
873.044	17939
873.173	17855
873.303	17805
873.432	17824
873.561	17927
873.69	17813
873.819	17832
873.948	17882
874.077	17821
874.206	17889
874.335	17980
874.464	18060
874.593	18136
874.722	18197
874.851	18277
874.979	18422
875.108	18380
875.237	18213
875.365	18251
875.494	18323
875.623	18327
875.751	18262
875.88	18403
876.008	18441
876.136	18547
876.265	18875
876.393	19069
876.521	19000
876.65	19019
876.778	18985
876.906	18867
877.034	18985
877.162	18985
877.29	19084
877.418	19069
877.546	19099
877.674	19297
877.802	19221
877.93	19270
878.058	19400
878.185	19384
878.313	19643
878.441	19852
878.568	19875
878.696	20134
878.824	20590
878.951	21222
879.079	22101
879.206	23140
879.333	24205
879.461	24977
879.588	25460
879.715	25533
879.842	25202
879.97	24174
880.097	22892
880.224	22116
880.351	21545
880.478	21108
880.605	20849
880.732	20571
880.859	20670
880.986	20339
881.112	20275
881.239	20252
881.366	19989
881.493	20008
881.619	19795
881.746	19982
881.872	19913
881.999	19928
882.125	19868
882.252	20092
882.378	20077
882.505	20259
882.631	19986
882.757	19811
882.883	19959
883.01	19959
883.136	19795
883.262	19750
883.388	19666
883.514	19921
883.64	19955
883.766	19856
883.892	19635
884.018	19746
884.143	19727
884.269	19868
884.395	19715
884.52	19499
884.646	19582
884.772	19495
884.897	19521
885.023	19575
885.148	19616
885.274	19616
885.399	19567
885.524	19460
885.65	19362
885.775	19316
885.9	19244
886.025	19187
886.15	19065
886.275	18947
886.4	18928
886.525	18886
886.65	18692
886.775	18665
886.9	18760
887.025	18825
887.149	18616
887.274	18403
887.399	18273
887.523	18361
887.648	18209
887.773	18102
887.897	18327
888.021	18136
888.146	18038
888.27	18072
888.395	18182
888.519	18011
888.643	18049
888.767	18106
888.891	17927
889.015	17866
889.139	17882
889.263	17737
889.387	17771
889.511	17912
889.635	17904
889.759	17741
889.883	17543
890.006	17653
890.13	17760
890.254	17490
890.377	17444
890.501	17436
890.624	17345
890.748	17425
890.871	17318
890.995	17159
891.118	17098
891.241	17254
891.364	17140
891.488	17220
891.611	17075
891.734	17052
891.857	17151
891.98	17189
892.103	17239
892.226	17216
892.349	16991
892.471	17006
892.594	16938
892.717	17003
892.839	16946
892.962	16976
893.085	17003
893.207	16957
893.33	16820
893.452	16850
893.575	16930
893.697	16976
893.819	16927
893.941	17071
894.064	17083
894.186	16923
894.308	16824
894.43	16927
894.552	16866
894.674	16942
894.796	16793
894.918	16717
895.04	16839
895.161	16839
895.283	16809
895.405	16797
895.526	16854
895.648	16812
895.769	16809
895.891	16812
896.012	16919
896.134	16759
896.255	16908
896.376	16744
896.498	16786
896.619	16873
896.74	16790
896.861	16835
896.982	17121
897.103	17258
897.224	17124
897.345	17064
897.466	17025
897.587	17018
897.708	17090
897.828	17083
897.949	16881
898.07	16915
898.19	16911
898.311	17075
898.431	16881
898.552	16965
898.672	17056
898.792	17113
898.913	17117
899.033	16968
899.153	16824
899.273	16771
899.393	16824
899.513	16961
899.633	16930
899.753	16881
899.873	16934
899.993	16858
900.113	16889
900.232	16953
900.352	16919
900.472	16698
900.591	16786
900.711	16653
900.83	16634
900.95	16812
901.069	16919
901.189	16717
901.308	16478
901.427	16280
901.546	16325
901.665	16402
901.784	16322
901.904	16211
902.023	16139
902.141	15876
902.26	15778
902.379	15941
902.498	15747
902.617	15732
902.735	15835
902.854	15808
902.973	15614
903.091	15545
903.21	15431
903.328	15447
903.446	15416
903.565	15321
903.683	15233
903.801	15245
903.919	15302
904.038	15256
904.156	15066
904.274	15157
904.392	15043
904.51	15058
904.627	15032
904.745	15085
904.863	15142
904.981	14910
905.098	14686
905.216	14762
905.334	14716
905.451	14705
905.569	14659
905.686	14727
905.803	14769
905.921	14419
906.038	14655
906.155	14530
906.272	14499
906.389	14408
906.506	14305
906.623	14278
906.74	14206
906.857	14161
906.974	14161
907.091	14267
907.208	14347
907.324	14237
907.441	14115
907.557	14031
907.674	13974
907.79	13967
907.907	13944
908.023	14050
908.139	14054
908.256	13974
908.372	13856
908.488	13826
908.604	13723
908.72	13613
908.836	13715
908.952	13769
909.068	13788
909.184	13753
909.3	13643
909.415	13734
909.531	13632
909.647	13449
909.762	13495
909.878	13384
909.993	13491
910.108	13403
910.224	13464
910.339	13540
910.454	13221
910.57	13232
910.685	13213
910.8	13502
910.915	13518
911.03	13171
911.145	13091
911.259	13065
911.374	13050
911.489	13099
911.604	12981
911.718	12859
911.833	12894
911.947	12696
912.062	12684
912.176	12677
912.291	12954
912.405	12764
912.519	12924
912.633	12981
912.748	12852
912.862	12795
912.976	12662
913.09	12544
913.204	12662
913.318	12627
913.431	12802
913.545	12703
913.659	12821
913.772	12703
913.886	12490
914	12532
914.113	12631
914.226	12665
914.34	12627
914.453	12494
914.566	12574
914.68	12410
914.793	12422
914.906	12292
915.019	12190
915.132	12281
915.245	12155
915.358	12273
915.47	12334
915.583	12315
915.696	12350
915.809	12479
915.921	12384
916.034	12201
916.146	12270
916.259	12186
916.371	12277
916.483	12235
916.595	12095
916.708	12224
916.82	12289
916.932	12178
917.044	12060
917.156	12083
917.268	11980
917.38	12034
917.491	12079
917.603	12034
917.715	12038
917.826	12091
917.938	11912
918.049	11882
918.161	12125
918.272	12068
918.384	12057
918.495	11916
918.606	11786
918.717	11798
918.828	11897
918.939	11821
919.05	11714
919.161	11676
919.272	11592
919.383	11737
919.494	11882
919.604	11980
919.715	11832
919.826	11790
919.936	11672
920.047	11790
920.157	11813
920.267	11965
920.378	11866
920.488	11767
920.598	11950
920.708	12076
920.818	11999
920.928	11889
921.038	12045
921.148	12015
921.258	11767
921.368	11775
921.477	11638
921.587	11566
921.697	11421
921.806	11684
921.916	11520
922.025	11315
922.134	11258
922.244	11208
922.353	11349
922.462	11208
922.571	11018
922.68	10957
922.789	10904
922.898	10980
923.007	10915
923.116	10972
923.224	10980
923.333	10900
923.442	10801
923.55	10835
923.659	10854
923.767	10908
923.876	10831
923.984	10927
924.092	10626
924.201	10824
924.309	10767
924.417	10809
924.525	10725
924.633	10714
924.741	11676
924.849	10489
924.956	10675
925.064	10554
925.172	10451
925.279	10493
925.387	10561
925.494	10531
925.602	10634
925.709	10615
925.816	10489
925.924	10489
926.031	10611
926.138	10508
926.245	10561
926.352	10348
926.459	10565
926.566	10588
926.673	10413
926.779	10318
926.886	10280
926.993	10227
927.099	10185
927.206	10124
927.312	10124
927.419	10200
927.525	10143
927.631	10322
927.737	10040
927.843	10002
927.95	9880
928.056	10071
928.162	10139
928.267	10090
928.373	10740
928.479	10105
928.585	9968
928.69	10006
928.796	10109
928.901	9968
929.007	9793
929.112	9987
929.218	9979
929.323	9899
929.428	9797
929.533	10032
929.638	9793
929.743	9789
929.848	9865
929.953	9823
930.058	9679
930.163	9568
930.267	9629
930.372	9732
930.477	9530
930.581	9800
930.685	9671
930.79	9504
930.894	9481
930.998	9466
931.103	9629
931.207	9253
931.311	9192
931.415	9161
931.519	8880
931.623	8921
