Data from test_V78500241_2781.txt Node
Date: Fri Mar 25 14:53:04 CST 2022
User: usil
Spectrometer: V785-0024
Trigger mode: 0
Integration Time (sec): 4.000000E-1
Scans to average: 1
Nonlinearity correction enabled: false
Boxcar width: 0
Storing dark spectrum: false
XAxis mode: Wavelengths
Number of Pixels in Spectrum: 1024
>>>>>Begin Spectral Data<<<<<
801.071	21968
801.214	21934
801.356	21660
801.499	21553
801.641	21473
801.783	21462
801.926	21428
802.068	21340
802.211	21317
802.353	21188
802.496	20967
802.638	20735
802.78	20804
802.923	20781
803.065	20727
803.208	20731
803.35	20773
803.492	20899
803.635	20811
803.777	20682
803.919	20838
804.061	21142
804.204	20743
804.346	20762
804.488	20648
804.63	20788
804.773	20556
804.915	20739
805.057	20712
805.199	20670
805.341	20693
805.483	20754
805.626	20667
805.768	20598
805.91	20629
806.052	20655
806.194	20469
806.336	20823
806.478	20689
806.62	20549
806.762	20720
806.904	20887
807.046	20971
807.188	20891
807.33	20891
807.472	21039
807.614	20887
807.756	20914
807.898	20762
808.04	20590
808.182	20727
808.324	20857
808.465	20708
808.607	20853
808.749	20986
808.891	21005
809.033	21173
809.174	21112
809.316	21020
809.458	20982
809.6	20971
809.741	20975
809.883	21062
810.025	21077
810.166	21222
810.308	21241
810.45	21001
810.591	21096
810.733	20804
810.875	20880
811.016	20632
811.158	20773
811.299	20754
811.441	20899
811.582	20830
811.724	20743
811.865	20667
812.007	20758
812.148	20705
812.29	20773
812.431	20880
812.573	21104
812.714	21051
812.855	21241
812.997	21260
813.138	21557
813.279	21294
813.421	21298
813.562	21165
813.703	21001
813.845	20902
813.986	20621
814.127	20336
814.268	20419
814.41	20404
814.551	20305
814.692	20324
814.833	20259
814.974	20256
815.115	20317
815.256	20016
815.397	20107
815.539	20183
815.68	20122
815.821	19913
815.962	20054
816.103	19951
816.244	19917
816.385	19822
816.526	19666
816.666	19666
816.807	19381
816.948	19521
817.089	19628
817.23	19403
817.371	19487
817.512	19445
817.653	19377
817.793	19343
817.934	19282
818.075	19480
818.216	19537
818.356	19316
818.497	19278
818.638	19202
818.778	19076
818.919	19289
819.06	19076
819.2	19247
819.341	19183
819.481	19327
819.622	19499
819.762	19731
819.903	19563
820.043	19491
820.184	19396
820.324	19373
820.465	19502
820.605	19403
820.746	19426
820.886	19263
821.026	19320
821.167	19312
821.307	19358
821.447	19400
821.588	19263
821.728	19107
821.868	19038
822.008	18856
822.149	18806
822.289	18837
822.429	18589
822.569	18578
822.709	18471
822.849	18452
822.99	18209
823.13	18273
823.27	18395
823.41	18224
823.55	18026
823.69	18041
823.83	18251
823.97	18106
824.11	17885
824.25	17809
824.389	17942
824.529	18011
824.669	17840
824.809	17927
824.949	17920
825.089	17988
825.228	17935
825.368	17684
825.508	17619
825.648	17649
825.787	17604
825.927	17824
826.067	17676
826.206	17653
826.346	17657
826.485	17661
826.625	17714
826.765	17828
826.904	17615
827.044	17436
827.183	17334
827.323	17299
827.462	17482
827.601	17471
827.741	17349
827.88	17349
828.02	17284
828.159	17307
828.298	17463
828.437	17421
828.577	17353
828.716	17524
828.855	17296
828.994	17200
829.134	17098
829.273	17155
829.412	17109
829.551	17105
829.69	17151
829.829	17132
829.968	17117
830.107	17189
830.246	17162
830.385	17048
830.524	17105
830.663	16942
830.802	16786
830.941	16725
831.08	16740
831.219	16972
831.357	16748
831.496	16934
831.635	16824
831.774	16694
831.913	16573
832.051	16653
832.19	16459
832.329	16645
832.467	16546
832.606	16417
832.744	16402
832.883	16489
833.022	16299
833.16	16470
833.299	16497
833.437	16478
833.576	16500
833.714	16440
833.852	16603
833.991	16516
834.129	16664
834.267	16535
834.406	16489
834.544	16519
834.682	16512
834.821	16478
834.959	16630
835.097	16508
835.235	16542
835.373	16550
835.511	16500
835.65	16375
835.788	16402
835.926	16318
836.064	16135
836.202	16246
836.34	16417
836.478	16405
836.615	16287
836.753	16447
836.891	16466
837.029	16405
837.167	16398
837.305	16306
837.443	16249
837.58	16223
837.718	16386
837.856	16329
837.993	16314
838.131	16200
838.269	16219
838.406	16063
838.544	16147
838.681	15899
838.819	15857
838.956	15842
839.094	15846
839.231	15956
839.369	15892
839.506	16246
839.643	16120
839.781	15835
839.918	15751
840.055	15835
840.193	15789
840.33	15717
840.467	15755
840.604	15728
840.742	16059
840.879	15774
841.016	15759
841.153	15827
841.29	15930
841.427	15842
841.564	15766
841.701	15838
841.838	15724
841.975	15713
842.112	15778
842.249	15686
842.385	15568
842.522	15614
842.659	15717
842.796	15622
842.933	15496
843.069	15504
843.206	15606
843.343	15701
843.479	15720
843.616	15591
843.752	15420
843.889	15443
844.025	15606
844.162	15359
844.298	15450
844.435	15431
844.571	15275
844.708	15462
844.844	15500
844.98	15481
845.117	15519
845.253	15306
845.389	15237
845.525	15264
845.661	15306
845.798	15135
845.934	15275
846.07	15131
846.206	15268
846.342	15325
846.478	15275
846.614	15036
846.75	14910
846.886	14925
847.022	15116
847.158	14929
847.294	14975
847.429	14925
847.565	14971
847.701	15150
847.837	14807
847.972	14590
848.108	14769
848.244	14807
848.379	14598
848.515	14636
848.65	14606
848.786	14571
848.921	14545
849.057	14610
849.192	14697
849.328	14575
849.463	14610
849.598	14564
849.734	14473
849.869	14549
850.004	14313
850.14	14454
850.275	14355
850.41	14263
850.545	14358
850.68	14301
850.815	14332
850.95	14324
851.085	14450
851.22	14518
851.355	14400
851.49	14309
851.625	14317
851.76	14347
851.895	14176
852.03	14183
852.165	14339
852.299	14415
852.434	14461
852.569	14385
852.703	14393
852.838	14400
852.973	14537
853.107	14537
853.242	14221
853.376	14252
853.511	14092
853.645	14123
853.78	14332
853.914	14225
854.048	14176
854.183	14233
854.317	14256
854.451	14434
854.585	14172
854.72	14145
854.854	14256
854.988	14065
855.122	14176
855.256	14081
855.39	14218
855.524	14377
855.658	14332
855.792	14381
855.926	14221
856.06	14336
856.194	14362
856.327	14320
856.461	14294
856.595	14172
856.729	14252
856.862	14343
856.996	14290
857.13	14336
857.263	14393
857.397	14362
857.53	14237
857.664	14256
857.797	14294
857.931	14271
858.064	14229
858.197	14412
858.331	14248
858.464	14172
858.597	14111
858.731	14244
858.864	14164
858.997	14176
859.13	14214
859.263	14423
859.396	14301
859.529	14187
859.662	14180
859.795	14191
859.928	14271
860.061	14336
860.194	14374
860.327	14362
860.46	14214
860.592	14294
860.725	14366
860.858	14400
860.99	14271
861.123	14164
861.256	14206
861.388	14259
861.521	14899
861.653	14096
861.786	13974
861.918	14081
862.05	14202
862.183	14145
862.315	14195
862.447	14278
862.58	14157
862.712	13932
862.844	13959
862.976	14058
863.108	14103
863.24	14461
863.372	13932
863.504	14058
863.636	13989
863.768	14008
863.9	14111
864.032	14020
864.164	14020
864.296	14012
864.428	14138
864.559	14187
864.691	14115
864.823	14084
864.954	14130
865.086	14005
865.217	14039
865.349	13887
865.48	14062
865.612	14096
865.743	14073
865.875	13986
866.006	13940
866.137	14005
866.269	13940
866.4	13986
866.531	14046
866.662	13963
866.793	13967
866.924	13959
867.055	13928
867.186	14031
867.317	13871
867.448	13913
867.579	13921
867.71	13898
867.841	13978
867.972	14031
868.103	13982
868.233	13997
868.364	13989
868.495	14001
868.625	14134
868.756	14278
868.886	14168
869.017	14240
869.147	14339
869.278	14393
869.408	14240
869.539	14233
869.669	14457
869.799	14328
869.929	14324
870.06	14343
870.19	14514
870.32	14526
870.45	14541
870.58	14727
870.71	14682
870.84	14762
870.97	14678
871.1	14625
871.23	14861
871.36	14933
871.489	14678
871.619	14758
871.749	14727
871.879	14902
872.008	15013
872.138	14765
872.267	14807
872.397	14651
872.526	14701
872.656	14754
872.785	14651
872.915	14902
873.044	14975
873.173	14857
873.303	14872
873.432	14910
873.561	15047
873.69	14998
873.819	14902
873.948	14921
874.077	14929
874.206	14910
874.335	14960
874.464	15104
874.593	15180
874.722	15268
874.851	15195
874.979	15154
875.108	15287
875.237	15142
875.365	15161
875.494	15211
875.623	15249
875.751	15214
875.88	15192
876.008	15351
876.136	15416
876.265	15614
876.393	15785
876.521	15736
876.65	15698
876.778	15644
876.906	15667
877.034	15648
877.162	15686
877.29	15485
877.418	15671
877.546	15580
877.674	15671
877.802	15610
877.93	15675
878.058	15492
878.185	15549
878.313	15629
878.441	15671
878.568	15545
878.696	15603
878.824	15720
878.951	15622
879.079	15751
879.206	15876
879.333	15808
879.461	15557
879.588	15736
879.715	15869
879.842	15922
879.97	15739
880.097	15363
880.224	15401
880.351	15545
880.478	15549
880.605	15348
880.732	15424
880.859	15595
880.986	15488
881.112	15580
881.239	15207
881.366	15279
881.493	15138
881.619	15100
881.746	15131
881.872	15165
881.999	15005
882.125	15097
882.252	15268
882.378	15135
882.505	15226
882.631	15085
882.757	14986
882.883	15077
883.01	14982
883.136	14838
883.262	14804
883.388	14765
883.514	14967
883.64	15024
883.766	14990
883.892	14785
884.018	14739
884.143	14921
884.269	15081
884.395	14739
884.52	14705
884.646	14693
884.772	14629
884.897	14659
885.023	14674
885.148	14807
885.274	14796
885.399	14724
885.524	14674
885.65	14689
885.775	14640
885.9	14701
886.025	14864
886.15	14762
886.275	14533
886.4	14575
886.525	14560
886.65	14632
886.775	14552
886.9	14838
887.025	14899
887.149	14625
887.274	14499
887.399	14522
887.523	14457
887.648	14454
887.773	14404
887.897	14480
888.021	14518
888.146	14499
888.27	14648
888.395	14621
888.519	14457
888.643	14473
888.767	14640
888.891	14461
889.015	14351
889.139	14317
889.263	14423
889.387	14370
889.511	14560
889.635	14484
889.759	14427
889.883	14362
890.006	14438
890.13	14457
890.254	14309
890.377	14248
890.501	14138
890.624	14130
890.748	14240
890.871	14138
890.995	13944
891.118	14008
891.241	14073
891.364	14012
891.488	14214
891.611	13944
891.734	14046
891.857	14111
891.98	14058
892.103	14107
892.226	14100
892.349	14054
892.471	13989
892.594	14020
892.717	13986
892.839	14031
892.962	14031
893.085	14081
893.207	14134
893.33	13947
893.452	14027
893.575	14199
893.697	14035
893.819	14202
893.941	14259
894.064	14286
894.186	14008
894.308	14001
894.43	14096
894.552	14286
894.674	14206
894.796	14054
894.918	14107
895.04	14103
895.161	14229
895.283	14100
895.405	14008
895.526	14115
895.648	14252
895.769	14187
895.891	14271
896.012	14267
896.134	14282
896.255	14176
896.376	14229
896.498	14218
896.619	14301
896.74	14221
896.861	14313
896.982	14594
897.103	14731
897.224	14568
897.345	14473
897.466	14431
897.587	14438
897.708	14610
897.828	14454
897.949	14514
898.07	14377
898.19	14423
898.311	14640
898.431	14450
898.552	14617
898.672	14617
898.792	14648
898.913	14499
899.033	14583
899.153	14370
899.273	14305
899.393	14415
899.513	14507
899.633	14415
899.753	14469
899.873	14328
899.993	14552
900.113	14400
900.232	14571
900.352	14434
900.472	14450
900.591	14267
900.711	14381
900.83	14278
900.95	14469
901.069	14320
901.189	14221
901.308	14005
901.427	13932
901.546	13955
901.665	14031
901.784	14050
901.904	13852
902.023	13807
902.141	13597
902.26	13506
902.379	13643
902.498	13556
902.617	13525
902.735	13540
902.854	13567
902.973	13472
903.091	13251
903.21	13232
903.328	13282
903.446	13247
903.565	13103
903.683	13187
903.801	13114
903.919	13103
904.038	13095
904.156	12939
904.274	12977
904.392	12867
904.51	12882
904.627	12996
904.745	12954
904.863	13000
904.981	12730
905.098	12593
905.216	12604
905.334	12650
905.451	12662
905.569	12559
905.686	12688
905.803	12597
905.921	12410
906.038	12509
906.155	12513
906.272	12376
906.389	12403
906.506	12235
906.623	12243
906.74	12178
906.857	12117
906.974	12064
907.091	12323
907.208	12262
907.324	12194
907.441	12136
907.557	12007
907.674	11927
907.79	11904
907.907	11923
908.023	11984
908.139	12022
908.256	11961
908.372	11935
908.488	11847
908.604	11733
908.72	11661
908.836	11714
908.952	11756
909.068	11745
909.184	11775
909.3	11680
909.415	11741
909.531	11790
909.647	11474
909.762	11471
909.878	11471
909.993	11490
910.108	11539
910.224	11471
910.339	11452
910.454	11318
910.57	11311
910.685	11284
910.8	11638
910.915	11406
911.03	11318
911.145	11216
911.259	11136
911.374	11185
911.489	11056
911.604	11155
911.718	10892
911.833	11010
911.947	10854
912.062	10831
912.176	10938
912.291	10946
912.405	10942
912.519	11102
912.633	11178
912.748	11037
912.862	10919
912.976	10858
913.09	10706
913.204	10797
913.318	10862
913.431	10915
913.545	10892
913.659	10972
913.772	10831
913.886	10687
914	10767
914.113	10828
914.226	10797
914.34	10797
914.453	10618
914.566	10790
914.68	10683
914.793	10630
914.906	10455
915.019	10409
915.132	10379
915.245	10462
915.358	10478
915.47	10428
915.583	10508
915.696	10474
915.809	10588
915.921	10596
916.034	10432
916.146	10402
916.259	10432
916.371	10546
916.483	10443
916.595	10348
916.708	10318
916.82	10303
916.932	10424
917.044	10375
917.156	10371
917.268	10223
917.38	10261
917.491	10333
917.603	10356
917.715	10394
917.826	10379
917.938	10204
918.049	10211
918.161	10265
918.272	10402
918.384	10432
918.495	10318
918.606	10268
918.717	10169
918.828	10249
918.939	10261
919.05	10063
919.161	10158
919.272	10029
919.383	10078
919.494	10249
919.604	10363
919.715	10257
919.826	10169
919.936	10173
920.047	10268
920.157	10276
920.267	10398
920.378	10188
920.488	10192
920.598	10493
920.708	10580
920.818	10371
920.928	10428
921.038	10611
921.148	10535
921.258	10154
921.368	10162
921.477	10112
921.587	10116
921.697	9911
921.806	10074
921.916	9949
922.025	9850
922.134	9812
922.244	9740
922.353	9835
922.462	9663
922.571	9614
922.68	9485
922.789	9462
922.898	9458
923.007	9469
923.116	9534
923.224	9458
923.333	9515
923.442	9310
923.55	9233
923.659	9329
923.767	9363
923.876	9253
923.984	9454
924.092	9325
924.201	9351
924.309	9359
924.417	9367
924.525	9230
924.633	9332
924.741	10082
924.849	9116
924.956	9249
925.064	9195
925.172	9070
925.279	9093
925.387	9180
925.494	9066
925.602	9230
925.709	9241
925.816	9081
925.924	9184
926.031	9192
926.138	9097
926.245	9150
926.352	9051
926.459	9245
926.566	9138
926.673	9112
926.779	9005
926.886	8933
926.993	8925
927.099	8834
927.206	8773
927.312	8766
927.419	8868
927.525	8872
927.631	8819
927.737	8769
927.843	8788
927.95	8682
928.056	8735
928.162	8796
928.267	8819
928.373	9405
928.479	8838
928.585	8598
928.69	8621
928.796	8807
928.901	8655
929.007	8476
929.112	8667
929.218	8636
929.323	8552
929.428	8549
929.533	8766
929.638	8450
929.743	8556
929.848	8648
929.953	8560
930.058	8537
930.163	8362
930.267	8358
930.372	8484
930.477	8263
930.581	8507
930.685	8404
930.79	8176
930.894	8282
930.998	8229
931.103	8419
931.207	8046
931.311	8054
931.415	7986
931.519	7776
931.623	7742
