Data from test_V78500241_1186.txt Node
Date: Fri Mar 25 14:41:58 CST 2022
User: usil
Spectrometer: V785-0024
Trigger mode: 0
Integration Time (sec): 4.000000E-1
Scans to average: 1
Nonlinearity correction enabled: false
Boxcar width: 0
Storing dark spectrum: false
XAxis mode: Wavelengths
Number of Pixels in Spectrum: 1024
>>>>>Begin Spectral Data<<<<<
801.071	22394
801.214	22474
801.356	22059
801.499	22074
801.641	21907
801.783	21873
801.926	21880
802.068	21854
802.211	21717
802.353	21629
802.496	21355
802.638	21412
802.78	21317
802.923	21291
803.065	21218
803.208	21089
803.35	21245
803.492	21287
803.635	21199
803.777	21169
803.919	21256
804.061	21538
804.204	21176
804.346	21264
804.488	21062
804.63	21245
804.773	21135
804.915	20994
805.057	21211
805.199	21058
805.341	21207
805.483	21226
805.626	21119
805.768	21051
805.91	21245
806.052	21192
806.194	21058
806.336	21207
806.478	21066
806.62	20956
806.762	21180
806.904	21222
807.046	21488
807.188	21435
807.33	21447
807.472	21507
807.614	21382
807.756	21431
807.898	21374
808.04	21165
808.182	21287
808.324	21260
808.465	21336
808.607	21561
808.749	21564
808.891	21747
809.033	21804
809.174	21720
809.316	21572
809.458	21538
809.6	21458
809.741	21644
809.883	21751
810.025	21629
810.166	21694
810.308	21564
810.45	21724
810.591	21610
810.733	21405
810.875	21310
811.016	21150
811.158	21260
811.299	21378
811.441	21439
811.582	21367
811.724	21207
811.865	21313
812.007	21405
812.148	21348
812.29	21313
812.431	21542
812.573	21458
812.714	21641
812.855	21835
812.997	21838
813.138	22010
813.279	21739
813.421	21888
813.562	21660
813.703	21587
813.845	21477
813.986	21135
814.127	20956
814.268	20952
814.41	20807
814.551	20842
814.692	20967
814.833	20811
814.974	20811
815.115	20815
815.256	20621
815.397	20750
815.539	20701
815.68	20503
815.821	20541
815.962	20522
816.103	20613
816.244	20400
816.385	20252
816.526	20271
816.666	20164
816.807	20111
816.948	20065
817.089	20122
817.23	20134
817.371	19963
817.512	20046
817.653	19978
817.793	19955
817.934	20005
818.075	19902
818.216	19951
818.356	19913
818.497	19849
818.638	19651
818.778	19594
818.919	19582
819.06	19791
819.2	19811
819.341	19932
819.481	19833
819.622	19993
819.762	20195
819.903	20168
820.043	19986
820.184	20069
820.324	19974
820.465	20001
820.605	19986
820.746	19917
820.886	19818
821.026	20012
821.167	20005
821.307	19932
821.447	19814
821.588	19731
821.728	19556
821.868	19613
822.008	19441
822.149	19316
822.289	19304
822.429	19148
822.569	19103
822.709	19000
822.849	18901
822.99	18909
823.13	18814
823.27	18745
823.41	18681
823.55	18631
823.69	18642
823.83	18627
823.97	18597
824.11	18407
824.25	18532
824.389	18399
824.529	18536
824.669	18418
824.809	18593
824.949	18467
825.089	18517
825.228	18418
825.368	18289
825.508	18262
825.648	18285
825.787	18281
825.927	18270
826.067	18178
826.206	18171
826.346	18258
826.485	18247
826.625	18194
826.765	18308
826.904	18296
827.044	17988
827.183	17870
827.323	17893
827.462	17984
827.601	17942
827.741	17942
827.88	17935
828.02	17809
828.159	17927
828.298	17912
828.437	18057
828.577	17851
828.716	17931
828.855	17874
828.994	17737
829.134	17737
829.273	17790
829.412	17642
829.551	17577
829.69	17703
829.829	17684
829.968	17824
830.107	17798
830.246	17600
830.385	17657
830.524	17570
830.663	17562
830.802	17478
830.941	17341
831.08	17284
831.219	17448
831.357	17433
831.496	17520
831.635	17284
831.774	17250
831.913	17246
832.051	17151
832.19	16995
832.329	17178
832.467	17037
832.606	16934
832.744	17025
832.883	16987
833.022	16915
833.16	17003
833.299	16976
833.437	17151
833.576	17037
833.714	16927
833.852	17162
833.991	17083
834.129	17124
834.267	17086
834.406	16999
834.544	17162
834.682	17117
834.821	17041
834.959	17231
835.097	16957
835.235	17200
835.373	17056
835.511	17113
835.65	16889
835.788	16938
835.926	16923
836.064	16877
836.202	16771
836.34	16949
836.478	17079
836.615	16858
836.753	16984
836.891	17006
837.029	16984
837.167	16934
837.305	16946
837.443	16847
837.58	16812
837.718	16896
837.856	16835
837.993	16706
838.131	16839
838.269	16748
838.406	16740
838.544	16809
838.681	16538
838.819	16519
838.956	16481
839.094	16462
839.231	16504
839.369	16440
839.506	16733
839.643	16664
839.781	16523
839.918	16363
840.055	16356
840.193	16287
840.33	16459
840.467	16417
840.604	16417
840.742	16672
840.879	16124
841.016	16234
841.153	16284
841.29	16447
841.427	16382
841.564	16348
841.701	16348
841.838	16382
841.975	16276
842.112	16299
842.249	16226
842.385	16078
842.522	16276
842.659	16166
842.796	16196
842.933	16173
843.069	16169
843.206	16120
843.343	16207
843.479	16109
843.616	16211
843.752	15895
843.889	16002
844.025	16128
844.162	15991
844.298	16166
844.435	15892
844.571	16006
844.708	15911
844.844	16067
844.98	16017
845.117	15979
845.253	15949
845.389	15835
845.525	15903
845.661	15850
845.798	15747
845.934	15926
846.07	15797
846.206	15953
846.342	15975
846.478	15732
846.614	15595
846.75	15443
846.886	15496
847.022	15705
847.158	15530
847.294	15481
847.429	15641
847.565	15466
847.701	15709
847.837	15218
847.972	15203
848.108	15310
848.244	15412
848.379	15138
848.515	15108
848.65	15097
848.786	15180
848.921	15138
849.057	15161
849.192	15150
849.328	15161
849.463	15142
849.598	14933
849.734	15013
849.869	14994
850.004	14925
850.14	14975
850.275	14918
850.41	14807
850.545	14811
850.68	14796
850.815	14868
850.95	14781
851.085	14975
851.22	14971
851.355	14845
851.49	14826
851.625	14788
851.76	14769
851.895	14800
852.03	14781
852.165	14830
852.299	14819
852.434	14975
852.569	14944
852.703	14929
852.838	14933
852.973	14994
853.107	15100
853.242	14826
853.376	14796
853.511	14560
853.645	14663
853.78	14792
853.914	14739
854.048	14769
854.183	14705
854.317	14705
854.451	14899
854.585	14804
854.72	14701
854.854	14849
854.988	14781
855.122	14769
855.256	14617
855.39	14697
855.524	14823
855.658	14788
855.792	14765
855.926	14743
856.06	14765
856.194	14727
856.327	14746
856.461	14648
856.595	14568
856.729	14781
856.862	14864
856.996	14826
857.13	14853
857.263	14887
857.397	14902
857.53	14762
857.664	14838
857.797	14785
857.931	14883
858.064	14830
858.197	14826
858.331	14701
858.464	14689
858.597	14602
858.731	14724
858.864	14674
858.997	14670
859.13	14746
859.263	14678
859.396	14750
859.529	14689
859.662	14663
859.795	14804
859.928	14792
860.061	14891
860.194	14849
860.327	14785
860.46	14564
860.592	14845
860.725	14804
860.858	14872
860.99	14678
861.123	14651
861.256	14655
861.388	14830
861.521	15450
861.653	14590
861.786	14530
861.918	14590
862.05	14610
862.183	14716
862.315	14697
862.447	14712
862.58	14716
862.712	14514
862.844	14457
862.976	14537
863.108	14644
863.24	14948
863.372	14446
863.504	14552
863.636	14454
863.768	14484
863.9	14598
864.032	14473
864.164	14495
864.296	14602
864.428	14541
864.559	14533
864.691	14514
864.823	14549
864.954	14587
865.086	14541
865.217	14457
865.349	14473
865.48	14457
865.612	14590
865.743	14629
865.875	14492
866.006	14427
866.137	14408
866.269	14541
866.4	14320
866.531	14571
866.662	14381
866.793	14393
866.924	14427
867.055	14518
867.186	14465
867.317	14457
867.448	14374
867.579	14450
867.71	14404
867.841	14412
867.972	14522
868.103	14423
868.233	14499
868.364	14499
868.495	14511
868.625	14678
868.756	14853
868.886	14648
869.017	14705
869.147	14880
869.278	14811
869.408	14739
869.539	14689
869.669	14720
869.799	14804
869.929	14773
870.06	14819
870.19	15077
870.32	15055
870.45	15047
870.58	15173
870.71	15249
870.84	15241
870.97	15214
871.1	15112
871.23	15264
871.36	15317
871.489	15237
871.619	15230
871.749	15313
871.879	15294
872.008	15386
872.138	15359
872.267	15245
872.397	15100
872.526	15089
872.656	15154
872.785	15142
872.915	15317
873.044	15405
873.173	15355
873.303	15378
873.432	15412
873.561	15469
873.69	15412
873.819	15329
873.948	15370
874.077	15447
874.206	15359
874.335	15439
874.464	15530
874.593	15641
874.722	15682
874.851	15781
874.979	15686
875.108	15701
875.237	15568
875.365	15584
875.494	15629
875.623	15751
875.751	15637
875.88	15682
876.008	15812
876.136	15895
876.265	16181
876.393	16280
876.521	16124
876.65	16200
876.778	16154
876.906	16074
877.034	16067
877.162	16188
877.29	16109
877.418	16086
877.546	16150
877.674	16158
877.802	16051
877.93	16109
878.058	16116
878.185	15953
878.313	16093
878.441	16261
878.568	16010
878.696	16135
878.824	16204
878.951	16219
879.079	16299
879.206	16512
879.333	16348
879.461	16306
879.588	16276
879.715	16367
879.842	16519
879.97	16344
880.097	16032
880.224	15873
880.351	16093
880.478	16158
880.605	15937
880.732	16032
880.859	16242
880.986	15945
881.112	16090
881.239	15876
881.366	15781
881.493	15766
881.619	15618
881.746	15614
881.872	15580
881.999	15591
882.125	15625
882.252	15663
882.378	15705
882.505	15781
882.631	15469
882.757	15488
882.883	15511
883.01	15477
883.136	15557
883.262	15310
883.388	15272
883.514	15485
883.64	15469
883.766	15325
883.892	15195
884.018	15294
884.143	15466
884.269	15644
884.395	15195
884.52	15085
884.646	15176
884.772	15142
884.897	15013
885.023	15104
885.148	15264
885.274	15344
885.399	15207
885.524	15192
885.65	15135
885.775	15161
885.9	15085
886.025	15214
886.15	15135
886.275	15104
886.4	15119
886.525	15032
886.65	15173
886.775	15051
886.9	15306
887.025	15454
887.149	15127
887.274	14963
887.399	14941
887.523	14982
887.648	15039
887.773	14902
887.897	15001
888.021	14982
888.146	15001
888.27	15066
888.395	15108
888.519	15161
888.643	15039
888.767	15058
888.891	14823
889.015	14777
889.139	14883
889.263	14857
889.387	14982
889.511	14971
889.635	14895
889.759	14815
889.883	14876
890.006	14845
890.13	15001
890.254	14697
890.377	14838
890.501	14560
890.624	14686
890.748	14644
890.871	14640
890.995	14457
891.118	14511
891.241	14564
891.364	14488
891.488	14594
891.611	14556
891.734	14560
891.857	14552
891.98	14651
892.103	14651
892.226	14568
892.349	14400
892.471	14355
892.594	14530
892.717	14499
892.839	14492
892.962	14537
893.085	14606
893.207	14385
893.33	14419
893.452	14396
893.575	14598
893.697	14473
893.819	14670
893.941	14712
894.064	14689
894.186	14533
894.308	14404
894.43	14602
894.552	14708
894.674	14522
894.796	14587
894.918	14587
895.04	14575
895.161	14712
895.283	14610
895.405	14522
895.526	14674
895.648	14507
895.769	14648
895.891	14686
896.012	14762
896.134	14648
896.255	14705
896.376	14640
896.498	14617
896.619	14781
896.74	14632
896.861	14644
896.982	15112
897.103	15146
897.224	14902
897.345	14937
897.466	14838
897.587	14895
897.708	15020
897.828	14975
897.949	14910
898.07	14804
898.19	14918
898.311	15070
898.431	14933
898.552	14982
898.672	15077
898.792	15150
898.913	15024
899.033	14990
899.153	14861
899.273	14750
899.393	14804
899.513	14849
899.633	14861
899.753	14845
899.873	14914
899.993	14773
900.113	14826
900.232	14864
900.352	14842
900.472	14788
900.591	14667
900.711	14765
900.83	14697
900.95	14849
901.069	14785
901.189	14697
901.308	14431
901.427	14358
901.546	14427
901.665	14347
901.784	14415
901.904	14313
902.023	14317
902.141	13959
902.26	13970
902.379	14027
902.498	14027
902.617	13959
902.735	13963
902.854	13932
902.973	13765
903.091	13609
903.21	13601
903.328	13681
903.446	13514
903.565	13575
903.683	13559
903.801	13411
903.919	13590
904.038	13464
904.156	13354
904.274	13457
904.392	13308
904.51	13331
904.627	13339
904.745	13365
904.863	13438
904.981	13133
905.098	13038
905.216	13012
905.334	13034
905.451	12954
905.569	12909
905.686	13031
905.803	13065
905.921	12795
906.038	12985
906.155	12833
906.272	12757
906.389	12715
906.506	12559
906.623	12597
906.74	12582
906.857	12536
906.974	12426
907.091	12684
907.208	12749
907.324	12555
907.441	12525
907.557	12311
907.674	12376
907.79	12315
907.907	12323
908.023	12304
908.139	12353
908.256	12247
908.372	12228
908.488	12247
908.604	12129
908.72	12087
908.836	12140
908.952	12068
909.068	12083
909.184	12232
909.3	12125
909.415	12197
909.531	12110
909.647	11832
909.762	11897
909.878	11832
909.993	11901
910.108	11824
910.224	11866
910.339	11824
910.454	11828
910.57	11707
910.685	11649
910.8	11927
910.915	11874
911.03	11767
911.145	11589
911.259	11524
911.374	11474
911.489	11452
911.604	11459
911.718	11425
911.833	11356
911.947	11204
912.062	11155
912.176	11292
912.291	11334
912.405	11303
912.519	11406
912.633	11512
912.748	11356
912.862	11414
912.976	11227
913.09	11003
913.204	11041
913.318	11220
913.431	11284
913.545	11250
913.659	11242
913.772	11102
913.886	11117
914	11064
914.113	11109
914.226	11159
914.34	11132
914.453	11014
914.566	11113
914.68	10946
914.793	10991
914.906	10793
915.019	10831
915.132	10717
915.245	10740
915.358	10790
915.47	10839
915.583	10873
915.696	10824
915.809	10938
915.921	10984
916.034	10748
916.146	10740
916.259	10736
916.371	10866
916.483	10706
916.595	10740
916.708	10744
916.82	10580
916.932	10668
917.044	10736
917.156	10618
917.268	10618
917.38	10668
917.491	10626
917.603	10698
917.715	10714
917.826	10740
917.938	10634
918.049	10527
918.161	10596
918.272	10797
918.384	10717
918.495	10645
918.606	10459
918.717	10443
918.828	10580
918.939	10516
919.05	10299
919.161	10481
919.272	10287
919.383	10341
919.494	10504
919.604	10656
919.715	10462
919.826	10367
919.936	10390
920.047	10535
920.157	10523
920.267	10653
920.378	10516
920.488	10516
920.598	10664
920.708	10835
920.818	10725
920.928	10740
921.038	10908
921.148	10847
921.258	10565
921.368	10405
921.477	10314
921.587	10325
921.697	10173
921.806	10341
921.916	10234
922.025	10078
922.134	10101
922.244	9987
922.353	10105
922.462	9934
922.571	9888
922.68	9709
922.789	9701
922.898	9740
923.007	9629
923.116	9751
923.224	9728
923.333	9766
923.442	9591
923.55	9549
923.659	9603
923.767	9724
923.876	9587
923.984	9660
924.092	9561
924.201	9564
924.309	9629
924.417	9584
924.525	9504
924.633	9530
924.741	10306
924.849	9321
924.956	9515
925.064	9344
925.172	9203
925.279	9450
925.387	9420
925.494	9393
925.602	9538
925.709	9336
925.816	9306
925.924	9424
926.031	9473
926.138	9389
926.245	9473
926.352	9287
926.459	9408
926.566	9454
926.673	9313
926.779	9188
926.886	9245
926.993	9165
927.099	9066
927.206	8986
927.312	9009
927.419	9070
927.525	9089
927.631	9097
927.737	8986
927.843	8929
927.95	8773
928.056	8979
928.162	9017
928.267	8998
928.373	9553
928.479	8994
928.585	8895
928.69	8990
928.796	9017
928.901	8845
929.007	8773
929.112	8887
929.218	8807
929.323	8796
929.428	8773
929.533	8967
929.638	8701
929.743	8815
929.848	8792
929.953	8800
930.058	8621
930.163	8575
930.267	8545
930.372	8640
930.477	8533
930.581	8743
930.685	8590
930.79	8492
930.894	8533
930.998	8533
931.103	8629
931.207	8279
931.311	8183
931.415	8164
931.519	7993
931.623	8001
