Data from test_V78500241_1615.txt Node
Date: Fri Mar 25 14:44:57 CST 2022
User: usil
Spectrometer: V785-0024
Trigger mode: 0
Integration Time (sec): 4.000000E-1
Scans to average: 1
Nonlinearity correction enabled: false
Boxcar width: 0
Storing dark spectrum: false
XAxis mode: Wavelengths
Number of Pixels in Spectrum: 1024
>>>>>Begin Spectral Data<<<<<
801.071	22322
801.214	22234
801.356	21911
801.499	21842
801.641	21705
801.783	21778
801.926	21663
802.068	21679
802.211	21622
802.353	21473
802.496	21279
802.638	21287
802.78	21233
802.923	21047
803.065	20979
803.208	21039
803.35	21127
803.492	21127
803.635	21195
803.777	21047
803.919	21154
804.061	21359
804.204	21077
804.346	21066
804.488	20845
804.63	20899
804.773	20921
804.915	20971
805.057	20994
805.199	20963
805.341	21058
805.483	21100
805.626	21017
805.768	20895
805.91	20986
806.052	21024
806.194	20906
806.336	21135
806.478	20921
806.62	20967
806.762	20956
806.904	21188
807.046	21302
807.188	21279
807.33	21443
807.472	21302
807.614	21188
807.756	21108
807.898	21302
808.04	21070
808.182	21142
808.324	21131
808.465	21070
808.607	21329
808.749	21420
808.891	21473
809.033	21633
809.174	21568
809.316	21348
809.458	21321
809.6	21511
809.741	21397
809.883	21492
810.025	21492
810.166	21603
810.308	21378
810.45	21530
810.591	21458
810.733	21268
810.875	21329
811.016	21093
811.158	21043
811.299	21214
811.441	21241
811.582	21317
811.724	21150
811.865	21165
812.007	21123
812.148	21146
812.29	21176
812.431	21268
812.573	21389
812.714	21591
812.855	21648
812.997	21915
813.138	21911
813.279	21656
813.421	21587
813.562	21511
813.703	21393
813.845	21389
813.986	20925
814.127	20861
814.268	20754
814.41	20697
814.551	20720
814.692	20701
814.833	20590
814.974	20632
815.115	20644
815.256	20514
815.397	20564
815.539	20473
815.68	20484
815.821	20404
815.962	20503
816.103	20358
816.244	20180
816.385	20202
816.526	20218
816.666	19967
816.807	19856
816.948	20035
817.089	19936
817.23	19830
817.371	19894
817.512	19898
817.653	19765
817.793	19833
817.934	19685
818.075	19776
818.216	19769
818.356	19845
818.497	19658
818.638	19483
818.778	19472
818.919	19502
819.06	19597
819.2	19655
819.341	19700
819.481	19677
819.622	19833
819.762	19898
819.903	19860
820.043	19909
820.184	19784
820.324	19856
820.465	19833
820.605	19776
820.746	19837
820.886	19643
821.026	19822
821.167	19708
821.307	19791
821.447	19765
821.588	19685
821.728	19571
821.868	19320
822.008	19027
822.149	19278
822.289	19095
822.429	18939
822.569	18840
822.709	18901
822.849	18730
822.99	18646
823.13	18688
823.27	18715
823.41	18551
823.55	18407
823.69	18475
823.83	18506
823.97	18471
824.11	18262
824.25	18201
824.389	18277
824.529	18391
824.669	18327
824.809	18296
824.949	18414
825.089	18285
825.228	18365
825.368	17961
825.508	18019
825.648	18098
825.787	18068
825.927	18152
826.067	18060
826.206	18045
826.346	18064
826.485	18133
826.625	18007
826.765	18190
826.904	18194
827.044	17828
827.183	17786
827.323	17813
827.462	17703
827.601	17832
827.741	17657
827.88	17608
828.02	17592
828.159	17737
828.298	17665
828.437	17779
828.577	17592
828.716	17893
828.855	17748
828.994	17425
829.134	17493
829.273	17520
829.412	17474
829.551	17307
829.69	17360
829.829	17512
829.968	17581
830.107	17535
830.246	17467
830.385	17406
830.524	17474
830.663	17337
830.802	17185
830.941	17102
831.08	17105
831.219	17113
831.357	17128
831.496	17364
831.635	16957
831.774	16972
831.913	17045
832.051	16885
832.19	16782
832.329	16877
832.467	16733
832.606	16725
832.744	16812
832.883	16759
833.022	16721
833.16	16664
833.299	16805
833.437	16793
833.576	16778
833.714	16755
833.852	16797
833.991	16908
834.129	16831
834.267	16942
834.406	16881
834.544	16892
834.682	16869
834.821	16771
834.959	17052
835.097	16820
835.235	16866
835.373	16866
835.511	16793
835.65	16622
835.788	16687
835.926	16523
836.064	16409
836.202	16485
836.34	16843
836.478	16759
836.615	16656
836.753	16740
836.891	16710
837.029	16839
837.167	16641
837.305	16634
837.443	16546
837.58	16542
837.718	16618
837.856	16500
837.993	16428
838.131	16675
838.269	16440
838.406	16466
838.544	16428
838.681	16242
838.819	16158
838.956	16211
839.094	16074
839.231	16226
839.369	16177
839.506	16470
839.643	16337
839.781	16059
839.918	16166
840.055	16150
840.193	16097
840.33	16036
840.467	16112
840.604	16105
840.742	16379
840.879	16006
841.016	16150
841.153	16071
841.29	16192
841.427	16120
841.564	16128
841.701	16093
841.838	16059
841.975	16029
842.112	16063
842.249	15899
842.385	15880
842.522	16059
842.659	15941
842.796	15797
842.933	16013
843.069	15819
843.206	15899
843.343	16059
843.479	15918
843.616	15998
843.752	15610
843.889	15682
844.025	15793
844.162	15682
844.298	15759
844.435	15557
844.571	15713
844.708	15690
844.844	15869
844.98	15930
845.117	15701
845.253	15637
845.389	15553
845.525	15568
845.661	15492
845.798	15515
845.934	15622
846.07	15488
846.206	15629
846.342	15751
846.478	15507
846.614	15298
846.75	15214
846.886	15222
847.022	15401
847.158	15241
847.294	15252
847.429	15287
847.565	15184
847.701	15450
847.837	14963
847.972	14838
848.108	15199
848.244	15062
848.379	14823
848.515	14872
848.65	14815
848.786	14765
848.921	14842
849.057	14956
849.192	14960
849.328	14796
849.463	14834
849.598	14800
849.734	14739
849.869	14682
850.004	14629
850.14	14648
850.275	14575
850.41	14526
850.545	14625
850.68	14568
850.815	14610
850.95	14606
851.085	14777
851.22	14655
851.355	14556
851.49	14617
851.625	14629
851.76	14575
851.895	14461
852.03	14431
852.165	14606
852.299	14670
852.434	14678
852.569	14598
852.703	14640
852.838	14644
852.973	14800
853.107	14769
853.242	14602
853.376	14473
853.511	14347
853.645	14454
853.78	14583
853.914	14434
854.048	14473
854.183	14408
854.317	14469
854.451	14575
854.585	14495
854.72	14442
854.854	14533
854.988	14442
855.122	14427
855.256	14313
855.39	14415
855.524	14560
855.658	14461
855.792	14530
855.926	14431
856.06	14564
856.194	14617
856.327	14480
856.461	14400
856.595	14434
856.729	14454
856.862	14541
856.996	14552
857.13	14549
857.263	14545
857.397	14689
857.53	14480
857.664	14564
857.797	14568
857.931	14598
858.064	14549
858.197	14602
858.331	14571
858.464	14537
858.597	14415
858.731	14564
858.864	14469
858.997	14457
859.13	14503
859.263	14465
859.396	14552
859.529	14404
859.662	14503
859.795	14533
859.928	14533
860.061	14636
860.194	14697
860.327	14522
860.46	14530
860.592	14644
860.725	14613
860.858	14640
860.99	14488
861.123	14454
861.256	14469
861.388	14598
861.521	15359
861.653	14339
861.786	14377
861.918	14370
862.05	14423
862.183	14381
862.315	14412
862.447	14495
862.58	14461
862.712	14320
862.844	14153
862.976	14431
863.108	14366
863.24	14750
863.372	14263
863.504	14183
863.636	14267
863.768	14317
863.9	14142
864.032	14275
864.164	14278
864.296	14286
864.428	14423
864.559	14419
864.691	14271
864.823	14328
864.954	14351
865.086	14309
865.217	14237
865.349	14256
865.48	14271
865.612	14298
865.743	14427
865.875	14210
866.006	14336
866.137	14339
866.269	14191
866.4	14199
866.531	14202
866.662	14180
866.793	14214
866.924	14199
867.055	14256
867.186	14214
867.317	14256
867.448	14214
867.579	14225
867.71	14202
867.841	14199
867.972	14278
868.103	14229
868.233	14320
868.364	14176
868.495	14400
868.625	14526
868.756	14579
868.886	14400
869.017	14507
869.147	14625
869.278	14571
869.408	14545
869.539	14556
869.669	14674
869.799	14530
869.929	14674
870.06	14659
870.19	14781
870.32	14834
870.45	14724
870.58	14944
870.71	14941
870.84	14971
870.97	14899
871.1	14845
871.23	15085
871.36	15131
871.489	15020
871.619	14967
871.749	15051
871.879	15252
872.008	15233
872.138	15108
872.267	15112
872.397	14967
872.526	14948
872.656	14914
872.785	14902
872.915	15070
873.044	15142
873.173	15142
873.303	15081
873.432	15112
873.561	15203
873.69	15180
873.819	15180
873.948	15313
874.077	15214
874.206	15146
874.335	15150
874.464	15344
874.593	15504
874.722	15412
874.851	15424
874.979	15477
875.108	15447
875.237	15538
875.365	15408
875.494	15412
875.623	15492
875.751	15462
875.88	15481
876.008	15644
876.136	15690
876.265	15873
876.393	15998
876.521	15888
876.65	15987
876.778	15892
876.906	15850
877.034	15766
877.162	15823
877.29	15755
877.418	15934
877.546	15975
877.674	15827
877.802	15873
877.93	15865
878.058	15937
878.185	15804
878.313	15899
878.441	15819
878.568	15747
878.696	15831
878.824	15895
878.951	16040
879.079	16021
879.206	16284
879.333	16082
879.461	15876
879.588	16029
879.715	16116
879.842	16272
879.97	15991
880.097	15850
880.224	15720
880.351	15705
880.478	15736
880.605	15720
880.732	15686
880.859	15983
880.986	15686
881.112	15857
881.239	15622
881.366	15545
881.493	15420
881.619	15450
881.746	15443
881.872	15378
881.999	15416
882.125	15424
882.252	15462
882.378	15412
882.505	15538
882.631	15374
882.757	15165
882.883	15256
883.01	15165
883.136	15180
883.262	15062
883.388	15039
883.514	15203
883.64	15287
883.766	15097
883.892	15074
884.018	15089
884.143	15214
884.269	15291
884.395	14921
884.52	14925
884.646	14895
884.772	14811
884.897	14941
885.023	14883
885.148	15062
885.274	15036
885.399	15070
885.524	14918
885.65	14849
885.775	15043
885.9	14960
886.025	15055
886.15	15009
886.275	14834
886.4	14838
886.525	14925
886.65	14849
886.775	14876
886.9	14956
887.025	15154
887.149	14941
887.274	14762
887.399	14575
887.523	14689
887.648	14674
887.773	14720
887.897	14743
888.021	14895
888.146	14838
888.27	14800
888.395	14838
888.519	14845
888.643	14880
888.767	14769
888.891	14590
889.015	14610
889.139	14590
889.263	14507
889.387	14571
889.511	14746
889.635	14785
889.759	14617
889.883	14522
890.006	14655
890.13	14598
890.254	14492
890.377	14575
890.501	14309
890.624	14412
890.748	14537
890.871	14256
890.995	14324
891.118	14183
891.241	14320
891.364	14206
891.488	14431
891.611	14324
891.734	14298
891.857	14324
891.98	14267
892.103	14339
892.226	14298
892.349	14267
892.471	14172
892.594	14275
892.717	14172
892.839	14248
892.962	14191
893.085	14377
893.207	14263
893.33	14157
893.452	14119
893.575	14229
893.697	14259
893.819	14358
893.941	14537
894.064	14438
894.186	14157
894.308	14240
894.43	14396
894.552	14438
894.674	14484
894.796	14286
894.918	14313
895.04	14366
895.161	14408
895.283	14393
895.405	14252
895.526	14476
895.648	14389
895.769	14446
895.891	14438
896.012	14503
896.134	14492
896.255	14499
896.376	14370
896.498	14450
896.619	14465
896.74	14537
896.861	14549
896.982	14906
897.103	14864
897.224	14754
897.345	14659
897.466	14514
897.587	14697
897.708	14883
897.828	14720
897.949	14750
898.07	14632
898.19	14686
898.311	14777
898.431	14769
898.552	14735
898.672	14830
898.792	14887
898.913	14853
899.033	14746
899.153	14629
899.273	14545
899.393	14705
899.513	14674
899.633	14632
899.753	14678
899.873	14583
899.993	14705
900.113	14537
900.232	14636
900.352	14610
900.472	14579
900.591	14537
900.711	14533
900.83	14377
900.95	14568
901.069	14560
901.189	14473
901.308	14161
901.427	14142
901.546	14130
901.665	14172
901.784	14240
901.904	14046
902.023	13982
902.141	13799
902.26	13742
902.379	13833
902.498	13696
902.617	13681
902.735	13803
902.854	13841
902.973	13731
903.091	13499
903.21	13430
903.328	13441
903.446	13324
903.565	13327
903.683	13350
903.801	13168
903.919	13308
904.038	13274
904.156	13164
904.274	13175
904.392	13099
904.51	13129
904.627	13194
904.745	13225
904.863	13244
904.981	12939
905.098	12795
905.216	12825
905.334	12913
905.451	12821
905.569	12772
905.686	12886
905.803	12913
905.921	12665
906.038	12684
906.155	12547
906.272	12483
906.389	12585
906.506	12422
906.623	12494
906.74	12429
906.857	12319
906.974	12311
907.091	12547
907.208	12540
907.324	12441
907.441	12342
907.557	12201
907.674	12201
907.79	12064
907.907	12144
908.023	12140
908.139	12133
908.256	12121
908.372	12125
908.488	12087
908.604	11996
908.72	11859
908.836	11923
908.952	11920
909.068	11939
909.184	12034
909.3	11882
909.415	11870
909.531	11840
909.647	11665
909.762	11646
909.878	11718
909.993	11748
910.108	11604
910.224	11611
910.339	11722
910.454	11619
910.57	11532
910.685	11349
910.8	11805
910.915	11695
911.03	11638
911.145	11364
911.259	11364
911.374	11326
911.489	11277
911.604	11212
911.718	11178
911.833	11197
911.947	10953
912.062	11029
912.176	11071
912.291	11166
912.405	11140
912.519	11307
912.633	11315
912.748	11193
912.862	11113
912.976	11003
913.09	10915
913.204	10980
913.318	11018
913.431	11086
913.545	11037
913.659	11109
913.772	10995
913.886	10873
914	10889
914.113	11041
914.226	10984
914.34	10995
914.453	10824
914.566	10984
914.68	10900
914.793	10812
914.906	10675
915.019	10611
915.132	10561
915.245	10565
915.358	10634
915.47	10615
915.583	10649
915.696	10725
915.809	10755
915.921	10797
916.034	10607
916.146	10596
916.259	10508
916.371	10752
916.483	10599
916.595	10577
916.708	10580
916.82	10546
916.932	10561
917.044	10577
917.156	10519
917.268	10382
917.38	10421
917.491	10394
917.603	10455
917.715	10508
917.826	10561
917.938	10478
918.049	10257
918.161	10390
918.272	10565
918.384	10580
918.495	10538
918.606	10436
918.717	10207
918.828	10371
918.939	10424
919.05	10215
919.161	10287
919.272	10120
919.383	10227
919.494	10268
919.604	10538
919.715	10352
919.826	10219
919.936	10268
920.047	10379
920.157	10367
920.267	10535
920.378	10421
920.488	10379
920.598	10500
920.708	10656
920.818	10527
920.928	10558
921.038	10694
921.148	10618
921.258	10390
921.368	10322
921.477	10238
921.587	10112
921.697	10048
921.806	10238
921.916	10097
922.025	9953
922.134	9842
922.244	9865
922.353	9888
922.462	9835
922.571	9701
922.68	9580
922.789	9625
922.898	9591
923.007	9545
923.116	9656
923.224	9519
923.333	9614
923.442	9450
923.55	9466
923.659	9542
923.767	9492
923.876	9393
923.984	9530
924.092	9397
924.201	9447
924.309	9500
924.417	9401
924.525	9348
924.633	9519
924.741	10143
924.849	9211
924.956	9363
925.064	9226
925.172	9165
925.279	9135
925.387	9275
925.494	9241
925.602	9389
925.709	9325
925.816	9157
925.924	9279
926.031	9348
926.138	9237
926.245	9325
926.352	9218
926.459	9382
926.566	9393
926.673	9188
926.779	9154
926.886	9104
926.993	9020
927.099	9024
927.206	8937
927.312	8948
927.419	9043
927.525	8998
927.631	9028
927.737	8842
927.843	8864
927.95	8762
928.056	8849
928.162	8861
928.267	8971
928.373	9416
928.479	9009
928.585	8693
928.69	8891
928.796	8895
928.901	8800
929.007	8682
929.112	8777
929.218	8724
929.323	8689
929.428	8663
929.533	8792
929.638	8724
929.743	8670
929.848	8724
929.953	8670
930.058	8606
930.163	8434
930.267	8507
930.372	8579
930.477	8423
930.581	8659
930.685	8522
930.79	8370
930.894	8419
930.998	8415
931.103	8560
931.207	8214
931.311	8088
931.415	8046
931.519	7947
931.623	7811
