Data from test_V78500241_1448.txt Node
Date: Fri Mar 25 14:43:47 CST 2022
User: usil
Spectrometer: V785-0024
Trigger mode: 0
Integration Time (sec): 4.000000E-1
Scans to average: 1
Nonlinearity correction enabled: false
Boxcar width: 0
Storing dark spectrum: false
XAxis mode: Wavelengths
Number of Pixels in Spectrum: 1024
>>>>>Begin Spectral Data<<<<<
801.071	22478
801.214	22394
801.356	22105
801.499	21930
801.641	21880
801.783	21770
801.926	21827
802.068	21739
802.211	21736
802.353	21591
802.496	21332
802.638	21306
802.78	21211
802.923	21195
803.065	21264
803.208	21043
803.35	21047
803.492	21211
803.635	21313
803.777	21176
803.919	21188
804.061	21500
804.204	21176
804.346	21093
804.488	20975
804.63	21188
804.773	20910
804.915	21237
805.057	21142
805.199	21146
805.341	21093
805.483	21127
805.626	21116
805.768	21036
805.91	20975
806.052	21020
806.194	20883
806.336	21233
806.478	21017
806.62	20899
806.762	21123
806.904	21264
807.046	21462
807.188	21466
807.33	21447
807.472	21504
807.614	21447
807.756	21447
807.898	21374
808.04	21252
808.182	21256
808.324	21291
808.465	21359
808.607	21507
808.749	21591
808.891	21660
809.033	21907
809.174	21759
809.316	21599
809.458	21686
809.6	21595
809.741	21572
809.883	21504
810.025	21675
810.166	21591
810.308	21671
810.45	21500
810.591	21534
810.733	21363
810.875	21230
811.016	21119
811.158	21184
811.299	21135
811.441	21412
811.582	21389
811.724	21237
811.865	21252
812.007	21389
812.148	21173
812.29	21161
812.431	21416
812.573	21572
812.714	21583
812.855	21743
812.997	21739
813.138	21903
813.279	21819
813.421	21739
813.562	21652
813.703	21568
813.845	21447
813.986	21058
814.127	21074
814.268	20937
814.41	20895
814.551	20724
814.692	20857
814.833	20689
814.974	20739
815.115	20819
815.256	20606
815.397	20674
815.539	20606
815.68	20579
815.821	20533
815.962	20590
816.103	20408
816.244	20408
816.385	20210
816.526	20256
816.666	20024
816.807	19947
816.948	19951
817.089	20115
817.23	19879
817.371	20012
817.512	19871
817.653	19780
817.793	19780
817.934	19921
818.075	19875
818.216	20046
818.356	19864
818.497	19712
818.638	19540
818.778	19635
818.919	19689
819.06	19601
819.2	19757
819.341	19856
819.481	19830
819.622	19978
819.762	20229
819.903	20054
820.043	19963
820.184	19902
820.324	19780
820.465	19974
820.605	19818
820.746	19902
820.886	19772
821.026	19887
821.167	19753
821.307	19932
821.447	19906
821.588	19776
821.728	19525
821.868	19449
822.008	19308
822.149	19320
822.289	19114
822.429	19000
822.569	19015
822.709	18973
822.849	18821
822.99	18734
823.13	18787
823.27	18692
823.41	18623
823.55	18467
823.69	18604
823.83	18521
823.97	18578
824.11	18429
824.25	18289
824.389	18266
824.529	18483
824.669	18369
824.809	18506
824.949	18498
825.089	18486
825.228	18372
825.368	18155
825.508	18106
825.648	18140
825.787	18235
825.927	18159
826.067	18083
826.206	18087
826.346	18072
826.485	18159
826.625	18114
826.765	18254
826.904	18197
827.044	17855
827.183	17954
827.323	17939
827.462	17927
827.601	17851
827.741	17847
827.88	17794
828.02	17767
828.159	17813
828.298	17889
828.437	17866
828.577	17851
828.716	17954
828.855	17855
828.994	17573
829.134	17680
829.273	17615
829.412	17623
829.551	17562
829.69	17501
829.829	17604
829.968	17752
830.107	17619
830.246	17471
830.385	17589
830.524	17330
830.663	17425
830.802	17341
830.941	17174
831.08	17261
831.219	17280
831.357	17280
831.496	17444
831.635	17136
831.774	17090
831.913	17105
832.051	17010
832.19	17045
832.329	16961
832.467	16862
832.606	16778
832.744	16911
832.883	16847
833.022	16930
833.16	16892
833.299	16854
833.437	17037
833.576	16995
833.714	16953
833.852	16892
833.991	17064
834.129	16953
834.267	17025
834.406	16991
834.544	16987
834.682	16812
834.821	16953
834.959	17098
835.097	16957
835.235	17052
835.373	16911
835.511	17018
835.65	16869
835.788	16816
835.926	16588
836.064	16599
836.202	16569
836.34	16866
836.478	16892
836.615	16771
836.753	16790
836.891	17056
837.029	16843
837.167	16748
837.305	16782
837.443	16721
837.58	16740
837.718	16793
837.856	16706
837.993	16702
838.131	16721
838.269	16645
838.406	16611
838.544	16618
838.681	16455
838.819	16344
838.956	16204
839.094	16204
839.231	16280
839.369	16356
839.506	16565
839.643	16413
839.781	16284
839.918	16200
840.055	16257
840.193	16295
840.33	16097
840.467	16325
840.604	16230
840.742	16474
840.879	15968
841.016	16071
841.153	16032
841.29	16386
841.427	16295
841.564	16341
841.701	16242
841.838	16188
841.975	16162
842.112	16177
842.249	16109
842.385	16021
842.522	16112
842.659	16029
842.796	16006
842.933	15994
843.069	15953
843.206	15956
843.343	16143
843.479	15991
843.616	16074
843.752	15747
843.889	15850
844.025	15937
844.162	15728
844.298	15975
844.435	15717
844.571	15816
844.708	15884
844.844	16101
844.98	16002
845.117	15903
845.253	15755
845.389	15610
845.525	15717
845.661	15831
845.798	15762
845.934	16010
846.07	15831
846.206	15899
846.342	15972
846.478	15762
846.614	15526
846.75	15439
846.886	15401
847.022	15462
847.158	15416
847.294	15382
847.429	15370
847.565	15340
847.701	15637
847.837	15138
847.972	15119
848.108	15112
848.244	15108
848.379	15024
848.515	14944
848.65	14963
848.786	14967
848.921	14880
849.057	15062
849.192	15100
849.328	15020
849.463	15074
849.598	14826
849.734	14830
849.869	14933
850.004	14743
850.14	14880
850.275	14739
850.41	14667
850.545	14670
850.68	14693
850.815	14701
850.95	14724
851.085	14921
851.22	14773
851.355	14743
851.49	14697
851.625	14625
851.76	14689
851.895	14670
852.03	14617
852.165	14670
852.299	14705
852.434	14743
852.569	14750
852.703	14750
852.838	14834
852.973	14910
853.107	14842
853.242	14727
853.376	14579
853.511	14484
853.645	14549
853.78	14727
853.914	14606
854.048	14587
854.183	14518
854.317	14651
854.451	14777
854.585	14659
854.72	14560
854.854	14594
854.988	14598
855.122	14533
855.256	14461
855.39	14629
855.524	14663
855.658	14587
855.792	14632
855.926	14632
856.06	14655
856.194	14701
856.327	14617
856.461	14564
856.595	14648
856.729	14488
856.862	14686
856.996	14670
857.13	14682
857.263	14686
857.397	14743
857.53	14617
857.664	14746
857.797	14640
857.931	14636
858.064	14625
858.197	14708
858.331	14598
858.464	14587
858.597	14480
858.731	14526
858.864	14632
858.997	14526
859.13	14640
859.263	14602
859.396	14575
859.529	14575
859.662	14587
859.795	14545
859.928	14602
860.061	14762
860.194	14849
860.327	14670
860.46	14667
860.592	14765
860.725	14785
860.858	14781
860.99	14579
861.123	14450
861.256	14556
861.388	14670
861.521	15272
861.653	14495
861.786	14400
861.918	14503
862.05	14461
862.183	14564
862.315	14571
862.447	14655
862.58	14446
862.712	14374
862.844	14282
862.976	14408
863.108	14419
863.24	14800
863.372	14351
863.504	14393
863.636	14412
863.768	14446
863.9	14427
864.032	14362
864.164	14332
864.296	14454
864.428	14541
864.559	14339
864.691	14488
864.823	14343
864.954	14423
865.086	14324
865.217	14366
865.349	14237
865.48	14317
865.612	14381
865.743	14598
865.875	14282
866.006	14377
866.137	14301
866.269	14419
866.4	14324
866.531	14328
866.662	14237
866.793	14305
866.924	14248
867.055	14282
867.186	14309
867.317	14328
867.448	14286
867.579	14290
867.71	14320
867.841	14290
867.972	14328
868.103	14393
868.233	14298
868.364	14355
868.495	14469
868.625	14629
868.756	14716
868.886	14473
869.017	14610
869.147	14777
869.278	14731
869.408	14670
869.539	14632
869.669	14697
869.799	14746
869.929	14731
870.06	14727
870.19	14914
870.32	14845
870.45	14933
870.58	14906
870.71	15116
870.84	15051
870.97	14941
871.1	15089
871.23	15188
871.36	15268
871.489	15131
871.619	15047
871.749	15138
871.879	15165
872.008	15241
872.138	15214
872.267	15203
872.397	15070
872.526	15028
872.656	15043
872.785	15089
872.915	15279
873.044	15306
873.173	15252
873.303	15230
873.432	15252
873.561	15340
873.69	15389
873.819	15310
873.948	15386
874.077	15260
874.206	15169
874.335	15173
874.464	15340
874.593	15564
874.722	15534
874.851	15580
874.979	15667
875.108	15614
875.237	15603
875.365	15481
875.494	15530
875.623	15599
875.751	15481
875.88	15580
876.008	15679
876.136	15808
876.265	15968
876.393	15926
876.521	15953
876.65	16002
876.778	15926
876.906	15915
877.034	15926
877.162	15987
877.29	15926
877.418	15850
877.546	15994
877.674	15899
877.802	15994
877.93	15979
878.058	15956
878.185	15808
878.313	15846
878.441	15953
878.568	15922
878.696	15987
878.824	16097
878.951	16067
879.079	16185
879.206	16337
879.333	16223
879.461	16158
879.588	16261
879.715	16169
879.842	16363
879.97	16257
880.097	15937
880.224	15926
880.351	15945
880.478	15884
880.605	15797
880.732	15823
880.859	16101
880.986	15861
881.112	15880
881.239	15759
881.366	15671
881.493	15500
881.619	15667
881.746	15450
881.872	15603
881.999	15454
882.125	15458
882.252	15587
882.378	15568
882.505	15660
882.631	15412
882.757	15268
882.883	15393
883.01	15351
883.136	15195
883.262	15203
883.388	15150
883.514	15313
883.64	15321
883.766	15260
883.892	15108
884.018	15169
884.143	15294
884.269	15492
884.395	15093
884.52	15017
884.646	15074
884.772	14861
884.897	14883
885.023	14960
885.148	15119
885.274	15237
885.399	15062
885.524	15028
885.65	15070
885.775	15024
885.9	14967
886.025	15135
886.15	15017
886.275	14944
886.4	15036
886.525	14982
886.65	14963
886.775	14963
886.9	15112
887.025	15272
887.149	14998
887.274	14876
887.399	14815
887.523	14819
887.648	14746
887.773	14750
887.897	14838
888.021	14895
888.146	14830
888.27	14914
888.395	14994
888.519	14864
888.643	14796
888.767	14804
888.891	14762
889.015	14651
889.139	14838
889.263	14644
889.387	14724
889.511	14788
889.635	14849
889.759	14674
889.883	14712
890.006	14632
890.13	14857
890.254	14636
890.377	14678
890.501	14427
890.624	14476
890.748	14480
890.871	14400
890.995	14328
891.118	14256
891.241	14442
891.364	14396
891.488	14469
891.611	14317
891.734	14317
891.857	14431
891.98	14393
892.103	14476
892.226	14381
892.349	14355
892.471	14240
892.594	14267
892.717	14476
892.839	14347
892.962	14358
893.085	14442
893.207	14355
893.33	14229
893.452	14336
893.575	14423
893.697	14309
893.819	14518
893.941	14526
894.064	14575
894.186	14366
894.308	14412
894.43	14385
894.552	14598
894.674	14545
894.796	14324
894.918	14366
895.04	14324
895.161	14530
895.283	14488
895.405	14450
895.526	14499
895.648	14408
895.769	14385
895.891	14533
896.012	14587
896.134	14617
896.255	14552
896.376	14533
896.498	14568
896.619	14518
896.74	14514
896.861	14545
896.982	14902
897.103	15001
897.224	15028
897.345	14705
897.466	14754
897.587	14754
897.708	14895
897.828	14708
897.949	14682
898.07	14629
898.19	14830
898.311	14906
898.431	14788
898.552	14868
898.672	14944
898.792	15017
898.913	14933
899.033	14777
899.153	14682
899.273	14583
899.393	14689
899.513	14743
899.633	14731
899.753	14663
899.873	14762
899.993	14678
900.113	14674
900.232	14800
900.352	14686
900.472	14579
900.591	14507
900.711	14583
900.83	14579
900.95	14667
901.069	14720
901.189	14533
901.308	14347
901.427	14218
901.546	14313
901.665	14290
901.784	14336
901.904	14172
902.023	14039
902.141	13883
902.26	13944
902.379	13913
902.498	13856
902.617	13788
902.735	13864
902.854	13761
902.973	13712
903.091	13616
903.21	13468
903.328	13597
903.446	13514
903.565	13419
903.683	13373
903.801	13339
903.919	13362
904.038	13301
904.156	13179
904.274	13251
904.392	13232
904.51	13228
904.627	13217
904.745	13221
904.863	13285
904.981	12962
905.098	12913
905.216	12909
905.334	12966
905.451	12920
905.569	12814
905.686	12875
905.803	12932
905.921	12635
906.038	12814
906.155	12764
906.272	12582
906.389	12673
906.506	12547
906.623	12479
906.74	12559
906.857	12414
906.974	12357
907.091	12635
907.208	12593
907.324	12532
907.441	12456
907.557	12277
907.674	12220
907.79	12159
907.907	12224
908.023	12239
908.139	12190
908.256	12083
908.372	12178
908.488	12167
908.604	12087
908.72	11893
908.836	11980
908.952	11901
909.068	11984
909.184	12106
909.3	12038
909.415	12003
909.531	12015
909.647	11832
909.762	11771
909.878	11786
909.993	11661
910.108	11767
910.224	11691
910.339	11767
910.454	11611
910.57	11539
910.685	11547
910.8	11824
910.915	11714
911.03	11592
911.145	11463
911.259	11452
911.374	11383
911.489	11402
911.604	11296
911.718	11265
911.833	11254
911.947	11189
912.062	11140
912.176	11250
912.291	11166
912.405	11159
912.519	11383
912.633	11311
912.748	11307
912.862	11178
912.976	11037
913.09	10968
913.204	10949
913.318	11159
913.431	11113
913.545	11121
913.659	11159
913.772	11075
913.886	10934
914	10873
914.113	11102
914.226	11025
914.34	11018
914.453	10816
914.566	11041
914.68	10904
914.793	10862
914.906	10763
915.019	10645
915.132	10615
915.245	10740
915.358	10736
915.47	10702
915.583	10675
915.696	10771
915.809	10869
915.921	10786
916.034	10675
916.146	10603
916.259	10630
916.371	10698
916.483	10736
916.595	10641
916.708	10618
916.82	10569
916.932	10580
917.044	10546
917.156	10550
917.268	10474
917.38	10489
917.491	10497
917.603	10599
917.715	10550
917.826	10668
917.938	10527
918.049	10402
918.161	10561
918.272	10660
918.384	10660
918.495	10592
918.606	10402
918.717	10371
918.828	10474
918.939	10421
919.05	10246
919.161	10352
919.272	10166
919.383	10238
919.494	10470
919.604	10668
919.715	10402
919.826	10329
919.936	10348
920.047	10481
920.157	10398
920.267	10660
920.378	10485
920.488	10409
920.598	10489
920.708	10752
920.818	10599
920.928	10611
921.038	10809
921.148	10668
921.258	10485
921.368	10367
921.477	10276
921.587	10295
921.697	10158
921.806	10257
921.916	10211
922.025	10040
922.134	10017
922.244	9922
922.353	9956
922.462	9838
922.571	9793
922.68	9633
922.789	9599
922.898	9660
923.007	9610
923.116	9701
923.224	9618
923.333	9538
923.442	9580
923.55	9397
923.659	9530
923.767	9580
923.876	9587
923.984	9580
924.092	9485
924.201	9542
924.309	9507
924.417	9542
924.525	9447
924.633	9542
924.741	10363
924.849	9241
924.956	9435
925.064	9275
925.172	9138
925.279	9268
925.387	9321
925.494	9313
925.602	9408
925.709	9370
925.816	9184
925.924	9306
926.031	9420
926.138	9268
926.245	9389
926.352	9165
926.459	9275
926.566	9386
926.673	9230
926.779	9169
926.886	9146
926.993	9062
927.099	9020
927.206	8982
927.312	8895
927.419	9074
927.525	8994
927.631	8944
927.737	8941
927.843	8861
927.95	8766
928.056	8899
928.162	8902
928.267	8887
928.373	9587
928.479	8960
928.585	8708
928.69	8918
928.796	8887
928.901	8804
929.007	8693
929.112	8826
929.218	8811
929.323	8697
929.428	8705
929.533	8743
929.638	8670
929.743	8674
929.848	8792
929.953	8659
930.058	8571
930.163	8465
930.267	8503
930.372	8617
930.477	8446
930.581	8716
930.685	8511
930.79	8396
930.894	8454
930.998	8431
931.103	8522
931.207	8237
931.311	8107
931.415	8084
931.519	7925
931.623	7909
