Data from test_V78500241_117.txt Node
Date: Fri Mar 25 14:34:32 CST 2022
User: usil
Spectrometer: V785-0024
Trigger mode: 0
Integration Time (sec): 4.000000E-1
Scans to average: 1
Nonlinearity correction enabled: false
Boxcar width: 0
Storing dark spectrum: false
XAxis mode: Wavelengths
Number of Pixels in Spectrum: 1024
>>>>>Begin Spectral Data<<<<<
801.071	29832
801.214	29562
801.356	29493
801.499	29372
801.641	29212
801.783	29143
801.926	29113
802.068	29067
802.211	29086
802.353	29037
802.496	28934
802.638	29006
802.78	28778
802.923	28858
803.065	28923
803.208	28885
803.35	28797
803.492	29048
803.635	29048
803.777	29022
803.919	29223
804.061	29452
804.204	29140
804.346	28953
804.488	29018
804.63	29052
804.773	29064
804.915	29417
805.057	29387
805.199	29242
805.341	29402
805.483	29710
805.626	29562
805.768	29524
805.91	29741
806.052	29729
806.194	29802
806.336	30106
806.478	29984
806.62	30095
806.762	30346
806.904	30715
807.046	31190
807.188	31430
807.33	31510
807.472	31928
807.614	32351
807.756	33020
807.898	33637
808.04	34516
808.182	35939
808.324	37681
808.465	39454
808.607	41729
808.749	43525
808.891	44663
809.033	44590
809.174	43487
809.316	41783
809.458	39485
809.6	37316
809.741	35619
809.883	34356
810.025	33367
810.166	32674
810.308	32100
810.45	31727
810.591	31381
810.733	30996
810.875	30825
811.016	30490
811.158	30327
811.299	30338
811.441	30426
811.582	30266
811.724	30140
811.865	30007
812.007	30030
812.148	29969
812.29	29878
812.431	29946
812.573	30114
812.714	30144
812.855	30110
812.997	30201
813.138	30262
813.279	30296
813.421	30053
813.562	30125
813.703	29954
813.845	29729
813.986	29379
814.127	29204
814.268	29151
814.41	29204
814.551	29083
814.692	28999
814.833	28934
814.974	28934
815.115	28999
815.256	28854
815.397	28740
815.539	28641
815.68	28611
815.821	28755
815.962	28550
816.103	28637
816.244	28432
816.385	28424
816.526	28280
816.666	28093
816.807	27937
816.948	28044
817.089	28090
817.23	27994
817.371	27892
817.512	27884
817.653	27960
817.793	27823
817.934	27774
818.075	27797
818.216	27842
818.356	27816
818.497	27804
818.638	27652
818.778	27549
818.919	27507
819.06	27690
819.2	27682
819.341	27876
819.481	27728
819.622	27918
819.762	28090
819.903	27964
820.043	28006
820.184	27781
820.324	27857
820.465	27720
820.605	27625
820.746	27671
820.886	27663
821.026	27732
821.167	27705
821.307	27743
821.447	27644
821.588	27492
821.728	27424
821.868	27184
822.008	27127
822.149	27009
822.289	27043
822.429	26746
822.569	26644
822.709	26507
822.849	26549
822.99	26590
823.13	26484
823.27	26351
823.41	26244
823.55	26077
823.69	26332
823.83	26351
823.97	26199
824.11	25974
824.25	25978
824.389	25944
824.529	26039
824.669	25982
824.809	26092
824.949	26168
825.089	26077
825.228	26115
825.368	25887
825.508	25784
825.648	25803
825.787	25890
825.927	25909
826.067	25765
826.206	25871
826.346	25879
826.485	25822
826.625	25932
826.765	25868
826.904	25909
827.044	25590
827.183	25597
827.323	25540
827.462	25628
827.601	25521
827.741	25506
827.88	25540
828.02	25350
828.159	25544
828.298	25575
828.437	25556
828.577	25540
828.716	25525
828.855	25449
828.994	25213
829.134	25156
829.273	25061
829.412	25008
829.551	25148
829.69	25145
829.829	25091
829.968	25255
830.107	25118
830.246	25209
830.385	25114
830.524	25072
830.663	24954
830.802	24920
830.941	24768
831.08	24673
831.219	24802
831.357	24696
831.496	24890
831.635	24623
831.774	24620
831.913	24654
832.051	24502
832.19	24536
832.329	24513
832.467	24559
832.606	24357
832.744	24483
832.883	24601
833.022	24616
833.16	24650
833.299	24601
833.437	24696
833.576	24935
833.714	25000
833.852	25129
833.991	25072
834.129	25263
834.267	25156
834.406	25190
834.544	25084
834.682	24966
834.821	24837
834.959	24992
835.097	24814
835.235	24753
835.373	24673
835.511	24601
835.65	24490
835.788	24429
835.926	24167
836.064	24114
836.202	24243
836.34	24292
836.478	24281
836.615	24171
836.753	24117
836.891	24144
837.029	24220
837.167	24057
837.305	24057
837.443	23965
837.58	23946
837.718	24068
837.856	23939
837.993	23980
838.131	24060
838.269	23676
838.406	23939
838.544	23756
838.681	23539
838.819	23539
838.956	23395
839.094	23433
839.231	23379
839.369	23509
839.506	23741
839.643	23615
839.781	23387
839.918	23345
840.055	23345
840.193	23398
840.33	23261
840.467	23227
840.604	23181
840.742	23482
840.879	23067
841.016	23048
841.153	23189
841.29	23376
841.427	23223
841.564	23349
841.701	23296
841.838	23288
841.975	23117
842.112	23200
842.249	23048
842.385	22987
842.522	23212
842.659	23048
842.796	23037
842.933	23052
843.069	22976
843.206	22938
843.343	23159
843.479	23128
843.616	23208
843.752	22965
843.889	23056
844.025	23121
844.162	22927
844.298	23258
844.435	23117
844.571	23429
844.708	23512
844.844	23843
844.98	24117
845.117	24399
845.253	24996
845.389	26115
845.525	28265
845.661	32176
845.798	36418
845.934	39846
846.07	41117
846.206	40413
846.342	37479
846.478	33043
846.614	29117
846.75	26446
846.886	24996
847.022	24057
847.158	23710
847.294	23273
847.429	22923
847.565	22767
847.701	22843
847.837	22375
847.972	22204
848.108	22284
848.244	22268
848.379	21972
848.515	22006
848.65	21892
848.786	21816
848.921	21903
849.057	22051
849.192	21972
849.328	21934
849.463	21728
849.598	21728
849.734	21625
849.869	21610
850.004	21606
850.14	21492
850.275	21599
850.41	21507
850.545	21504
850.68	21431
850.815	21492
850.95	21481
851.085	21774
851.22	21580
851.355	21545
851.49	21447
851.625	21504
851.76	21466
851.895	21405
852.03	21355
852.165	21473
852.299	21519
852.434	21564
852.569	21622
852.703	21458
852.838	21675
852.973	21622
853.107	21614
853.242	21534
853.376	21515
853.511	21340
853.645	21462
853.78	21660
853.914	21504
854.048	21568
854.183	21545
854.317	21549
854.451	21667
854.585	21572
854.72	21549
854.854	21701
854.988	21332
855.122	21504
855.256	21428
855.39	21382
855.524	21496
855.658	21431
855.792	21435
855.926	21367
856.06	21424
856.194	21458
856.327	21275
856.461	21367
856.595	21252
856.729	21275
856.862	21351
856.996	21367
857.13	21252
857.263	21447
857.397	21302
857.53	21222
857.664	21241
857.797	21321
857.931	21310
858.064	21317
858.197	21245
858.331	21199
858.464	21222
858.597	21062
858.731	21081
858.864	21127
858.997	21157
859.13	21173
859.263	21214
859.396	21348
859.529	21104
859.662	21146
859.795	21028
859.928	21058
860.061	21150
860.194	21355
860.327	21112
860.46	21017
860.592	21138
860.725	21146
860.858	21142
860.99	21047
861.123	21058
861.256	20994
861.388	21028
861.521	21774
861.653	21013
861.786	20804
861.918	20956
862.05	21085
862.183	21157
862.315	21169
862.447	21154
862.58	21233
862.712	20823
862.844	20762
862.976	20914
863.108	20918
863.24	21192
863.372	20838
863.504	20807
863.636	20796
863.768	20804
863.9	20826
864.032	20708
864.164	20724
864.296	20750
864.428	20853
864.559	20830
864.691	20811
864.823	20594
864.954	20773
865.086	20777
865.217	20739
865.349	20609
865.48	20552
865.612	20739
865.743	20861
865.875	20705
866.006	20522
866.137	20765
866.269	20826
866.4	20640
866.531	20644
866.662	20465
866.793	20606
866.924	20609
867.055	20689
867.186	20651
867.317	20560
867.448	20579
867.579	20651
867.71	20613
867.841	20454
867.972	20743
868.103	20739
868.233	20640
868.364	20640
868.495	20575
868.625	20762
868.756	20880
868.886	20792
869.017	20826
869.147	21036
869.278	20979
869.408	20967
869.539	20864
869.669	20937
869.799	20944
869.929	20883
870.06	20963
870.19	21207
870.32	21047
870.45	21245
870.58	21283
870.71	21252
870.84	21355
870.97	21336
871.1	21203
871.23	21477
871.36	21443
871.489	21477
871.619	21519
871.749	21431
871.879	21633
872.008	21675
872.138	21485
872.267	21580
872.397	21389
872.526	21424
872.656	21386
872.785	21450
872.915	21595
873.044	21713
873.173	21671
873.303	21686
873.432	21743
873.561	21743
873.69	21842
873.819	21819
873.948	21819
874.077	21804
874.206	21610
874.335	21774
874.464	21945
874.593	21975
874.722	22059
874.851	22177
874.979	22078
875.108	22291
875.237	22177
875.365	22143
875.494	22287
875.623	22268
875.751	22299
875.88	22242
876.008	22493
876.136	22470
876.265	22866
876.393	22980
876.521	22919
876.65	22980
876.778	22953
876.906	22896
877.034	22900
877.162	22999
877.29	22896
877.418	23025
877.546	23223
877.674	23204
877.802	23368
877.93	23497
878.058	23531
878.185	23509
878.313	23707
878.441	24022
878.568	24182
878.696	24623
878.824	25156
878.951	25947
879.079	26777
879.206	28265
879.333	29634
879.461	30555
879.588	31415
879.715	31384
879.842	30806
879.97	29459
880.097	28067
880.224	26994
880.351	26191
880.478	25826
880.605	25251
880.732	25118
880.859	25217
880.986	24848
881.112	24631
881.239	24608
881.366	24448
881.493	24441
881.619	24327
881.746	24388
881.872	24338
881.999	24365
882.125	24247
882.252	24471
882.378	24483
882.505	24582
882.631	24429
882.757	24277
882.883	24388
883.01	24182
883.136	24194
883.262	24041
883.388	24079
883.514	24174
883.64	24152
883.766	24114
883.892	24038
884.018	24003
884.143	24140
884.269	24281
884.395	23817
884.52	23988
884.646	23882
884.772	23836
884.897	23809
885.023	23977
885.148	24068
885.274	23885
885.399	23866
885.524	23680
885.65	23748
885.775	23566
885.9	23471
886.025	23509
886.15	23387
886.275	23170
886.4	22858
886.525	22965
886.65	22793
886.775	22763
886.9	22892
887.025	22949
887.149	22641
887.274	22318
887.399	22417
887.523	22363
887.648	22082
887.773	22192
887.897	22120
888.021	22006
888.146	21983
888.27	22112
888.395	21987
888.519	22021
888.643	21846
888.767	21972
888.891	21625
889.015	21701
889.139	21686
889.263	21523
889.387	21663
889.511	21663
889.635	21610
889.759	21492
889.883	21226
890.006	21492
890.13	21382
890.254	21294
890.377	21275
890.501	21138
890.624	21112
890.748	21142
890.871	20960
890.995	20800
891.118	20670
891.241	20914
891.364	20769
891.488	20872
891.611	20609
891.734	20731
891.857	20663
891.98	20716
892.103	20693
892.226	20640
892.349	20583
892.471	20438
892.594	20667
892.717	20480
892.839	20423
892.962	20457
893.085	20518
893.207	20427
893.33	20336
893.452	20256
893.575	20526
893.697	20252
893.819	20461
893.941	20549
894.064	20374
894.186	20187
894.308	20221
894.43	20385
894.552	20290
894.674	20298
894.796	19986
894.918	20119
895.04	20161
895.161	20149
895.283	20187
895.405	20058
895.526	20096
895.648	20039
895.769	20088
895.891	20138
896.012	20081
896.134	20206
896.255	20111
896.376	20054
896.498	20161
896.619	19997
896.74	20142
896.861	20153
896.982	20412
897.103	20552
897.224	20237
897.345	20396
897.466	20130
897.587	20134
897.708	20415
897.828	20237
897.949	20130
898.07	20012
898.19	20054
898.311	20275
898.431	20122
898.552	20206
898.672	20180
898.792	20130
898.913	20084
899.033	19967
899.153	19887
899.273	19860
899.393	19833
899.513	19799
899.633	19868
899.753	19864
899.873	19845
899.993	19784
900.113	19715
900.232	19890
900.352	19879
900.472	19632
900.591	19567
900.711	19605
900.83	19563
900.95	19662
901.069	19689
901.189	19609
901.308	19270
901.427	19179
901.546	19274
901.665	19278
901.784	19301
901.904	19095
902.023	18962
902.141	18703
902.26	18700
902.379	18776
902.498	18627
902.617	18707
902.735	18608
902.854	18578
902.973	18608
903.091	18277
903.21	18266
903.328	18239
903.446	18178
903.565	18163
903.683	18167
903.801	18072
903.919	18136
904.038	18057
904.156	17783
904.274	17954
904.392	17805
904.51	17828
904.627	17874
904.745	17878
904.863	17813
904.981	17581
905.098	17429
905.216	17493
905.334	17627
905.451	17505
905.569	17467
905.686	17596
905.803	17512
905.921	17216
906.038	17337
906.155	17326
906.272	17151
906.389	17166
906.506	16995
906.623	16942
906.74	17029
906.857	16984
906.974	16946
907.091	17121
907.208	16991
907.324	17064
907.441	16923
907.557	16771
907.674	16793
907.79	16641
907.907	16683
908.023	16767
908.139	16740
908.256	16622
908.372	16577
908.488	16573
908.604	16481
908.72	16424
908.836	16424
908.952	16363
909.068	16386
909.184	16546
909.3	16344
909.415	16371
909.531	16360
909.647	16078
909.762	16097
909.878	16063
909.993	16101
910.108	15968
910.224	16040
910.339	16029
910.454	15975
910.57	15876
910.685	15903
910.8	16032
910.915	15953
911.03	15800
911.145	15800
911.259	15743
911.374	15739
911.489	15591
911.604	15507
911.718	15584
911.833	15397
911.947	15382
912.062	15268
912.176	15439
912.291	15458
912.405	15416
912.519	15549
912.633	15519
912.748	15469
912.862	15351
912.976	15173
913.09	15226
913.204	15283
913.318	15249
913.431	15370
913.545	15348
913.659	15325
913.772	15142
913.886	15218
914	15066
914.113	15176
914.226	15100
914.34	15157
914.453	14883
914.566	15146
914.68	15036
914.793	15081
914.906	14743
915.019	14735
915.132	14636
915.245	14667
915.358	14773
915.47	14811
915.583	14708
915.696	14826
915.809	14819
915.921	14807
916.034	14758
916.146	14648
916.259	14686
916.371	14720
916.483	14648
916.595	14621
916.708	14625
916.82	14629
916.932	14552
917.044	14503
917.156	14549
917.268	14370
917.38	14454
917.491	14385
917.603	14412
917.715	14469
917.826	14533
917.938	14313
918.049	14168
918.161	14286
918.272	14457
918.384	14415
918.495	14324
918.606	14157
918.717	14008
918.828	14115
918.939	14130
919.05	14031
919.161	13982
919.272	13864
919.383	13902
919.494	14035
919.604	14252
919.715	14111
919.826	13940
919.936	13963
920.047	14092
920.157	14046
920.267	14221
920.378	14005
920.488	14005
920.598	14206
920.708	14343
920.818	14240
920.928	14164
921.038	14252
921.148	14252
921.258	13959
921.368	13887
921.477	13700
921.587	13738
921.697	13601
921.806	13757
921.916	13628
922.025	13422
922.134	13362
922.244	13384
922.353	13324
922.462	13228
922.571	13183
922.68	13034
922.789	12996
922.898	13095
923.007	12970
923.116	13050
923.224	13004
923.333	13000
923.442	12867
923.55	12852
923.659	12890
923.767	12913
923.876	12798
923.984	12859
924.092	12688
924.201	12806
924.309	12817
924.417	12795
924.525	12654
924.633	12662
924.741	13556
924.849	12601
924.956	12669
925.064	12547
925.172	12346
925.279	12536
925.387	12604
925.494	12528
925.602	12585
925.709	12570
925.816	12361
925.924	12418
926.031	12490
926.138	12437
926.245	12464
926.352	12338
926.459	12483
926.566	12471
926.673	12399
926.779	12186
926.886	12209
926.993	12144
927.099	12091
927.206	11920
927.312	12038
927.419	12076
927.525	12060
927.631	12057
927.737	11992
927.843	11874
927.95	11741
928.056	11920
928.162	11863
928.267	11916
928.373	12479
928.479	11931
928.585	11809
928.69	11863
928.796	11893
928.901	11630
929.007	11547
929.112	11688
929.218	11680
929.323	11638
929.428	11566
929.533	11718
929.638	11581
929.743	11562
929.848	11604
929.953	11471
930.058	11417
930.163	11280
930.267	11273
930.372	11410
930.477	11185
930.581	11490
930.685	11311
930.79	11212
930.894	11296
930.998	11155
931.103	11227
931.207	10919
931.311	10843
931.415	10744
931.519	10577
931.623	10630
