Data from test_V78500241_2615.txt Node
Date: Fri Mar 25 14:51:55 CST 2022
User: usil
Spectrometer: V785-0024
Trigger mode: 0
Integration Time (sec): 4.000000E-1
Scans to average: 1
Nonlinearity correction enabled: false
Boxcar width: 0
Storing dark spectrum: false
XAxis mode: Wavelengths
Number of Pixels in Spectrum: 1024
>>>>>Begin Spectral Data<<<<<
801.071	22048
801.214	21903
801.356	21641
801.499	21507
801.641	21477
801.783	21408
801.926	21424
802.068	21416
802.211	21165
802.353	21211
802.496	20948
802.638	20834
802.78	20853
802.923	20735
803.065	20689
803.208	20781
803.35	20716
803.492	20788
803.635	20792
803.777	20731
803.919	20762
804.061	21066
804.204	20689
804.346	20625
804.488	20705
804.63	20655
804.773	20549
804.915	20632
805.057	20800
805.199	20549
805.341	20735
805.483	20807
805.626	20731
805.768	20598
805.91	20564
806.052	20613
806.194	20461
806.336	20743
806.478	20571
806.62	20640
806.762	20617
806.904	20750
807.046	21017
807.188	21085
807.33	20914
807.472	21070
807.614	20838
807.756	20933
807.898	20746
808.04	20731
808.182	20705
808.324	20823
808.465	20720
808.607	20933
808.749	20979
808.891	21077
809.033	21207
809.174	21192
809.316	20960
809.458	21051
809.6	20906
809.741	21020
809.883	21093
810.025	21283
810.166	21150
810.308	21192
810.45	21119
810.591	21070
810.733	20921
810.875	20750
811.016	20648
811.158	20625
811.299	20861
811.441	20868
811.582	20910
811.724	20773
811.865	20651
812.007	20708
812.148	20777
812.29	20712
812.431	20811
812.573	21032
812.714	21047
812.855	21298
812.997	21450
813.138	21507
813.279	21203
813.421	21150
813.562	21249
813.703	21039
813.845	20941
813.986	20552
814.127	20476
814.268	20503
814.41	20419
814.551	20393
814.692	20404
814.833	20305
814.974	20183
815.115	20275
815.256	20263
815.397	20218
815.539	20130
815.68	20062
815.821	19951
815.962	20138
816.103	20054
816.244	19963
816.385	19799
816.526	19765
816.666	19643
816.807	19495
816.948	19403
817.089	19521
817.23	19468
817.371	19514
817.512	19472
817.653	19392
817.793	19293
817.934	19350
818.075	19510
818.216	19415
818.356	19388
818.497	19240
818.638	19190
818.778	19110
818.919	19137
819.06	19263
819.2	19232
819.341	19244
819.481	19460
819.622	19483
819.762	19655
819.903	19480
820.043	19590
820.184	19487
820.324	19362
820.465	19445
820.605	19339
820.746	19445
820.886	19156
821.026	19266
821.167	19339
821.307	19457
821.447	19285
821.588	19266
821.728	19118
821.868	18939
822.008	18852
822.149	18711
822.289	18795
822.429	18566
822.569	18486
822.709	18494
822.849	18376
822.99	18304
823.13	18300
823.27	18285
823.41	18106
823.55	18053
823.69	18178
823.83	18197
823.97	18045
824.11	17920
824.25	17897
824.389	17863
824.529	17999
824.669	17882
824.809	17916
824.949	18038
825.089	17874
825.228	17843
825.368	17665
825.508	17687
825.648	17726
825.787	17764
825.927	17726
826.067	17634
826.206	17680
826.346	17729
826.485	17722
826.625	17570
826.765	17790
826.904	17726
827.044	17448
827.183	17455
827.323	17429
827.462	17410
827.601	17402
827.741	17307
827.88	17402
828.02	17246
828.159	17387
828.298	17334
828.437	17391
828.577	17440
828.716	17467
828.855	17360
828.994	17143
829.134	17174
829.273	17121
829.412	17147
829.551	17003
829.69	17113
829.829	17079
829.968	17185
830.107	17056
830.246	17067
830.385	17128
830.524	17029
830.663	16942
830.802	16862
830.941	16713
831.08	16809
831.219	16828
831.357	16759
831.496	17006
831.635	16717
831.774	16740
831.913	16656
832.051	16497
832.19	16508
832.329	16573
832.467	16413
832.606	16462
832.744	16485
832.883	16386
833.022	16390
833.16	16535
833.299	16402
833.437	16478
833.576	16470
833.714	16474
833.852	16611
833.991	16554
834.129	16493
834.267	16546
834.406	16519
834.544	16558
834.682	16447
834.821	16417
834.959	16634
835.097	16424
835.235	16615
835.373	16565
835.511	16421
835.65	16489
835.788	16436
835.926	16348
836.064	16306
836.202	16337
836.34	16443
836.478	16363
836.615	16386
836.753	16371
836.891	16466
837.029	16451
837.167	16405
837.305	16432
837.443	16382
837.58	16204
837.718	16314
837.856	16367
837.993	16276
838.131	16337
838.269	16112
838.406	16325
838.544	16090
838.681	15876
838.819	16002
838.956	15899
839.094	15804
839.231	15842
839.369	16036
839.506	16226
839.643	16067
839.781	15899
839.918	15793
840.055	15812
840.193	15766
840.33	15759
840.467	15774
840.604	15861
840.742	16166
840.879	15743
841.016	15793
841.153	15800
841.29	15960
841.427	15857
841.564	15945
841.701	15937
841.838	15842
841.975	15743
842.112	15823
842.249	15637
842.385	15618
842.522	15869
842.659	15713
842.796	15709
842.933	15713
843.069	15614
843.206	15610
843.343	15625
843.479	15701
843.616	15660
843.752	15389
843.889	15469
844.025	15530
844.162	15386
844.298	15568
844.435	15431
844.571	15348
844.708	15458
844.844	15538
844.98	15500
845.117	15492
845.253	15420
845.389	15329
845.525	15332
845.661	15294
845.798	15275
845.934	15211
846.07	15036
846.206	15291
846.342	15302
846.478	15138
846.614	15085
846.75	14944
846.886	15013
847.022	14975
847.158	14998
847.294	15116
847.429	15108
847.565	14921
847.701	15218
847.837	14670
847.972	14765
848.108	14781
848.244	14811
848.379	14575
848.515	14594
848.65	14590
848.786	14610
848.921	14602
849.057	14621
849.192	14754
849.328	14636
849.463	14644
849.598	14526
849.734	14549
849.869	14507
850.004	14313
850.14	14381
850.275	14332
850.41	14290
850.545	14309
850.68	14362
850.815	14404
850.95	14370
851.085	14473
851.22	14427
851.355	14294
851.49	14336
851.625	14271
851.76	14366
851.895	14229
852.03	14176
852.165	14286
852.299	14488
852.434	14404
852.569	14381
852.703	14324
852.838	14446
852.973	14415
853.107	14450
853.242	14332
853.376	14191
853.511	14081
853.645	14100
853.78	14385
853.914	14244
854.048	14115
854.183	14237
854.317	14210
854.451	14355
854.585	14263
854.72	14210
854.854	14324
854.988	14256
855.122	14210
855.256	14020
855.39	14161
855.524	14328
855.658	14237
855.792	14301
855.926	14202
856.06	14275
856.194	14336
856.327	14218
856.461	14206
856.595	14142
856.729	14153
856.862	14358
856.996	14275
857.13	14381
857.263	14324
857.397	14374
857.53	14244
857.664	14381
857.797	14309
857.931	14450
858.064	14199
858.197	14377
858.331	14282
858.464	14176
858.597	14157
858.731	14202
858.864	14278
858.997	14267
859.13	14206
859.263	14309
859.396	14347
859.529	14180
859.662	14214
859.795	14168
859.928	14290
860.061	14393
860.194	14408
860.327	14176
860.46	14301
860.592	14275
860.725	14244
860.858	14358
860.99	14244
861.123	14176
861.256	14183
861.388	14263
861.521	14849
861.653	14180
861.786	14016
861.918	14100
862.05	14134
862.183	14252
862.315	14183
862.447	14275
862.58	14229
862.712	13944
862.844	13928
862.976	14142
863.108	14024
863.24	14454
863.372	13860
863.504	13947
863.636	13974
863.768	14031
863.9	14100
864.032	13921
864.164	13947
864.296	13993
864.428	13989
864.559	14172
864.691	14065
864.823	14031
864.954	14039
865.086	14039
865.217	14008
865.349	13856
865.48	13959
865.612	13955
865.743	14164
865.875	13989
866.006	13909
866.137	13986
866.269	14012
866.4	14005
866.531	13887
866.662	13928
866.793	13944
866.924	13932
867.055	14012
867.186	13959
867.317	13970
867.448	13871
867.579	13986
867.71	13932
867.841	13856
867.972	14008
868.103	13970
868.233	13970
868.364	14005
868.495	14062
868.625	14240
868.756	14309
868.886	14115
869.017	14168
869.147	14248
869.278	14358
869.408	14168
869.539	14294
869.669	14278
869.799	14309
869.929	14301
870.06	14294
870.19	14556
870.32	14480
870.45	14560
870.58	14739
870.71	14746
870.84	14727
870.97	14518
871.1	14705
871.23	14750
871.36	14765
871.489	14674
871.619	14796
871.749	14826
871.879	14876
872.008	14918
872.138	14876
872.267	14849
872.397	14720
872.526	14743
872.656	14663
872.785	14705
872.915	14864
873.044	14956
873.173	14811
873.303	14883
873.432	14861
873.561	14963
873.69	14921
873.819	14948
873.948	14914
874.077	14842
874.206	14910
874.335	14914
874.464	15017
874.593	15184
874.722	15036
874.851	15237
874.979	15348
875.108	15176
875.237	15169
875.365	15131
875.494	15203
875.623	15268
875.751	15184
875.88	15176
876.008	15389
876.136	15329
876.265	15549
876.393	15789
876.521	15667
876.65	15690
876.778	15637
876.906	15557
877.034	15591
877.162	15667
877.29	15534
877.418	15633
877.546	15637
877.674	15564
877.802	15641
877.93	15660
878.058	15625
878.185	15534
878.313	15648
878.441	15515
878.568	15458
878.696	15523
878.824	15561
878.951	15595
879.079	15861
879.206	15945
879.333	15778
879.461	15652
879.588	15743
879.715	15808
879.842	15968
879.97	15656
880.097	15420
880.224	15469
880.351	15515
880.478	15561
880.605	15420
880.732	15545
880.859	15690
880.986	15447
881.112	15488
881.239	15302
881.366	15157
881.493	15138
881.619	15192
881.746	15104
881.872	15089
881.999	15142
882.125	15108
882.252	15207
882.378	15173
882.505	15241
882.631	15100
882.757	14963
882.883	14963
883.01	15024
883.136	14887
883.262	14800
883.388	14773
883.514	14994
883.64	15047
883.766	14857
883.892	14834
884.018	14811
884.143	14925
884.269	15009
884.395	14705
884.52	14727
884.646	14674
884.772	14621
884.897	14473
885.023	14632
885.148	14834
885.274	14705
885.399	14724
885.524	14674
885.65	14655
885.775	14705
885.9	14693
886.025	14735
886.15	14724
886.275	14632
886.4	14606
886.525	14610
886.65	14651
886.775	14625
886.9	14727
887.025	14880
887.149	14625
887.274	14446
887.399	14484
887.523	14412
887.648	14450
887.773	14290
887.897	14564
888.021	14488
888.146	14332
888.27	14454
888.395	14670
888.519	14583
888.643	14602
888.767	14526
888.891	14351
889.015	14339
889.139	14431
889.263	14343
889.387	14454
889.511	14461
889.635	14454
889.759	14294
889.883	14305
890.006	14351
890.13	14415
890.254	14343
890.377	14301
890.501	14145
890.624	14164
890.748	14210
890.871	14039
890.995	14035
891.118	13982
891.241	14111
891.364	14100
891.488	14142
891.611	14039
891.734	13982
891.857	14081
891.98	14054
892.103	14199
892.226	14123
892.349	14092
892.471	13917
892.594	13959
892.717	14084
892.839	14024
892.962	14123
893.085	14111
893.207	13978
893.33	13936
893.452	13830
893.575	14062
893.697	14088
893.819	14248
893.941	14221
894.064	14157
894.186	14024
894.308	13978
894.43	14168
894.552	14225
894.674	14202
894.796	14027
894.918	14142
895.04	14084
895.161	14183
895.283	14145
895.405	14153
895.526	14115
895.648	14130
895.769	14081
895.891	14263
896.012	14275
896.134	14248
896.255	14214
896.376	14142
896.498	14313
896.619	14237
896.74	14225
896.861	14320
896.982	14583
897.103	14610
897.224	14564
897.345	14419
897.466	14419
897.587	14465
897.708	14594
897.828	14552
897.949	14526
898.07	14347
898.19	14434
898.311	14727
898.431	14461
898.552	14537
898.672	14613
898.792	14701
898.913	14697
899.033	14560
899.153	14393
899.273	14244
899.393	14461
899.513	14488
899.633	14393
899.753	14415
899.873	14370
899.993	14473
900.113	14393
900.232	14404
900.352	14419
900.472	14290
900.591	14282
900.711	14256
900.83	14252
900.95	14358
901.069	14408
901.189	14195
901.308	14027
901.427	14016
901.546	13887
901.665	14138
901.784	13902
901.904	13860
902.023	13769
902.141	13639
902.26	13495
902.379	13613
902.498	13628
902.617	13457
902.735	13594
902.854	13601
902.973	13445
903.091	13282
903.21	13255
903.328	13304
903.446	13175
903.565	13080
903.683	13095
903.801	13012
903.919	13137
904.038	13053
904.156	12989
904.274	13023
904.392	12878
904.51	12863
904.627	12932
904.745	12966
904.863	12970
904.981	12646
905.098	12601
905.216	12563
905.334	12646
905.451	12631
905.569	12623
905.686	12684
905.803	12711
905.921	12456
906.038	12467
906.155	12426
906.272	12319
906.389	12388
906.506	12281
906.623	12205
906.74	12136
906.857	12079
906.974	12171
907.091	12235
907.208	12353
907.324	12224
907.441	12155
907.557	11988
907.674	11958
907.79	11946
907.907	11950
908.023	11988
908.139	11977
908.256	11916
908.372	11973
908.488	11764
908.604	11756
908.72	11836
908.836	11722
908.952	11703
909.068	11722
909.184	11790
909.3	11798
909.415	11805
909.531	11779
909.647	11585
909.762	11433
909.878	11463
909.993	11463
910.108	11535
910.224	11516
910.339	11566
910.454	11429
910.57	11448
910.685	11277
910.8	11577
910.915	11566
911.03	11349
911.145	11197
911.259	11178
911.374	11223
911.489	11083
911.604	11041
911.718	10976
911.833	11014
911.947	10778
912.062	10809
912.176	10949
912.291	10858
912.405	10938
912.519	11102
912.633	11170
912.748	11014
912.862	11075
912.976	10896
913.09	10687
913.204	10847
913.318	10733
913.431	10953
913.545	10877
913.659	10980
913.772	10820
913.886	10691
914	10725
914.113	10805
914.226	10771
914.34	10782
914.453	10637
914.566	10805
914.68	10668
914.793	10679
914.906	10440
915.019	10428
915.132	10405
915.245	10485
915.358	10493
915.47	10584
915.583	10455
915.696	10538
915.809	10611
915.921	10634
916.034	10432
916.146	10363
916.259	10409
916.371	10508
916.483	10470
916.595	10348
916.708	10398
916.82	10375
916.932	10497
917.044	10367
917.156	10333
917.268	10265
917.38	10356
917.491	10196
917.603	10287
917.715	10405
917.826	10481
917.938	10272
918.049	10211
918.161	10314
918.272	10398
918.384	10398
918.495	10207
918.606	10112
918.717	10082
918.828	10185
918.939	10215
919.05	10017
919.161	10124
919.272	9968
919.383	10086
919.494	10185
919.604	10375
919.715	10143
919.826	10135
919.936	10150
920.047	10162
920.157	10177
920.267	10379
920.378	10185
920.488	10207
920.598	10443
920.708	10493
920.818	10344
920.928	10356
921.038	10535
921.148	10538
921.258	10219
921.368	10135
921.477	10124
921.587	10021
921.697	9949
921.806	10082
921.916	9983
922.025	9724
922.134	9743
922.244	9694
922.353	9751
922.462	9614
922.571	9542
922.68	9454
922.789	9412
922.898	9416
923.007	9393
923.116	9428
923.224	9401
923.333	9462
923.442	9382
923.55	9294
923.659	9279
923.767	9348
923.876	9253
923.984	9367
924.092	9241
924.201	9298
924.309	9348
924.417	9321
924.525	9253
924.633	9241
924.741	9975
924.849	9123
924.956	9249
925.064	9028
925.172	9017
925.279	9020
925.387	9093
925.494	9066
925.602	9176
925.709	9173
925.816	9051
925.924	9146
926.031	9169
926.138	9097
926.245	9173
926.352	9036
926.459	9207
926.566	9108
926.673	9036
926.779	8952
926.886	8971
926.993	8872
927.099	8762
927.206	8815
927.312	8762
927.419	8883
927.525	8834
927.631	8910
927.737	8804
927.843	8708
927.95	8549
928.056	8613
928.162	8724
928.267	8766
928.373	9408
928.479	8796
928.585	8568
928.69	8667
928.796	8659
928.901	8610
929.007	8454
929.112	8621
929.218	8610
929.323	8568
929.428	8511
929.533	8663
929.638	8427
929.743	8526
929.848	8545
929.953	8465
930.058	8404
930.163	8290
930.267	8294
930.372	8446
930.477	8355
930.581	8587
930.685	8366
930.79	8252
930.894	8256
930.998	8275
931.103	8317
931.207	8001
931.311	8035
931.415	7913
931.519	7772
931.623	7776
