Data from test_V78500241_3402.txt Node
Date: Fri Mar 25 14:57:24 CST 2022
User: usil
Spectrometer: V785-0024
Trigger mode: 0
Integration Time (sec): 4.000000E-1
Scans to average: 1
Nonlinearity correction enabled: false
Boxcar width: 0
Storing dark spectrum: false
XAxis mode: Wavelengths
Number of Pixels in Spectrum: 1024
>>>>>Begin Spectral Data<<<<<
801.071	21911
801.214	21972
801.356	21534
801.499	21553
801.641	21408
801.783	21283
801.926	21313
802.068	21256
802.211	21222
802.353	21104
802.496	20937
802.638	20785
802.78	20785
802.923	20758
803.065	20777
803.208	20613
803.35	20621
803.492	20712
803.635	20819
803.777	20659
803.919	20697
804.061	21032
804.204	20705
804.346	20552
804.488	20450
804.63	20636
804.773	20503
804.915	20530
805.057	20587
805.199	20503
805.341	20568
805.483	20651
805.626	20629
805.768	20511
805.91	20507
806.052	20579
806.194	20530
806.336	20644
806.478	20537
806.62	20495
806.762	20621
806.904	20670
807.046	20868
807.188	20845
807.33	20849
807.472	20891
807.614	20815
807.756	20765
807.898	20640
808.04	20511
808.182	20507
808.324	20697
808.465	20564
808.607	20823
808.749	20880
808.891	20910
809.033	21127
809.174	20944
809.316	20861
809.458	20849
809.6	20910
809.741	20921
809.883	20883
810.025	21036
810.166	20998
810.308	21005
810.45	20883
810.591	20906
810.733	20708
810.875	20667
811.016	20629
811.158	20480
811.299	20640
811.441	20716
811.582	20853
811.724	20636
811.865	20511
812.007	20621
812.148	20708
812.29	20815
812.431	20800
812.573	20952
812.714	20982
812.855	21173
812.997	21264
813.138	21447
813.279	21222
813.421	21169
813.562	20982
813.703	20921
813.845	20800
813.986	20526
814.127	20404
814.268	20290
814.41	20233
814.551	20050
814.692	20206
814.833	20134
814.974	20088
815.115	20081
815.256	20058
815.397	20073
815.539	19921
815.68	19974
815.821	19860
815.962	19890
816.103	19860
816.244	19780
816.385	19594
816.526	19586
816.666	19544
816.807	19263
816.948	19377
817.089	19400
817.23	19350
817.371	19320
817.512	19308
817.653	19331
817.793	19255
817.934	19285
818.075	19365
818.216	19274
818.356	19259
818.497	19259
818.638	18954
818.778	18947
818.919	18954
819.06	19069
819.2	19129
819.341	19091
819.481	19225
819.622	19301
819.762	19491
819.903	19400
820.043	19377
820.184	19312
820.324	19339
820.465	19236
820.605	19225
820.746	19289
820.886	19126
821.026	19266
821.167	19160
821.307	19312
821.447	19247
821.588	19194
821.728	19034
821.868	18897
822.008	18768
822.149	18749
822.289	18677
822.429	18441
822.569	18460
822.709	18311
822.849	18353
822.99	18243
823.13	18110
823.27	18167
823.41	18041
823.55	17946
823.69	18022
823.83	17923
823.97	18019
824.11	17824
824.25	17733
824.389	17821
824.529	17901
824.669	17866
824.809	17817
824.949	17775
825.089	17855
825.228	17775
825.368	17722
825.508	17512
825.648	17634
825.787	17672
825.927	17573
826.067	17577
826.206	17482
826.346	17577
826.485	17505
826.625	17463
826.765	17726
826.904	17630
827.044	17284
827.183	17277
827.323	17204
827.462	17265
827.601	17292
827.741	17299
827.88	17254
828.02	17212
828.159	17204
828.298	17395
828.437	17307
828.577	17220
828.716	17368
828.855	17147
828.994	17102
829.134	17025
829.273	17109
829.412	17010
829.551	16896
829.69	16908
829.829	17018
829.968	17121
830.107	17102
830.246	17010
830.385	16987
830.524	16927
830.663	16820
830.802	16729
830.941	16683
831.08	16729
831.219	16698
831.357	16713
831.496	16850
831.635	16713
831.774	16561
831.913	16481
832.051	16481
832.19	16538
832.329	16481
832.467	16348
832.606	16295
832.744	16329
832.883	16360
833.022	16325
833.16	16363
833.299	16363
833.437	16371
833.576	16402
833.714	16424
833.852	16291
833.991	16470
834.129	16390
834.267	16428
834.406	16447
834.544	16455
834.682	16360
834.821	16432
834.959	16580
835.097	16363
835.235	16546
835.373	16394
835.511	16504
835.65	16413
835.788	16276
835.926	16154
836.064	16276
836.202	16200
836.34	16291
836.478	16363
836.615	16344
836.753	16386
836.891	16398
837.029	16287
837.167	16280
837.305	16329
837.443	16173
837.58	16192
837.718	16261
837.856	16177
837.993	16177
838.131	16261
838.269	16139
838.406	16284
838.544	16074
838.681	15949
838.819	15876
838.956	15892
839.094	15728
839.231	15842
839.369	15812
839.506	16158
839.643	15975
839.781	15759
839.918	15648
840.055	15743
840.193	15854
840.33	15755
840.467	15770
840.604	15835
840.742	16086
840.879	15473
841.016	15637
841.153	15686
841.29	15903
841.427	15766
841.564	15770
841.701	15720
841.838	15679
841.975	15625
842.112	15614
842.249	15496
842.385	15462
842.522	15736
842.659	15663
842.796	15523
842.933	15466
843.069	15466
843.206	15462
843.343	15690
843.479	15625
843.616	15561
843.752	15313
843.889	15283
844.025	15481
844.162	15272
844.298	15412
844.435	15389
844.571	15348
844.708	15382
844.844	15447
844.98	15439
845.117	15389
845.253	15199
845.389	15329
845.525	15329
845.661	15199
845.798	15039
845.934	15188
846.07	15077
846.206	15264
846.342	15241
846.478	15154
846.614	14891
846.75	14887
846.886	14952
847.022	14982
847.158	14944
847.294	14887
847.429	14952
847.565	14937
847.701	15100
847.837	14697
847.972	14636
848.108	14785
848.244	14739
848.379	14678
848.515	14522
848.65	14511
848.786	14393
848.921	14431
849.057	14594
849.192	14606
849.328	14503
849.463	14495
849.598	14434
849.734	14446
849.869	14351
850.004	14278
850.14	14218
850.275	14271
850.41	14157
850.545	14233
850.68	14168
850.815	14301
850.95	14202
851.085	14377
851.22	14396
851.355	14191
851.49	14218
851.625	14195
851.76	14180
851.895	14119
852.03	14092
852.165	14229
852.299	14263
852.434	14328
852.569	14347
852.703	14313
852.838	14377
852.973	14427
853.107	14305
853.242	14252
853.376	14168
853.511	14065
853.645	14077
853.78	14244
853.914	14088
854.048	14126
854.183	14084
854.317	14153
854.451	14298
854.585	14176
854.72	14103
854.854	14286
854.988	14138
855.122	14107
855.256	13925
855.39	14088
855.524	14298
855.658	14115
855.792	14107
855.926	14180
856.06	14256
856.194	14248
856.327	14142
856.461	14111
856.595	13982
856.729	14062
856.862	14214
856.996	14176
857.13	14149
857.263	14248
857.397	14240
857.53	14084
857.664	14187
857.797	14221
857.931	14183
858.064	14161
858.197	14218
858.331	14115
858.464	14050
858.597	14119
858.731	14031
858.864	14100
858.997	14183
859.13	14187
859.263	14263
859.396	14142
859.529	14103
859.662	14069
859.795	14077
859.928	14157
860.061	14191
860.194	14309
860.327	14130
860.46	14111
860.592	14233
860.725	14259
860.858	14263
860.99	14107
861.123	13974
861.256	14088
861.388	14164
861.521	14823
861.653	13997
861.786	13967
861.918	13928
862.05	14062
862.183	14153
862.315	14043
862.447	14100
862.58	14073
862.712	13864
862.844	13803
862.976	14005
863.108	13852
863.24	14347
863.372	13826
863.504	13951
863.636	13925
863.768	13997
863.9	13856
864.032	13784
864.164	13833
864.296	13993
864.428	13986
864.559	13997
864.691	13963
864.823	13993
864.954	13982
865.086	13928
865.217	13894
865.349	13776
865.48	13940
865.612	13883
865.743	14046
865.875	13909
866.006	13818
866.137	13887
866.269	13791
866.4	13894
866.531	13830
866.662	13712
866.793	13826
866.924	13822
867.055	13830
867.186	13947
867.317	13822
867.448	13791
867.579	13890
867.71	13841
867.841	13811
867.972	13894
868.103	13951
868.233	13906
868.364	13902
868.495	13974
868.625	14092
868.756	14202
868.886	14164
869.017	14077
869.147	14259
869.278	14324
869.408	14214
869.539	14134
869.669	14244
869.799	14149
869.929	14305
870.06	14263
870.19	14419
870.32	14332
870.45	14492
870.58	14537
870.71	14606
870.84	14659
870.97	14495
871.1	14511
871.23	14815
871.36	14720
871.489	14716
871.619	14735
871.749	14781
871.879	14807
872.008	14902
872.138	14781
872.267	14762
872.397	14564
872.526	14602
872.656	14587
872.785	14651
872.915	14781
873.044	14857
873.173	14781
873.303	14796
873.432	14944
873.561	14823
873.69	14807
873.819	14792
873.948	14891
874.077	14686
874.206	14739
874.335	14823
874.464	14960
874.593	15123
874.722	15009
874.851	15077
874.979	15116
875.108	15180
875.237	14990
875.365	15036
875.494	15157
875.623	15097
875.751	15055
875.88	15173
876.008	15332
876.136	15306
876.265	15553
876.393	15576
876.521	15629
876.65	15675
876.778	15595
876.906	15496
877.034	15454
877.162	15504
877.29	15488
877.418	15530
877.546	15580
877.674	15424
877.802	15523
877.93	15606
878.058	15466
878.185	15481
878.313	15439
878.441	15599
878.568	15325
878.696	15443
878.824	15633
878.951	15599
879.079	15709
879.206	15846
879.333	15759
879.461	15584
879.588	15629
879.715	15656
879.842	15823
879.97	15606
880.097	15370
880.224	15351
880.351	15401
880.478	15424
880.605	15374
880.732	15450
880.859	15595
880.986	15412
881.112	15553
881.239	15313
881.366	15116
881.493	15077
881.619	15055
881.746	15001
881.872	15074
881.999	14948
882.125	14933
882.252	15135
882.378	15066
882.505	15154
882.631	14975
882.757	14937
882.883	14876
883.01	14918
883.136	14777
883.262	14746
883.388	14689
883.514	14864
883.64	15043
883.766	14830
883.892	14625
884.018	14701
884.143	14842
884.269	14902
884.395	14594
884.52	14571
884.646	14518
884.772	14442
884.897	14473
885.023	14549
885.148	14560
885.274	14720
885.399	14579
885.524	14507
885.65	14610
885.775	14583
885.9	14583
886.025	14629
886.15	14625
886.275	14423
886.4	14377
886.525	14514
886.65	14499
886.775	14419
886.9	14667
887.025	14769
887.149	14522
887.274	14457
887.399	14343
887.523	14393
887.648	14256
887.773	14248
887.897	14465
888.021	14450
888.146	14355
888.27	14476
888.395	14564
888.519	14476
888.643	14503
888.767	14480
888.891	14328
889.015	14164
889.139	14225
889.263	14244
889.387	14423
889.511	14389
889.635	14408
889.759	14252
889.883	14221
890.006	14263
890.13	14511
890.254	14214
890.377	14244
890.501	14111
890.624	14084
890.748	14153
890.871	13925
890.995	13803
891.118	13944
891.241	13982
891.364	13978
891.488	14092
891.611	13993
891.734	14001
891.857	13951
891.98	14069
892.103	14062
892.226	13997
892.349	13978
892.471	13784
892.594	13909
892.717	13951
892.839	13993
892.962	14024
893.085	14001
893.207	14005
893.33	13860
893.452	13951
893.575	14069
893.697	13841
893.819	14191
893.941	14237
894.064	14145
894.186	13974
894.308	13902
894.43	14138
894.552	14221
894.674	14199
894.796	14001
894.918	14046
895.04	13997
895.161	14180
895.283	14142
895.405	14031
895.526	14024
895.648	14084
895.769	14157
895.891	14126
896.012	14138
896.134	14123
896.255	14161
896.376	14138
896.498	14096
896.619	14176
896.74	14081
896.861	14180
896.982	14488
897.103	14670
897.224	14377
897.345	14412
897.466	14248
897.587	14457
897.708	14492
897.828	14469
897.949	14389
898.07	14244
898.19	14351
898.311	14629
898.431	14480
898.552	14446
898.672	14545
898.792	14636
898.913	14461
899.033	14374
899.153	14328
899.273	14252
899.393	14389
899.513	14446
899.633	14355
899.753	14347
899.873	14469
899.993	14389
900.113	14351
900.232	14362
900.352	14214
900.472	14263
900.591	14176
900.711	14252
900.83	14149
900.95	14324
901.069	14267
901.189	14176
901.308	13967
901.427	13845
901.546	13849
901.665	13898
901.784	13925
901.904	13715
902.023	13670
902.141	13544
902.26	13476
902.379	13529
902.498	13407
902.617	13453
902.735	13468
902.854	13453
902.973	13327
903.091	13202
903.21	13225
903.328	13244
903.446	13137
903.565	13042
903.683	13129
903.801	12989
903.919	13088
904.038	12920
904.156	12928
904.274	12947
904.392	12859
904.51	12795
904.627	12882
904.745	12966
904.863	12935
904.981	12722
905.098	12456
905.216	12490
905.334	12570
905.451	12631
905.569	12532
905.686	12627
905.803	12528
905.921	12277
906.038	12498
906.155	12361
906.272	12319
906.389	12232
906.506	12167
906.623	12140
906.74	12098
906.857	11977
906.974	12015
907.091	12175
907.208	12258
907.324	12133
907.441	12019
907.557	11920
907.674	11878
907.79	11809
907.907	11897
908.023	11939
908.139	11920
908.256	11840
908.372	11832
908.488	11821
908.604	11672
908.72	11596
908.836	11634
908.952	11676
909.068	11661
909.184	11828
909.3	11672
909.415	11737
909.531	11646
909.647	11444
909.762	11471
909.878	11296
909.993	11501
910.108	11410
910.224	11353
910.339	11364
910.454	11330
910.57	11280
910.685	11185
910.8	11417
910.915	11395
911.03	11296
911.145	11140
911.259	11067
911.374	11090
911.489	11037
911.604	11083
911.718	10938
911.833	10828
911.947	10759
912.062	10778
912.176	10908
912.291	10885
912.405	10850
912.519	11117
912.633	11121
912.748	10999
912.862	10915
912.976	10824
913.09	10691
913.204	10782
913.318	10793
913.431	10866
913.545	10908
913.659	10930
913.772	10725
913.886	10634
914	10599
914.113	10759
914.226	10854
914.34	10702
914.453	10523
914.566	10702
914.68	10516
914.793	10641
914.906	10428
915.019	10367
915.132	10287
915.245	10287
915.358	10413
915.47	10432
915.583	10558
915.696	10413
915.809	10542
915.921	10596
916.034	10402
916.146	10379
916.259	10348
916.371	10436
916.483	10363
916.595	10291
916.708	10348
916.82	10424
916.932	10280
917.044	10318
917.156	10223
917.268	10131
917.38	10223
917.491	10207
917.603	10230
917.715	10249
917.826	10227
917.938	10223
918.049	10116
918.161	10188
918.272	10337
918.384	10348
918.495	10234
918.606	10150
918.717	10074
918.828	10093
918.939	10143
919.05	9983
919.161	10101
919.272	9926
919.383	9922
919.494	10188
919.604	10272
919.715	10150
919.826	9975
919.936	10101
920.047	10249
920.157	10166
920.267	10333
920.378	10150
920.488	10116
920.598	10329
920.708	10531
920.818	10310
920.928	10207
921.038	10466
921.148	10455
921.258	10200
921.368	10082
921.477	9998
921.587	9964
921.697	9854
921.806	10029
921.916	9831
922.025	9679
922.134	9637
922.244	9652
922.353	9705
922.462	9599
922.571	9564
922.68	9454
922.789	9374
922.898	9408
923.007	9313
923.116	9428
923.224	9386
923.333	9336
923.442	9279
923.55	9268
923.659	9256
923.767	9275
923.876	9230
923.984	9287
924.092	9207
924.201	9233
924.309	9283
924.417	9245
924.525	9176
924.633	9291
924.741	10120
924.849	9020
924.956	9165
925.064	9058
925.172	8986
925.279	8998
925.387	9013
925.494	9055
925.602	9199
925.709	9100
925.816	9013
925.924	9081
926.031	9074
926.138	9074
926.245	9116
926.352	9005
926.459	9108
926.566	9142
926.673	9036
926.779	8906
926.886	8933
926.993	8754
927.099	8724
927.206	8788
927.312	8697
927.419	8830
927.525	8788
927.631	8811
927.737	8610
927.843	8659
927.95	8594
928.056	8636
928.162	8625
928.267	8777
928.373	9348
928.479	8720
928.585	8492
928.69	8644
928.796	8697
928.901	8522
929.007	8370
929.112	8594
929.218	8583
929.323	8495
929.428	8473
929.533	8571
929.638	8423
929.743	8427
929.848	8549
929.953	8511
930.058	8370
930.163	8275
930.267	8282
930.372	8423
930.477	8259
930.581	8446
930.685	8320
930.79	8214
930.894	8279
930.998	8195
931.103	8362
931.207	7928
931.311	7894
931.415	7860
931.519	7704
931.623	7715
