Data from test_V78500241_2788.txt Node
Date: Fri Mar 25 14:53:07 CST 2022
User: usil
Spectrometer: V785-0024
Trigger mode: 0
Integration Time (sec): 4.000000E-1
Scans to average: 1
Nonlinearity correction enabled: false
Boxcar width: 0
Storing dark spectrum: false
XAxis mode: Wavelengths
Number of Pixels in Spectrum: 1024
>>>>>Begin Spectral Data<<<<<
801.071	22048
801.214	21918
801.356	21736
801.499	21576
801.641	21572
801.783	21428
801.926	21454
802.068	21397
802.211	21355
802.353	21275
802.496	21013
802.638	20925
802.78	20971
802.923	20762
803.065	20613
803.208	20739
803.35	20849
803.492	20883
803.635	20750
803.777	20708
803.919	20804
804.061	21089
804.204	20705
804.346	20686
804.488	20613
804.63	20823
804.773	20537
804.915	20629
805.057	20895
805.199	20644
805.341	20674
805.483	20739
805.626	20705
805.768	20682
805.91	20606
806.052	20769
806.194	20492
806.336	20826
806.478	20518
806.62	20598
806.762	20655
806.904	20876
807.046	21089
807.188	21005
807.33	20986
807.472	21093
807.614	20830
807.756	20845
807.898	20735
808.04	20754
808.182	20743
808.324	20804
808.465	20765
808.607	21001
808.749	20975
808.891	21131
809.033	21264
809.174	21100
809.316	20994
809.458	21138
809.6	20967
809.741	21241
809.883	21062
810.025	21302
810.166	21154
810.308	21157
810.45	21142
810.591	20948
810.733	20819
810.875	20765
811.016	20750
811.158	20564
811.299	20842
811.441	20902
811.582	21001
811.724	20910
811.865	20807
812.007	20807
812.148	20693
812.29	20849
812.431	20872
812.573	21070
812.714	21195
812.855	21386
812.997	21359
813.138	21492
813.279	21416
813.421	21370
813.562	21256
813.703	21028
813.845	20906
813.986	20617
814.127	20476
814.268	20465
814.41	20427
814.551	20404
814.692	20385
814.833	20313
814.974	20290
815.115	20400
815.256	20259
815.397	20199
815.539	20294
815.68	20149
815.821	19993
815.962	20020
816.103	20111
816.244	19883
816.385	19902
816.526	19693
816.666	19609
816.807	19521
816.948	19613
817.089	19521
817.23	19518
817.371	19537
817.512	19514
817.653	19518
817.793	19483
817.934	19453
818.075	19499
818.216	19377
818.356	19510
818.497	19339
818.638	19133
818.778	19168
818.919	19129
819.06	19160
819.2	19259
819.341	19301
819.481	19388
819.622	19575
819.762	19776
819.903	19518
820.043	19396
820.184	19422
820.324	19411
820.465	19590
820.605	19415
820.746	19582
820.886	19240
821.026	19422
821.167	19396
821.307	19457
821.447	19449
821.588	19221
821.728	19190
821.868	18951
822.008	18886
822.149	18783
822.289	18909
822.429	18574
822.569	18540
822.709	18635
822.849	18391
822.99	18292
823.13	18338
823.27	18353
823.41	18087
823.55	18068
823.69	18155
823.83	18060
823.97	18057
824.11	17977
824.25	17904
824.389	18057
824.529	17980
824.669	17946
824.809	18098
824.949	18022
825.089	17893
825.228	17893
825.368	17748
825.508	17722
825.648	17828
825.787	17760
825.927	17699
826.067	17649
826.206	17680
826.346	17745
826.485	17676
826.625	17699
826.765	17786
826.904	17786
827.044	17611
827.183	17463
827.323	17402
827.462	17497
827.601	17376
827.741	17433
827.88	17398
828.02	17284
828.159	17292
828.298	17436
828.437	17455
828.577	17356
828.716	17471
828.855	17414
828.994	17113
829.134	17197
829.273	17208
829.412	17132
829.551	17147
829.69	17121
829.829	17277
829.968	17204
830.107	17155
830.246	17079
830.385	17117
830.524	16991
830.663	16908
830.802	16793
830.941	16782
831.08	16778
831.219	16759
831.357	16824
831.496	17067
831.635	16729
831.774	16656
831.913	16698
832.051	16596
832.19	16565
832.329	16630
832.467	16459
832.606	16447
832.744	16542
832.883	16474
833.022	16360
833.16	16527
833.299	16523
833.437	16485
833.576	16527
833.714	16527
833.852	16603
833.991	16535
834.129	16615
834.267	16607
834.406	16436
834.544	16664
834.682	16542
834.821	16523
834.959	16611
835.097	16447
835.235	16592
835.373	16466
835.511	16546
835.65	16405
835.788	16428
835.926	16329
836.064	16249
836.202	16268
836.34	16440
836.478	16577
836.615	16386
836.753	16360
836.891	16508
837.029	16405
837.167	16367
837.305	16375
837.443	16360
837.58	16322
837.718	16405
837.856	16451
837.993	16276
838.131	16291
838.269	16128
838.406	16261
838.544	16188
838.681	16002
838.819	15994
838.956	15819
839.094	15827
839.231	15884
839.369	15979
839.506	16211
839.643	16116
839.781	15812
839.918	15755
840.055	15869
840.193	15876
840.33	15827
840.467	15861
840.604	15857
840.742	16063
840.879	15652
841.016	15804
841.153	15835
841.29	15865
841.427	15854
841.564	15922
841.701	15838
841.838	15751
841.975	15835
842.112	15800
842.249	15618
842.385	15591
842.522	15888
842.659	15633
842.796	15637
842.933	15595
843.069	15614
843.206	15622
843.343	15660
843.479	15606
843.616	15679
843.752	15401
843.889	15488
844.025	15564
844.162	15382
844.298	15538
844.435	15420
844.571	15420
844.708	15553
844.844	15625
844.98	15504
845.117	15557
845.253	15439
845.389	15207
845.525	15351
845.661	15401
845.798	15237
845.934	15260
846.07	15226
846.206	15207
846.342	15310
846.478	15104
846.614	14963
846.75	14941
846.886	14952
847.022	15119
847.158	14960
847.294	14941
847.429	15009
847.565	14998
847.701	15241
847.837	14819
847.972	14724
848.108	14800
848.244	14804
848.379	14594
848.515	14568
848.65	14564
848.786	14632
848.921	14610
849.057	14621
849.192	14670
849.328	14583
849.463	14564
849.598	14613
849.734	14610
849.869	14446
850.004	14286
850.14	14404
850.275	14450
850.41	14240
850.545	14389
850.68	14275
850.815	14377
850.95	14511
851.085	14488
851.22	14457
851.355	14412
851.49	14377
851.625	14263
851.76	14294
851.895	14328
852.03	14267
852.165	14278
852.299	14427
852.434	14412
852.569	14336
852.703	14328
852.838	14446
852.973	14412
853.107	14434
853.242	14339
853.376	14214
853.511	14206
853.645	14214
853.78	14336
853.914	14240
854.048	14233
854.183	14225
854.317	14275
854.451	14389
854.585	14282
854.72	14191
854.854	14301
854.988	14130
855.122	14252
855.256	14119
855.39	14256
855.524	14336
855.658	14259
855.792	14229
855.926	14347
856.06	14271
856.194	14400
856.327	14237
856.461	14191
856.595	14191
856.729	14210
856.862	14366
856.996	14336
857.13	14282
857.263	14320
857.397	14469
857.53	14229
857.664	14305
857.797	14366
857.931	14412
858.064	14240
858.197	14366
858.331	14218
858.464	14176
858.597	14138
858.731	14233
858.864	14157
858.997	14206
859.13	14324
859.263	14256
859.396	14362
859.529	14237
859.662	14229
859.795	14202
859.928	14259
860.061	14423
860.194	14427
860.327	14286
860.46	14202
860.592	14366
860.725	14454
860.858	14343
860.99	14313
861.123	14210
861.256	14309
861.388	14233
861.521	14941
861.653	14176
861.786	14058
861.918	14145
862.05	14191
862.183	14221
862.315	14210
862.447	14298
862.58	14305
862.712	14046
862.844	14046
862.976	14149
863.108	14081
863.24	14450
863.372	13906
863.504	14062
863.636	14111
863.768	14050
863.9	14016
864.032	13940
864.164	14020
864.296	14035
864.428	14164
864.559	14043
864.691	14195
864.823	14130
864.954	14065
865.086	14115
865.217	14043
865.349	13963
865.48	13986
865.612	14058
865.743	14225
865.875	13860
866.006	14001
866.137	14008
866.269	14126
866.4	14039
866.531	13955
866.662	13868
866.793	14081
866.924	13932
867.055	13982
867.186	13982
867.317	13940
867.448	13982
867.579	14012
867.71	13951
867.841	13913
867.972	13986
868.103	14050
868.233	14001
868.364	14008
868.495	14119
868.625	14206
868.756	14282
868.886	14191
869.017	14180
869.147	14469
869.278	14343
869.408	14256
869.539	14305
869.669	14366
869.799	14256
869.929	14412
870.06	14381
870.19	14571
870.32	14587
870.45	14579
870.58	14648
870.71	14716
870.84	14834
870.97	14697
871.1	14579
871.23	14746
871.36	14845
871.489	14750
871.619	14781
871.749	14823
871.879	14971
872.008	14914
872.138	14921
872.267	14663
872.397	14746
872.526	14663
872.656	14678
872.785	14705
872.915	14910
873.044	15024
873.173	14925
873.303	14937
873.432	14910
873.561	15070
873.69	14891
873.819	14762
873.948	14925
874.077	14925
874.206	14830
874.335	15005
874.464	14952
874.593	15226
874.722	15188
874.851	15340
874.979	15332
875.108	15211
875.237	15192
875.365	15062
875.494	15135
875.623	15264
875.751	15226
875.88	15355
876.008	15344
876.136	15542
876.265	15705
876.393	15686
876.521	15686
876.65	15682
876.778	15690
876.906	15606
877.034	15675
877.162	15500
877.29	15561
877.418	15610
877.546	15671
877.674	15625
877.802	15720
877.93	15656
878.058	15652
878.185	15530
878.313	15599
878.441	15682
878.568	15538
878.696	15622
878.824	15728
878.951	15679
879.079	15880
879.206	15846
879.333	15759
879.461	15797
879.588	15724
879.715	15869
879.842	15941
879.97	15762
880.097	15466
880.224	15424
880.351	15629
880.478	15500
880.605	15431
880.732	15416
880.859	15622
880.986	15492
881.112	15549
881.239	15401
881.366	15207
881.493	15135
881.619	15169
881.746	15097
881.872	15089
881.999	15146
882.125	15131
882.252	15154
882.378	15100
882.505	15264
882.631	14998
882.757	14891
882.883	14971
883.01	14956
883.136	14864
883.262	14807
883.388	14621
883.514	14975
883.64	15005
883.766	14971
883.892	14796
884.018	14758
884.143	14948
884.269	14971
884.395	14750
884.52	14701
884.646	14705
884.772	14686
884.897	14644
885.023	14651
885.148	14796
885.274	14876
885.399	14651
885.524	14686
885.65	14693
885.775	14705
885.9	14651
886.025	14708
886.15	14735
886.275	14579
886.4	14613
886.525	14651
886.65	14617
886.775	14606
886.9	14758
887.025	14891
887.149	14655
887.274	14568
887.399	14457
887.523	14438
887.648	14415
887.773	14313
887.897	14594
888.021	14522
888.146	14526
888.27	14606
888.395	14644
888.519	14560
888.643	14568
888.767	14492
888.891	14480
889.015	14301
889.139	14419
889.263	14343
889.387	14537
889.511	14625
889.635	14568
889.759	14366
889.883	14339
890.006	14377
890.13	14438
890.254	14309
890.377	14278
890.501	14126
890.624	14206
890.748	14294
890.871	14039
890.995	13944
891.118	13921
891.241	14008
891.364	14054
891.488	14096
891.611	14096
891.734	14050
891.857	14115
891.98	13936
892.103	14225
892.226	14081
892.349	14012
892.471	13890
892.594	13959
892.717	14096
892.839	14012
892.962	14088
893.085	14161
893.207	14126
893.33	13959
893.452	14035
893.575	14210
893.697	13997
893.819	14221
893.941	14240
894.064	14210
894.186	13970
894.308	14058
894.43	14138
894.552	14309
894.674	14237
894.796	14081
894.918	14145
895.04	14100
895.161	14195
895.283	14172
895.405	14100
895.526	14202
895.648	14172
895.769	14237
895.891	14237
896.012	14202
896.134	14252
896.255	14161
896.376	14191
896.498	14278
896.619	14294
896.74	14233
896.861	14351
896.982	14530
897.103	14727
897.224	14507
897.345	14503
897.466	14469
897.587	14488
897.708	14629
897.828	14480
897.949	14541
898.07	14431
898.19	14568
898.311	14655
898.431	14571
898.552	14594
898.672	14663
898.792	14682
898.913	14693
899.033	14636
899.153	14400
899.273	14332
899.393	14381
899.513	14385
899.633	14431
899.753	14473
899.873	14446
899.993	14484
900.113	14362
900.232	14518
900.352	14423
900.472	14324
900.591	14233
900.711	14298
900.83	14309
900.95	14450
901.069	14366
901.189	14176
901.308	13947
901.427	13913
901.546	14031
901.665	13947
901.784	14073
901.904	13940
902.023	13715
902.141	13613
902.26	13620
902.379	13514
902.498	13537
902.617	13529
902.735	13563
902.854	13590
902.973	13468
903.091	13346
903.21	13282
903.328	13251
903.446	13122
903.565	13031
903.683	13129
903.801	13057
903.919	13114
904.038	13027
904.156	12939
904.274	13050
904.392	12943
904.51	12878
904.627	12844
904.745	12954
904.863	13069
904.981	12764
905.098	12669
905.216	12658
905.334	12601
905.451	12566
905.569	12631
905.686	12620
905.803	12654
905.921	12384
906.038	12506
906.155	12525
906.272	12414
906.389	12384
906.506	12171
906.623	12239
906.74	12205
906.857	12114
906.974	12102
907.091	12254
907.208	12235
907.324	12258
907.441	12171
907.557	11939
907.674	11916
907.79	11908
907.907	11973
908.023	11977
908.139	11977
908.256	11942
908.372	11901
908.488	11859
908.604	11699
908.72	11657
908.836	11691
908.952	11630
909.068	11809
909.184	11870
909.3	11695
909.415	11843
909.531	11741
909.647	11512
909.762	11520
909.878	11486
909.993	11505
910.108	11433
910.224	11471
910.339	11547
910.454	11368
910.57	11315
910.685	11208
910.8	11581
910.915	11509
911.03	11341
911.145	11254
911.259	11185
911.374	11231
911.489	11071
911.604	11136
911.718	11010
911.833	11006
911.947	10927
912.062	10774
912.176	10999
912.291	10938
912.405	10938
912.519	11109
912.633	11140
912.748	11052
912.862	10919
912.976	10763
913.09	10691
913.204	10778
913.318	10782
913.431	10866
913.545	10942
913.659	10930
913.772	10847
913.886	10740
914	10645
914.113	10748
914.226	10831
914.34	10736
914.453	10649
914.566	10702
914.68	10672
914.793	10653
914.906	10489
915.019	10481
915.132	10329
915.245	10402
915.358	10497
915.47	10531
915.583	10523
915.696	10550
915.809	10565
915.921	10599
916.034	10432
916.146	10352
916.259	10428
916.371	10447
916.483	10440
916.595	10394
916.708	10371
916.82	10402
916.932	10295
917.044	10329
917.156	10386
917.268	10291
917.38	10299
917.491	10265
917.603	10348
917.715	10363
917.826	10436
917.938	10287
918.049	10135
918.161	10249
918.272	10451
918.384	10428
918.495	10386
918.606	10173
918.717	10150
918.828	10128
918.939	10234
919.05	10120
919.161	10105
919.272	10006
919.383	10006
919.494	10169
919.604	10344
919.715	10188
919.826	10063
919.936	10128
920.047	10200
920.157	10215
920.267	10451
920.378	10192
920.488	10207
920.598	10348
920.708	10535
920.818	10356
920.928	10375
921.038	10527
921.148	10436
921.258	10196
921.368	10173
921.477	10078
921.587	9911
921.697	9975
921.806	10078
921.916	9888
922.025	9762
922.134	9743
922.244	9675
922.353	9778
922.462	9641
922.571	9507
922.68	9443
922.789	9443
922.898	9454
923.007	9393
923.116	9511
923.224	9447
923.333	9466
923.442	9374
923.55	9291
923.659	9363
923.767	9435
923.876	9283
923.984	9435
924.092	9245
924.201	9340
924.309	9294
924.417	9355
924.525	9249
924.633	9230
924.741	9998
924.849	9108
924.956	9264
925.064	9131
925.172	8994
925.279	9062
925.387	9116
925.494	9142
925.602	9180
925.709	9199
925.816	9081
925.924	9131
926.031	9180
926.138	9085
926.245	9108
926.352	8986
926.459	9150
926.566	9245
926.673	9100
926.779	8975
926.886	8864
926.993	8857
927.099	8826
927.206	8727
927.312	8716
927.419	8861
927.525	8842
927.631	8902
927.737	8811
927.843	8625
927.95	8590
928.056	8689
928.162	8773
928.267	8853
928.373	9351
928.479	8773
928.585	8526
928.69	8716
928.796	8705
928.901	8598
929.007	8514
929.112	8670
929.218	8590
929.323	8503
929.428	8495
929.533	8613
929.638	8457
929.743	8503
929.848	8571
929.953	8533
930.058	8404
930.163	8271
930.267	8290
930.372	8415
930.477	8282
930.581	8560
930.685	8309
930.79	8317
930.894	8279
930.998	8214
931.103	8358
931.207	8039
931.311	7989
931.415	7925
931.519	7811
931.623	7712
