Data from test_V78500241_727.txt Node
Date: Fri Mar 25 14:38:46 CST 2022
User: usil
Spectrometer: V785-0024
Trigger mode: 0
Integration Time (sec): 4.000000E-1
Scans to average: 1
Nonlinearity correction enabled: false
Boxcar width: 0
Storing dark spectrum: false
XAxis mode: Wavelengths
Number of Pixels in Spectrum: 1024
>>>>>Begin Spectral Data<<<<<
801.071	27682
801.214	27488
801.356	27169
801.499	27009
801.641	27100
801.783	26975
801.926	26902
802.068	26731
802.211	26575
802.353	26625
802.496	26541
802.638	26438
802.78	26221
802.923	26298
803.065	26252
803.208	26396
803.35	26309
803.492	26549
803.635	26617
803.777	26320
803.919	26514
804.061	26765
804.204	26579
804.346	26629
804.488	26617
804.63	26868
804.773	26636
804.915	26735
805.057	26880
805.199	26853
805.341	26910
805.483	27222
805.626	27222
805.768	27142
805.91	27291
806.052	27435
806.194	27443
806.336	27895
806.478	27991
806.62	28070
806.762	28276
806.904	28816
807.046	29258
807.188	29524
807.33	30102
807.472	30677
807.614	31259
807.756	32275
807.898	33351
808.04	34949
808.182	37141
808.324	39816
808.465	42829
808.607	46196
808.749	49381
808.891	51036
809.033	51363
809.174	49525
809.316	46668
809.458	43217
809.6	39625
809.741	36791
809.883	34257
810.025	32876
810.166	31731
810.308	30970
810.45	30038
810.591	29699
810.733	29029
810.875	28599
811.016	28318
811.158	28169
811.299	28078
811.441	28010
811.582	27842
811.724	27397
811.865	27542
812.007	27359
812.148	27310
812.29	27192
812.431	27359
812.573	27321
812.714	27564
812.855	27416
812.997	27580
813.138	27576
813.279	27359
813.421	27131
813.562	27306
813.703	27036
813.845	26819
813.986	26492
814.127	26286
814.268	26301
814.41	26199
814.551	26001
814.692	26138
814.833	26001
814.974	25970
815.115	25925
815.256	25719
815.397	25887
815.539	25704
815.68	25700
815.821	25597
815.962	25597
816.103	25696
816.244	25510
816.385	25278
816.526	25247
816.666	25137
816.807	24776
816.948	25019
817.089	25023
817.23	24939
817.371	24856
817.512	24882
817.653	24882
817.793	24753
817.934	24962
818.075	24913
818.216	24776
818.356	24711
818.497	24677
818.638	24517
818.778	24426
818.919	24623
819.06	24661
819.2	24650
819.341	24715
819.481	24738
819.622	24817
819.762	24909
819.903	24844
820.043	24886
820.184	24734
820.324	24612
820.465	24703
820.605	24783
820.746	24513
820.886	24433
821.026	24620
821.167	24517
821.307	24639
821.447	24540
821.588	24452
821.728	24228
821.868	24018
822.008	23992
822.149	23931
822.289	23904
822.429	23562
822.569	23497
822.709	23592
822.849	23425
822.99	23197
823.13	23376
823.27	23261
823.41	22987
823.55	23006
823.69	23136
823.83	23041
823.97	23178
824.11	22915
824.25	22797
824.389	22790
824.529	23010
824.669	22824
824.809	23010
824.949	22946
825.089	22949
825.228	22930
825.368	22702
825.508	22634
825.648	22656
825.787	22656
825.927	22828
826.067	22550
826.206	22721
826.346	22748
826.485	22653
826.625	22561
826.765	22649
826.904	22653
827.044	22303
827.183	22375
827.323	22280
827.462	22459
827.601	22318
827.741	22402
827.88	22215
828.02	22124
828.159	22249
828.298	22268
828.437	22333
828.577	22204
828.716	22398
828.855	22253
828.994	22021
829.134	22063
829.273	22044
829.412	21994
829.551	21968
829.69	22032
829.829	22135
829.968	22040
830.107	21918
830.246	21937
830.385	21926
830.524	21831
830.663	21770
830.802	21641
830.941	21504
831.08	21572
831.219	21606
831.357	21625
831.496	21701
831.635	21622
831.774	21439
831.913	21466
832.051	21542
832.19	21386
832.329	21572
832.467	21382
832.606	21412
832.744	21447
832.883	21416
833.022	21504
833.16	21701
833.299	21846
833.437	21983
833.576	22090
833.714	22276
833.852	22409
833.991	22531
834.129	22603
834.267	22672
834.406	22573
834.544	22546
834.682	22314
834.821	22238
834.959	22337
835.097	21934
835.235	21956
835.373	21709
835.511	21629
835.65	21511
835.788	21408
835.926	21294
836.064	21176
836.202	21085
836.34	21233
836.478	21294
836.615	21135
836.753	21214
836.891	21298
837.029	21161
837.167	21055
837.305	21039
837.443	21009
837.58	20849
837.718	21043
837.856	20933
837.993	20849
838.131	21005
838.269	20838
838.406	20804
838.544	20724
838.681	20606
838.819	20526
838.956	20377
839.094	20389
839.231	20400
839.369	20454
839.506	20724
839.643	20625
839.781	20366
839.918	20419
840.055	20267
840.193	20221
840.33	20298
840.467	20282
840.604	20332
840.742	20587
840.879	20092
841.016	20259
841.153	20149
841.29	20434
841.427	20305
841.564	20290
841.701	20294
841.838	20275
841.975	20161
842.112	20248
842.249	20172
842.385	20088
842.522	20218
842.659	20145
842.796	20142
842.933	20176
843.069	20206
843.206	20252
843.343	20149
843.479	20278
843.616	20309
843.752	20138
843.889	20088
844.025	20400
844.162	20229
844.298	20514
844.435	20636
844.571	20826
844.708	21108
844.844	21519
844.98	21945
845.117	22740
845.253	23543
845.389	25552
845.525	29471
845.661	35558
845.798	42623
845.934	47939
846.07	49894
846.206	48410
846.342	43358
846.478	36289
846.614	30049
846.75	26103
846.886	23756
847.022	22382
847.158	21462
847.294	20929
847.429	20526
847.565	20168
847.701	20336
847.837	19689
847.972	19567
848.108	19674
848.244	19518
848.379	19217
848.515	19198
848.65	19202
848.786	19209
848.921	19202
849.057	19247
849.192	19152
849.328	19183
849.463	19133
849.598	18989
849.734	19023
849.869	18920
850.004	18825
850.14	18867
850.275	18829
850.41	18726
850.545	18616
850.68	18749
850.815	18757
850.95	18783
851.085	18852
851.22	18939
851.355	18772
851.49	18593
851.625	18700
851.76	18658
851.895	18688
852.03	18741
852.165	18772
852.299	18806
852.434	18817
852.569	18817
852.703	18783
852.838	18829
852.973	18985
853.107	18993
853.242	18661
853.376	18829
853.511	18696
853.645	18825
853.78	19012
853.914	18894
854.048	18901
854.183	18939
854.317	18920
854.451	19232
854.585	19023
854.72	18977
854.854	18935
854.988	18745
855.122	18810
855.256	18711
855.39	18783
855.524	18726
855.658	18715
855.792	18711
855.926	18684
856.06	18665
856.194	18703
856.327	18563
856.461	18601
856.595	18563
856.729	18506
856.862	18589
856.996	18551
857.13	18597
857.263	18696
857.397	18574
857.53	18509
857.664	18620
857.797	18475
857.931	18525
858.064	18467
858.197	18631
858.331	18490
858.464	18323
858.597	18460
858.731	18372
858.864	18456
858.997	18388
859.13	18384
859.263	18506
859.396	18506
859.529	18403
859.662	18399
859.795	18437
859.928	18353
860.061	18566
860.194	18551
860.327	18433
860.46	18380
860.592	18475
860.725	18525
860.858	18464
860.99	18281
861.123	18270
861.256	18334
861.388	18289
861.521	19076
861.653	18209
861.786	18106
861.918	18194
862.05	18247
862.183	18346
862.315	18338
862.447	18399
862.58	18285
862.712	18178
862.844	17999
862.976	18121
863.108	18205
863.24	18536
863.372	17969
863.504	18011
863.636	17996
863.768	18125
863.9	17958
864.032	17961
864.164	18053
864.296	17977
864.428	18117
864.559	18213
864.691	18136
864.823	18102
864.954	18106
865.086	18060
865.217	17992
865.349	18011
865.48	17927
865.612	17923
865.743	18041
865.875	17977
866.006	17859
866.137	17969
866.269	17980
866.4	18030
866.531	17901
866.662	17798
866.793	17851
866.924	17950
867.055	17984
867.186	17897
867.317	17939
867.448	17760
867.579	17882
867.71	17843
867.841	17843
867.972	17794
868.103	17851
868.233	17866
868.364	17912
868.495	17954
868.625	18197
868.756	18353
868.886	18060
869.017	18148
869.147	18289
869.278	18300
869.408	18159
869.539	18220
869.669	18182
869.799	18296
869.929	18353
870.06	18380
870.19	18608
870.32	18536
870.45	18589
870.58	18612
870.71	18806
870.84	18730
870.97	18658
871.1	18639
871.23	18871
871.36	18878
871.489	18791
871.619	18783
871.749	18840
871.879	18916
872.008	19042
872.138	18871
872.267	18962
872.397	18745
872.526	18848
872.656	18798
872.785	18890
872.915	19034
873.044	19080
873.173	19084
873.303	19015
873.432	19099
873.561	19206
873.69	19225
873.819	19187
873.948	19240
874.077	19285
874.206	19403
874.335	19213
874.464	19476
874.593	19635
874.722	19506
874.851	19799
874.979	19666
875.108	19769
875.237	19715
875.365	19635
875.494	19772
875.623	19963
875.751	19906
875.88	19902
876.008	20157
876.136	20294
876.265	20537
876.393	20632
876.521	20720
876.65	20819
876.778	20777
876.906	20830
877.034	20937
877.162	20944
877.29	20887
877.418	21077
877.546	21203
877.674	21252
877.802	21458
877.93	21530
878.058	21679
878.185	21739
878.313	22048
878.441	22535
878.568	22930
878.696	23562
878.824	24277
878.951	25514
879.079	27207
879.206	29216
879.333	31419
879.461	33283
879.588	34390
879.715	34352
879.842	33439
879.97	31460
880.097	29277
880.224	27549
880.351	26229
880.478	25556
880.605	24768
880.732	24479
880.859	24338
880.986	23961
881.112	23878
881.239	23672
881.366	23573
881.493	23531
881.619	23452
881.746	23490
881.872	23410
881.999	23551
882.125	23520
882.252	23596
882.378	23611
882.505	23847
882.631	23684
882.757	23596
882.883	23604
883.01	23433
883.136	23414
883.262	23311
883.388	23318
883.514	23539
883.64	23474
883.766	23486
883.892	23200
884.018	23364
884.143	23436
884.269	23528
884.395	23311
884.52	23159
884.646	23242
884.772	23029
884.897	23128
885.023	23311
885.148	23360
885.274	23311
885.399	23208
885.524	22965
885.65	22847
885.775	22687
885.9	22485
886.025	22554
886.15	22341
886.275	22074
886.4	21876
886.525	21816
886.65	21591
886.775	21526
886.9	21500
887.025	21583
887.149	21386
887.274	20902
887.399	20769
887.523	20842
887.648	20568
887.773	20598
887.897	20655
888.021	20488
888.146	20446
888.27	20442
888.395	20389
888.519	20309
888.643	20168
888.767	20142
888.891	20027
889.015	19811
889.139	19841
889.263	19830
889.387	19887
889.511	19997
889.635	19822
889.759	19685
889.883	19655
890.006	19635
890.13	19681
890.254	19312
890.377	19339
890.501	19247
890.624	19187
890.748	19240
890.871	19091
890.995	18954
891.118	18837
891.241	18890
891.364	18993
891.488	18920
891.611	18802
891.734	18840
891.857	18833
891.98	18795
892.103	18783
892.226	18719
892.349	18559
892.471	18429
892.594	18570
892.717	18551
892.839	18509
892.962	18361
893.085	18437
893.207	18391
893.33	18194
893.452	18178
893.575	18399
893.697	18330
893.819	18448
893.941	18399
894.064	18292
894.186	18114
894.308	18079
894.43	18254
894.552	18224
894.674	18243
894.796	18038
894.918	18064
895.04	18053
895.161	18159
895.283	18034
895.405	18030
895.526	17893
895.648	17942
895.769	18034
895.891	17954
896.012	18045
896.134	18022
896.255	17901
896.376	18034
896.498	17996
896.619	18003
896.74	18011
896.861	17954
896.982	18205
897.103	18418
897.224	18117
897.345	18239
897.466	17935
897.587	18095
897.708	18194
897.828	18041
897.949	17992
898.07	17942
898.19	17996
898.311	18114
898.431	18045
898.552	18144
898.672	18209
898.792	18114
898.913	18174
899.033	18007
899.153	17847
899.273	17817
899.393	17733
899.513	17939
899.633	17824
899.753	17859
899.873	17817
899.993	17885
900.113	17847
900.232	17931
900.352	17802
900.472	17756
900.591	17733
900.711	17748
900.83	17657
900.95	17783
901.069	17745
901.189	17600
901.308	17379
901.427	17208
901.546	17246
901.665	17223
901.784	17170
901.904	17105
902.023	16957
902.141	16748
902.26	16679
902.379	16831
902.498	16759
902.617	16675
902.735	16786
902.854	16694
902.973	16630
903.091	16382
903.21	16306
903.328	16322
903.446	16207
903.565	16158
903.683	16162
903.801	16021
903.919	16071
904.038	16101
904.156	15964
904.274	15960
904.392	15857
904.51	15892
904.627	15895
904.745	15876
904.863	15869
904.981	15622
905.098	15519
905.216	15549
905.334	15523
905.451	15511
905.569	15526
905.686	15443
905.803	15447
905.921	15302
906.038	15397
906.155	15279
906.272	15195
906.389	15218
906.506	15108
906.623	15055
906.74	14967
906.857	14941
906.974	14914
907.091	15089
907.208	15176
907.324	15020
907.441	14918
907.557	14765
907.674	14746
907.79	14689
907.907	14739
908.023	14674
908.139	14731
908.256	14693
908.372	14610
908.488	14629
908.604	14457
908.72	14419
908.836	14480
908.952	14396
909.068	14434
909.184	14575
909.3	14442
909.415	14514
909.531	14446
909.647	14278
909.762	14134
909.878	14096
909.993	14126
910.108	14199
910.224	14161
910.339	14195
910.454	13986
910.57	14035
910.685	13887
910.8	14256
910.915	14111
911.03	14001
911.145	13841
911.259	13788
911.374	13765
911.489	13757
911.604	13704
911.718	13597
911.833	13632
911.947	13518
912.062	13426
912.176	13529
912.291	13540
912.405	13571
912.519	13731
912.633	13689
912.748	13571
912.862	13636
912.976	13464
913.09	13358
913.204	13373
913.318	13381
913.431	13445
913.545	13445
913.659	13502
913.772	13472
913.886	13263
914	13263
914.113	13346
914.226	13373
914.34	13369
914.453	13198
914.566	13282
914.68	13240
914.793	13187
914.906	13031
915.019	12886
915.132	12886
915.245	12920
915.358	12981
915.47	12996
915.583	13038
915.696	12905
915.809	13084
915.921	13046
916.034	12962
916.146	12958
916.259	12928
916.371	13027
916.483	12981
916.595	12852
916.708	12981
916.82	12958
916.932	12856
917.044	12833
917.156	12802
917.268	12730
917.38	12814
917.491	12802
917.603	12791
917.715	12806
917.826	12829
917.938	12700
918.049	12532
918.161	12715
918.272	12696
918.384	12696
918.495	12696
918.606	12502
918.717	12395
918.828	12502
918.939	12502
919.05	12448
919.161	12456
919.272	12232
919.383	12262
919.494	12502
919.604	12612
919.715	12426
919.826	12346
919.936	12456
920.047	12467
920.157	12410
920.267	12627
920.378	12525
920.488	12486
920.598	12669
920.708	12829
920.818	12673
920.928	12547
921.038	12753
921.148	12681
921.258	12361
921.368	12258
921.477	12369
921.587	12304
921.697	12106
921.806	12228
921.916	12098
922.025	11935
922.134	11927
922.244	11737
922.353	11923
922.462	11809
922.571	11604
922.68	11566
922.789	11532
922.898	11577
923.007	11501
923.116	11520
923.224	11547
923.333	11528
923.442	11433
923.55	11387
923.659	11490
923.767	11448
923.876	11406
923.984	11406
924.092	11315
924.201	11334
924.309	11379
924.417	11341
924.525	11269
924.633	11208
924.741	12114
924.849	11170
924.956	11246
925.064	11121
925.172	10972
925.279	11010
925.387	11124
925.494	11086
925.602	11189
925.709	11143
925.816	11090
925.924	11022
926.031	11086
926.138	11098
926.245	11086
926.352	10938
926.459	11033
926.566	11113
926.673	10957
926.779	10930
926.886	10869
926.993	10816
927.099	10694
927.206	10641
927.312	10675
927.419	10706
927.525	10706
927.631	10702
927.737	10565
927.843	10592
927.95	10447
928.056	10580
928.162	10542
928.267	10634
928.373	11143
928.479	10607
928.585	10348
928.69	10592
928.796	10504
928.901	10402
929.007	10344
929.112	10504
929.218	10447
929.323	10375
929.428	10352
929.533	10413
929.638	10147
929.743	10329
929.848	10356
929.953	10246
930.058	10192
930.163	9987
930.267	10063
930.372	10246
930.477	9972
930.581	10265
930.685	10147
930.79	9968
930.894	9953
930.998	9979
931.103	10086
931.207	9747
931.311	9637
931.415	9614
931.519	9351
931.623	9389
