Data from test_V78500241_1906.txt Node
Date: Fri Mar 25 14:46:59 CST 2022
User: usil
Spectrometer: V785-0024
Trigger mode: 0
Integration Time (sec): 4.000000E-1
Scans to average: 1
Nonlinearity correction enabled: false
Boxcar width: 0
Storing dark spectrum: false
XAxis mode: Wavelengths
Number of Pixels in Spectrum: 1024
>>>>>Begin Spectral Data<<<<<
801.071	22105
801.214	21808
801.356	21583
801.499	21694
801.641	21492
801.783	21370
801.926	21549
802.068	21332
802.211	21363
802.353	21176
802.496	21039
802.638	20883
802.78	21020
802.923	20842
803.065	20648
803.208	20845
803.35	20765
803.492	20815
803.635	21024
803.777	20689
803.919	20876
804.061	21077
804.204	20948
804.346	20667
804.488	20712
804.63	20743
804.773	20705
804.915	20792
805.057	20861
805.199	20629
805.341	20785
805.483	20960
805.626	20849
805.768	20727
805.91	20777
806.052	20712
806.194	20686
806.336	20819
806.478	20754
806.62	20693
806.762	20758
806.904	20883
807.046	21051
807.188	21024
807.33	21013
807.472	20971
807.614	20971
807.756	20861
807.898	20826
808.04	20674
808.182	20758
808.324	20754
808.465	20819
808.607	21009
808.749	21116
808.891	21100
809.033	21211
809.174	21165
809.316	20998
809.458	21062
809.6	21039
809.741	21199
809.883	21176
810.025	21329
810.166	21279
810.308	21310
810.45	21195
810.591	21119
810.733	20975
810.875	20883
811.016	20765
811.158	20667
811.299	20868
811.441	21039
811.582	20933
811.724	20861
811.865	20849
812.007	20773
812.148	20773
812.29	20804
812.431	21036
812.573	21116
812.714	21291
812.855	21424
812.997	21500
813.138	21485
813.279	21500
813.421	21298
813.562	21344
813.703	21154
813.845	21062
813.986	20720
814.127	20526
814.268	20499
814.41	20389
814.551	20385
814.692	20454
814.833	20370
814.974	20393
815.115	20423
815.256	20225
815.397	20153
815.539	20237
815.68	20134
815.821	20122
815.962	20168
816.103	20039
816.244	20016
816.385	19898
816.526	19856
816.666	19746
816.807	19674
816.948	19670
817.089	19624
817.23	19586
817.371	19430
817.512	19662
817.653	19434
817.793	19453
817.934	19407
818.075	19510
818.216	19472
818.356	19472
818.497	19278
818.638	19160
818.778	19343
818.919	19175
819.06	19202
819.2	19247
819.341	19377
819.481	19304
819.622	19567
819.762	19742
819.903	19571
820.043	19563
820.184	19518
820.324	19445
820.465	19472
820.605	19540
820.746	19499
820.886	19297
821.026	19373
821.167	19487
821.307	19540
821.447	19468
821.588	19392
821.728	19145
821.868	19057
822.008	18916
822.149	19019
822.289	18882
822.429	18715
822.569	18597
822.709	18639
822.849	18441
822.99	18429
823.13	18395
823.27	18353
823.41	18251
823.55	18125
823.69	18228
823.83	18102
823.97	18121
824.11	18076
824.25	17980
824.389	17999
824.529	18125
824.669	18034
824.809	18072
824.949	18003
825.089	17999
825.228	17996
825.368	17817
825.508	17786
825.648	17866
825.787	17942
825.927	17920
826.067	17729
826.206	17691
826.346	17809
826.485	17737
826.625	17737
826.765	17874
826.904	17790
827.044	17619
827.183	17528
827.323	17433
827.462	17570
827.601	17497
827.741	17532
827.88	17410
828.02	17337
828.159	17486
828.298	17585
828.437	17680
828.577	17459
828.716	17581
828.855	17379
828.994	17258
829.134	17307
829.273	17223
829.412	17223
829.551	17193
829.69	17242
829.829	17284
829.968	17341
830.107	17277
830.246	17242
830.385	17231
830.524	17178
830.663	17006
830.802	17052
830.941	16866
831.08	16824
831.219	16976
831.357	16911
831.496	17124
831.635	16866
831.774	16782
831.913	16774
832.051	16668
832.19	16565
832.329	16649
832.467	16470
832.606	16497
832.744	16512
832.883	16592
833.022	16519
833.16	16550
833.299	16634
833.437	16500
833.576	16626
833.714	16679
833.852	16603
833.991	16637
834.129	16729
834.267	16691
834.406	16618
834.544	16645
834.682	16588
834.821	16554
834.959	16717
835.097	16637
835.235	16759
835.373	16691
835.511	16577
835.65	16550
835.788	16512
835.926	16394
836.064	16371
836.202	16341
836.34	16592
836.478	16538
836.615	16493
836.753	16462
836.891	16599
837.029	16508
837.167	16455
837.305	16466
837.443	16424
837.58	16413
837.718	16447
837.856	16451
837.993	16325
838.131	16318
838.269	16303
838.406	16363
838.544	16337
838.681	16120
838.819	16173
838.956	15991
839.094	15915
839.231	15983
839.369	16131
839.506	16337
839.643	16169
839.781	15975
839.918	16074
840.055	15975
840.193	15949
840.33	15968
840.467	15960
840.604	15903
840.742	16200
840.879	15865
841.016	15857
841.153	15895
841.29	16051
841.427	15975
841.564	16051
841.701	15922
841.838	15899
841.975	15903
842.112	15953
842.249	15698
842.385	15778
842.522	15884
842.659	15736
842.796	15793
842.933	15747
843.069	15736
843.206	15690
843.343	15880
843.479	15774
843.616	15732
843.752	15576
843.889	15515
844.025	15755
844.162	15466
844.298	15629
844.435	15530
844.571	15564
844.708	15686
844.844	15679
844.98	15686
845.117	15705
845.253	15355
845.389	15469
845.525	15458
845.661	15435
845.798	15306
845.934	15389
846.07	15329
846.206	15386
846.342	15500
846.478	15283
846.614	15157
846.75	15100
846.886	15085
847.022	15211
847.158	15062
847.294	15119
847.429	15116
847.565	15043
847.701	15260
847.837	14785
847.972	14769
848.108	14956
848.244	14815
848.379	14697
848.515	14754
848.65	14667
848.786	14674
848.921	14670
849.057	14754
849.192	14811
849.328	14762
849.463	14663
849.598	14735
849.734	14617
849.869	14682
850.004	14480
850.14	14537
850.275	14454
850.41	14530
850.545	14419
850.68	14434
850.815	14457
850.95	14446
851.085	14606
851.22	14594
851.355	14434
851.49	14507
851.625	14492
851.76	14446
851.895	14396
852.03	14309
852.165	14492
852.299	14450
852.434	14518
852.569	14530
852.703	14465
852.838	14583
852.973	14667
853.107	14617
853.242	14473
853.376	14362
853.511	14305
853.645	14385
853.78	14427
853.914	14278
854.048	14294
854.183	14248
854.317	14313
854.451	14480
854.585	14320
854.72	14256
854.854	14370
854.988	14267
855.122	14294
855.256	14221
855.39	14263
855.524	14404
855.658	14347
855.792	14393
855.926	14434
856.06	14377
856.194	14427
856.327	14332
856.461	14298
856.595	14320
856.729	14225
856.862	14541
856.996	14343
857.13	14526
857.263	14488
857.397	14457
857.53	14244
857.664	14347
857.797	14427
857.931	14488
858.064	14423
858.197	14476
858.331	14366
858.464	14328
858.597	14225
858.731	14358
858.864	14343
858.997	14282
859.13	14419
859.263	14366
859.396	14282
859.529	14301
859.662	14343
859.795	14275
859.928	14381
860.061	14469
860.194	14476
860.327	14396
860.46	14259
860.592	14408
860.725	14480
860.858	14461
860.99	14465
861.123	14233
861.256	14214
861.388	14408
861.521	15055
861.653	14187
861.786	14054
861.918	14301
862.05	14259
862.183	14259
862.315	14275
862.447	14320
862.58	14244
862.712	14043
862.844	14077
862.976	14172
863.108	14180
863.24	14499
863.372	14081
863.504	14111
863.636	14043
863.768	14096
863.9	14088
864.032	14027
864.164	14092
864.296	14115
864.428	14336
864.559	14202
864.691	14111
864.823	14168
864.954	14123
865.086	14229
865.217	14084
865.349	14031
865.48	14153
865.612	14183
865.743	14256
865.875	14180
866.006	14054
866.137	14138
866.269	14123
866.4	14096
866.531	14096
866.662	14012
866.793	14016
866.924	14008
867.055	14172
867.186	13955
867.317	14008
867.448	14054
867.579	13997
867.71	14008
867.841	14054
867.972	14130
868.103	14092
868.233	14126
868.364	14138
868.495	14195
868.625	14286
868.756	14492
868.886	14317
869.017	14393
869.147	14446
869.278	14518
869.408	14408
869.539	14412
869.669	14393
869.799	14442
869.929	14377
870.06	14381
870.19	14667
870.32	14667
870.45	14640
870.58	14659
870.71	14849
870.84	14880
870.97	14625
871.1	14701
871.23	14925
871.36	14937
871.489	14864
871.619	14921
871.749	14838
871.879	14982
872.008	15036
872.138	14823
872.267	14994
872.397	14750
872.526	14785
872.656	14693
872.785	14769
872.915	15001
873.044	14990
873.173	14948
873.303	14960
873.432	15047
873.561	15062
873.69	14990
873.819	14887
873.948	15112
874.077	14963
874.206	15028
874.335	14971
874.464	15077
874.593	15230
874.722	15207
874.851	15317
874.979	15313
875.108	15386
875.237	15150
875.365	15157
875.494	15336
875.623	15306
875.751	15359
875.88	15287
876.008	15420
876.136	15458
876.265	15793
876.393	15907
876.521	15724
876.65	15739
876.778	15762
876.906	15759
877.034	15618
877.162	15667
877.29	15644
877.418	15838
877.546	15770
877.674	15694
877.802	15797
877.93	15717
878.058	15781
878.185	15572
878.313	15610
878.441	15728
878.568	15538
878.696	15629
878.824	15762
878.951	15797
879.079	15956
879.206	15949
879.333	15842
879.461	15690
879.588	15892
879.715	15918
879.842	16135
879.97	15831
880.097	15591
880.224	15591
880.351	15633
880.478	15652
880.605	15488
880.732	15545
880.859	15724
880.986	15523
881.112	15663
881.239	15485
881.366	15310
881.493	15237
881.619	15233
881.746	15199
881.872	15275
881.999	15233
882.125	15226
882.252	15336
882.378	15260
882.505	15332
882.631	15123
882.757	15085
882.883	15108
883.01	15066
883.136	15032
883.262	14921
883.388	14906
883.514	15062
883.64	15055
883.766	14925
883.892	14845
884.018	14921
884.143	15055
884.269	15135
884.395	14804
884.52	14804
884.646	14777
884.772	14743
884.897	14705
885.023	14659
885.148	14895
885.274	14842
885.399	14815
885.524	14842
885.65	14727
885.775	14739
885.9	14708
886.025	14891
886.15	14823
886.275	14758
886.4	14693
886.525	14701
886.65	14727
886.775	14701
886.9	14876
887.025	15001
887.149	14754
887.274	14556
887.399	14598
887.523	14594
887.648	14503
887.773	14518
887.897	14640
888.021	14727
888.146	14511
888.27	14541
888.395	14693
888.519	14549
888.643	14724
888.767	14617
888.891	14476
889.015	14480
889.139	14446
889.263	14434
889.387	14613
889.511	14587
889.635	14530
889.759	14522
889.883	14454
890.006	14465
890.13	14556
890.254	14355
890.377	14438
890.501	14237
890.624	14282
890.748	14385
890.871	14176
890.995	14123
891.118	14134
891.241	14191
891.364	14214
891.488	14199
891.611	14191
891.734	14130
891.857	14191
891.98	14172
892.103	14248
892.226	14195
892.349	14176
892.471	13986
892.594	14100
892.717	14043
892.839	14077
892.962	14138
893.085	14259
893.207	14138
893.33	14001
893.452	14077
893.575	14328
893.697	14142
893.819	14282
893.941	14332
894.064	14339
894.186	14012
894.308	14084
894.43	14294
894.552	14488
894.674	14336
894.796	14088
894.918	14240
895.04	14218
895.161	14259
895.283	14256
895.405	14214
895.526	14214
895.648	14214
895.769	14282
895.891	14351
896.012	14317
896.134	14301
896.255	14286
896.376	14309
896.498	14301
896.619	14404
896.74	14240
896.861	14404
896.982	14686
897.103	14762
897.224	14655
897.345	14575
897.466	14476
897.587	14564
897.708	14625
897.828	14636
897.949	14514
898.07	14423
898.19	14621
898.311	14693
898.431	14640
898.552	14640
898.672	14739
898.792	14796
898.913	14708
899.033	14629
899.153	14385
899.273	14503
899.393	14541
899.513	14526
899.633	14446
899.753	14476
899.873	14507
899.993	14610
900.113	14476
900.232	14511
900.352	14469
900.472	14400
900.591	14267
900.711	14415
900.83	14168
900.95	14488
901.069	14446
901.189	14199
901.308	14084
901.427	13940
901.546	14035
901.665	14096
901.784	14065
901.904	13868
902.023	13791
902.141	13666
902.26	13586
902.379	13681
902.498	13544
902.617	13586
902.735	13696
902.854	13620
902.973	13525
903.091	13308
903.21	13403
903.328	13304
903.446	13312
903.565	13190
903.683	13160
903.801	13095
903.919	13118
904.038	13152
904.156	13004
904.274	13015
904.392	13027
904.51	13012
904.627	12970
904.745	13023
904.863	13095
904.981	12852
905.098	12597
905.216	12734
905.334	12760
905.451	12753
905.569	12654
905.686	12745
905.803	12760
905.921	12528
906.038	12597
906.155	12608
906.272	12532
906.389	12426
906.506	12304
906.623	12353
906.74	12361
906.857	12205
906.974	12209
907.091	12391
907.208	12380
907.324	12399
907.441	12247
907.557	12045
907.674	12030
907.79	12053
907.907	12049
908.023	12068
908.139	12022
908.256	11992
908.372	11935
908.488	11946
908.604	11901
908.72	11783
908.836	11889
908.952	11741
909.068	11786
909.184	11885
909.3	11821
909.415	11817
909.531	11748
909.647	11611
909.762	11554
909.878	11539
909.993	11611
910.108	11566
910.224	11585
910.339	11532
910.454	11551
910.57	11452
910.685	11254
910.8	11619
910.915	11573
911.03	11463
911.145	11185
911.259	11242
911.374	11250
911.489	11212
911.604	11174
911.718	11010
911.833	10999
911.947	10942
912.062	10904
912.176	10934
912.291	10999
912.405	10995
912.519	11204
912.633	11246
912.748	11045
912.862	11048
912.976	10942
913.09	10816
913.204	10816
913.318	10961
913.431	11018
913.545	10987
913.659	10968
913.772	10828
913.886	10828
914	10717
914.113	10946
914.226	10968
914.34	10805
914.453	10717
914.566	10877
914.68	10748
914.793	10755
914.906	10493
915.019	10577
915.132	10348
915.245	10481
915.358	10535
915.47	10500
915.583	10580
915.696	10577
915.809	10672
915.921	10668
916.034	10485
916.146	10432
916.259	10527
916.371	10584
916.483	10527
916.595	10531
916.708	10497
916.82	10371
916.932	10478
917.044	10424
917.156	10440
917.268	10371
917.38	10394
917.491	10394
917.603	10367
917.715	10421
917.826	10500
917.938	10424
918.049	10211
918.161	10379
918.272	10512
918.384	10474
918.495	10299
918.606	10238
918.717	10124
918.828	10306
918.939	10303
919.05	10166
919.161	10249
919.272	10143
919.383	10090
919.494	10261
919.604	10451
919.715	10287
919.826	10135
919.936	10207
920.047	10299
920.157	10287
920.267	10462
920.378	10284
920.488	10325
920.598	10481
920.708	10596
920.818	10440
920.928	10443
921.038	10569
921.148	10615
921.258	10280
921.368	10185
921.477	10097
921.587	10131
921.697	10021
921.806	10128
921.916	10029
922.025	9869
922.134	9842
922.244	9717
922.353	9884
922.462	9720
922.571	9660
922.68	9515
922.789	9530
922.898	9504
923.007	9500
923.116	9538
923.224	9500
923.333	9496
923.442	9378
923.55	9329
923.659	9332
923.767	9504
923.876	9317
923.984	9469
924.092	9340
924.201	9321
924.309	9401
924.417	9431
924.525	9260
924.633	9348
924.741	10230
924.849	9116
924.956	9279
925.064	9112
925.172	9100
925.279	9127
925.387	9169
925.494	9142
925.602	9268
925.709	9256
925.816	9161
925.924	9211
926.031	9287
926.138	9173
926.245	9214
926.352	9017
926.459	9173
926.566	9272
926.673	9089
926.779	9043
926.886	8967
926.993	8872
927.099	8864
927.206	8785
927.312	8857
927.419	8921
927.525	8883
927.631	8868
927.737	8758
927.843	8746
927.95	8655
928.056	8754
928.162	8762
928.267	8804
928.373	9332
928.479	8830
928.585	8598
928.69	8701
928.796	8693
928.901	8689
929.007	8549
929.112	8716
929.218	8629
929.323	8560
929.428	8511
929.533	8682
929.638	8511
929.743	8659
929.848	8602
929.953	8571
930.058	8469
930.163	8385
930.267	8396
930.372	8469
930.477	8305
930.581	8568
930.685	8393
930.79	8301
930.894	8328
930.998	8343
931.103	8450
931.207	8100
931.311	8020
931.415	7947
931.519	7792
931.623	7772
