Data from test_V78500241_2350.txt Node
Date: Fri Mar 25 14:50:04 CST 2022
User: usil
Spectrometer: V785-0024
Trigger mode: 0
Integration Time (sec): 4.000000E-1
Scans to average: 1
Nonlinearity correction enabled: false
Boxcar width: 0
Storing dark spectrum: false
XAxis mode: Wavelengths
Number of Pixels in Spectrum: 1024
>>>>>Begin Spectral Data<<<<<
801.071	22265
801.214	21991
801.356	21888
801.499	21800
801.641	21595
801.783	21644
801.926	21644
802.068	21488
802.211	21557
802.353	21370
802.496	20994
802.638	21161
802.78	21017
802.923	20876
803.065	20826
803.208	20819
803.35	20956
803.492	20899
803.635	21047
803.777	20823
803.919	21032
804.061	21287
804.204	20937
804.346	20842
804.488	20792
804.63	20880
804.773	20659
804.915	20899
805.057	20838
805.199	20788
805.341	20880
805.483	20948
805.626	20861
805.768	20617
805.91	20777
806.052	20826
806.194	20648
806.336	20819
806.478	20785
806.62	20834
806.762	20804
806.904	20982
807.046	21176
807.188	21214
807.33	21192
807.472	21260
807.614	21043
807.756	21138
807.898	20876
808.04	20902
808.182	20887
808.324	20796
808.465	20937
808.607	21119
808.749	21218
808.891	21317
809.033	21325
809.174	21272
809.316	21138
809.458	21135
809.6	21127
809.741	21272
809.883	21344
810.025	21393
810.166	21378
810.308	21370
810.45	21325
810.591	21123
810.733	21161
810.875	20883
811.016	20921
811.158	20758
811.299	21119
811.441	21142
811.582	21085
811.724	21036
811.865	20891
812.007	20982
812.148	20979
812.29	20960
812.431	21165
812.573	21165
812.714	21374
812.855	21431
812.997	21530
813.138	21724
813.279	21599
813.421	21462
813.562	21325
813.703	21214
813.845	21077
813.986	20842
814.127	20640
814.268	20701
814.41	20583
814.551	20503
814.692	20518
814.833	20385
814.974	20389
815.115	20450
815.256	20431
815.397	20267
815.539	20347
815.68	20336
815.821	20134
815.962	20206
816.103	20252
816.244	20115
816.385	19989
816.526	19989
816.666	19799
816.807	19677
816.948	19738
817.089	19734
817.23	19666
817.371	19628
817.512	19643
817.653	19586
817.793	19502
817.934	19582
818.075	19655
818.216	19632
818.356	19601
818.497	19460
818.638	19244
818.778	19308
818.919	19301
819.06	19343
819.2	19426
819.341	19518
819.481	19460
819.622	19578
819.762	19860
819.903	19742
820.043	19734
820.184	19685
820.324	19537
820.465	19639
820.605	19586
820.746	19616
820.886	19445
821.026	19575
821.167	19575
821.307	19696
821.447	19670
821.588	19495
821.728	19407
821.868	19183
822.008	19019
822.149	19080
822.289	18985
822.429	18692
822.569	18753
822.709	18700
822.849	18475
822.99	18604
823.13	18433
823.27	18464
823.41	18311
823.55	18186
823.69	18460
823.83	18277
823.97	18228
824.11	18144
824.25	18095
824.389	18068
824.529	18285
824.669	18076
824.809	18277
824.949	18152
825.089	18106
825.228	18095
825.368	17904
825.508	17847
825.648	17904
825.787	17939
825.927	17863
826.067	17767
826.206	17771
826.346	17939
826.485	17870
826.625	17885
826.765	18019
826.904	17889
827.044	17611
827.183	17642
827.323	17554
827.462	17684
827.601	17505
827.741	17535
827.88	17566
828.02	17600
828.159	17585
828.298	17653
828.437	17577
828.577	17482
828.716	17642
828.855	17623
828.994	17341
829.134	17265
829.273	17345
829.412	17200
829.551	17216
829.69	17223
829.829	17265
829.968	17448
830.107	17318
830.246	17368
830.385	17242
830.524	17277
830.663	17189
830.802	17022
830.941	16938
831.08	16881
831.219	17056
831.357	17025
831.496	17208
831.635	17022
831.774	16786
831.913	16721
832.051	16660
832.19	16786
832.329	16672
832.467	16561
832.606	16573
832.744	16474
832.883	16603
833.022	16451
833.16	16569
833.299	16637
833.437	16687
833.576	16702
833.714	16675
833.852	16812
833.991	16679
834.129	16634
834.267	16615
834.406	16622
834.544	16603
834.682	16637
834.821	16683
834.959	16801
835.097	16596
835.235	16793
835.373	16630
835.511	16569
835.65	16588
835.788	16459
835.926	16455
836.064	16462
836.202	16405
836.34	16485
836.478	16618
836.615	16542
836.753	16569
836.891	16672
837.029	16672
837.167	16508
837.305	16382
837.443	16424
837.58	16390
837.718	16485
837.856	16512
837.993	16405
838.131	16409
838.269	16402
838.406	16386
838.544	16295
838.681	16139
838.819	15998
838.956	15994
839.094	15979
839.231	15949
839.369	16112
839.506	16310
839.643	16253
839.781	15979
839.918	15869
840.055	15941
840.193	15903
840.33	15911
840.467	15926
840.604	16006
840.742	16265
840.879	15751
841.016	15857
841.153	15915
841.29	15994
841.427	16002
841.564	16040
841.701	15934
841.838	15983
841.975	15903
842.112	15945
842.249	15793
842.385	15724
842.522	15918
842.659	15724
842.796	15736
842.933	15701
843.069	15682
843.206	15720
843.343	15759
843.479	15819
843.616	15778
843.752	15466
843.889	15568
844.025	15660
844.162	15538
844.298	15603
844.435	15473
844.571	15481
844.708	15629
844.844	15660
844.98	15717
845.117	15622
845.253	15405
845.389	15374
845.525	15462
845.661	15351
845.798	15211
845.934	15264
846.07	15237
846.206	15363
846.342	15389
846.478	15370
846.614	15127
846.75	15024
846.886	15131
847.022	15146
847.158	15100
847.294	15074
847.429	15127
847.565	15005
847.701	15256
847.837	14883
847.972	14769
848.108	14914
848.244	14933
848.379	14781
848.515	14648
848.65	14727
848.786	14651
848.921	14727
849.057	14697
849.192	14697
849.328	14697
849.463	14731
849.598	14727
849.734	14689
849.869	14552
850.004	14434
850.14	14495
850.275	14530
850.41	14339
850.545	14454
850.68	14488
850.815	14393
850.95	14457
851.085	14636
851.22	14526
851.355	14461
851.49	14454
851.625	14476
851.76	14469
851.895	14305
852.03	14377
852.165	14450
852.299	14465
852.434	14495
852.569	14518
852.703	14457
852.838	14488
852.973	14587
853.107	14590
853.242	14381
853.376	14294
853.511	14282
853.645	14240
853.78	14256
853.914	14324
854.048	14309
854.183	14294
854.317	14301
854.451	14381
854.585	14320
854.72	14305
854.854	14317
854.988	14202
855.122	14317
855.256	14077
855.39	14336
855.524	14415
855.658	14377
855.792	14377
855.926	14362
856.06	14294
856.194	14427
856.327	14309
856.461	14271
856.595	14244
856.729	14259
856.862	14374
856.996	14355
857.13	14427
857.263	14396
857.397	14320
857.53	14294
857.664	14351
857.797	14366
857.931	14533
858.064	14427
858.197	14438
858.331	14419
858.464	14282
858.597	14176
858.731	14278
858.864	14309
858.997	14370
859.13	14317
859.263	14355
859.396	14415
859.529	14324
859.662	14282
859.795	14199
859.928	14351
860.061	14473
860.194	14434
860.327	14355
860.46	14305
860.592	14415
860.725	14499
860.858	14366
860.99	14294
861.123	14271
861.256	14286
861.388	14358
861.521	14800
861.653	14240
861.786	14153
861.918	14149
862.05	14256
862.183	14248
862.315	14240
862.447	14324
862.58	14221
862.712	14088
862.844	13928
862.976	14149
863.108	14062
863.24	14419
863.372	14020
863.504	14031
863.636	14069
863.768	14130
863.9	14058
864.032	13982
864.164	14001
864.296	14050
864.428	14191
864.559	14100
864.691	14119
864.823	14149
864.954	14138
865.086	14164
865.217	14119
865.349	14035
865.48	14027
865.612	14130
865.743	14183
865.875	14195
866.006	14043
866.137	14111
866.269	14088
866.4	14130
866.531	14027
866.662	14103
866.793	14027
866.924	13982
867.055	14115
867.186	14062
867.317	14035
867.448	13936
867.579	14008
867.71	13955
867.841	14012
867.972	14092
868.103	14062
868.233	14039
868.364	14084
868.495	14180
868.625	14267
868.756	14446
868.886	14290
869.017	14332
869.147	14389
869.278	14419
869.408	14438
869.539	14366
869.669	14370
869.799	14275
869.929	14393
870.06	14454
870.19	14602
870.32	14602
870.45	14667
870.58	14686
870.71	14857
870.84	14925
870.97	14708
871.1	14708
871.23	14887
871.36	14902
871.489	14857
871.619	14880
871.749	14952
871.879	15024
872.008	15070
872.138	14880
872.267	14880
872.397	14830
872.526	14739
872.656	14720
872.785	14731
872.915	14967
873.044	14982
873.173	15013
873.303	14979
873.432	15070
873.561	15100
873.69	14982
873.819	14933
873.948	15028
874.077	15077
874.206	15001
874.335	14986
874.464	15184
874.593	15306
874.722	15188
874.851	15279
874.979	15298
875.108	15279
875.237	15268
875.365	15207
875.494	15272
875.623	15393
875.751	15222
875.88	15260
876.008	15351
876.136	15504
876.265	15694
876.393	15808
876.521	15793
876.65	15759
876.778	15713
876.906	15724
877.034	15644
877.162	15663
877.29	15591
877.418	15675
877.546	15717
877.674	15675
877.802	15785
877.93	15819
878.058	15660
878.185	15538
878.313	15690
878.441	15732
878.568	15454
878.696	15686
878.824	15545
878.951	15793
879.079	15800
879.206	16055
879.333	15762
879.461	15713
879.588	15846
879.715	15911
879.842	15987
879.97	15751
880.097	15629
880.224	15523
880.351	15557
880.478	15553
880.605	15450
880.732	15542
880.859	15781
880.986	15534
881.112	15660
881.239	15389
881.366	15351
881.493	15287
881.619	15097
881.746	15230
881.872	15146
881.999	15230
882.125	15150
882.252	15340
882.378	15287
882.505	15370
882.631	15142
882.757	15100
882.883	15020
883.01	15070
883.136	14967
883.262	14956
883.388	14811
883.514	14998
883.64	14918
883.766	14967
883.892	14883
884.018	14823
884.143	14971
884.269	15055
884.395	14785
884.52	14663
884.646	14785
884.772	14545
884.897	14636
885.023	14792
885.148	14815
885.274	14868
885.399	14815
885.524	14731
885.65	14686
885.775	14651
885.9	14811
886.025	14880
886.15	14819
886.275	14686
886.4	14651
886.525	14739
886.65	14632
886.775	14602
886.9	14826
887.025	14960
887.149	14754
887.274	14526
887.399	14552
887.523	14533
887.648	14454
887.773	14412
887.897	14579
888.021	14590
888.146	14537
888.27	14651
888.395	14625
888.519	14613
888.643	14602
888.767	14644
888.891	14484
889.015	14442
889.139	14309
889.263	14339
889.387	14511
889.511	14632
889.635	14579
889.759	14313
889.883	14419
890.006	14484
890.13	14545
890.254	14393
890.377	14320
890.501	14294
890.624	14161
890.748	14282
890.871	14206
890.995	14119
891.118	14073
891.241	14084
891.364	14130
891.488	14252
891.611	14050
891.734	14153
891.857	14176
891.98	14088
892.103	14157
892.226	14149
892.349	14088
892.471	13989
892.594	14050
892.717	14020
892.839	14046
892.962	14202
893.085	14195
893.207	14077
893.33	14012
893.452	14134
893.575	14206
893.697	14134
893.819	14317
893.941	14412
894.064	14320
894.186	14050
894.308	14180
894.43	14275
894.552	14294
894.674	14275
894.796	14050
894.918	14191
895.04	14161
895.161	14229
895.283	14195
895.405	14168
895.526	14168
895.648	14214
895.769	14263
895.891	14233
896.012	14339
896.134	14301
896.255	14301
896.376	14275
896.498	14240
896.619	14271
896.74	14317
896.861	14309
896.982	14636
897.103	14739
897.224	14503
897.345	14473
897.466	14480
897.587	14518
897.708	14697
897.828	14746
897.949	14545
898.07	14480
898.19	14579
898.311	14735
898.431	14621
898.552	14670
898.672	14686
898.792	14834
898.913	14720
899.033	14446
899.153	14514
899.273	14488
899.393	14427
899.513	14541
899.633	14518
899.753	14431
899.873	14473
899.993	14495
900.113	14434
900.232	14613
900.352	14571
900.472	14469
900.591	14313
900.711	14286
900.83	14362
900.95	14476
901.069	14438
901.189	14294
901.308	14107
901.427	14001
901.546	14031
901.665	14020
901.784	14119
901.904	13928
902.023	13841
902.141	13643
902.26	13556
902.379	13708
902.498	13537
902.617	13548
902.735	13704
902.854	13571
902.973	13616
903.091	13384
903.21	13346
903.328	13339
903.446	13293
903.565	13183
903.683	13141
903.801	13114
903.919	13217
904.038	13061
904.156	13008
904.274	13031
904.392	13008
904.51	13038
904.627	12977
904.745	13012
904.863	13046
904.981	12806
905.098	12620
905.216	12684
905.334	12753
905.451	12700
905.569	12616
905.686	12620
905.803	12665
905.921	12506
906.038	12635
906.155	12456
906.272	12403
906.389	12407
906.506	12277
906.623	12254
906.74	12292
906.857	12106
906.974	12213
907.091	12281
907.208	12388
907.324	12220
907.441	12152
907.557	12041
907.674	12003
907.79	11965
907.907	11969
908.023	12068
908.139	11996
908.256	11946
908.372	11901
908.488	11904
908.604	11707
908.72	11714
908.836	11813
908.952	11783
909.068	11843
909.184	11901
909.3	11802
909.415	11809
909.531	11767
909.647	11516
909.762	11509
909.878	11543
909.993	11547
910.108	11482
910.224	11528
910.339	11585
910.454	11379
910.57	11372
910.685	11307
910.8	11577
910.915	11566
911.03	11444
911.145	11239
911.259	11201
911.374	11227
911.489	11201
911.604	11083
911.718	10976
911.833	10965
911.947	10835
912.062	10831
912.176	11022
912.291	10995
912.405	10938
912.519	11128
912.633	11261
912.748	11140
912.862	10995
912.976	10877
913.09	10854
913.204	10854
913.318	10953
913.431	10972
913.545	10915
913.659	11056
913.772	10805
913.886	10721
914	10793
914.113	10866
914.226	10938
914.34	10839
914.453	10649
914.566	10854
914.68	10702
914.793	10672
914.906	10531
915.019	10512
915.132	10303
915.245	10538
915.358	10554
915.47	10500
915.583	10470
915.696	10542
915.809	10603
915.921	10668
916.034	10432
916.146	10516
916.259	10421
916.371	10535
916.483	10455
916.595	10356
916.708	10379
916.82	10451
916.932	10424
917.044	10478
917.156	10379
917.268	10280
917.38	10246
917.491	10348
917.603	10413
917.715	10459
917.826	10443
917.938	10325
918.049	10196
918.161	10261
918.272	10565
918.384	10424
918.495	10367
918.606	10242
918.717	10078
918.828	10227
918.939	10124
919.05	10036
919.161	10116
919.272	10017
919.383	10109
919.494	10211
919.604	10398
919.715	10150
919.826	10101
919.936	10177
920.047	10329
920.157	10227
920.267	10390
920.378	10276
920.488	10150
920.598	10405
920.708	10607
920.818	10443
920.928	10379
921.038	10618
921.148	10561
921.258	10276
921.368	10128
921.477	10055
921.587	10040
921.697	9968
921.806	10173
921.916	9968
922.025	9850
922.134	9751
922.244	9755
922.353	9800
922.462	9587
922.571	9603
922.68	9523
922.789	9469
922.898	9507
923.007	9351
923.116	9439
923.224	9454
923.333	9496
923.442	9382
923.55	9370
923.659	9302
923.767	9386
923.876	9367
923.984	9424
924.092	9230
924.201	9382
924.309	9393
924.417	9332
924.525	9310
924.633	9325
924.741	10074
924.849	9116
924.956	9325
925.064	9161
925.172	9020
925.279	9062
925.387	9173
925.494	9157
925.602	9245
925.709	9279
925.816	9058
925.924	9077
926.031	9310
926.138	9123
926.245	9173
926.352	9039
926.459	9184
926.566	9272
926.673	9097
926.779	9062
926.886	9036
926.993	8906
927.099	8887
927.206	8773
927.312	8861
927.419	8895
927.525	8811
927.631	8895
927.737	8800
927.843	8712
927.95	8545
928.056	8663
928.162	8739
928.267	8811
928.373	9370
928.479	8868
928.585	8575
928.69	8731
928.796	8758
928.901	8632
929.007	8518
929.112	8689
929.218	8667
929.323	8556
929.428	8530
929.533	8724
929.638	8514
929.743	8571
929.848	8571
929.953	8568
930.058	8492
930.163	8328
930.267	8427
930.372	8514
930.477	8309
930.581	8610
930.685	8351
930.79	8279
930.894	8351
930.998	8195
931.103	8522
931.207	8111
931.311	8008
931.415	7932
931.519	7776
931.623	7788
