Data from test_V78500241_2883.txt Node
Date: Fri Mar 25 14:53:47 CST 2022
User: usil
Spectrometer: V785-0024
Trigger mode: 0
Integration Time (sec): 4.000000E-1
Scans to average: 1
Nonlinearity correction enabled: false
Boxcar width: 0
Storing dark spectrum: false
XAxis mode: Wavelengths
Number of Pixels in Spectrum: 1024
>>>>>Begin Spectral Data<<<<<
801.071	22143
801.214	21915
801.356	21766
801.499	21694
801.641	21416
801.783	21431
801.926	21507
802.068	21386
802.211	21317
802.353	21150
802.496	20971
802.638	20971
802.78	20944
802.923	20872
803.065	20796
803.208	20731
803.35	20716
803.492	20902
803.635	20891
803.777	20739
803.919	20845
804.061	21161
804.204	20746
804.346	20651
804.488	20682
804.63	20796
804.773	20663
804.915	20705
805.057	20845
805.199	20598
805.341	20754
805.483	20800
805.626	20826
805.768	20651
805.91	20697
806.052	20727
806.194	20594
806.336	20765
806.478	20663
806.62	20731
806.762	20819
806.904	20819
807.046	21062
807.188	20952
807.33	21157
807.472	21135
807.614	20944
807.756	20971
807.898	20743
808.04	20800
808.182	20708
808.324	20750
808.465	20845
808.607	20902
808.749	21017
808.891	21184
809.033	21195
809.174	21112
809.316	21093
809.458	21028
809.6	20887
809.741	21127
809.883	21207
810.025	21249
810.166	21226
810.308	21184
810.45	21192
810.591	21108
810.733	21017
810.875	20823
811.016	20834
811.158	20785
811.299	20796
811.441	21058
811.582	20914
811.724	20819
811.865	20830
812.007	20921
812.148	20830
812.29	20708
812.431	21116
812.573	21028
812.714	21260
812.855	21302
812.997	21424
813.138	21515
813.279	21435
813.421	21393
813.562	21260
813.703	21138
813.845	21013
813.986	20682
814.127	20446
814.268	20488
814.41	20366
814.551	20351
814.692	20450
814.833	20431
814.974	20240
815.115	20454
815.256	20309
815.397	20210
815.539	20278
815.68	20214
815.821	19955
815.962	20202
816.103	20134
816.244	19955
816.385	19875
816.526	19837
816.666	19540
816.807	19533
816.948	19605
817.089	19708
817.23	19548
817.371	19540
817.512	19487
817.653	19616
817.793	19514
817.934	19586
818.075	19457
818.216	19499
818.356	19384
818.497	19419
818.638	19114
818.778	19183
818.919	19190
819.06	19129
819.2	19320
819.341	19403
819.481	19468
819.622	19472
819.762	19712
819.903	19556
820.043	19567
820.184	19491
820.324	19464
820.465	19510
820.605	19506
820.746	19525
820.886	19422
821.026	19426
821.167	19518
821.307	19438
821.447	19441
821.588	19335
821.728	19168
821.868	19031
822.008	18859
822.149	18970
822.289	18848
822.429	18627
822.569	18593
822.709	18426
822.849	18300
822.99	18357
823.13	18448
823.27	18300
823.41	18140
823.55	18110
823.69	18228
823.83	18201
823.97	18178
824.11	17958
824.25	17897
824.389	18034
824.529	18095
824.669	17927
824.809	18072
824.949	17984
825.089	18034
825.228	18022
825.368	17737
825.508	17824
825.648	17786
825.787	17737
825.927	17817
826.067	17684
826.206	17566
826.346	17737
826.485	17718
826.625	17722
826.765	17836
826.904	17691
827.044	17566
827.183	17402
827.323	17345
827.462	17433
827.601	17398
827.741	17307
827.88	17512
828.02	17250
828.159	17421
828.298	17528
828.437	17334
828.577	17383
828.716	17467
828.855	17383
828.994	17117
829.134	17128
829.273	17140
829.412	17109
829.551	17140
829.69	17071
829.829	17193
829.968	17102
830.107	17231
830.246	17231
830.385	17174
830.524	17098
830.663	16957
830.802	16854
830.941	16733
831.08	16755
831.219	16862
831.357	16896
831.496	17033
831.635	16866
831.774	16645
831.913	16755
832.051	16542
832.19	16599
832.329	16546
832.467	16455
832.606	16489
832.744	16394
832.883	16390
833.022	16443
833.16	16428
833.299	16550
833.437	16519
833.576	16538
833.714	16470
833.852	16550
833.991	16478
834.129	16603
834.267	16531
834.406	16508
834.544	16546
834.682	16504
834.821	16523
834.959	16660
835.097	16554
835.235	16630
835.373	16546
835.511	16573
835.65	16405
835.788	16432
835.926	16272
836.064	16124
836.202	16303
836.34	16523
836.478	16584
836.615	16234
836.753	16512
836.891	16531
837.029	16519
837.167	16348
837.305	16348
837.443	16360
837.58	16276
837.718	16284
837.856	16379
837.993	16280
838.131	16211
838.269	16158
838.406	16215
838.544	16181
838.681	16036
838.819	15907
838.956	15804
839.094	15827
839.231	15953
839.369	16025
839.506	16196
839.643	16055
839.781	15937
839.918	15838
840.055	15949
840.193	15797
840.33	15789
840.467	15895
840.604	15785
840.742	15983
840.879	15663
841.016	15743
841.153	15724
841.29	15930
841.427	16013
841.564	15873
841.701	15770
841.838	15732
841.975	15679
842.112	15736
842.249	15671
842.385	15549
842.522	15846
842.659	15648
842.796	15610
842.933	15698
843.069	15549
843.206	15610
843.343	15652
843.479	15671
843.616	15629
843.752	15420
843.889	15393
844.025	15591
844.162	15428
844.298	15492
844.435	15302
844.571	15393
844.708	15435
844.844	15572
844.98	15504
845.117	15469
845.253	15374
845.389	15241
845.525	15389
845.661	15348
845.798	15192
845.934	15260
846.07	15176
846.206	15317
846.342	15260
846.478	15214
846.614	15077
846.75	15036
846.886	14975
847.022	15047
847.158	14937
847.294	15070
847.429	14994
847.565	14895
847.701	15195
847.837	14659
847.972	14727
848.108	14819
848.244	14727
848.379	14610
848.515	14514
848.65	14594
848.786	14518
848.921	14632
849.057	14587
849.192	14697
849.328	14640
849.463	14621
849.598	14587
849.734	14541
849.869	14381
850.004	14324
850.14	14412
850.275	14381
850.41	14298
850.545	14248
850.68	14290
850.815	14347
850.95	14275
851.085	14423
851.22	14484
851.355	14301
851.49	14324
851.625	14275
851.76	14237
851.895	14206
852.03	14138
852.165	14256
852.299	14328
852.434	14473
852.569	14362
852.703	14446
852.838	14412
852.973	14480
853.107	14431
853.242	14343
853.376	14191
853.511	14084
853.645	14168
853.78	14199
853.914	14164
854.048	14187
854.183	14096
854.317	14229
854.451	14438
854.585	14176
854.72	14248
854.854	14263
854.988	14149
855.122	14218
855.256	14027
855.39	14119
855.524	14240
855.658	14263
855.792	14237
855.926	14313
856.06	14256
856.194	14438
856.327	14176
856.461	14168
856.595	14149
856.729	14134
856.862	14252
856.996	14248
857.13	14206
857.263	14355
857.397	14381
857.53	14267
857.664	14336
857.797	14294
857.931	14351
858.064	14168
858.197	14233
858.331	14240
858.464	14172
858.597	14123
858.731	14149
858.864	14115
858.997	14088
859.13	14263
859.263	14221
859.396	14294
859.529	14195
859.662	14309
859.795	14096
859.928	14244
860.061	14404
860.194	14381
860.327	14237
860.46	14256
860.592	14267
860.725	14301
860.858	14225
860.99	14214
861.123	14138
861.256	14176
861.388	14225
861.521	14823
861.653	14191
861.786	14031
861.918	14035
862.05	14062
862.183	14161
862.315	14180
862.447	14183
862.58	14130
862.712	14001
862.844	14001
862.976	14046
863.108	14100
863.24	14381
863.372	13883
863.504	13967
863.636	13978
863.768	14005
863.9	13978
864.032	13967
864.164	13993
864.296	14035
864.428	14161
864.559	14088
864.691	14081
864.823	14081
864.954	14024
865.086	14046
865.217	13963
865.349	13898
865.48	13940
865.612	13963
865.743	14100
865.875	13986
866.006	13993
866.137	13955
866.269	13989
866.4	13940
866.531	13951
866.662	13841
866.793	13890
866.924	13875
867.055	14008
867.186	13928
867.317	13967
867.448	13860
867.579	13925
867.71	13909
867.841	13845
867.972	13921
868.103	13959
868.233	14012
868.364	14016
868.495	14039
868.625	14183
868.756	14332
868.886	14145
869.017	14180
869.147	14366
869.278	14267
869.408	14153
869.539	14126
869.669	14210
869.799	14237
869.929	14366
870.06	14275
870.19	14648
870.32	14499
870.45	14568
870.58	14587
870.71	14765
870.84	14632
870.97	14530
871.1	14564
871.23	14815
871.36	14838
871.489	14693
871.619	14769
871.749	14815
871.879	14800
872.008	14918
872.138	14785
872.267	14712
872.397	14712
872.526	14716
872.656	14594
872.785	14606
872.915	14796
873.044	14918
873.173	14834
873.303	14807
873.432	14861
873.561	15009
873.69	14880
873.819	14921
873.948	14982
874.077	14902
874.206	14815
874.335	14918
874.464	15032
874.593	15237
874.722	15123
874.851	15367
874.979	15233
875.108	15176
875.237	15036
875.365	15119
875.494	15249
875.623	15268
875.751	15104
875.88	15180
876.008	15336
876.136	15401
876.265	15564
876.393	15770
876.521	15698
876.65	15759
876.778	15625
876.906	15568
877.034	15469
877.162	15538
877.29	15488
877.418	15545
877.546	15584
877.674	15595
877.802	15492
877.93	15663
878.058	15542
878.185	15428
878.313	15663
878.441	15564
878.568	15378
878.696	15526
878.824	15542
878.951	15686
879.079	15720
879.206	15850
879.333	15778
879.461	15728
879.588	15690
879.715	15766
879.842	15823
879.97	15648
880.097	15496
880.224	15412
880.351	15538
880.478	15469
880.605	15435
880.732	15553
880.859	15694
880.986	15526
881.112	15382
881.239	15389
881.366	15279
881.493	15135
881.619	15154
881.746	15074
881.872	15070
881.999	15085
882.125	15047
882.252	15157
882.378	15100
882.505	15146
882.631	15024
882.757	14967
882.883	14910
883.01	14921
883.136	14823
883.262	14804
883.388	14800
883.514	14971
883.64	14979
883.766	14857
883.892	14659
884.018	14708
884.143	14902
884.269	14941
884.395	14701
884.52	14564
884.646	14632
884.772	14545
884.897	14590
885.023	14610
885.148	14655
885.274	14788
885.399	14659
885.524	14636
885.65	14667
885.775	14575
885.9	14644
886.025	14796
886.15	14606
886.275	14629
886.4	14526
886.525	14560
886.65	14465
886.775	14579
886.9	14708
887.025	14842
887.149	14610
887.274	14514
887.399	14415
887.523	14446
887.648	14396
887.773	14400
887.897	14564
888.021	14526
888.146	14393
888.27	14606
888.395	14708
888.519	14484
888.643	14492
888.767	14465
888.891	14362
889.015	14282
889.139	14374
889.263	14267
889.387	14461
889.511	14560
889.635	14438
889.759	14275
889.883	14248
890.006	14412
890.13	14434
890.254	14206
890.377	14294
890.501	14130
890.624	14138
890.748	14218
890.871	14077
890.995	13993
891.118	13974
891.241	14084
891.364	14008
891.488	14123
891.611	13989
891.734	14008
891.857	14077
891.98	14088
892.103	14065
892.226	14092
892.349	13967
892.471	13871
892.594	14069
892.717	13978
892.839	13982
892.962	13986
893.085	14058
893.207	14073
893.33	13963
893.452	13860
893.575	14005
893.697	14008
893.819	14263
893.941	14252
894.064	14183
894.186	14054
894.308	13928
894.43	14180
894.552	14248
894.674	14153
894.796	13993
894.918	14081
895.04	14115
895.161	14275
895.283	14195
895.405	14073
895.526	14134
895.648	14142
895.769	14180
895.891	14199
896.012	14149
896.134	14298
896.255	14206
896.376	14123
896.498	14290
896.619	14275
896.74	14142
896.861	14187
896.982	14518
897.103	14632
897.224	14522
897.345	14446
897.466	14438
897.587	14434
897.708	14583
897.828	14503
897.949	14385
898.07	14389
898.19	14473
898.311	14659
898.431	14442
898.552	14530
898.672	14587
898.792	14670
898.913	14537
899.033	14495
899.153	14438
899.273	14286
899.393	14438
899.513	14484
899.633	14446
899.753	14355
899.873	14415
899.993	14545
900.113	14389
900.232	14404
900.352	14366
900.472	14301
900.591	14343
900.711	14298
900.83	14221
900.95	14355
901.069	14362
901.189	14191
901.308	13986
901.427	14001
901.546	13978
901.665	13978
901.784	13947
901.904	13913
902.023	13780
902.141	13590
902.26	13575
902.379	13578
902.498	13552
902.617	13430
902.735	13453
902.854	13544
902.973	13514
903.091	13225
903.21	13217
903.328	13244
903.446	13175
903.565	13069
903.683	13107
903.801	13031
903.919	13149
904.038	13057
904.156	12897
904.274	12989
904.392	12905
904.51	12939
904.627	12939
904.745	12985
904.863	12924
904.981	12677
905.098	12616
905.216	12612
905.334	12650
905.451	12547
905.569	12585
905.686	12631
905.803	12536
905.921	12475
906.038	12593
906.155	12429
906.272	12330
906.389	12330
906.506	12254
906.623	12216
906.74	12144
906.857	12110
906.974	12136
907.091	12167
907.208	12391
907.324	12239
907.441	12026
907.557	11984
907.674	11954
907.79	11904
907.907	11908
908.023	11946
908.139	11920
908.256	11855
908.372	11863
908.488	11912
908.604	11653
908.72	11604
908.836	11699
908.952	11589
909.068	11676
909.184	11840
909.3	11726
909.415	11794
909.531	11809
909.647	11505
909.762	11417
909.878	11410
909.993	11455
910.108	11398
910.224	11486
910.339	11436
910.454	11391
910.57	11337
910.685	11273
910.8	11581
910.915	11493
911.03	11299
911.145	11147
911.259	11151
911.374	11189
911.489	11075
911.604	11067
911.718	10938
911.833	11018
911.947	10843
912.062	10755
912.176	10938
912.291	10942
912.405	10957
912.519	11060
912.633	11159
912.748	11025
912.862	10991
912.976	10778
913.09	10748
913.204	10710
913.318	10892
913.431	10869
913.545	10877
913.659	10927
913.772	10858
913.886	10740
914	10679
914.113	10744
914.226	10763
914.34	10767
914.453	10569
914.566	10767
914.68	10687
914.793	10592
914.906	10504
915.019	10436
915.132	10405
915.245	10436
915.358	10489
915.47	10466
915.583	10428
915.696	10512
915.809	10611
915.921	10626
916.034	10398
916.146	10405
916.259	10405
916.371	10459
916.483	10474
916.595	10306
916.708	10344
916.82	10409
916.932	10390
917.044	10413
917.156	10348
917.268	10234
917.38	10265
917.491	10200
917.603	10246
917.715	10341
917.826	10382
917.938	10268
918.049	10093
918.161	10246
918.272	10344
918.384	10478
918.495	10314
918.606	10158
918.717	10093
918.828	10150
918.939	10223
919.05	10097
919.161	10120
919.272	9918
919.383	10048
919.494	10257
919.604	10382
919.715	10181
919.826	10097
919.936	10109
920.047	10253
920.157	10166
920.267	10344
920.378	10246
920.488	10143
920.598	10303
920.708	10470
920.818	10379
920.928	10329
921.038	10493
921.148	10474
921.258	10207
921.368	10162
921.477	10010
921.587	9968
921.697	9960
921.806	10044
921.916	9899
922.025	9789
922.134	9755
922.244	9694
922.353	9728
922.462	9625
922.571	9561
922.68	9450
922.789	9393
922.898	9401
923.007	9424
923.116	9485
923.224	9454
923.333	9378
923.442	9279
923.55	9294
923.659	9336
923.767	9367
923.876	9268
923.984	9321
924.092	9272
924.201	9351
924.309	9321
924.417	9287
924.525	9264
924.633	9329
924.741	10192
924.849	9112
924.956	9218
925.064	9081
925.172	8944
925.279	8994
925.387	9089
925.494	9081
925.602	9249
925.709	9138
925.816	9013
925.924	9089
926.031	9180
926.138	9077
926.245	9085
926.352	9001
926.459	9100
926.566	9135
926.673	9028
926.779	8960
926.886	8975
926.993	8800
927.099	8804
927.206	8762
927.312	8743
927.419	8849
927.525	8823
927.631	8845
927.737	8716
927.843	8769
927.95	8625
928.056	8682
928.162	8617
928.267	8781
928.373	9351
928.479	8853
928.585	8575
928.69	8731
928.796	8663
928.901	8575
929.007	8480
929.112	8697
929.218	8598
929.323	8556
929.428	8488
929.533	8648
929.638	8438
929.743	8488
929.848	8568
929.953	8507
930.058	8454
930.163	8271
930.267	8301
930.372	8408
930.477	8271
930.581	8427
930.685	8366
930.79	8229
930.894	8259
930.998	8176
931.103	8377
931.207	7963
931.311	7986
931.415	7906
931.519	7799
931.623	7757
