Data from test_V78500241_969.txt Node
Date: Fri Mar 25 14:40:27 CST 2022
User: usil
Spectrometer: V785-0024
Trigger mode: 0
Integration Time (sec): 4.000000E-1
Scans to average: 1
Nonlinearity correction enabled: false
Boxcar width: 0
Storing dark spectrum: false
XAxis mode: Wavelengths
Number of Pixels in Spectrum: 1024
>>>>>Begin Spectral Data<<<<<
801.071	23440
801.214	23330
801.356	22965
801.499	22938
801.641	22774
801.783	22786
801.926	22679
802.068	22557
802.211	22615
802.353	22451
802.496	22268
802.638	22215
802.78	22352
802.923	22086
803.065	22029
803.208	22010
803.35	22139
803.492	22242
803.635	21987
803.777	22013
803.919	22192
804.061	22417
804.204	22181
804.346	22059
804.488	21888
804.63	22017
804.773	21884
804.915	21930
805.057	22276
805.199	22036
805.341	22044
805.483	22226
805.626	22109
805.768	21865
805.91	22082
806.052	22109
806.194	21956
806.336	22386
806.478	22078
806.62	22139
806.762	22188
806.904	22409
807.046	22569
807.188	22622
807.33	22683
807.472	22736
807.614	22618
807.756	22919
807.898	22809
808.04	22771
808.182	22908
808.324	23170
808.465	23433
808.607	23874
808.749	24133
808.891	24399
809.033	24410
809.174	24140
809.316	23984
809.458	23634
809.6	23334
809.741	23216
809.883	22961
810.025	23162
810.166	23041
810.308	22877
810.45	22843
810.591	22717
810.733	22611
810.875	22504
811.016	22402
811.158	22280
811.299	22455
811.441	22531
811.582	22341
811.724	22318
811.865	22314
812.007	22322
812.148	22299
812.29	22242
812.431	22356
812.573	22653
812.714	22603
812.855	22812
812.997	22873
813.138	22946
813.279	23006
813.421	22675
813.562	22702
813.703	22497
813.845	22417
813.986	22192
814.127	22002
814.268	21945
814.41	21816
814.551	21846
814.692	21861
814.833	21728
814.974	21675
815.115	21770
815.256	21797
815.397	21667
815.539	21652
815.68	21591
815.821	21545
815.962	21473
816.103	21519
816.244	21443
816.385	21336
816.526	21226
816.666	21184
816.807	20921
816.948	20960
817.089	20994
817.23	21180
817.371	21081
817.512	20895
817.653	20914
817.793	20975
817.934	20998
818.075	20952
818.216	20838
818.356	20861
818.497	20727
818.638	20465
818.778	20682
818.919	20564
819.06	20648
819.2	20648
819.341	20750
819.481	20785
819.622	20883
819.762	21169
819.903	21055
820.043	21020
820.184	20971
820.324	20994
820.465	20914
820.605	20891
820.746	20891
820.886	20674
821.026	20861
821.167	20864
821.307	20925
821.447	20781
821.588	20689
821.728	20579
821.868	20507
822.008	20256
822.149	20301
822.289	20256
822.429	19932
822.569	19917
822.709	19917
822.849	19761
822.99	19727
823.13	19753
823.27	19738
823.41	19556
823.55	19460
823.69	19499
823.83	19510
823.97	19495
824.11	19377
824.25	19304
824.389	19373
824.529	19400
824.669	19480
824.809	19373
824.949	19457
825.089	19362
825.228	19369
825.368	19198
825.508	19122
825.648	19221
825.787	19168
825.927	19137
826.067	19129
826.206	19023
826.346	19072
826.485	19095
826.625	19118
826.765	19179
826.904	19088
827.044	18943
827.183	18935
827.323	18840
827.462	18890
827.601	18795
827.741	18791
827.88	18825
828.02	18715
828.159	18688
828.298	18848
828.437	18848
828.577	18795
828.716	18890
828.855	18688
828.994	18578
829.134	18464
829.273	18601
829.412	18574
829.551	18475
829.69	18627
829.829	18525
829.968	18650
830.107	18601
830.246	18559
830.385	18467
830.524	18384
830.663	18304
830.802	18357
830.941	18144
831.08	18121
831.219	18083
831.357	18136
831.496	18262
831.635	18201
831.774	17973
831.913	17908
832.051	18003
832.19	17939
832.329	17988
832.467	17935
832.606	17771
832.744	17855
832.883	17714
833.022	17726
833.16	17809
833.299	17999
833.437	17965
833.576	17973
833.714	17942
833.852	18030
833.991	17958
834.129	17977
834.267	18034
834.406	17984
834.544	17992
834.682	17939
834.821	17923
834.959	18117
835.097	17927
835.235	17958
835.373	17893
835.511	17923
835.65	17786
835.788	17855
835.926	17691
836.064	17619
836.202	17573
836.34	17752
836.478	17726
836.615	17733
836.753	17790
836.891	17817
837.029	17828
837.167	17809
837.305	17695
837.443	17657
837.58	17547
837.718	17596
837.856	17703
837.993	17551
838.131	17562
838.269	17516
838.406	17573
838.544	17444
838.681	17254
838.819	17185
838.956	17052
839.094	17094
839.231	17227
839.369	17235
839.506	17478
839.643	17364
839.781	17170
839.918	17113
840.055	17242
840.193	17102
840.33	17079
840.467	17113
840.604	17223
840.742	17280
840.879	16957
841.016	17056
841.153	17037
841.29	17174
841.427	17113
841.564	17109
841.701	17094
841.838	16972
841.975	17006
842.112	16965
842.249	16866
842.385	16797
842.522	16984
842.659	16915
842.796	17022
842.933	16892
843.069	16877
843.206	16816
843.343	17010
843.479	16805
843.616	16961
843.752	16634
843.889	16713
844.025	16801
844.162	16687
844.298	16729
844.435	16713
844.571	16660
844.708	16713
844.844	16892
844.98	16930
845.117	16854
845.253	16828
845.389	16873
845.525	17140
845.661	17691
845.798	18019
845.934	18627
846.07	18627
846.206	18658
846.342	18384
846.478	17745
846.614	17132
846.75	16683
846.886	16470
847.022	16493
847.158	16306
847.294	16303
847.429	16303
847.565	16181
847.701	16356
847.837	15968
847.972	15945
848.108	15915
848.244	16040
848.379	15968
848.515	15861
848.65	15812
848.786	15861
848.921	15869
849.057	15907
849.192	15854
849.328	15869
849.463	15956
849.598	15808
849.734	15770
849.869	15648
850.004	15629
850.14	15629
850.275	15515
850.41	15431
850.545	15443
850.68	15542
850.815	15557
850.95	15549
851.085	15759
851.22	15701
851.355	15671
851.49	15561
851.625	15534
851.76	15481
851.895	15473
852.03	15313
852.165	15564
852.299	15568
852.434	15652
852.569	15576
852.703	15641
852.838	15580
852.973	15759
853.107	15728
853.242	15542
853.376	15450
853.511	15332
853.645	15363
853.78	15625
853.914	15496
854.048	15488
854.183	15420
854.317	15431
854.451	15663
854.585	15458
854.72	15355
854.854	15511
854.988	15317
855.122	15530
855.256	15370
855.39	15355
855.524	15485
855.658	15416
855.792	15454
855.926	15549
856.06	15492
856.194	15523
856.327	15431
856.461	15447
856.595	15424
856.729	15428
856.862	15564
856.996	15454
857.13	15633
857.263	15553
857.397	15576
857.53	15393
857.664	15458
857.797	15515
857.931	15515
858.064	15412
858.197	15504
858.331	15496
858.464	15329
858.597	15302
858.731	15431
858.864	15496
858.997	15389
859.13	15534
859.263	15420
859.396	15553
859.529	15443
859.662	15454
859.795	15435
859.928	15393
860.061	15545
860.194	15606
860.327	15431
860.46	15424
860.592	15576
860.725	15504
860.858	15519
860.99	15389
861.123	15431
861.256	15332
861.388	15435
861.521	16101
861.653	15393
861.786	15241
861.918	15348
862.05	15310
862.183	15523
862.315	15435
862.447	15557
862.58	15447
862.712	15176
862.844	15123
862.976	15233
863.108	15207
863.24	15641
863.372	15150
863.504	15203
863.636	15169
863.768	15226
863.9	15252
864.032	15032
864.164	15081
864.296	15214
864.428	15245
864.559	15310
864.691	15211
864.823	15169
864.954	15173
865.086	15344
865.217	15207
865.349	15123
865.48	15123
865.612	15089
865.743	15382
865.875	15150
866.006	15028
866.137	15264
866.269	15207
866.4	15066
866.531	15135
866.662	15036
866.793	15138
866.924	15135
867.055	15173
867.186	14990
867.317	15058
867.448	14990
867.579	15157
867.71	15013
867.841	14982
867.972	15100
868.103	15214
868.233	15180
868.364	15150
868.495	15165
868.625	15363
868.756	15466
868.886	15291
869.017	15424
869.147	15561
869.278	15545
869.408	15344
869.539	15389
869.669	15507
869.799	15397
869.929	15538
870.06	15538
870.19	15774
870.32	15739
870.45	15694
870.58	15819
870.71	15842
870.84	15888
870.97	15739
871.1	15789
871.23	15873
871.36	15953
871.489	15888
871.619	15945
871.749	16002
871.879	16086
872.008	16177
872.138	16010
872.267	16013
872.397	15907
872.526	15842
872.656	15854
872.785	15751
872.915	16040
873.044	16147
873.173	16002
873.303	16082
873.432	16112
873.561	16109
873.69	16082
873.819	16078
873.948	16048
874.077	16116
874.206	15968
874.335	16090
874.464	16192
874.593	16356
874.722	16360
874.851	16417
874.979	16436
875.108	16519
875.237	16382
875.365	16234
875.494	16314
875.623	16516
875.751	16341
875.88	16470
876.008	16512
876.136	16546
876.265	16835
876.393	16896
876.521	16972
876.65	16873
876.778	16885
876.906	16706
877.034	16717
877.162	16793
877.29	16634
877.418	16847
877.546	16896
877.674	16911
877.802	16866
877.93	16995
878.058	16744
878.185	16767
878.313	16911
878.441	17037
878.568	16892
878.696	16957
878.824	17140
878.951	17208
879.079	17478
879.206	17783
879.333	17802
879.461	17691
879.588	17996
879.715	18049
879.842	18140
879.97	17756
880.097	17383
880.224	17239
880.351	17003
880.478	16938
880.605	16927
880.732	16923
880.859	17143
880.986	16809
881.112	16946
881.239	16771
881.366	16698
881.493	16615
881.619	16603
881.746	16660
881.872	16641
881.999	16459
882.125	16497
882.252	16668
882.378	16561
882.505	16649
882.631	16398
882.757	16348
882.883	16360
883.01	16382
883.136	16371
883.262	16234
883.388	16230
883.514	16394
883.64	16371
883.766	16261
883.892	16143
884.018	16188
884.143	16367
884.269	16390
884.395	16082
884.52	16032
884.646	16067
884.772	16101
884.897	16002
885.023	16067
885.148	16067
885.274	16135
885.399	16219
885.524	16090
885.65	16063
885.775	16093
885.9	15911
886.025	16090
886.15	16093
886.275	16010
886.4	15876
886.525	15994
886.65	15907
886.775	15918
886.9	16006
887.025	16253
887.149	15895
887.274	15701
887.399	15759
887.523	15591
887.648	15671
887.773	15549
887.897	15793
888.021	15800
888.146	15739
888.27	15755
888.395	15800
888.519	15690
888.643	15759
888.767	15694
888.891	15675
889.015	15553
889.139	15595
889.263	15610
889.387	15663
889.511	15667
889.635	15705
889.759	15481
889.883	15374
890.006	15386
890.13	15667
890.254	15382
890.377	15416
890.501	15264
890.624	15275
890.748	15348
890.871	15256
890.995	15043
891.118	15009
891.241	15218
891.364	15207
891.488	15283
891.611	15150
891.734	15161
891.857	15237
891.98	15218
892.103	15264
892.226	15123
892.349	15123
892.471	15074
892.594	15116
892.717	15150
892.839	15192
892.962	15176
893.085	15169
893.207	15131
893.33	15005
893.452	15013
893.575	15055
893.697	15066
893.819	15245
893.941	15313
894.064	15241
894.186	14986
894.308	15085
894.43	15351
894.552	15199
894.674	15230
894.796	15119
894.918	15161
895.04	15157
895.161	15272
895.283	15249
895.405	15180
895.526	15146
895.648	15252
895.769	15256
895.891	15241
896.012	15207
896.134	15275
896.255	15279
896.376	15230
896.498	15108
896.619	15268
896.74	15272
896.861	15252
896.982	15549
897.103	15747
897.224	15542
897.345	15401
897.466	15435
897.587	15526
897.708	15507
897.828	15576
897.949	15523
898.07	15485
898.19	15485
898.311	15644
898.431	15557
898.552	15660
898.672	15637
898.792	15614
898.913	15622
899.033	15511
899.153	15370
899.273	15317
899.393	15374
899.513	15367
899.633	15443
899.753	15507
899.873	15344
899.993	15450
900.113	15302
900.232	15386
900.352	15477
900.472	15405
900.591	15332
900.711	15252
900.83	15260
900.95	15351
901.069	15481
901.189	15195
901.308	14956
901.427	14952
901.546	15043
901.665	14982
901.784	15024
901.904	14769
902.023	14750
902.141	14476
902.26	14579
902.379	14644
902.498	14434
902.617	14446
902.735	14530
902.854	14495
902.973	14423
903.091	14298
903.21	14278
903.328	14221
903.446	14084
903.565	14024
903.683	14058
903.801	13928
903.919	14202
904.038	13993
904.156	13837
904.274	14001
904.392	13837
904.51	13830
904.627	13833
904.745	13856
904.863	13868
904.981	13662
905.098	13480
905.216	13559
905.334	13525
905.451	13616
905.569	13472
905.686	13491
905.803	13480
905.921	13244
906.038	13304
906.155	13415
906.272	13156
906.389	13266
906.506	13107
906.623	13118
906.74	13084
906.857	12943
906.974	12977
907.091	13076
907.208	13179
907.324	13133
907.441	12966
907.557	12829
907.674	12779
907.79	12738
907.907	12859
908.023	12711
908.139	12776
908.256	12840
908.372	12662
908.488	12722
908.604	12585
908.72	12570
908.836	12506
908.952	12563
909.068	12635
909.184	12585
909.3	12566
909.415	12467
909.531	12544
909.647	12289
909.762	12342
909.878	12213
909.993	12403
910.108	12232
910.224	12270
910.339	12281
910.454	12232
910.57	12213
910.685	12129
910.8	12384
910.915	12285
911.03	12182
911.145	12041
911.259	11946
911.374	12007
911.489	11939
911.604	11794
911.718	11878
911.833	11767
911.947	11688
912.062	11577
912.176	11710
912.291	11779
912.405	11729
912.519	11878
912.633	11859
912.748	11718
912.862	11691
912.976	11589
913.09	11471
913.204	11512
913.318	11535
913.431	11649
913.545	11615
913.659	11684
913.772	11623
913.886	11486
914	11478
914.113	11566
914.226	11623
914.34	11596
914.453	11467
914.566	11589
914.68	11379
914.793	11505
914.906	11280
915.019	11128
915.132	11128
915.245	11105
915.358	11201
915.47	11159
915.583	11178
915.696	11235
915.809	11349
915.921	11337
916.034	11174
916.146	11174
916.259	11136
916.371	11132
916.483	11178
916.595	11181
916.708	11197
916.82	11067
916.932	10995
917.044	11136
917.156	11151
917.268	10980
917.38	11098
917.491	10984
917.603	11022
917.715	11071
917.826	11124
917.938	11025
918.049	10889
918.161	10949
918.272	11159
918.384	11136
918.495	11064
918.606	10869
918.717	10748
918.828	10904
918.939	10961
919.05	10831
919.161	10790
919.272	10687
919.383	10702
919.494	10946
919.604	11071
919.715	10961
919.826	10809
919.936	10889
920.047	10915
920.157	10938
920.267	11181
920.378	10896
920.488	10915
920.598	11086
920.708	11250
920.818	11117
920.928	11052
921.038	11254
921.148	11197
921.258	10892
921.368	10831
921.477	10793
921.587	10660
921.697	10641
921.806	10763
921.916	10668
922.025	10493
922.134	10428
922.244	10398
922.353	10474
922.462	10299
922.571	10306
922.68	10211
922.789	10086
922.898	10181
923.007	10097
923.116	10215
923.224	10109
923.333	10048
923.442	10006
923.55	10006
923.659	9960
923.767	10055
923.876	10040
923.984	10055
924.092	9964
924.201	9953
924.309	9983
924.417	10032
924.525	9892
924.633	9956
924.741	10694
924.849	9774
924.956	9930
925.064	9781
925.172	9629
925.279	9671
925.387	9762
925.494	9766
925.602	9888
925.709	9732
925.816	9644
925.924	9759
926.031	9835
926.138	9720
926.245	9778
926.352	9641
926.459	9781
926.566	9850
926.673	9660
926.779	9576
926.886	9557
926.993	9462
927.099	9469
927.206	9443
927.312	9378
927.419	9488
927.525	9435
927.631	9504
927.737	9291
927.843	9283
927.95	9237
928.056	9351
928.162	9329
928.267	9367
928.373	9861
928.479	9397
928.585	9230
928.69	9329
928.796	9336
928.901	9199
929.007	9085
929.112	9192
929.218	9218
929.323	9165
929.428	9116
929.533	9249
929.638	9070
929.743	9097
929.848	9131
929.953	9119
930.058	9028
930.163	8906
930.267	8921
930.372	8975
930.477	8815
930.581	9055
930.685	8941
930.79	8777
930.894	8887
930.998	8804
931.103	8910
931.207	8610
931.311	8575
931.415	8434
931.519	8339
931.623	8259
