Data from test_V78500241_2247.txt Node
Date: Fri Mar 25 14:49:21 CST 2022
User: usil
Spectrometer: V785-0024
Trigger mode: 0
Integration Time (sec): 4.000000E-1
Scans to average: 1
Nonlinearity correction enabled: false
Boxcar width: 0
Storing dark spectrum: false
XAxis mode: Wavelengths
Number of Pixels in Spectrum: 1024
>>>>>Begin Spectral Data<<<<<
801.071	22101
801.214	21911
801.356	21808
801.499	21747
801.641	21519
801.783	21583
801.926	21534
802.068	21450
802.211	21538
802.353	21378
802.496	21077
802.638	21017
802.78	20921
802.923	20857
803.065	20762
803.208	20830
803.35	20823
803.492	20944
803.635	21043
803.777	20826
803.919	20861
804.061	21226
804.204	20944
804.346	20830
804.488	20625
804.63	20762
804.773	20762
804.915	20769
805.057	20979
805.199	20800
805.341	20883
805.483	20937
805.626	20910
805.768	20686
805.91	20880
806.052	20868
806.194	20697
806.336	20952
806.478	20758
806.62	20758
806.762	20823
806.904	21051
807.046	21161
807.188	21138
807.33	21165
807.472	21127
807.614	21024
807.756	21138
807.898	20838
808.04	20914
808.182	20887
808.324	20967
808.465	20956
808.607	20971
808.749	21241
808.891	21165
809.033	21237
809.174	21237
809.316	21165
809.458	21195
809.6	21112
809.741	21260
809.883	21279
810.025	21195
810.166	21416
810.308	21233
810.45	21310
810.591	21249
810.733	21036
810.875	21009
811.016	20785
811.158	20765
811.299	21039
811.441	21009
811.582	21032
811.724	20994
811.865	20864
812.007	20971
812.148	20899
812.29	21062
812.431	21100
812.573	21119
812.714	21332
812.855	21405
812.997	21424
813.138	21717
813.279	21625
813.421	21416
813.562	21374
813.703	21157
813.845	21051
813.986	20769
814.127	20579
814.268	20549
814.41	20587
814.551	20518
814.692	20438
814.833	20400
814.974	20446
815.115	20579
815.256	20328
815.397	20309
815.539	20286
815.68	20282
815.821	20107
815.962	20161
816.103	20126
816.244	20115
816.385	20005
816.526	19917
816.666	19712
816.807	19655
816.948	19681
817.089	19837
817.23	19556
817.371	19723
817.512	19552
817.653	19563
817.793	19605
817.934	19734
818.075	19609
818.216	19696
818.356	19502
818.497	19419
818.638	19320
818.778	19358
818.919	19240
819.06	19381
819.2	19430
819.341	19468
819.481	19529
819.622	19620
819.762	19788
819.903	19677
820.043	19693
820.184	19582
820.324	19571
820.465	19510
820.605	19609
820.746	19620
820.886	19426
821.026	19472
821.167	19537
821.307	19556
821.447	19601
821.588	19419
821.728	19324
821.868	19126
822.008	19065
822.149	19031
822.289	19008
822.429	18665
822.569	18673
822.709	18642
822.849	18574
822.99	18410
823.13	18471
823.27	18369
823.41	18361
823.55	18232
823.69	18369
823.83	18315
823.97	18266
824.11	18091
824.25	18038
824.389	18038
824.529	18117
824.669	18030
824.809	18262
824.949	18201
825.089	18220
825.228	18091
825.368	17874
825.508	17882
825.648	17901
825.787	17866
825.927	17851
826.067	17866
826.206	17859
826.346	17805
826.485	17882
826.625	17813
826.765	17980
826.904	17783
827.044	17573
827.183	17566
827.323	17372
827.462	17585
827.601	17452
827.741	17539
827.88	17512
828.02	17421
828.159	17520
828.298	17585
828.437	17642
828.577	17448
828.716	17680
828.855	17436
828.994	17288
829.134	17231
829.273	17322
829.412	17212
829.551	17212
829.69	17258
829.829	17296
829.968	17368
830.107	17341
830.246	17429
830.385	17140
830.524	17185
830.663	17083
830.802	16953
830.941	16946
831.08	16812
831.219	16930
831.357	16835
831.496	17041
831.635	16835
831.774	16831
831.913	16786
832.051	16603
832.19	16698
832.329	16710
832.467	16618
832.606	16500
832.744	16580
832.883	16485
833.022	16512
833.16	16637
833.299	16622
833.437	16577
833.576	16691
833.714	16622
833.852	16645
833.991	16729
834.129	16713
834.267	16656
834.406	16508
834.544	16656
834.682	16626
834.821	16637
834.959	16820
835.097	16603
835.235	16820
835.373	16626
835.511	16607
835.65	16466
835.788	16421
835.926	16325
836.064	16341
836.202	16284
836.34	16470
836.478	16580
836.615	16519
836.753	16462
836.891	16687
837.029	16443
837.167	16455
837.305	16402
837.443	16303
837.58	16386
837.718	16432
837.856	16341
837.993	16303
838.131	16413
838.269	16322
838.406	16181
838.544	16287
838.681	16074
838.819	16040
838.956	15869
839.094	15987
839.231	15960
839.369	16017
839.506	16268
839.643	16253
839.781	15972
839.918	15895
840.055	15968
840.193	16017
840.33	15987
840.467	15934
840.604	15941
840.742	16158
840.879	15800
841.016	15808
841.153	15808
841.29	16017
841.427	15941
841.564	15884
841.701	15907
841.838	15854
841.975	15854
842.112	15846
842.249	15701
842.385	15652
842.522	15865
842.659	15694
842.796	15660
842.933	15705
843.069	15599
843.206	15652
843.343	15865
843.479	15724
843.616	15633
843.752	15473
843.889	15530
844.025	15603
844.162	15431
844.298	15629
844.435	15542
844.571	15473
844.708	15542
844.844	15671
844.98	15587
845.117	15519
845.253	15412
845.389	15382
845.525	15473
845.661	15348
845.798	15245
845.934	15363
846.07	15218
846.206	15237
846.342	15454
846.478	15332
846.614	15142
846.75	15020
846.886	15005
847.022	15108
847.158	15043
847.294	15020
847.429	15135
847.565	15135
847.701	15302
847.837	14804
847.972	14807
848.108	14880
848.244	14800
848.379	14750
848.515	14629
848.65	14659
848.786	14621
848.921	14701
849.057	14834
849.192	14826
849.328	14689
849.463	14518
849.598	14659
849.734	14598
849.869	14598
850.004	14499
850.14	14484
850.275	14442
850.41	14431
850.545	14347
850.68	14404
850.815	14442
850.95	14374
851.085	14644
851.22	14617
851.355	14495
851.49	14385
851.625	14332
851.76	14393
851.895	14389
852.03	14259
852.165	14404
852.299	14431
852.434	14610
852.569	14366
852.703	14503
852.838	14522
852.973	14461
853.107	14632
853.242	14355
853.376	14358
853.511	14210
853.645	14263
853.78	14423
853.914	14263
854.048	14206
854.183	14275
854.317	14328
854.451	14431
854.585	14290
854.72	14271
854.854	14366
854.988	14248
855.122	14248
855.256	14092
855.39	14199
855.524	14393
855.658	14362
855.792	14305
855.926	14328
856.06	14298
856.194	14336
856.327	14240
856.461	14187
856.595	14313
856.729	14229
856.862	14237
856.996	14404
857.13	14290
857.263	14434
857.397	14457
857.53	14305
857.664	14355
857.797	14377
857.931	14389
858.064	14336
858.197	14404
858.331	14210
858.464	14180
858.597	14142
858.731	14278
858.864	14286
858.997	14343
859.13	14336
859.263	14313
859.396	14362
859.529	14172
859.662	14313
859.795	14324
859.928	14271
860.061	14419
860.194	14389
860.327	14267
860.46	14252
860.592	14526
860.725	14286
860.858	14347
860.99	14294
861.123	14202
861.256	14206
861.388	14324
861.521	14975
861.653	14187
861.786	14092
861.918	14130
862.05	14111
862.183	14278
862.315	14320
862.447	14355
862.58	14259
862.712	14142
862.844	14031
862.976	14111
863.108	14084
863.24	14434
863.372	14050
863.504	14065
863.636	14001
863.768	14134
863.9	14024
864.032	14065
864.164	14069
864.296	13970
864.428	14172
864.559	14142
864.691	14176
864.823	14138
864.954	14149
865.086	14126
865.217	14081
865.349	13947
865.48	13978
865.612	14081
865.743	14225
865.875	14138
866.006	14126
866.137	14069
866.269	14050
866.4	14024
866.531	14016
866.662	13986
866.793	14039
866.924	13864
867.055	14065
867.186	13970
867.317	13974
867.448	14016
867.579	14035
867.71	14024
867.841	14001
867.972	14096
868.103	14005
868.233	14016
868.364	14054
868.495	14119
868.625	14248
868.756	14419
868.886	14328
869.017	14419
869.147	14412
869.278	14377
869.408	14355
869.539	14256
869.669	14461
869.799	14404
869.929	14476
870.06	14503
870.19	14644
870.32	14556
870.45	14648
870.58	14731
870.71	14842
870.84	14944
870.97	14686
871.1	14670
871.23	14872
871.36	14941
871.489	14895
871.619	14864
871.749	14956
871.879	15062
872.008	14941
872.138	14998
872.267	14883
872.397	14887
872.526	14845
872.656	14735
872.785	14868
872.915	15020
873.044	14960
873.173	14910
873.303	15005
873.432	15001
873.561	15070
873.69	14948
873.819	15036
873.948	15077
874.077	15039
874.206	14963
874.335	14952
874.464	15173
874.593	15298
874.722	15195
874.851	15332
874.979	15367
875.108	15370
875.237	15268
875.365	15252
875.494	15287
875.623	15408
875.751	15249
875.88	15408
876.008	15443
876.136	15553
876.265	15663
876.393	15888
876.521	15812
876.65	15766
876.778	15751
876.906	15690
877.034	15603
877.162	15705
877.29	15629
877.418	15660
877.546	15755
877.674	15747
877.802	15736
877.93	15698
878.058	15686
878.185	15701
878.313	15705
878.441	15629
878.568	15580
878.696	15587
878.824	15732
878.951	15812
879.079	15816
879.206	16017
879.333	15812
879.461	15705
879.588	15823
879.715	16029
879.842	16093
879.97	15724
880.097	15622
880.224	15523
880.351	15576
880.478	15610
880.605	15466
880.732	15663
880.859	15812
880.986	15603
881.112	15568
881.239	15428
881.366	15355
881.493	15268
881.619	15230
881.746	15272
881.872	15237
881.999	15138
882.125	15241
882.252	15321
882.378	15283
882.505	15355
882.631	15154
882.757	15024
882.883	15001
883.01	15017
883.136	14998
883.262	14902
883.388	14800
883.514	15020
883.64	15070
883.766	15024
883.892	14796
884.018	14788
884.143	15032
884.269	15154
884.395	14891
884.52	14743
884.646	14705
884.772	14598
884.897	14613
885.023	14720
885.148	14811
885.274	14823
885.399	14758
885.524	14777
885.65	14697
885.775	14735
885.9	14636
886.025	14929
886.15	14788
886.275	14541
886.4	14648
886.525	14697
886.65	14636
886.775	14682
886.9	14834
887.025	14883
887.149	14838
887.274	14667
887.399	14454
887.523	14575
887.648	14579
887.773	14358
887.897	14648
888.021	14480
888.146	14571
888.27	14651
888.395	14796
888.519	14613
888.643	14655
888.767	14541
888.891	14495
889.015	14442
889.139	14526
889.263	14446
889.387	14484
889.511	14727
889.635	14518
889.759	14434
889.883	14396
890.006	14442
890.13	14526
890.254	14336
890.377	14343
890.501	14317
890.624	14320
890.748	14305
890.871	14153
890.995	14092
891.118	14027
891.241	14145
891.364	14164
891.488	14157
891.611	14233
891.734	14081
891.857	14081
891.98	14206
892.103	14248
892.226	14096
892.349	14195
892.471	13909
892.594	14145
892.717	14035
892.839	14195
892.962	14123
893.085	14176
893.207	14027
893.33	13982
893.452	14069
893.575	14142
893.697	14115
893.819	14244
893.941	14339
894.064	14225
894.186	14123
894.308	14126
894.43	14240
894.552	14358
894.674	14240
894.796	14107
894.918	14161
895.04	14176
895.161	14244
895.283	14183
895.405	14073
895.526	14267
895.648	14282
895.769	14191
895.891	14309
896.012	14328
896.134	14267
896.255	14191
896.376	14358
896.498	14225
896.619	14313
896.74	14351
896.861	14328
896.982	14564
897.103	14804
897.224	14606
897.345	14549
897.466	14446
897.587	14545
897.708	14682
897.828	14617
897.949	14537
898.07	14454
898.19	14476
898.311	14746
898.431	14556
898.552	14636
898.672	14632
898.792	14727
898.913	14636
899.033	14621
899.153	14575
899.273	14408
899.393	14412
899.513	14571
899.633	14583
899.753	14583
899.873	14488
899.993	14541
900.113	14465
900.232	14522
900.352	14564
900.472	14370
900.591	14400
900.711	14393
900.83	14404
900.95	14541
901.069	14431
901.189	14339
901.308	14138
901.427	14065
901.546	14092
901.665	14073
901.784	14077
901.904	13887
902.023	13830
902.141	13769
902.26	13537
902.379	13666
902.498	13533
902.617	13533
902.735	13620
902.854	13590
902.973	13548
903.091	13297
903.21	13381
903.328	13362
903.446	13320
903.565	13183
903.683	13160
903.801	13129
903.919	13244
904.038	13168
904.156	13008
904.274	13042
904.392	13038
904.51	13031
904.627	12966
904.745	13012
904.863	13050
904.981	12806
905.098	12722
905.216	12738
905.334	12662
905.451	12730
905.569	12722
905.686	12650
905.803	12677
905.921	12475
906.038	12585
906.155	12574
906.272	12437
906.389	12418
906.506	12308
906.623	12270
906.74	12308
906.857	12144
906.974	12163
907.091	12289
907.208	12422
907.324	12232
907.441	12251
907.557	12106
907.674	12053
907.79	11961
907.907	11942
908.023	12091
908.139	12034
908.256	11999
908.372	11931
908.488	11912
908.604	11760
908.72	11779
908.836	11699
908.952	11840
909.068	11859
909.184	11874
909.3	11733
909.415	11813
909.531	11798
909.647	11551
909.762	11600
909.878	11524
909.993	11543
910.108	11505
910.224	11535
910.339	11524
910.454	11440
910.57	11345
910.685	11448
910.8	11600
910.915	11596
911.03	11425
911.145	11284
911.259	11140
911.374	11315
911.489	11166
911.604	11143
911.718	11006
911.833	11003
911.947	10850
912.062	10736
912.176	11006
912.291	11010
912.405	11010
912.519	11250
912.633	11220
912.748	11014
912.862	10987
912.976	10949
913.09	10744
913.204	10816
913.318	10858
913.431	10999
913.545	10976
913.659	11086
913.772	10961
913.886	10786
914	10752
914.113	10824
914.226	10942
914.34	10782
914.453	10736
914.566	10843
914.68	10771
914.793	10748
914.906	10542
915.019	10485
915.132	10348
915.245	10508
915.358	10493
915.47	10497
915.583	10535
915.696	10558
915.809	10592
915.921	10596
916.034	10542
916.146	10428
916.259	10451
916.371	10554
916.483	10466
916.595	10306
916.708	10493
916.82	10398
916.932	10489
917.044	10466
917.156	10379
917.268	10325
917.38	10352
917.491	10322
917.603	10344
917.715	10459
917.826	10474
917.938	10341
918.049	10192
918.161	10333
918.272	10497
918.384	10462
918.495	10318
918.606	10272
918.717	10124
918.828	10230
918.939	10234
919.05	10154
919.161	10188
919.272	9972
919.383	10097
919.494	10310
919.604	10390
919.715	10192
919.826	10200
919.936	10234
920.047	10322
920.157	10299
920.267	10451
920.378	10280
920.488	10272
920.598	10417
920.708	10615
920.818	10470
920.928	10455
921.038	10588
921.148	10561
921.258	10356
921.368	10253
921.477	10048
921.587	10082
921.697	10063
921.806	10055
921.916	9899
922.025	9880
922.134	9850
922.244	9705
922.353	9838
922.462	9740
922.571	9641
922.68	9523
922.789	9462
922.898	9500
923.007	9454
923.116	9526
923.224	9561
923.333	9500
923.442	9393
923.55	9321
923.659	9462
923.767	9405
923.876	9329
923.984	9488
924.092	9294
924.201	9355
924.309	9374
924.417	9351
924.525	9233
924.633	9351
924.741	10295
924.849	9203
924.956	9237
925.064	9176
925.172	9051
925.279	9157
925.387	9112
925.494	9169
925.602	9211
925.709	9291
925.816	9051
925.924	9112
926.031	9157
926.138	9135
926.245	9203
926.352	9081
926.459	9241
926.566	9355
926.673	9123
926.779	9001
926.886	9017
926.993	8895
927.099	8868
927.206	8766
927.312	8838
927.419	8914
927.525	8861
927.631	8887
927.737	8800
927.843	8712
927.95	8712
928.056	8727
928.162	8785
928.267	8830
928.373	9439
928.479	8819
928.585	8610
928.69	8788
928.796	8743
928.901	8632
929.007	8602
929.112	8636
929.218	8602
929.323	8575
929.428	8579
929.533	8754
929.638	8480
929.743	8518
929.848	8644
929.953	8575
930.058	8507
930.163	8328
930.267	8320
930.372	8495
930.477	8263
930.581	8564
930.685	8419
930.79	8298
930.894	8248
930.998	8252
931.103	8454
931.207	8039
931.311	8005
931.415	7986
931.519	7803
931.623	7780
