Data from test_V78500241_2260.txt Node
Date: Fri Mar 25 14:49:26 CST 2022
User: usil
Spectrometer: V785-0024
Trigger mode: 0
Integration Time (sec): 4.000000E-1
Scans to average: 1
Nonlinearity correction enabled: false
Boxcar width: 0
Storing dark spectrum: false
XAxis mode: Wavelengths
Number of Pixels in Spectrum: 1024
>>>>>Begin Spectral Data<<<<<
801.071	22196
801.214	22074
801.356	21854
801.499	21682
801.641	21671
801.783	21511
801.926	21572
802.068	21466
802.211	21443
802.353	21340
802.496	21127
802.638	21036
802.78	21032
802.923	20887
803.065	20823
803.208	20891
803.35	20914
803.492	20975
803.635	20998
803.777	20941
803.919	20921
804.061	21302
804.204	20864
804.346	20811
804.488	20876
804.63	20819
804.773	20788
804.915	20883
805.057	20834
805.199	20708
805.341	20868
805.483	21013
805.626	20883
805.768	20804
805.91	20925
806.052	20880
806.194	20769
806.336	20937
806.478	20826
806.62	20842
806.762	20853
806.904	21017
807.046	21184
807.188	21138
807.33	21116
807.472	21245
807.614	21028
807.756	21062
807.898	20986
808.04	20982
808.182	20883
808.324	20899
808.465	20960
808.607	21055
808.749	21096
808.891	21222
809.033	21435
809.174	21233
809.316	21112
809.458	21233
809.6	21264
809.741	21154
809.883	21207
810.025	21256
810.166	21374
810.308	21325
810.45	21348
810.591	21264
810.733	21165
810.875	21024
811.016	20952
811.158	20872
811.299	21005
811.441	21089
811.582	20994
811.724	20948
811.865	20963
812.007	21043
812.148	21089
812.29	21119
812.431	21131
812.573	21249
812.714	21344
812.855	21488
812.997	21500
813.138	21736
813.279	21545
813.421	21443
813.562	21351
813.703	21245
813.845	21203
813.986	20823
814.127	20640
814.268	20674
814.41	20522
814.551	20583
814.692	20655
814.833	20488
814.974	20434
815.115	20488
815.256	20396
815.397	20355
815.539	20305
815.68	20145
815.821	20149
815.962	20385
816.103	20298
816.244	20142
816.385	20062
816.526	20043
816.666	19765
816.807	19685
816.948	19696
817.089	19784
817.23	19677
817.371	19647
817.512	19586
817.653	19590
817.793	19586
817.934	19586
818.075	19666
818.216	19704
818.356	19514
818.497	19453
818.638	19346
818.778	19228
818.919	19350
819.06	19384
819.2	19483
819.341	19597
819.481	19552
819.622	19559
819.762	19864
819.903	19826
820.043	19700
820.184	19613
820.324	19628
820.465	19719
820.605	19601
820.746	19510
820.886	19578
821.026	19658
821.167	19651
821.307	19521
821.447	19540
821.588	19521
821.728	19244
821.868	19316
822.008	19080
822.149	18916
822.289	19019
822.429	18741
822.569	18810
822.709	18745
822.849	18570
822.99	18372
823.13	18490
823.27	18315
823.41	18365
823.55	18228
823.69	18330
823.83	18319
823.97	18266
824.11	18133
824.25	18129
824.389	18060
824.529	18174
824.669	18053
824.809	18197
824.949	18270
825.089	18087
825.228	18098
825.368	18045
825.508	17901
825.648	17961
825.787	17859
825.927	17969
826.067	17878
826.206	17863
826.346	17916
826.485	17859
826.625	17828
826.765	17916
826.904	17942
827.044	17676
827.183	17592
827.323	17482
827.462	17581
827.601	17562
827.741	17505
827.88	17543
828.02	17429
828.159	17672
828.298	17600
828.437	17680
828.577	17471
828.716	17668
828.855	17543
828.994	17288
829.134	17364
829.273	17288
829.412	17322
829.551	17231
829.69	17360
829.829	17402
829.968	17493
830.107	17383
830.246	17353
830.385	17193
830.524	17223
830.663	17105
830.802	17018
830.941	16908
831.08	16923
831.219	16938
831.357	17025
831.496	17140
831.635	16965
831.774	16915
831.913	16755
832.051	16748
832.19	16744
832.329	16809
832.467	16645
832.606	16603
832.744	16611
832.883	16630
833.022	16645
833.16	16592
833.299	16573
833.437	16626
833.576	16706
833.714	16596
833.852	16687
833.991	16733
834.129	16645
834.267	16736
834.406	16634
834.544	16588
834.682	16740
834.821	16698
834.959	16930
835.097	16637
835.235	16740
835.373	16767
835.511	16668
835.65	16558
835.788	16607
835.926	16436
836.064	16428
836.202	16516
836.34	16535
836.478	16706
836.615	16565
836.753	16630
836.891	16637
837.029	16592
837.167	16512
837.305	16481
837.443	16440
837.58	16386
837.718	16535
837.856	16558
837.993	16375
838.131	16531
838.269	16428
838.406	16306
838.544	16238
838.681	16154
838.819	16128
838.956	15865
839.094	16021
839.231	15972
839.369	16181
839.506	16394
839.643	16196
839.781	16013
839.918	15846
840.055	16044
840.193	15934
840.33	15888
840.467	15987
840.604	16101
840.742	16185
840.879	15850
841.016	15876
841.153	15876
841.29	16059
841.427	15953
841.564	16055
841.701	15979
841.838	15926
841.975	15899
842.112	15926
842.249	15778
842.385	15671
842.522	15964
842.659	15694
842.796	15781
842.933	15774
843.069	15774
843.206	15717
843.343	15812
843.479	15819
843.616	15747
843.752	15511
843.889	15500
844.025	15584
844.162	15485
844.298	15660
844.435	15610
844.571	15523
844.708	15538
844.844	15671
844.98	15690
845.117	15618
845.253	15424
845.389	15344
845.525	15603
845.661	15363
845.798	15268
845.934	15431
846.07	15176
846.206	15329
846.342	15424
846.478	15370
846.614	15188
846.75	15131
846.886	15062
847.022	15222
847.158	15074
847.294	15154
847.429	15218
847.565	15123
847.701	15188
847.837	14845
847.972	14800
848.108	14883
848.244	14918
848.379	14746
848.515	14659
848.65	14769
848.786	14678
848.921	14785
849.057	14750
849.192	14765
849.328	14667
849.463	14697
849.598	14670
849.734	14670
849.869	14530
850.004	14457
850.14	14503
850.275	14488
850.41	14377
850.545	14396
850.68	14488
850.815	14400
850.95	14514
851.085	14651
851.22	14473
851.355	14530
851.49	14450
851.625	14339
851.76	14339
851.895	14336
852.03	14290
852.165	14419
852.299	14507
852.434	14575
852.569	14457
852.703	14404
852.838	14556
852.973	14587
853.107	14552
853.242	14469
853.376	14320
853.511	14202
853.645	14336
853.78	14457
853.914	14415
854.048	14336
854.183	14317
854.317	14343
854.451	14495
854.585	14431
854.72	14381
854.854	14415
854.988	14259
855.122	14218
855.256	14221
855.39	14328
855.524	14385
855.658	14286
855.792	14343
855.926	14347
856.06	14336
856.194	14465
856.327	14282
856.461	14191
856.595	14267
856.729	14271
856.862	14476
856.996	14419
857.13	14366
857.263	14415
857.397	14438
857.53	14328
857.664	14355
857.797	14438
857.931	14431
858.064	14457
858.197	14415
858.331	14343
858.464	14271
858.597	14256
858.731	14278
858.864	14328
858.997	14237
859.13	14442
859.263	14267
859.396	14396
859.529	14229
859.662	14339
859.795	14225
859.928	14358
860.061	14533
860.194	14461
860.327	14301
860.46	14259
860.592	14503
860.725	14469
860.858	14374
860.99	14419
861.123	14240
861.256	14191
861.388	14370
861.521	14864
861.653	14248
861.786	14145
861.918	14210
862.05	14271
862.183	14221
862.315	14336
862.447	14278
862.58	14290
862.712	14157
862.844	14153
862.976	14149
863.108	14092
863.24	14427
863.372	14065
863.504	14100
863.636	14107
863.768	14126
863.9	14073
864.032	14077
864.164	14161
864.296	14115
864.428	14172
864.559	14142
864.691	14149
864.823	14138
864.954	14161
865.086	14134
865.217	14103
865.349	14001
865.48	14115
865.612	14062
865.743	14317
865.875	14035
866.006	14046
866.137	14081
866.269	14142
866.4	14084
866.531	14058
866.662	14035
866.793	13974
866.924	14062
867.055	14050
867.186	14058
867.317	14039
867.448	13951
867.579	13982
867.71	13986
867.841	14054
867.972	14092
868.103	13989
868.233	14183
868.364	14046
868.495	14233
868.625	14320
868.756	14385
868.886	14294
869.017	14309
869.147	14317
869.278	14415
869.408	14400
869.539	14351
869.669	14408
869.799	14309
869.929	14473
870.06	14457
870.19	14606
870.32	14613
870.45	14651
870.58	14800
870.71	14842
870.84	14826
870.97	14815
871.1	14735
871.23	14891
871.36	14880
871.489	14838
871.619	14819
871.749	14967
871.879	14982
872.008	15036
872.138	14910
872.267	14914
872.397	14762
872.526	14659
872.656	14712
872.785	14895
872.915	15051
873.044	14979
873.173	14849
873.303	15039
873.432	14982
873.561	15051
873.69	14914
873.819	14967
873.948	14998
874.077	14952
874.206	15013
874.335	15013
874.464	15135
874.593	15264
874.722	15176
874.851	15336
874.979	15408
875.108	15283
875.237	15252
875.365	15184
875.494	15260
875.623	15252
875.751	15283
875.88	15332
876.008	15435
876.136	15553
876.265	15622
876.393	15743
876.521	15797
876.65	15838
876.778	15694
876.906	15701
877.034	15698
877.162	15743
877.29	15698
877.418	15736
877.546	15595
877.674	15656
877.802	15667
877.93	15736
878.058	15671
878.185	15549
878.313	15652
878.441	15736
878.568	15648
878.696	15652
878.824	15751
878.951	15770
879.079	15819
879.206	15869
879.333	15778
879.461	15804
879.588	15808
879.715	15842
879.842	16017
879.97	15842
880.097	15507
880.224	15561
880.351	15549
880.478	15568
880.605	15401
880.732	15580
880.859	15770
880.986	15538
881.112	15629
881.239	15378
881.366	15321
881.493	15302
881.619	15230
881.746	15275
881.872	15104
881.999	15230
882.125	15230
882.252	15256
882.378	15252
882.505	15340
882.631	15176
882.757	15036
882.883	15123
883.01	15058
883.136	14910
883.262	14838
883.388	14792
883.514	15066
883.64	15112
883.766	14937
883.892	14773
884.018	14887
884.143	14982
884.269	15127
884.395	14739
884.52	14693
884.646	14746
884.772	14610
884.897	14552
885.023	14773
885.148	14857
885.274	14872
885.399	14807
885.524	14857
885.65	14655
885.775	14731
885.9	14670
886.025	14823
886.15	14735
886.275	14735
886.4	14636
886.525	14701
886.65	14773
886.775	14644
886.9	14811
887.025	14914
887.149	14765
887.274	14651
887.399	14476
887.523	14549
887.648	14522
887.773	14488
887.897	14712
888.021	14686
888.146	14522
888.27	14686
888.395	14655
888.519	14693
888.643	14632
888.767	14705
888.891	14522
889.015	14400
889.139	14526
889.263	14404
889.387	14457
889.511	14716
889.635	14564
889.759	14499
889.883	14446
890.006	14465
890.13	14518
890.254	14358
890.377	14286
890.501	14180
890.624	14119
890.748	14267
890.871	14168
890.995	14050
891.118	13997
891.241	14115
891.364	14100
891.488	14237
891.611	14005
891.734	14103
891.857	14161
891.98	14107
892.103	14172
892.226	14081
892.349	14130
892.471	13940
892.594	14092
892.717	14054
892.839	14100
892.962	14138
893.085	14240
893.207	14153
893.33	13974
893.452	14024
893.575	14199
893.697	14107
893.819	14343
893.941	14275
894.064	14275
894.186	14050
894.308	14069
894.43	14290
894.552	14351
894.674	14259
894.796	14142
894.918	14092
895.04	14062
895.161	14294
895.283	14271
895.405	14180
895.526	14229
895.648	14195
895.769	14244
895.891	14252
896.012	14298
896.134	14294
896.255	14298
896.376	14298
896.498	14275
896.619	14366
896.74	14336
896.861	14358
896.982	14720
897.103	14765
897.224	14621
897.345	14507
897.466	14518
897.587	14556
897.708	14651
897.828	14568
897.949	14518
898.07	14423
898.19	14507
898.311	14663
898.431	14636
898.552	14667
898.672	14693
898.792	14644
898.913	14659
899.033	14621
899.153	14431
899.273	14404
899.393	14469
899.513	14495
899.633	14568
899.753	14549
899.873	14511
899.993	14579
900.113	14541
900.232	14556
900.352	14469
900.472	14434
900.591	14442
900.711	14336
900.83	14225
900.95	14473
901.069	14514
901.189	14290
901.308	14092
901.427	13967
901.546	14100
901.665	14054
901.784	14142
901.904	13993
902.023	13795
902.141	13757
902.26	13632
902.379	13700
902.498	13590
902.617	13491
902.735	13670
902.854	13639
902.973	13582
903.091	13327
903.21	13285
903.328	13293
903.446	13213
903.565	13164
903.683	13168
903.801	13091
903.919	13251
904.038	13168
904.156	12977
904.274	13171
904.392	12920
904.51	13034
904.627	12954
904.745	13069
904.863	13019
904.981	12783
905.098	12711
905.216	12707
905.334	12730
905.451	12741
905.569	12650
905.686	12688
905.803	12684
905.921	12597
906.038	12559
906.155	12502
906.272	12414
906.389	12426
906.506	12338
906.623	12296
906.74	12243
906.857	12175
906.974	12186
907.091	12384
907.208	12384
907.324	12334
907.441	12152
907.557	12003
907.674	12026
907.79	11958
907.907	12007
908.023	11999
908.139	12068
908.256	11874
908.372	11931
908.488	11912
908.604	11790
908.72	11699
908.836	11695
908.952	11745
909.068	11843
909.184	11897
909.3	11748
909.415	11863
909.531	11760
909.647	11596
909.762	11528
909.878	11547
909.993	11596
910.108	11509
910.224	11509
910.339	11573
910.454	11425
910.57	11402
910.685	11376
910.8	11649
910.915	11497
911.03	11463
911.145	11204
911.259	11303
911.374	11208
911.489	11185
911.604	11201
911.718	11067
911.833	11052
911.947	10953
912.062	10816
912.176	11033
912.291	10980
912.405	10995
912.519	11185
912.633	11223
912.748	11018
912.862	11010
912.976	10862
913.09	10675
913.204	10828
913.318	10889
913.431	11029
913.545	10946
913.659	10999
913.772	10862
913.886	10774
914	10664
914.113	10820
914.226	10873
914.34	10812
914.453	10706
914.566	10847
914.68	10672
914.793	10740
914.906	10580
915.019	10512
915.132	10443
915.245	10432
915.358	10497
915.47	10584
915.583	10535
915.696	10599
915.809	10641
915.921	10599
916.034	10508
916.146	10538
916.259	10375
916.371	10519
916.483	10550
916.595	10443
916.708	10459
916.82	10379
916.932	10447
917.044	10424
917.156	10451
917.268	10265
917.38	10337
917.491	10352
917.603	10337
917.715	10504
917.826	10466
917.938	10306
918.049	10219
918.161	10367
918.272	10474
918.384	10516
918.495	10424
918.606	10284
918.717	10158
918.828	10238
918.939	10219
919.05	10154
919.161	10207
919.272	9972
919.383	10097
919.494	10253
919.604	10363
919.715	10280
919.826	10211
919.936	10253
920.047	10356
920.157	10166
920.267	10550
920.378	10272
920.488	10234
920.598	10386
920.708	10630
920.818	10462
920.928	10398
921.038	10584
921.148	10580
921.258	10272
921.368	10162
921.477	10055
921.587	10124
921.697	10013
921.806	10128
921.916	10044
922.025	9797
922.134	9755
922.244	9694
922.353	9816
922.462	9686
922.571	9663
922.68	9496
922.789	9466
922.898	9473
923.007	9397
923.116	9507
923.224	9496
923.333	9454
923.442	9329
923.55	9374
923.659	9336
923.767	9462
923.876	9291
923.984	9412
924.092	9283
924.201	9359
924.309	9325
924.417	9405
924.525	9249
924.633	9325
924.741	10272
924.849	9184
924.956	9275
925.064	9081
925.172	9077
925.279	9131
925.387	9142
925.494	9135
925.602	9287
925.709	9245
925.816	9043
925.924	9108
926.031	9192
926.138	9184
926.245	9233
926.352	9066
926.459	9222
926.566	9233
926.673	9119
926.779	8941
926.886	9020
926.993	8902
927.099	8887
927.206	8819
927.312	8830
927.419	8899
927.525	8830
927.631	8868
927.737	8750
927.843	8724
927.95	8670
928.056	8762
928.162	8712
928.267	8864
928.373	9454
928.479	8800
928.585	8606
928.69	8746
928.796	8785
928.901	8667
929.007	8590
929.112	8678
929.218	8629
929.323	8545
929.428	8552
929.533	8651
929.638	8480
929.743	8556
929.848	8590
929.953	8465
930.058	8396
930.163	8290
930.267	8366
930.372	8454
930.477	8313
930.581	8560
930.685	8412
930.79	8282
930.894	8282
930.998	8286
931.103	8412
931.207	8062
931.311	8035
931.415	7940
931.519	7784
931.623	7761
