Data from test_V78500241_508.txt Node
Date: Fri Mar 25 14:37:15 CST 2022
User: usil
Spectrometer: V785-0024
Trigger mode: 0
Integration Time (sec): 4.000000E-1
Scans to average: 1
Nonlinearity correction enabled: false
Boxcar width: 0
Storing dark spectrum: false
XAxis mode: Wavelengths
Number of Pixels in Spectrum: 1024
>>>>>Begin Spectral Data<<<<<
801.071	26979
801.214	26727
801.356	26678
801.499	26503
801.641	26408
801.783	26252
801.926	26408
802.068	26282
802.211	26088
802.353	26024
802.496	26062
802.638	25890
802.78	25830
802.923	25788
803.065	25674
803.208	25765
803.35	25609
803.492	25963
803.635	25925
803.777	25693
803.919	25883
804.061	26161
804.204	25959
804.346	25826
804.488	25807
804.63	25879
804.773	25632
804.915	25849
805.057	26027
805.199	25723
805.341	25734
805.483	25845
805.626	25849
805.768	25917
805.91	25803
806.052	25875
806.194	25708
806.336	26054
806.478	25925
806.62	25921
806.762	25989
806.904	26267
807.046	26629
807.188	26381
807.33	26442
807.472	26507
807.614	26571
807.756	26507
807.898	26670
808.04	26739
808.182	26811
808.324	27017
808.465	27496
808.607	27907
808.749	28265
808.891	28531
809.033	28710
809.174	28276
809.316	27937
809.458	27523
809.6	27233
809.741	27157
809.883	26948
810.025	26895
810.166	26971
810.308	26845
810.45	26735
810.591	26670
810.733	26419
810.875	26351
811.016	26263
811.158	26252
811.299	26202
811.441	26358
811.582	26286
811.724	26286
811.865	26187
812.007	26187
812.148	26161
812.29	26206
812.431	26301
812.573	26396
812.714	26651
812.855	26617
812.997	26697
813.138	26807
813.279	26819
813.421	26678
813.562	26621
813.703	26358
813.845	26149
813.986	25894
814.127	25784
814.268	25780
814.41	25556
814.551	25563
814.692	25746
814.833	25514
814.974	25632
815.115	25518
815.256	25445
815.397	25434
815.539	25377
815.68	25327
815.821	25335
815.962	25449
816.103	25316
816.244	25175
816.385	25042
816.526	25050
816.666	24856
816.807	24833
816.948	24825
817.089	24932
817.23	24776
817.371	24730
817.512	24726
817.653	24681
817.793	24646
817.934	24654
818.075	24745
818.216	24776
818.356	24547
818.497	24547
818.638	24342
818.778	24308
818.919	24467
819.06	24490
819.2	24616
819.341	24589
819.481	24726
819.622	24681
819.762	24829
819.903	24852
820.043	24749
820.184	24700
820.324	24741
820.465	24684
820.605	24715
820.746	24681
820.886	24623
821.026	24544
821.167	24661
821.307	24578
821.447	24410
821.588	24437
821.728	24433
821.868	24254
822.008	23965
822.149	24117
822.289	24136
822.429	23672
822.569	23665
822.709	23756
822.849	23440
822.99	23471
823.13	23402
823.27	23448
823.41	23235
823.55	23117
823.69	23360
823.83	23341
823.97	23105
824.11	23105
824.25	22957
824.389	23033
824.529	23056
824.669	22980
824.809	23098
824.949	23117
825.089	23132
825.228	23048
825.368	22911
825.508	22862
825.648	22824
825.787	22797
825.927	22892
826.067	22816
826.206	22763
826.346	22999
826.485	22805
826.625	22736
826.765	22793
826.904	22904
827.044	22493
827.183	22580
827.323	22493
827.462	22478
827.601	22512
827.741	22428
827.88	22512
828.02	22409
828.159	22386
828.298	22474
828.437	22375
828.577	22538
828.716	22519
828.855	22375
828.994	22166
829.134	22253
829.273	22272
829.412	22131
829.551	22105
829.69	22025
829.829	22128
829.968	22112
830.107	22200
830.246	22166
830.385	22090
830.524	22109
830.663	22006
830.802	21846
830.941	21690
831.08	21690
831.219	21789
831.357	21736
831.496	22101
831.635	21759
831.774	21652
831.913	21530
832.051	21500
832.19	21477
832.329	21549
832.467	21492
832.606	21458
832.744	21340
832.883	21424
833.022	21294
833.16	21336
833.299	21473
833.437	21340
833.576	21458
833.714	21530
833.852	21424
833.991	21564
834.129	21663
834.267	21549
834.406	21519
834.544	21450
834.682	21405
834.821	21428
834.959	21610
835.097	21306
835.235	21500
835.373	21336
835.511	21370
835.65	21176
835.788	21374
835.926	21123
836.064	21074
836.202	21070
836.34	21230
836.478	21298
836.615	21211
836.753	21237
836.891	21279
837.029	21062
837.167	21157
837.305	21169
837.443	21058
837.58	20967
837.718	21116
837.856	21100
837.993	21047
838.131	21131
838.269	20868
838.406	20918
838.544	20861
838.681	20697
838.819	20716
838.956	20514
839.094	20412
839.231	20651
839.369	20625
839.506	20937
839.643	20724
839.781	20480
839.918	20374
840.055	20522
840.193	20351
840.33	20473
840.467	20598
840.604	20587
840.742	20613
840.879	20298
841.016	20370
841.153	20267
841.29	20575
841.427	20415
841.564	20358
841.701	20396
841.838	20229
841.975	20229
842.112	20336
842.249	20278
842.385	20134
842.522	20389
842.659	20286
842.796	20149
842.933	20134
843.069	20077
843.206	20050
843.343	20294
843.479	20103
843.616	20145
843.752	19982
843.889	20058
844.025	20122
844.162	19852
844.298	19944
844.435	19921
844.571	19989
844.708	20164
844.844	20138
844.98	20115
845.117	20191
845.253	20103
845.389	20206
845.525	20625
845.661	20899
845.798	21572
845.934	22158
846.07	22291
846.206	22291
846.342	21956
846.478	21249
846.614	20408
846.75	20001
846.886	19818
847.022	19708
847.158	19609
847.294	19514
847.429	19422
847.565	19381
847.701	19552
847.837	19038
847.972	19091
848.108	19251
848.244	19266
848.379	18924
848.515	18886
848.65	18916
848.786	18905
848.921	19004
849.057	19057
849.192	18909
849.328	19004
849.463	18962
849.598	18852
849.734	18810
849.869	18719
850.004	18665
850.14	18722
850.275	18578
850.41	18566
850.545	18555
850.68	18635
850.815	18616
850.95	18547
851.085	18924
851.22	18837
851.355	18726
851.49	18570
851.625	18604
851.76	18585
851.895	18467
852.03	18528
852.165	18620
852.299	18715
852.434	18642
852.569	18578
852.703	18597
852.838	18677
852.973	18844
853.107	18798
853.242	18540
853.376	18486
853.511	18342
853.645	18407
853.78	18582
853.914	18407
854.048	18418
854.183	18532
854.317	18521
854.451	18620
854.585	18460
854.72	18494
854.854	18574
854.988	18486
855.122	18464
855.256	18353
855.39	18372
855.524	18513
855.658	18498
855.792	18525
855.926	18536
856.06	18517
856.194	18604
856.327	18509
856.461	18471
856.595	18445
856.729	18448
856.862	18608
856.996	18441
857.13	18555
857.263	18540
857.397	18578
857.53	18498
857.664	18593
857.797	18528
857.931	18555
858.064	18445
858.197	18601
858.331	18525
858.464	18365
858.597	18350
858.731	18486
858.864	18346
858.997	18464
859.13	18384
859.263	18391
859.396	18494
859.529	18433
859.662	18429
859.795	18353
859.928	18323
860.061	18608
860.194	18696
860.327	18441
860.46	18346
860.592	18540
860.725	18448
860.858	18525
860.99	18486
861.123	18342
861.256	18304
861.388	18353
861.521	19244
861.653	18292
861.786	18220
861.918	18213
862.05	18433
862.183	18369
862.315	18460
862.447	18471
862.58	18334
862.712	18251
862.844	18155
862.976	18289
863.108	18327
863.24	18692
863.372	18178
863.504	18171
863.636	18121
863.768	18334
863.9	18117
864.032	18117
864.164	18102
864.296	18060
864.428	18289
864.559	18129
864.691	18243
864.823	18144
864.954	18186
865.086	18110
865.217	18068
865.349	17965
865.48	17977
865.612	18087
865.743	18224
865.875	18129
866.006	18083
866.137	18133
866.269	18133
866.4	17973
866.531	17904
866.662	17984
866.793	17954
866.924	18053
867.055	18038
867.186	18007
867.317	17996
867.448	17878
867.579	17923
867.71	18003
867.841	17950
867.972	17984
868.103	17946
868.233	17923
868.364	18057
868.495	18136
868.625	18201
868.756	18262
868.886	18140
869.017	18133
869.147	18369
869.278	18418
869.408	18216
869.539	18247
869.669	18365
869.799	18266
869.929	18445
870.06	18433
870.19	18452
870.32	18506
870.45	18570
870.58	18627
870.71	18719
870.84	18776
870.97	18696
871.1	18578
871.23	18798
871.36	18779
871.489	18738
871.619	18844
871.749	18848
871.879	18863
872.008	19008
872.138	18875
872.267	18840
872.397	18783
872.526	18658
872.656	18650
872.785	18669
872.915	18947
873.044	19053
873.173	18897
873.303	18935
873.432	18859
873.561	19031
873.69	18935
873.819	18886
873.948	18924
874.077	18932
874.206	18897
874.335	18939
874.464	19076
874.593	19118
874.722	19042
874.851	19278
874.979	19247
875.108	19160
875.237	19206
875.365	19099
875.494	19183
875.623	19187
875.751	19247
875.88	19343
876.008	19377
876.136	19411
876.265	19712
876.393	19830
876.521	19818
876.65	19715
876.778	19613
876.906	19552
877.034	19605
877.162	19582
877.29	19685
877.418	19601
877.546	19674
877.674	19647
877.802	19609
877.93	19689
878.058	19616
878.185	19582
878.313	19769
878.441	19925
878.568	19712
878.696	19902
878.824	19967
878.951	20005
879.079	20446
879.206	20606
879.333	20667
879.461	20811
879.588	20899
879.715	20971
879.842	21104
879.97	20667
880.097	20393
880.224	20081
880.351	20001
880.478	19860
880.605	19917
880.732	19883
880.859	20054
880.986	19734
881.112	19750
881.239	19708
881.366	19590
881.493	19453
881.619	19422
881.746	19392
881.872	19369
881.999	19236
882.125	19244
882.252	19457
882.378	19434
882.505	19407
882.631	19304
882.757	19198
882.883	19240
883.01	19145
883.136	19164
883.262	19050
883.388	18935
883.514	19160
883.64	19114
883.766	19072
883.892	18852
884.018	18970
884.143	19141
884.269	19171
884.395	18886
884.52	18840
884.646	18852
884.772	18821
884.897	18776
885.023	18901
885.148	18916
885.274	18935
885.399	18977
885.524	18772
885.65	18817
885.775	18856
885.9	18817
886.025	18867
886.15	18825
886.275	18650
886.4	18593
886.525	18681
886.65	18658
886.775	18570
886.9	18681
887.025	18894
887.149	18673
887.274	18452
887.399	18433
887.523	18384
887.648	18372
887.773	18304
887.897	18410
888.021	18384
888.146	18300
888.27	18483
888.395	18513
888.519	18445
888.643	18441
888.767	18391
888.891	18155
889.015	18136
889.139	18205
889.263	18121
889.387	18311
889.511	18353
889.635	18190
889.759	18277
889.883	18136
890.006	18235
890.13	18129
890.254	18019
890.377	18072
890.501	17882
890.624	17870
890.748	17935
890.871	17878
890.995	17680
891.118	17672
891.241	17767
891.364	17779
891.488	17832
891.611	17703
891.734	17726
891.857	17687
891.98	17691
892.103	17805
892.226	17703
892.349	17741
892.471	17577
892.594	17653
892.717	17737
892.839	17649
892.962	17760
893.085	17668
893.207	17634
893.33	17478
893.452	17642
893.575	17699
893.697	17695
893.819	17843
893.941	17794
894.064	17748
894.186	17554
894.308	17490
894.43	17646
894.552	17802
894.674	17783
894.796	17516
894.918	17710
895.04	17627
895.161	17805
895.283	17684
895.405	17680
895.526	17627
895.648	17596
895.769	17741
895.891	17668
896.012	17821
896.134	17802
896.255	17764
896.376	17718
896.498	17699
896.619	17851
896.74	17714
896.861	17733
896.982	18026
897.103	18186
897.224	18019
897.345	17969
897.466	17870
897.587	17893
897.708	18136
897.828	17984
897.949	17866
898.07	17885
898.19	17920
898.311	18019
898.431	17931
898.552	17973
898.672	18129
898.792	17942
898.913	17954
899.033	17889
899.153	17813
899.273	17661
899.393	17767
899.513	17802
899.633	17756
899.753	17665
899.873	17642
899.993	17775
900.113	17600
900.232	17733
900.352	17707
900.472	17623
900.591	17512
900.711	17558
900.83	17482
900.95	17627
901.069	17695
901.189	17463
901.308	17269
901.427	17200
901.546	17155
901.665	17269
901.784	17254
901.904	16995
902.023	16972
902.141	16778
902.26	16740
902.379	16767
902.498	16733
902.617	16664
902.735	16683
902.854	16706
902.973	16561
903.091	16428
903.21	16333
903.328	16379
903.446	16284
903.565	16215
903.683	16363
903.801	16071
903.919	16154
904.038	16188
904.156	15987
904.274	16025
904.392	15964
904.51	15915
904.627	15915
904.745	16006
904.863	16013
904.981	15770
905.098	15599
905.216	15701
905.334	15633
905.451	15679
905.569	15534
905.686	15667
905.803	15637
905.921	15367
906.038	15450
906.155	15458
906.272	15302
906.389	15245
906.506	15233
906.623	15203
906.74	15165
906.857	15043
906.974	15020
907.091	15192
907.208	15283
907.324	15142
907.441	15001
907.557	14811
907.674	14800
907.79	14785
907.907	14754
908.023	14868
908.139	14804
908.256	14758
908.372	14724
908.488	14701
908.604	14629
908.72	14587
908.836	14549
908.952	14480
909.068	14636
909.184	14571
909.3	14530
909.415	14590
909.531	14530
909.647	14351
909.762	14244
909.878	14263
909.993	14286
910.108	14256
910.224	14214
910.339	14244
910.454	14187
910.57	14103
910.685	14096
910.8	14259
910.915	14282
911.03	14024
911.145	13974
911.259	13925
911.374	13947
911.489	13826
911.604	13738
911.718	13632
911.833	13647
911.947	13521
912.062	13480
912.176	13628
912.291	13658
912.405	13552
912.519	13837
912.633	13708
912.748	13708
912.862	13582
912.976	13449
913.09	13369
913.204	13445
913.318	13491
913.431	13559
913.545	13571
913.659	13601
913.772	13464
913.886	13411
914	13293
914.113	13400
914.226	13388
914.34	13362
914.453	13194
914.566	13407
914.68	13187
914.793	13251
914.906	12989
915.019	12958
915.132	12913
915.245	12996
915.358	13046
915.47	13065
915.583	13023
915.696	13008
915.809	13179
915.921	13103
916.034	13019
916.146	12844
916.259	12886
916.371	12932
916.483	12867
916.595	12844
916.708	12875
916.82	12901
916.932	12894
917.044	12814
917.156	12852
917.268	12696
917.38	12776
917.491	12650
917.603	12722
917.715	12768
917.826	12776
917.938	12681
918.049	12570
918.161	12677
918.272	12779
918.384	12764
918.495	12700
918.606	12517
918.717	12380
918.828	12601
918.939	12559
919.05	12433
919.161	12479
919.272	12258
919.383	12296
919.494	12597
919.604	12658
919.715	12509
919.826	12350
919.936	12475
920.047	12532
920.157	12464
920.267	12669
920.378	12494
920.488	12460
920.598	12544
920.708	12738
920.818	12601
920.928	12662
921.038	12821
921.148	12810
921.258	12418
921.368	12433
921.477	12273
921.587	12235
921.697	12076
921.806	12281
921.916	12155
922.025	11942
922.134	11977
922.244	11935
922.353	11954
922.462	11843
922.571	11851
922.68	11619
922.789	11653
922.898	11573
923.007	11509
923.116	11684
923.224	11627
923.333	11611
923.442	11497
923.55	11501
923.659	11425
923.767	11547
923.876	11414
923.984	11520
924.092	11372
924.201	11410
924.309	11337
924.417	11421
924.525	11387
924.633	11322
924.741	12277
924.849	11064
924.956	11322
925.064	11227
925.172	11109
925.279	11121
925.387	11216
925.494	11159
925.602	11250
925.709	11201
925.816	11170
925.924	11143
926.031	11220
926.138	11056
926.245	11117
926.352	11064
926.459	11159
926.566	11269
926.673	11033
926.779	10919
926.886	10911
926.993	10843
927.099	10759
927.206	10752
927.312	10717
927.419	10862
927.525	10824
927.631	10763
927.737	10714
927.843	10584
927.95	10580
928.056	10694
928.162	10675
928.267	10634
928.373	11220
928.479	10790
928.585	10519
928.69	10618
928.796	10626
928.901	10462
929.007	10382
929.112	10523
929.218	10497
929.323	10379
929.428	10306
929.533	10470
929.638	10363
929.743	10356
929.848	10440
929.953	10363
930.058	10204
930.163	10169
930.267	10173
930.372	10238
930.477	10097
930.581	10249
930.685	10124
930.79	9956
930.894	10013
930.998	9968
931.103	10177
931.207	9724
931.311	9709
931.415	9667
931.519	9431
931.623	9424
