Data from test_V78500241_2790.txt Node
Date: Fri Mar 25 14:53:08 CST 2022
User: usil
Spectrometer: V785-0024
Trigger mode: 0
Integration Time (sec): 4.000000E-1
Scans to average: 1
Nonlinearity correction enabled: false
Boxcar width: 0
Storing dark spectrum: false
XAxis mode: Wavelengths
Number of Pixels in Spectrum: 1024
>>>>>Begin Spectral Data<<<<<
801.071	22128
801.214	21903
801.356	21656
801.499	21694
801.641	21408
801.783	21378
801.926	21519
802.068	21348
802.211	21325
802.353	21165
802.496	20914
802.638	20918
802.78	20792
802.923	20864
803.065	20883
803.208	20693
803.35	20724
803.492	20804
803.635	20880
803.777	20682
803.919	20842
804.061	21093
804.204	20773
804.346	20762
804.488	20629
804.63	20659
804.773	20541
804.915	20636
805.057	20720
805.199	20629
805.341	20712
805.483	20739
805.626	20712
805.768	20644
805.91	20750
806.052	20480
806.194	20632
806.336	20682
806.478	20549
806.62	20636
806.762	20743
806.904	20826
807.046	20944
807.188	21017
807.33	21017
807.472	20948
807.614	20845
807.756	20925
807.898	20868
808.04	20621
808.182	20689
808.324	20807
808.465	20804
808.607	20944
808.749	21039
808.891	21176
809.033	21138
809.174	21096
809.316	21013
809.458	21043
809.6	20921
809.741	21093
809.883	21032
810.025	21226
810.166	21089
810.308	21245
810.45	21005
810.591	20979
810.733	20937
810.875	20925
811.016	20651
811.158	20678
811.299	20872
811.441	20982
811.582	20975
811.724	20830
811.865	20853
812.007	20724
812.148	20651
812.29	20906
812.431	20933
812.573	21146
812.714	21066
812.855	21294
812.997	21488
813.138	21515
813.279	21424
813.421	21241
813.562	21264
813.703	21066
813.845	20910
813.986	20678
814.127	20465
814.268	20419
814.41	20343
814.551	20362
814.692	20309
814.833	20286
814.974	20248
815.115	20290
815.256	20210
815.397	20301
815.539	20248
815.68	20092
815.821	19947
815.962	20024
816.103	20012
816.244	19765
816.385	19719
816.526	19887
816.666	19506
816.807	19434
816.948	19571
817.089	19559
817.23	19480
817.371	19499
817.512	19441
817.653	19403
817.793	19521
817.934	19502
818.075	19559
818.216	19499
818.356	19384
818.497	19266
818.638	19141
818.778	19225
818.919	19240
819.06	19046
819.2	19304
819.341	19285
819.481	19285
819.622	19438
819.762	19594
819.903	19514
820.043	19460
820.184	19506
820.324	19392
820.465	19453
820.605	19460
820.746	19381
820.886	19304
821.026	19369
821.167	19575
821.307	19384
821.447	19445
821.588	19266
821.728	19114
821.868	19015
822.008	18787
822.149	18821
822.289	18719
822.429	18654
822.569	18509
822.709	18448
822.849	18300
822.99	18384
823.13	18334
823.27	18235
823.41	18232
823.55	18125
823.69	18190
823.83	18235
823.97	17999
824.11	17946
824.25	17832
824.389	17821
824.529	18045
824.669	17916
824.809	18019
824.949	17980
825.089	17920
825.228	17878
825.368	17737
825.508	17627
825.648	17623
825.787	17646
825.927	17802
826.067	17676
826.206	17684
826.346	17726
826.485	17843
826.625	17600
826.765	17878
826.904	17668
827.044	17448
827.183	17448
827.323	17334
827.462	17387
827.601	17254
827.741	17379
827.88	17471
828.02	17277
828.159	17341
828.298	17391
828.437	17482
828.577	17326
828.716	17433
828.855	17235
828.994	17170
829.134	17124
829.273	17151
829.412	17060
829.551	17174
829.69	17067
829.829	17151
829.968	17258
830.107	17132
830.246	17132
830.385	16995
830.524	17025
830.663	16930
830.802	16904
830.941	16725
831.08	16759
831.219	16812
831.357	16786
831.496	16972
831.635	16729
831.774	16687
831.913	16615
832.051	16546
832.19	16607
832.329	16622
832.467	16459
832.606	16322
832.744	16462
832.883	16440
833.022	16413
833.16	16436
833.299	16504
833.437	16516
833.576	16371
833.714	16478
833.852	16565
833.991	16542
834.129	16618
834.267	16611
834.406	16489
834.544	16428
834.682	16443
834.821	16489
834.959	16740
835.097	16516
835.235	16554
835.373	16538
835.511	16546
835.65	16455
835.788	16432
835.926	16272
836.064	16276
836.202	16185
836.34	16470
836.478	16443
836.615	16333
836.753	16379
836.891	16466
837.029	16447
837.167	16379
837.305	16348
837.443	16230
837.58	16314
837.718	16295
837.856	16318
837.993	16249
838.131	16295
838.269	16188
838.406	16211
838.544	16169
838.681	15994
838.819	15937
838.956	15857
839.094	15835
839.231	15865
839.369	16010
839.506	16284
839.643	16135
839.781	15850
839.918	15819
840.055	15926
840.193	15842
840.33	15808
840.467	15816
840.604	15907
840.742	16120
840.879	15705
841.016	15793
841.153	15667
841.29	15941
841.427	15941
841.564	15835
841.701	15823
841.838	15774
841.975	15747
842.112	15698
842.249	15675
842.385	15538
842.522	15846
842.659	15675
842.796	15618
842.933	15701
843.069	15530
843.206	15542
843.343	15652
843.479	15618
843.616	15606
843.752	15428
843.889	15359
844.025	15534
844.162	15481
844.298	15496
844.435	15386
844.571	15332
844.708	15416
844.844	15549
844.98	15557
845.117	15374
845.253	15298
845.389	15272
845.525	15291
845.661	15275
845.798	15218
845.934	15313
846.07	15207
846.206	15165
846.342	15378
846.478	15169
846.614	15032
846.75	14929
846.886	14941
847.022	15085
847.158	14868
847.294	14937
847.429	15009
847.565	14918
847.701	15230
847.837	14739
847.972	14617
848.108	14830
848.244	14708
848.379	14598
848.515	14606
848.65	14446
848.786	14560
848.921	14651
849.057	14689
849.192	14686
849.328	14552
849.463	14636
849.598	14511
849.734	14514
849.869	14351
850.004	14374
850.14	14385
850.275	14263
850.41	14240
850.545	14442
850.68	14286
850.815	14358
850.95	14313
851.085	14511
851.22	14381
851.355	14324
851.49	14313
851.625	14294
851.76	14275
851.895	14259
852.03	14233
852.165	14339
852.299	14313
852.434	14332
852.569	14419
852.703	14370
852.838	14377
852.973	14594
853.107	14514
853.242	14263
853.376	14328
853.511	14043
853.645	14199
853.78	14328
853.914	14191
854.048	14290
854.183	14119
854.317	14145
854.451	14317
854.585	14183
854.72	14259
854.854	14187
854.988	14164
855.122	14168
855.256	14092
855.39	14259
855.524	14278
855.658	14324
855.792	14221
855.926	14229
856.06	14278
856.194	14282
856.327	14240
856.461	14176
856.595	14259
856.729	14263
856.862	14298
856.996	14271
857.13	14336
857.263	14336
857.397	14339
857.53	14267
857.664	14282
857.797	14347
857.931	14343
858.064	14332
858.197	14374
858.331	14305
858.464	14130
858.597	14145
858.731	14164
858.864	14263
858.997	14161
859.13	14149
859.263	14237
859.396	14358
859.529	14161
859.662	14187
859.795	14111
859.928	14161
860.061	14218
860.194	14415
860.327	14275
860.46	14111
860.592	14313
860.725	14320
860.858	14199
860.99	14176
861.123	14054
861.256	14168
861.388	14233
861.521	14933
861.653	14096
861.786	13993
861.918	14123
862.05	14168
862.183	14164
862.315	14164
862.447	14324
862.58	14138
862.712	13917
862.844	13963
862.976	14054
863.108	14058
863.24	14446
863.372	13826
863.504	13993
863.636	14039
863.768	14046
863.9	13890
864.032	13902
864.164	13928
864.296	14046
864.428	14084
864.559	14073
864.691	14103
864.823	14024
864.954	14050
865.086	14024
865.217	14039
865.349	13928
865.48	13902
865.612	13986
865.743	14153
865.875	13967
866.006	13982
866.137	13989
866.269	13890
866.4	13944
866.531	13879
866.662	13917
866.793	13875
866.924	13947
867.055	14027
867.186	13967
867.317	13982
867.448	13826
867.579	13932
867.71	13909
867.841	13928
867.972	14008
868.103	13997
868.233	13974
868.364	13967
868.495	14138
868.625	14271
868.756	14328
868.886	14107
869.017	14244
869.147	14290
869.278	14305
869.408	14168
869.539	14256
869.669	14301
869.799	14282
869.929	14396
870.06	14385
870.19	14590
870.32	14465
870.45	14594
870.58	14602
870.71	14754
870.84	14777
870.97	14621
871.1	14545
871.23	14899
871.36	14823
871.489	14651
871.619	14788
871.749	14765
871.879	14921
872.008	14960
872.138	14872
872.267	14895
872.397	14781
872.526	14697
872.656	14594
872.785	14659
872.915	14800
873.044	14895
873.173	14982
873.303	14891
873.432	14914
873.561	14979
873.69	14864
873.819	14921
873.948	14918
874.077	14891
874.206	14994
874.335	14864
874.464	15047
874.593	15211
874.722	15127
874.851	15249
874.979	15108
875.108	15272
875.237	15146
875.365	15123
875.494	15108
875.623	15233
875.751	15161
875.88	15188
876.008	15344
876.136	15458
876.265	15675
876.393	15644
876.521	15797
876.65	15648
876.778	15663
876.906	15542
877.034	15606
877.162	15622
877.29	15515
877.418	15576
877.546	15587
877.674	15625
877.802	15519
877.93	15709
878.058	15447
878.185	15526
878.313	15629
878.441	15660
878.568	15389
878.696	15587
878.824	15656
878.951	15682
879.079	15789
879.206	15934
879.333	15660
879.461	15599
879.588	15690
879.715	15755
879.842	15873
879.97	15660
880.097	15386
880.224	15511
880.351	15507
880.478	15386
880.605	15519
880.732	15431
880.859	15648
880.986	15439
881.112	15580
881.239	15435
881.366	15317
881.493	15176
881.619	14982
881.746	15150
881.872	15013
881.999	15043
882.125	15051
882.252	15150
882.378	15066
882.505	15279
882.631	15104
882.757	14956
882.883	14986
883.01	14921
883.136	14868
883.262	14842
883.388	14853
883.514	15062
883.64	14944
883.766	14899
883.892	14693
884.018	14830
884.143	14944
884.269	15005
884.395	14754
884.52	14659
884.646	14659
884.772	14678
884.897	14587
885.023	14571
885.148	14716
885.274	14792
885.399	14750
885.524	14636
885.65	14689
885.775	14587
885.9	14674
886.025	14788
886.15	14682
886.275	14541
886.4	14530
886.525	14556
886.65	14552
886.775	14511
886.9	14750
887.025	14918
887.149	14670
887.274	14450
887.399	14461
887.523	14442
887.648	14385
887.773	14271
887.897	14606
888.021	14484
888.146	14461
888.27	14476
888.395	14610
888.519	14537
888.643	14465
888.767	14526
888.891	14412
889.015	14237
889.139	14320
889.263	14252
889.387	14419
889.511	14625
889.635	14465
889.759	14427
889.883	14237
890.006	14370
890.13	14309
890.254	14290
890.377	14286
890.501	14130
890.624	14081
890.748	14206
890.871	14062
890.995	14050
891.118	13982
891.241	13989
891.364	14046
891.488	14149
891.611	14092
891.734	13947
891.857	14039
891.98	14065
892.103	14123
892.226	14081
892.349	13986
892.471	13833
892.594	14008
892.717	14046
892.839	13989
892.962	14035
893.085	14073
893.207	14115
893.33	13932
893.452	14005
893.575	14103
893.697	13963
893.819	14199
893.941	14221
894.064	14256
894.186	14065
894.308	14073
894.43	14267
894.552	14225
894.674	14153
894.796	13993
894.918	14168
895.04	14084
895.161	14161
895.283	14153
895.405	14050
895.526	14088
895.648	14100
895.769	14176
895.891	14145
896.012	14351
896.134	14202
896.255	14244
896.376	14191
896.498	14157
896.619	14210
896.74	14244
896.861	14256
896.982	14503
897.103	14674
897.224	14549
897.345	14396
897.466	14355
897.587	14408
897.708	14617
897.828	14503
897.949	14461
898.07	14362
898.19	14473
898.311	14693
898.431	14476
898.552	14552
898.672	14689
898.792	14678
898.913	14629
899.033	14469
899.153	14438
899.273	14313
899.393	14381
899.513	14530
899.633	14488
899.753	14518
899.873	14412
899.993	14511
900.113	14526
900.232	14404
900.352	14412
900.472	14286
900.591	14225
900.711	14252
900.83	14183
900.95	14355
901.069	14362
901.189	14157
901.308	14001
901.427	13879
901.546	13947
901.665	14008
901.784	13974
901.904	13849
902.023	13837
902.141	13624
902.26	13495
902.379	13647
902.498	13426
902.617	13430
902.735	13609
902.854	13518
902.973	13430
903.091	13251
903.21	13232
903.328	13244
903.446	13164
903.565	13046
903.683	13164
903.801	13000
903.919	13080
904.038	13175
904.156	12905
904.274	12970
904.392	12924
904.51	12901
904.627	12943
904.745	12905
904.863	12901
904.981	12821
905.098	12623
905.216	12608
905.334	12574
905.451	12559
905.569	12574
905.686	12760
905.803	12719
905.921	12506
906.038	12445
906.155	12426
906.272	12365
906.389	12422
906.506	12220
906.623	12239
906.74	12140
906.857	12114
906.974	12079
907.091	12270
907.208	12281
907.324	12232
907.441	12106
907.557	12049
907.674	11980
907.79	11866
907.907	12003
908.023	11923
908.139	11954
908.256	11901
908.372	11855
908.488	11832
908.604	11707
908.72	11767
908.836	11680
908.952	11646
909.068	11672
909.184	11885
909.3	11722
909.415	11741
909.531	11707
909.647	11570
909.762	11539
909.878	11379
909.993	11509
910.108	11463
910.224	11376
910.339	11493
910.454	11417
910.57	11395
910.685	11250
910.8	11539
910.915	11501
911.03	11402
911.145	11254
911.259	11174
911.374	11166
911.489	11067
911.604	11083
911.718	10946
911.833	10957
911.947	10774
912.062	10717
912.176	10942
912.291	10949
912.405	10873
912.519	11090
912.633	11083
912.748	10915
912.862	10942
912.976	10911
913.09	10733
913.204	10729
913.318	10752
913.431	10938
913.545	10877
913.659	10927
913.772	10805
913.886	10740
914	10641
914.113	10797
914.226	10847
914.34	10733
914.453	10577
914.566	10755
914.68	10675
914.793	10694
914.906	10523
915.019	10451
915.132	10371
915.245	10459
915.358	10436
915.47	10402
915.583	10443
915.696	10451
915.809	10500
915.921	10588
916.034	10421
916.146	10409
916.259	10314
916.371	10474
916.483	10481
916.595	10329
916.708	10363
916.82	10306
916.932	10379
917.044	10295
917.156	10341
917.268	10211
917.38	10329
917.491	10242
917.603	10242
917.715	10265
917.826	10371
917.938	10253
918.049	10196
918.161	10371
918.272	10485
918.384	10440
918.495	10253
918.606	10169
918.717	10071
918.828	10166
918.939	10246
919.05	10074
919.161	10128
919.272	9964
919.383	10071
919.494	10112
919.604	10440
919.715	10223
919.826	10044
919.936	10139
920.047	10207
920.157	10181
920.267	10314
920.378	10188
920.488	10181
920.598	10413
920.708	10489
920.818	10329
920.928	10306
921.038	10558
921.148	10531
921.258	10181
921.368	10086
921.477	10082
921.587	10010
921.697	10029
921.806	10078
921.916	9926
922.025	9698
922.134	9701
922.244	9724
922.353	9740
922.462	9701
922.571	9526
922.68	9458
922.789	9431
922.898	9382
923.007	9405
923.116	9473
923.224	9420
923.333	9405
923.442	9313
923.55	9302
923.659	9298
923.767	9408
923.876	9264
923.984	9405
924.092	9279
924.201	9275
924.309	9332
924.417	9275
924.525	9294
924.633	9332
924.741	10017
924.849	9131
924.956	9222
925.064	9036
925.172	9020
925.279	9039
925.387	9093
925.494	9070
925.602	9207
925.709	9123
925.816	9039
925.924	9169
926.031	9169
926.138	9062
926.245	9135
926.352	9013
926.459	9127
926.566	9272
926.673	9043
926.779	9013
926.886	8933
926.993	8853
927.099	8777
927.206	8701
927.312	8739
927.419	8819
927.525	8804
927.631	8864
927.737	8712
927.843	8678
927.95	8636
928.056	8746
928.162	8705
928.267	8705
928.373	9424
928.479	8766
928.585	8533
928.69	8731
928.796	8720
928.901	8670
929.007	8514
929.112	8606
929.218	8625
929.323	8541
929.428	8545
929.533	8682
929.638	8454
929.743	8514
929.848	8556
929.953	8495
930.058	8473
930.163	8229
930.267	8267
930.372	8396
930.477	8244
930.581	8537
930.685	8309
930.79	8244
930.894	8279
930.998	8176
931.103	8423
931.207	7993
931.311	7982
931.415	7887
931.519	7719
931.623	7677
