Data from test_V78500241_3198.txt Node
Date: Fri Mar 25 14:55:58 CST 2022
User: usil
Spectrometer: V785-0024
Trigger mode: 0
Integration Time (sec): 4.000000E-1
Scans to average: 1
Nonlinearity correction enabled: false
Boxcar width: 0
Storing dark spectrum: false
XAxis mode: Wavelengths
Number of Pixels in Spectrum: 1024
>>>>>Begin Spectral Data<<<<<
801.071	22074
801.214	21892
801.356	21686
801.499	21557
801.641	21370
801.783	21374
801.926	21287
802.068	21214
802.211	21142
802.353	21104
802.496	20853
802.638	20914
802.78	20697
802.923	20750
803.065	20689
803.208	20571
803.35	20689
803.492	20788
803.635	20895
803.777	20655
803.919	20773
804.061	21013
804.204	20765
804.346	20587
804.488	20583
804.63	20689
804.773	20522
804.915	20667
805.057	20861
805.199	20545
805.341	20651
805.483	20667
805.626	20682
805.768	20514
805.91	20556
806.052	20571
806.194	20625
806.336	20708
806.478	20507
806.62	20617
806.762	20609
806.904	20826
807.046	20937
807.188	20876
807.33	20982
807.472	20948
807.614	20750
807.756	20868
807.898	20792
808.04	20640
808.182	20644
808.324	20750
808.465	20762
808.607	20994
808.749	20979
808.891	21074
809.033	21233
809.174	21123
809.316	20929
809.458	20921
809.6	20883
809.741	20986
809.883	20967
810.025	21135
810.166	21032
810.308	21138
810.45	21070
810.591	21047
810.733	20868
810.875	20872
811.016	20667
811.158	20632
811.299	20880
811.441	20906
811.582	20727
811.724	20697
811.865	20724
812.007	20705
812.148	20765
812.29	20708
812.431	20792
812.573	21066
812.714	21214
812.855	21378
812.997	21279
813.138	21469
813.279	21359
813.421	21203
813.562	21184
813.703	21062
813.845	20849
813.986	20648
814.127	20469
814.268	20427
814.41	20313
814.551	20263
814.692	20301
814.833	20221
814.974	20233
815.115	20218
815.256	20122
815.397	20168
815.539	20187
815.68	19974
815.821	19989
815.962	19978
816.103	19967
816.244	19852
816.385	19780
816.526	19666
816.666	19609
816.807	19480
816.948	19453
817.089	19502
817.23	19552
817.371	19396
817.512	19480
817.653	19434
817.793	19377
817.934	19411
818.075	19419
818.216	19449
818.356	19354
818.497	19266
818.638	18973
818.778	19114
818.919	19107
819.06	19171
819.2	19221
819.341	19263
819.481	19244
819.622	19419
819.762	19533
819.903	19578
820.043	19438
820.184	19388
820.324	19411
820.465	19480
820.605	19369
820.746	19304
820.886	19297
821.026	19400
821.167	19327
821.307	19422
821.447	19350
821.588	19213
821.728	19110
821.868	19008
822.008	18833
822.149	18802
822.289	18981
822.429	18540
822.569	18464
822.709	18467
822.849	18285
822.99	18178
823.13	18254
823.27	18262
823.41	18121
823.55	18087
823.69	18121
823.83	18140
823.97	18057
824.11	17901
824.25	17969
824.389	17942
824.529	17954
824.669	17946
824.809	18045
824.949	17893
825.089	17969
825.228	17942
825.368	17714
825.508	17680
825.648	17699
825.787	17767
825.927	17695
826.067	17676
826.206	17611
826.346	17661
826.485	17775
826.625	17707
826.765	17912
826.904	17676
827.044	17410
827.183	17421
827.323	17410
827.462	17364
827.601	17372
827.741	17269
827.88	17364
828.02	17239
828.159	17379
828.298	17395
828.437	17406
828.577	17261
828.716	17482
828.855	17322
828.994	17235
829.134	17029
829.273	17151
829.412	17029
829.551	17075
829.69	17220
829.829	17109
829.968	17254
830.107	17083
830.246	17147
830.385	17113
830.524	17003
830.663	16972
830.802	16744
830.941	16778
831.08	16740
831.219	16873
831.357	16896
831.496	16976
831.635	16767
831.774	16637
831.913	16611
832.051	16497
832.19	16466
832.329	16607
832.467	16485
832.606	16436
832.744	16371
832.883	16436
833.022	16413
833.16	16447
833.299	16588
833.437	16447
833.576	16512
833.714	16546
833.852	16527
833.991	16538
834.129	16588
834.267	16447
834.406	16527
834.544	16489
834.682	16462
834.821	16398
834.959	16611
835.097	16516
835.235	16561
835.373	16424
835.511	16493
835.65	16413
835.788	16337
835.926	16192
836.064	16242
836.202	16265
836.34	16424
836.478	16481
836.615	16481
836.753	16523
836.891	16531
837.029	16375
837.167	16303
837.305	16261
837.443	16394
837.58	16306
837.718	16287
837.856	16287
837.993	16181
838.131	16246
838.269	16120
838.406	16242
838.544	16173
838.681	15918
838.819	15907
838.956	15869
839.094	15816
839.231	15831
839.369	15979
839.506	16242
839.643	15987
839.781	15922
839.918	15857
840.055	15816
840.193	15812
840.33	15797
840.467	15842
840.604	15892
840.742	16082
840.879	15663
841.016	15797
841.153	15728
841.29	15823
841.427	15850
841.564	15876
841.701	15766
841.838	15797
841.975	15789
842.112	15759
842.249	15667
842.385	15473
842.522	15892
842.659	15641
842.796	15530
842.933	15534
843.069	15511
843.206	15584
843.343	15603
843.479	15603
843.616	15595
843.752	15306
843.889	15298
844.025	15622
844.162	15298
844.298	15405
844.435	15424
844.571	15321
844.708	15500
844.844	15591
844.98	15530
845.117	15336
845.253	15340
845.389	15230
845.525	15268
845.661	15252
845.798	15157
845.934	15123
846.07	15131
846.206	15180
846.342	15306
846.478	15230
846.614	15131
846.75	14918
846.886	14975
847.022	15017
847.158	14948
847.294	14910
847.429	14952
847.565	14921
847.701	15161
847.837	14765
847.972	14629
848.108	14739
848.244	14727
848.379	14590
848.515	14610
848.65	14526
848.786	14541
848.921	14492
849.057	14762
849.192	14659
849.328	14533
849.463	14549
849.598	14545
849.734	14469
849.869	14389
850.004	14305
850.14	14336
850.275	14358
850.41	14225
850.545	14237
850.68	14275
850.815	14351
850.95	14282
851.085	14484
851.22	14301
851.355	14267
851.49	14328
851.625	14347
851.76	14301
851.895	14267
852.03	14123
852.165	14309
852.299	14313
852.434	14396
852.569	14419
852.703	14294
852.838	14396
852.973	14484
853.107	14454
853.242	14172
853.376	14164
853.511	14142
853.645	14107
853.78	14206
853.914	14111
854.048	14199
854.183	14187
854.317	14218
854.451	14385
854.585	14161
854.72	14069
854.854	14377
854.988	14058
855.122	14142
855.256	13986
855.39	14164
855.524	14301
855.658	14328
855.792	14172
855.926	14168
856.06	14282
856.194	14317
856.327	14195
856.461	14153
856.595	14130
856.729	14168
856.862	14301
856.996	14157
857.13	14278
857.263	14290
857.397	14221
857.53	14244
857.664	14252
857.797	14377
857.931	14347
858.064	14221
858.197	14294
858.331	14225
858.464	14145
858.597	14176
858.731	14206
858.864	14107
858.997	14164
859.13	14267
859.263	14187
859.396	14233
859.529	14161
859.662	14180
859.795	14187
859.928	14210
860.061	14309
860.194	14427
860.327	14252
860.46	14278
860.592	14351
860.725	14366
860.858	14313
860.99	14157
861.123	14123
861.256	14199
861.388	14119
861.521	14883
861.653	14035
861.786	13993
861.918	13978
862.05	14020
862.183	14153
862.315	14172
862.447	14183
862.58	14157
862.712	13986
862.844	13944
862.976	14050
863.108	13967
863.24	14275
863.372	13921
863.504	13982
863.636	13951
863.768	13944
863.9	13986
864.032	13898
864.164	13955
864.296	14027
864.428	14001
864.559	14039
864.691	14096
864.823	13970
864.954	14069
865.086	14001
865.217	13986
865.349	13936
865.48	13959
865.612	13955
865.743	14096
865.875	13989
866.006	13951
866.137	14005
866.269	13932
866.4	14039
866.531	13887
866.662	13932
866.793	13864
866.924	14008
867.055	13944
867.186	13951
867.317	13826
867.448	13890
867.579	13849
867.71	13890
867.841	13940
867.972	14043
868.103	13951
868.233	13963
868.364	13925
868.495	14054
868.625	14195
868.756	14252
868.886	14092
869.017	14149
869.147	14206
869.278	14328
869.408	14199
869.539	14073
869.669	14248
869.799	14252
869.929	14248
870.06	14343
870.19	14564
870.32	14469
870.45	14480
870.58	14503
870.71	14762
870.84	14625
870.97	14629
871.1	14640
871.23	14746
871.36	14815
871.489	14701
871.619	14743
871.749	14762
871.879	14769
872.008	14982
872.138	14895
872.267	14792
872.397	14648
872.526	14663
872.656	14632
872.785	14549
872.915	14815
873.044	14872
873.173	14830
873.303	14861
873.432	14819
873.561	14906
873.69	14872
873.819	14796
873.948	14990
874.077	14895
874.206	14815
874.335	14872
874.464	14937
874.593	15192
874.722	15138
874.851	15214
874.979	15184
875.108	15157
875.237	15157
875.365	15043
875.494	15211
875.623	15146
875.751	15119
875.88	15237
876.008	15317
876.136	15344
876.265	15580
876.393	15770
876.521	15591
876.65	15682
876.778	15564
876.906	15481
877.034	15526
877.162	15500
877.29	15534
877.418	15538
877.546	15545
877.674	15629
877.802	15675
877.93	15572
878.058	15553
878.185	15443
878.313	15580
878.441	15587
878.568	15443
878.696	15462
878.824	15656
878.951	15637
879.079	15736
879.206	15915
879.333	15861
879.461	15671
879.588	15606
879.715	15652
879.842	15884
879.97	15679
880.097	15370
880.224	15386
880.351	15564
880.478	15454
880.605	15344
880.732	15488
880.859	15682
880.986	15534
881.112	15515
881.239	15336
881.366	15230
881.493	15195
881.619	15089
881.746	15013
881.872	15123
881.999	15039
882.125	15077
882.252	15116
882.378	15176
882.505	15287
882.631	15058
882.757	14952
882.883	15028
883.01	14880
883.136	14826
883.262	14754
883.388	14868
883.514	14872
883.64	14929
883.766	14883
883.892	14590
884.018	14678
884.143	14921
884.269	14868
884.395	14659
884.52	14545
884.646	14720
884.772	14454
884.897	14457
885.023	14678
885.148	14769
885.274	14815
885.399	14678
885.524	14621
885.65	14682
885.775	14583
885.9	14606
886.025	14727
886.15	14724
886.275	14617
886.4	14480
886.525	14564
886.65	14556
886.775	14533
886.9	14678
887.025	14804
887.149	14473
887.274	14476
887.399	14347
887.523	14484
887.648	14358
887.773	14351
887.897	14568
888.021	14568
888.146	14408
888.27	14514
888.395	14549
888.519	14484
888.643	14412
888.767	14457
888.891	14328
889.015	14298
889.139	14294
889.263	14332
889.387	14469
889.511	14533
889.635	14518
889.759	14301
889.883	14336
890.006	14351
890.13	14385
890.254	14218
890.377	14275
890.501	14077
890.624	14126
890.748	14259
890.871	14001
890.995	13978
891.118	13913
891.241	13944
891.364	14126
891.488	14084
891.611	13993
891.734	13963
891.857	14126
891.98	13997
892.103	14103
892.226	14054
892.349	13940
892.471	13818
892.594	14020
892.717	14005
892.839	13959
892.962	14001
893.085	14115
893.207	14046
893.33	13807
893.452	13944
893.575	14058
893.697	13997
893.819	14145
893.941	14290
894.064	14191
894.186	14058
894.308	13986
894.43	14073
894.552	14252
894.674	14134
894.796	13986
894.918	14016
895.04	14016
895.161	14123
895.283	14081
895.405	14126
895.526	14065
895.648	14206
895.769	14103
895.891	14248
896.012	14183
896.134	14199
896.255	14233
896.376	14199
896.498	14153
896.619	14138
896.74	14138
896.861	14229
896.982	14511
897.103	14655
897.224	14427
897.345	14393
897.466	14313
897.587	14393
897.708	14526
897.828	14499
897.949	14393
898.07	14286
898.19	14404
898.311	14655
898.431	14431
898.552	14602
898.672	14670
898.792	14632
898.913	14571
899.033	14381
899.153	14419
899.273	14286
899.393	14396
899.513	14347
899.633	14419
899.753	14431
899.873	14343
899.993	14537
900.113	14427
900.232	14396
900.352	14339
900.472	14210
900.591	14210
900.711	14218
900.83	14115
900.95	14298
901.069	14370
901.189	14180
901.308	13978
901.427	13909
901.546	13890
901.665	13959
901.784	14027
901.904	13845
902.023	13784
902.141	13540
902.26	13502
902.379	13582
902.498	13499
902.617	13499
902.735	13533
902.854	13472
902.973	13449
903.091	13263
903.21	13194
903.328	13270
903.446	13168
903.565	13095
903.683	13171
903.801	12981
903.919	13133
904.038	12989
904.156	12901
904.274	13008
904.392	12871
904.51	12783
904.627	12939
904.745	12951
904.863	12977
904.981	12642
905.098	12654
905.216	12570
905.334	12711
905.451	12612
905.569	12559
905.686	12677
905.803	12547
905.921	12330
906.038	12460
906.155	12479
906.272	12308
906.389	12235
906.506	12117
906.623	12117
906.74	12152
906.857	12053
906.974	12041
907.091	12285
907.208	12369
907.324	12197
907.441	12068
907.557	12019
907.674	11908
907.79	11851
907.907	11878
908.023	11927
908.139	11996
908.256	11794
908.372	11771
908.488	11863
908.604	11729
908.72	11691
908.836	11699
908.952	11558
909.068	11562
909.184	11786
909.3	11676
909.415	11699
909.531	11707
909.647	11551
909.762	11421
909.878	11391
909.993	11478
910.108	11478
910.224	11444
910.339	11398
910.454	11337
910.57	11280
910.685	11227
910.8	11512
910.915	11421
911.03	11280
911.145	11151
911.259	11128
911.374	11132
911.489	11075
911.604	11018
911.718	10850
911.833	10934
911.947	10763
912.062	10717
912.176	10843
912.291	10972
912.405	10873
912.519	11086
912.633	11113
912.748	11014
912.862	10927
912.976	10774
913.09	10710
913.204	10793
913.318	10824
913.431	10778
913.545	10858
913.659	10869
913.772	10831
913.886	10641
914	10653
914.113	10691
914.226	10831
914.34	10729
914.453	10531
914.566	10710
914.68	10573
914.793	10542
914.906	10455
915.019	10409
915.132	10333
915.245	10413
915.358	10474
915.47	10436
915.583	10459
915.696	10409
915.809	10573
915.921	10611
916.034	10337
916.146	10352
916.259	10371
916.371	10489
916.483	10375
916.595	10386
916.708	10310
916.82	10371
916.932	10337
917.044	10246
917.156	10333
917.268	10215
917.38	10303
917.491	10230
917.603	10242
917.715	10375
917.826	10356
917.938	10227
918.049	10078
918.161	10276
918.272	10398
918.384	10329
918.495	10284
918.606	10192
918.717	10234
918.828	10139
918.939	10139
919.05	10082
919.161	10150
919.272	9994
919.383	9945
919.494	10124
919.604	10322
919.715	10147
919.826	10112
919.936	10162
920.047	10207
920.157	10207
920.267	10356
920.378	10166
920.488	10154
920.598	10386
920.708	10489
920.818	10284
920.928	10367
921.038	10447
921.148	10436
921.258	10150
921.368	10128
921.477	9956
921.587	10006
921.697	9835
921.806	9991
921.916	9941
922.025	9732
922.134	9675
922.244	9728
922.353	9774
922.462	9515
922.571	9492
922.68	9435
922.789	9412
922.898	9389
923.007	9359
923.116	9507
923.224	9424
923.333	9435
923.442	9294
923.55	9268
923.659	9336
923.767	9325
923.876	9226
923.984	9348
924.092	9245
924.201	9325
924.309	9241
924.417	9313
924.525	9272
924.633	9199
924.741	10249
924.849	9020
924.956	9241
925.064	9051
925.172	8960
925.279	9043
925.387	9077
925.494	9074
925.602	9203
925.709	9104
925.816	8948
925.924	9055
926.031	9108
926.138	9131
926.245	9127
926.352	9047
926.459	9195
926.566	9150
926.673	9058
926.779	8967
926.886	8887
926.993	8788
927.099	8785
927.206	8724
927.312	8712
927.419	8807
927.525	8792
927.631	8815
927.737	8674
927.843	8663
927.95	8556
928.056	8621
928.162	8716
928.267	8705
928.373	9363
928.479	8796
928.585	8541
928.69	8659
928.796	8735
928.901	8533
929.007	8492
929.112	8571
929.218	8579
929.323	8495
929.428	8461
929.533	8583
929.638	8480
929.743	8473
929.848	8408
929.953	8476
930.058	8419
930.163	8244
930.267	8233
930.372	8469
930.477	8176
930.581	8476
930.685	8324
930.79	8172
930.894	8229
930.998	8202
931.103	8305
931.207	8046
931.311	7932
931.415	7890
931.519	7689
931.623	7708
