Data from test_V78500241_1160.txt Node
Date: Fri Mar 25 14:41:47 CST 2022
User: usil
Spectrometer: V785-0024
Trigger mode: 0
Integration Time (sec): 4.000000E-1
Scans to average: 1
Nonlinearity correction enabled: false
Boxcar width: 0
Storing dark spectrum: false
XAxis mode: Wavelengths
Number of Pixels in Spectrum: 1024
>>>>>Begin Spectral Data<<<<<
801.071	22527
801.214	22405
801.356	22230
801.499	22116
801.641	21907
801.783	21907
801.926	21873
802.068	21762
802.211	21762
802.353	21667
802.496	21496
802.638	21363
802.78	21275
802.923	21386
803.065	21096
803.208	21176
803.35	21146
803.492	21389
803.635	21287
803.777	21256
803.919	21317
804.061	21572
804.204	21317
804.346	21108
804.488	21001
804.63	21051
804.773	21058
804.915	21176
805.057	21218
805.199	21116
805.341	21237
805.483	21112
805.626	21195
805.768	21074
805.91	21154
806.052	21188
806.194	21093
806.336	21218
806.478	21100
806.62	21176
806.762	21237
806.904	21317
807.046	21553
807.188	21488
807.33	21591
807.472	21576
807.614	21431
807.756	21473
807.898	21287
808.04	21252
808.182	21386
808.324	21321
808.465	21420
808.607	21618
808.749	21797
808.891	21816
809.033	21888
809.174	21850
809.316	21728
809.458	21694
809.6	21599
809.741	21701
809.883	21736
810.025	21671
810.166	21709
810.308	21736
810.45	21682
810.591	21648
810.733	21534
810.875	21363
811.016	21310
811.158	21230
811.299	21359
811.441	21606
811.582	21469
811.724	21218
811.865	21344
812.007	21374
812.148	21298
812.29	21443
812.431	21526
812.573	21652
812.714	21755
812.855	21842
812.997	21937
813.138	22006
813.279	21949
813.421	21918
813.562	21812
813.703	21625
813.845	21553
813.986	21336
814.127	20986
814.268	21043
814.41	20925
814.551	20830
814.692	20880
814.833	20838
814.974	20785
815.115	20887
815.256	20720
815.397	20773
815.539	20731
815.68	20609
815.821	20583
815.962	20705
816.103	20549
816.244	20442
816.385	20358
816.526	20282
816.666	20164
816.807	20168
816.948	20157
817.089	20168
817.23	20161
817.371	20119
817.512	20065
817.653	20065
817.793	20020
817.934	20031
818.075	20062
818.216	19928
818.356	19993
818.497	19871
818.638	19635
818.778	19700
818.919	19788
819.06	19803
819.2	19917
819.341	19906
819.481	19890
819.622	20069
819.762	20225
819.903	20240
820.043	20081
820.184	20027
820.324	20069
820.465	20012
820.605	20050
820.746	20058
820.886	19894
821.026	19947
821.167	19955
821.307	20043
821.447	19997
821.588	19833
821.728	19750
821.868	19586
822.008	19316
822.149	19308
822.289	19362
822.429	19141
822.569	19141
822.709	19160
822.849	18856
822.99	18989
823.13	18890
823.27	18806
823.41	18741
823.55	18688
823.69	18848
823.83	18798
823.97	18669
824.11	18570
824.25	18441
824.389	18506
824.529	18574
824.669	18521
824.809	18536
824.949	18730
825.089	18578
825.228	18532
825.368	18346
825.508	18296
825.648	18399
825.787	18334
825.927	18380
826.067	18194
826.206	18296
826.346	18323
826.485	18323
826.625	18319
826.765	18399
826.904	18319
827.044	18114
827.183	17996
827.323	17988
827.462	18026
827.601	17996
827.741	18038
827.88	17931
828.02	17809
828.159	17980
828.298	18045
828.437	17973
828.577	17984
828.716	18102
828.855	18049
828.994	17687
829.134	17718
829.273	17764
829.412	17592
829.551	17756
829.69	17608
829.829	17748
829.968	17790
830.107	17729
830.246	17783
830.385	17691
830.524	17676
830.663	17539
830.802	17501
830.941	17410
831.08	17410
831.219	17406
831.357	17402
831.496	17646
831.635	17429
831.774	17239
831.913	17235
832.051	17075
832.19	17170
832.329	17151
832.467	16991
832.606	16999
832.744	17083
832.883	17105
833.022	16946
833.16	17098
833.299	17151
833.437	17143
833.576	17151
833.714	16999
833.852	17136
833.991	17208
834.129	17140
834.267	17064
834.406	17025
834.544	17208
834.682	17056
834.821	17197
834.959	17326
835.097	17178
835.235	17098
835.373	17147
835.511	17029
835.65	17010
835.788	16995
835.926	16763
836.064	16866
836.202	16850
836.34	17052
836.478	17029
836.615	16869
836.753	17079
836.891	17140
837.029	17071
837.167	17056
837.305	16961
837.443	16953
837.58	16831
837.718	16991
837.856	16976
837.993	16877
838.131	16854
838.269	16812
838.406	16889
838.544	16759
838.681	16683
838.819	16561
838.956	16459
839.094	16405
839.231	16440
839.369	16558
839.506	16740
839.643	16710
839.781	16413
839.918	16337
840.055	16413
840.193	16394
840.33	16470
840.467	16424
840.604	16470
840.742	16653
840.879	16360
841.016	16394
841.153	16318
841.29	16573
841.427	16382
841.564	16462
841.701	16436
841.838	16382
841.975	16329
842.112	16363
842.249	16246
842.385	16162
842.522	16341
842.659	16200
842.796	16158
842.933	16211
843.069	16166
843.206	16135
843.343	16246
843.479	16177
843.616	16158
843.752	16006
843.889	16025
844.025	16124
844.162	15991
844.298	15972
844.435	16082
844.571	15987
844.708	16032
844.844	16154
844.98	16109
845.117	16112
845.253	15975
845.389	15895
845.525	15983
845.661	15991
845.798	15861
845.934	16109
846.07	15972
846.206	16006
846.342	16120
846.478	15983
846.614	15671
846.75	15648
846.886	15534
847.022	15671
847.158	15561
847.294	15545
847.429	15587
847.565	15378
847.701	15895
847.837	15393
847.972	15161
848.108	15443
848.244	15382
848.379	15260
848.515	15093
848.65	15112
848.786	15192
848.921	15161
849.057	15291
849.192	15222
849.328	15169
849.463	15294
849.598	15116
849.734	15108
849.869	14941
850.004	14963
850.14	14925
850.275	14914
850.41	14811
850.545	14902
850.68	14899
850.815	14979
850.95	14815
851.085	15169
851.22	14937
851.355	14906
851.49	14910
851.625	14857
851.76	14899
851.895	14834
852.03	14864
852.165	14887
852.299	14948
852.434	14967
852.569	14952
852.703	14944
852.838	14925
852.973	15062
853.107	15104
853.242	15001
853.376	14826
853.511	14663
853.645	14853
853.78	14952
853.914	14807
854.048	14800
854.183	14716
854.317	14724
854.451	14948
854.585	14796
854.72	14731
854.854	14792
854.988	14678
855.122	14765
855.256	14610
855.39	14739
855.524	14933
855.658	14842
855.792	14781
855.926	14895
856.06	14800
856.194	14842
856.327	14781
856.461	14746
856.595	14864
856.729	14758
856.862	14876
856.996	14792
857.13	14937
857.263	14921
857.397	14842
857.53	14800
857.664	14754
857.797	14804
857.931	14883
858.064	14807
858.197	14910
858.331	14724
858.464	14735
858.597	14750
858.731	14712
858.864	14735
858.997	14731
859.13	14781
859.263	14777
859.396	14883
859.529	14743
859.662	14750
859.795	14777
859.928	14746
860.061	14982
860.194	14952
860.327	14887
860.46	14849
860.592	14815
860.725	14883
860.858	14944
860.99	14807
861.123	14629
861.256	14781
861.388	14838
861.521	15542
861.653	14648
861.786	14571
861.918	14610
862.05	14686
862.183	14796
862.315	14788
862.447	14834
862.58	14655
862.712	14442
862.844	14484
862.976	14644
863.108	14564
863.24	15001
863.372	14518
863.504	14651
863.636	14533
863.768	14499
863.9	14636
864.032	14594
864.164	14530
864.296	14598
864.428	14724
864.559	14613
864.691	14503
864.823	14598
864.954	14492
865.086	14659
865.217	14518
865.349	14530
865.48	14610
865.612	14541
865.743	14613
865.875	14419
866.006	14552
866.137	14522
866.269	14461
866.4	14454
866.531	14602
866.662	14473
866.793	14552
866.924	14526
867.055	14602
867.186	14571
867.317	14461
867.448	14358
867.579	14457
867.71	14450
867.841	14450
867.972	14568
868.103	14415
868.233	14514
868.364	14503
868.495	14651
868.625	14705
868.756	14880
868.886	14663
869.017	14689
869.147	14906
869.278	14944
869.408	14773
869.539	14689
869.669	14853
869.799	14807
869.929	14937
870.06	14918
870.19	15070
870.32	15020
870.45	15150
870.58	15131
870.71	15370
870.84	15306
870.97	15036
871.1	15138
871.23	15317
871.36	15401
871.489	15252
871.619	15252
871.749	15336
871.879	15382
872.008	15496
872.138	15313
872.267	15389
872.397	15211
872.526	15123
872.656	15161
872.785	15272
872.915	15386
873.044	15412
873.173	15458
873.303	15370
873.432	15401
873.561	15545
873.69	15473
873.819	15519
873.948	15458
874.077	15466
874.206	15386
874.335	15519
874.464	15568
874.593	15679
874.722	15660
874.851	15755
874.979	15751
875.108	15774
875.237	15614
875.365	15629
875.494	15629
875.623	15797
875.751	15759
875.88	15835
876.008	15907
876.136	15998
876.265	16143
876.393	16284
876.521	16234
876.65	16291
876.778	16204
876.906	16090
877.034	16071
877.162	16173
877.29	16055
877.418	16173
877.546	16169
877.674	16112
877.802	16242
877.93	16135
878.058	16078
878.185	15979
878.313	16154
878.441	16078
878.568	16021
878.696	16067
878.824	16234
878.951	16257
879.079	16394
879.206	16531
879.333	16386
879.461	16261
879.588	16421
879.715	16363
879.842	16527
879.97	16257
880.097	16021
880.224	16048
880.351	16021
880.478	15991
880.605	15972
880.732	16044
880.859	16169
880.986	15998
881.112	16059
881.239	15922
881.366	15835
881.493	15663
881.619	15652
881.746	15701
881.872	15694
881.999	15743
882.125	15500
882.252	15690
882.378	15766
882.505	15861
882.631	15591
882.757	15542
882.883	15576
883.01	15526
883.136	15424
883.262	15317
883.388	15317
883.514	15462
883.64	15519
883.766	15374
883.892	15195
884.018	15351
884.143	15443
884.269	15549
884.395	15245
884.52	15138
884.646	15199
884.772	15131
884.897	15028
885.023	15233
885.148	15287
885.274	15256
885.399	15389
885.524	15112
885.65	15192
885.775	15268
885.9	15180
886.025	15298
886.15	15211
886.275	15013
886.4	15135
886.525	15184
886.65	15089
886.775	15028
886.9	15336
887.025	15378
887.149	15157
887.274	15024
887.399	14975
887.523	14952
887.648	15020
887.773	14963
887.897	14994
888.021	15058
888.146	14979
888.27	15047
888.395	15131
888.519	14994
888.643	15032
888.767	15142
888.891	14910
889.015	14895
889.139	14960
889.263	14876
889.387	14925
889.511	15093
889.635	14971
889.759	14872
889.883	14796
890.006	14933
890.13	14895
890.254	14842
890.377	14762
890.501	14568
890.624	14644
890.748	14762
890.871	14556
890.995	14457
891.118	14442
891.241	14522
891.364	14575
891.488	14670
891.611	14545
891.734	14537
891.857	14587
891.98	14632
892.103	14526
892.226	14629
892.349	14499
892.471	14404
892.594	14431
892.717	14522
892.839	14522
892.962	14461
893.085	14514
893.207	14514
893.33	14404
893.452	14450
893.575	14545
893.697	14507
893.819	14682
893.941	14724
894.064	14686
894.186	14389
894.308	14495
894.43	14613
894.552	14670
894.674	14686
894.796	14381
894.918	14518
895.04	14613
895.161	14750
895.283	14667
895.405	14450
895.526	14590
895.648	14598
895.769	14663
895.891	14678
896.012	14655
896.134	14644
896.255	14644
896.376	14640
896.498	14594
896.619	14648
896.74	14701
896.861	14739
896.982	15108
897.103	15093
897.224	15047
897.345	14880
897.466	14883
897.587	14880
897.708	15097
897.828	15001
897.949	14849
898.07	14819
898.19	14883
898.311	15070
898.431	14960
898.552	15070
898.672	15024
898.792	15154
898.913	15146
899.033	15005
899.153	14838
899.273	14823
899.393	14868
899.513	14880
899.633	14902
899.753	14815
899.873	14800
899.993	14929
900.113	14826
900.232	14826
900.352	14880
900.472	14727
900.591	14754
900.711	14731
900.83	14697
900.95	14781
901.069	14853
901.189	14625
901.308	14469
901.427	14427
901.546	14377
901.665	14396
901.784	14511
901.904	14195
902.023	14176
902.141	13997
902.26	13989
902.379	14012
902.498	13963
902.617	13902
902.735	13989
902.854	13936
902.973	13906
903.091	13742
903.21	13670
903.328	13708
903.446	13590
903.565	13548
903.683	13597
903.801	13468
903.919	13487
904.038	13533
904.156	13343
904.274	13388
904.392	13327
904.51	13316
904.627	13327
904.745	13419
904.863	13400
904.981	13099
905.098	13050
905.216	12966
905.334	12993
905.451	13053
905.569	13015
905.686	13076
905.803	13065
905.921	12863
906.038	12894
906.155	12890
906.272	12677
906.389	12623
906.506	12551
906.623	12551
906.74	12532
906.857	12437
906.974	12612
907.091	12681
907.208	12696
907.324	12669
907.441	12437
907.557	12391
907.674	12395
907.79	12270
907.907	12372
908.023	12410
908.139	12330
908.256	12239
908.372	12350
908.488	12232
908.604	12167
908.72	12121
908.836	12136
908.952	11999
909.068	12140
909.184	12136
909.3	12125
909.415	12060
909.531	12079
909.647	11961
909.762	11851
909.878	11901
909.993	11882
910.108	11859
910.224	11802
910.339	11813
910.454	11764
910.57	11764
910.685	11665
910.8	11958
910.915	11885
911.03	11790
911.145	11600
911.259	11558
911.374	11520
911.489	11501
911.604	11433
911.718	11318
911.833	11330
911.947	11246
912.062	11132
912.176	11235
912.291	11201
912.405	11235
912.519	11433
912.633	11402
912.748	11448
912.862	11318
912.976	11181
913.09	11041
913.204	11045
913.318	11140
913.431	11284
913.545	11395
913.659	11421
913.772	11181
913.886	11083
914	11018
914.113	11216
914.226	11174
914.34	11117
914.453	11010
914.566	11121
914.68	10976
914.793	11064
914.906	10881
915.019	10763
915.132	10733
915.245	10828
915.358	10809
915.47	10812
915.583	10774
915.696	10866
915.809	10946
915.921	10911
916.034	10793
916.146	10790
916.259	10767
916.371	10850
916.483	10850
916.595	10691
916.708	10759
916.82	10755
916.932	10786
917.044	10744
917.156	10679
917.268	10599
917.38	10637
917.491	10637
917.603	10611
917.715	10679
917.826	10717
917.938	10561
918.049	10424
918.161	10622
918.272	10854
918.384	10771
918.495	10664
918.606	10542
918.717	10519
918.828	10531
918.939	10504
919.05	10459
919.161	10462
919.272	10322
919.383	10303
919.494	10565
919.604	10603
919.715	10527
919.826	10447
919.936	10497
920.047	10592
920.157	10538
920.267	10706
920.378	10588
920.488	10470
920.598	10698
920.708	10767
920.818	10717
920.928	10683
921.038	10763
921.148	10820
921.258	10489
921.368	10436
921.477	10371
921.587	10322
921.697	10238
921.806	10390
921.916	10230
922.025	10101
922.134	10013
922.244	9983
922.353	10040
922.462	9945
922.571	9808
922.68	9724
922.789	9785
922.898	9785
923.007	9641
923.116	9789
923.224	9762
923.333	9732
923.442	9603
923.55	9660
923.659	9641
923.767	9637
923.876	9595
923.984	9633
924.092	9511
924.201	9629
924.309	9618
924.417	9564
924.525	9519
924.633	9542
924.741	10337
924.849	9355
924.956	9538
925.064	9367
925.172	9412
925.279	9325
925.387	9447
925.494	9340
925.602	9511
925.709	9389
925.816	9313
925.924	9439
926.031	9367
926.138	9336
926.245	9408
926.352	9317
926.459	9435
926.566	9545
926.673	9317
926.779	9230
926.886	9173
926.993	9123
927.099	9089
927.206	9039
927.312	9028
927.419	9165
927.525	9104
927.631	9142
927.737	9036
927.843	8982
927.95	8914
928.056	8899
928.162	8998
928.267	9039
928.373	9610
928.479	9066
928.585	8819
928.69	8971
928.796	9001
928.901	8811
929.007	8872
929.112	8834
929.218	8834
929.323	8804
929.428	8746
929.533	8918
929.638	8678
929.743	8754
929.848	8823
929.953	8689
930.058	8655
930.163	8518
930.267	8530
930.372	8762
930.477	8511
930.581	8708
930.685	8644
930.79	8434
930.894	8583
930.998	8511
931.103	8632
931.207	8309
931.311	8214
931.415	8191
931.519	7982
931.623	8020
