Data from test_V78500241_2264.txt Node
Date: Fri Mar 25 14:49:28 CST 2022
User: usil
Spectrometer: V785-0024
Trigger mode: 0
Integration Time (sec): 4.000000E-1
Scans to average: 1
Nonlinearity correction enabled: false
Boxcar width: 0
Storing dark spectrum: false
XAxis mode: Wavelengths
Number of Pixels in Spectrum: 1024
>>>>>Begin Spectral Data<<<<<
801.071	22120
801.214	22059
801.356	21838
801.499	21698
801.641	21622
801.783	21523
801.926	21580
802.068	21515
802.211	21370
802.353	21294
802.496	21188
802.638	20941
802.78	21077
802.923	20925
803.065	20914
803.208	20750
803.35	20868
803.492	20872
803.635	20963
803.777	20750
803.919	20914
804.061	21363
804.204	20979
804.346	20811
804.488	20834
804.63	20941
804.773	20842
804.915	20857
805.057	20845
805.199	20735
805.341	20906
805.483	20811
805.626	20929
805.768	20807
805.91	20849
806.052	20902
806.194	20811
806.336	20899
806.478	20842
806.62	20830
806.762	20982
806.904	21009
807.046	21138
807.188	21173
807.33	21085
807.472	21142
807.614	21100
807.756	21066
807.898	20918
808.04	20842
808.182	20864
808.324	21013
808.465	20933
808.607	21127
808.749	21203
808.891	21245
809.033	21313
809.174	21310
809.316	21173
809.458	21135
809.6	21062
809.741	21203
809.883	21306
810.025	21420
810.166	21329
810.308	21374
810.45	21180
810.591	21131
810.733	21039
810.875	20975
811.016	20857
811.158	20883
811.299	21062
811.441	21100
811.582	21192
811.724	21051
811.865	20937
812.007	20956
812.148	20975
812.29	20990
812.431	21062
812.573	21420
812.714	21310
812.855	21553
812.997	21538
813.138	21739
813.279	21526
813.421	21485
813.562	21268
813.703	21241
813.845	21028
813.986	20773
814.127	20712
814.268	20686
814.41	20556
814.551	20522
814.692	20674
814.833	20454
814.974	20488
815.115	20457
815.256	20465
815.397	20343
815.539	20343
815.68	20351
815.821	20278
815.962	20271
816.103	20248
816.244	20111
816.385	19955
816.526	19894
816.666	19860
816.807	19693
816.948	19780
817.089	19833
817.23	19594
817.371	19658
817.512	19734
817.653	19693
817.793	19514
817.934	19540
818.075	19655
818.216	19719
818.356	19567
818.497	19415
818.638	19274
818.778	19304
818.919	19369
819.06	19343
819.2	19457
819.341	19468
819.481	19464
819.622	19719
819.762	19818
819.903	19727
820.043	19719
820.184	19616
820.324	19578
820.465	19609
820.605	19677
820.746	19624
820.886	19601
821.026	19575
821.167	19491
821.307	19639
821.447	19533
821.588	19495
821.728	19255
821.868	19031
822.008	18966
822.149	18947
822.289	18859
822.429	18726
822.569	18688
822.709	18760
822.849	18422
822.99	18456
823.13	18494
823.27	18452
823.41	18365
823.55	18251
823.69	18399
823.83	18194
823.97	18327
824.11	18076
824.25	18095
824.389	18087
824.529	18114
824.669	18114
824.809	18121
824.949	18022
825.089	18155
825.228	18019
825.368	17908
825.508	17863
825.648	17885
825.787	17832
825.927	17866
826.067	17767
826.206	17859
826.346	17889
826.485	17802
826.625	17859
826.765	18015
826.904	17927
827.044	17589
827.183	17642
827.323	17463
827.462	17547
827.601	17539
827.741	17459
827.88	17528
828.02	17448
828.159	17520
828.298	17512
828.437	17608
828.577	17501
828.716	17642
828.855	17322
828.994	17356
829.134	17360
829.273	17341
829.412	17216
829.551	17121
829.69	17292
829.829	17299
829.968	17299
830.107	17364
830.246	17242
830.385	17269
830.524	17223
830.663	17124
830.802	16930
830.941	16873
831.08	16869
831.219	16946
831.357	16957
831.496	17174
831.635	16877
831.774	16850
831.913	16748
832.051	16721
832.19	16634
832.329	16672
832.467	16634
832.606	16573
832.744	16542
832.883	16626
833.022	16504
833.16	16527
833.299	16615
833.437	16626
833.576	16683
833.714	16580
833.852	16634
833.991	16668
834.129	16725
834.267	16656
834.406	16584
834.544	16698
834.682	16683
834.821	16569
834.959	16759
835.097	16554
835.235	16752
835.373	16687
835.511	16637
835.65	16519
835.788	16459
835.926	16337
836.064	16363
836.202	16390
836.34	16535
836.478	16573
836.615	16436
836.753	16516
836.891	16618
837.029	16497
837.167	16523
837.305	16390
837.443	16500
837.58	16261
837.718	16485
837.856	16398
837.993	16424
838.131	16333
838.269	16352
838.406	16325
838.544	16276
838.681	16131
838.819	16147
838.956	15861
839.094	16025
839.231	15983
839.369	15975
839.506	16211
839.643	16177
839.781	15964
839.918	15880
840.055	16032
840.193	15998
840.33	15956
840.467	15907
840.604	15941
840.742	16082
840.879	15835
841.016	15861
841.153	15698
841.29	16044
841.427	16029
841.564	16013
841.701	15953
841.838	15884
841.975	15713
842.112	15755
842.249	15663
842.385	15648
842.522	15850
842.659	15766
842.796	15720
842.933	15652
843.069	15644
843.206	15671
843.343	15747
843.479	15637
843.616	15629
843.752	15511
843.889	15477
844.025	15564
844.162	15538
844.298	15679
844.435	15439
844.571	15466
844.708	15477
844.844	15682
844.98	15591
845.117	15584
845.253	15397
845.389	15412
845.525	15462
845.661	15340
845.798	15291
845.934	15348
846.07	15218
846.206	15332
846.342	15382
846.478	15351
846.614	15161
846.75	14963
846.886	15005
847.022	15135
847.158	14921
847.294	15093
847.429	15089
847.565	14929
847.701	15249
847.837	14807
847.972	14735
848.108	14891
848.244	14861
848.379	14678
848.515	14697
848.65	14613
848.786	14667
848.921	14629
849.057	14796
849.192	14781
849.328	14648
849.463	14724
849.598	14625
849.734	14564
849.869	14492
850.004	14438
850.14	14419
850.275	14552
850.41	14324
850.545	14404
850.68	14408
850.815	14370
850.95	14404
851.085	14560
851.22	14488
851.355	14408
851.49	14419
851.625	14427
851.76	14377
851.895	14282
852.03	14351
852.165	14377
852.299	14377
852.434	14442
852.569	14419
852.703	14522
852.838	14434
852.973	14568
853.107	14579
853.242	14377
853.376	14366
853.511	14145
853.645	14290
853.78	14351
853.914	14301
854.048	14240
854.183	14237
854.317	14351
854.451	14377
854.585	14259
854.72	14221
854.854	14362
854.988	14191
855.122	14339
855.256	14161
855.39	14252
855.524	14400
855.658	14336
855.792	14389
855.926	14301
856.06	14305
856.194	14351
856.327	14286
856.461	14195
856.595	14214
856.729	14256
856.862	14457
856.996	14305
857.13	14404
857.263	14358
857.397	14473
857.53	14305
857.664	14404
857.797	14400
857.931	14389
858.064	14290
858.197	14362
858.331	14351
858.464	14263
858.597	14119
858.731	14278
858.864	14347
858.997	14256
859.13	14256
859.263	14309
859.396	14332
859.529	14237
859.662	14259
859.795	14180
859.928	14362
860.061	14450
860.194	14473
860.327	14358
860.46	14233
860.592	14324
860.725	14404
860.858	14404
860.99	14206
861.123	14237
861.256	14294
861.388	14256
861.521	14819
861.653	14161
861.786	14069
861.918	14073
862.05	14191
862.183	14339
862.315	14252
862.447	14362
862.58	14221
862.712	14065
862.844	13989
862.976	13989
863.108	14134
863.24	14396
863.372	13997
863.504	13978
863.636	14077
863.768	14130
863.9	14012
864.032	13970
864.164	14035
864.296	14111
864.428	14065
864.559	14183
864.691	14145
864.823	14157
864.954	14153
865.086	14115
865.217	14126
865.349	13925
865.48	14096
865.612	14043
865.743	14218
865.875	14111
866.006	14046
866.137	14077
866.269	13947
866.4	14043
866.531	14046
866.662	14005
866.793	13947
866.924	13955
867.055	13997
867.186	13982
867.317	14054
867.448	13947
867.579	14035
867.71	13967
867.841	14020
867.972	13967
868.103	14088
868.233	14043
868.364	14081
868.495	14115
868.625	14275
868.756	14301
868.886	14195
869.017	14305
869.147	14358
869.278	14370
869.408	14328
869.539	14180
869.669	14393
869.799	14404
869.929	14438
870.06	14377
870.19	14590
870.32	14495
870.45	14571
870.58	14625
870.71	14868
870.84	14785
870.97	14807
871.1	14648
871.23	14887
871.36	14845
871.489	14777
871.619	14845
871.749	14944
871.879	14861
872.008	14948
872.138	14925
872.267	14826
872.397	14727
872.526	14769
872.656	14735
872.785	14792
872.915	14910
873.044	14956
873.173	14979
873.303	14933
873.432	14967
873.561	14994
873.69	14918
873.819	14849
873.948	14971
874.077	14941
874.206	14868
874.335	14986
874.464	15066
874.593	15169
874.722	15154
874.851	15237
874.979	15268
875.108	15264
875.237	15180
875.365	15161
875.494	15203
875.623	15279
875.751	15199
875.88	15256
876.008	15359
876.136	15481
876.265	15641
876.393	15835
876.521	15766
876.65	15701
876.778	15736
876.906	15648
877.034	15580
877.162	15660
877.29	15660
877.418	15663
877.546	15618
877.674	15652
877.802	15618
877.93	15724
878.058	15675
878.185	15599
878.313	15625
878.441	15675
878.568	15542
878.696	15606
878.824	15660
878.951	15762
879.079	15781
879.206	16032
879.333	15911
879.461	15663
879.588	15804
879.715	15762
879.842	15915
879.97	15747
880.097	15587
880.224	15492
880.351	15603
880.478	15431
880.605	15515
880.732	15549
880.859	15774
880.986	15587
881.112	15447
881.239	15332
881.366	15245
881.493	15310
881.619	15256
881.746	15173
881.872	15214
881.999	15165
882.125	15188
882.252	15108
882.378	15218
882.505	15389
882.631	15214
882.757	14990
882.883	15066
883.01	15020
883.136	14883
883.262	14883
883.388	14941
883.514	14998
883.64	14967
883.766	14948
883.892	14765
884.018	14830
884.143	14944
884.269	14979
884.395	14762
884.52	14708
884.646	14701
884.772	14629
884.897	14526
885.023	14640
885.148	14804
885.274	14819
885.399	14807
885.524	14686
885.65	14686
885.775	14625
885.9	14686
886.025	14800
886.15	14845
886.275	14598
886.4	14587
886.525	14636
886.65	14712
886.775	14655
886.9	14845
887.025	14899
887.149	14678
887.274	14598
887.399	14492
887.523	14465
887.648	14457
887.773	14473
887.897	14598
888.021	14575
888.146	14564
888.27	14579
888.395	14583
888.519	14610
888.643	14621
888.767	14507
888.891	14450
889.015	14423
889.139	14381
889.263	14298
889.387	14552
889.511	14568
889.635	14465
889.759	14328
889.883	14423
890.006	14484
890.13	14503
890.254	14328
890.377	14278
890.501	14221
890.624	14172
890.748	14180
890.871	14202
890.995	14088
891.118	14065
891.241	14138
891.364	14054
891.488	14176
891.611	14005
891.734	14069
891.857	14096
891.98	14176
892.103	14202
892.226	14210
892.349	14050
892.471	13955
892.594	14027
892.717	14103
892.839	14039
892.962	14130
893.085	14039
893.207	14142
893.33	13974
893.452	14012
893.575	14134
893.697	14016
893.819	14290
893.941	14240
894.064	14240
894.186	14092
894.308	14065
894.43	14206
894.552	14256
894.674	14248
894.796	14092
894.918	14164
895.04	14142
895.161	14237
895.283	14195
895.405	14168
895.526	14267
895.648	14256
895.769	14206
895.891	14275
896.012	14366
896.134	14317
896.255	14305
896.376	14199
896.498	14149
896.619	14278
896.74	14259
896.861	14393
896.982	14564
897.103	14769
897.224	14552
897.345	14549
897.466	14438
897.587	14575
897.708	14731
897.828	14686
897.949	14514
898.07	14454
898.19	14495
898.311	14625
898.431	14598
898.552	14598
898.672	14693
898.792	14655
898.913	14648
899.033	14545
899.153	14389
899.273	14423
899.393	14427
899.513	14442
899.633	14404
899.753	14495
899.873	14423
899.993	14587
900.113	14408
900.232	14473
900.352	14400
900.472	14355
900.591	14366
900.711	14389
900.83	14358
900.95	14427
901.069	14480
901.189	14256
901.308	14035
901.427	14031
901.546	14039
901.665	14145
901.784	14081
901.904	13936
902.023	13807
902.141	13666
902.26	13559
902.379	13666
902.498	13594
902.617	13544
902.735	13571
902.854	13613
902.973	13529
903.091	13308
903.21	13331
903.328	13377
903.446	13293
903.565	13099
903.683	13213
903.801	13099
903.919	13206
904.038	13095
904.156	12932
904.274	13031
904.392	12985
904.51	12989
904.627	12905
904.745	13012
904.863	12996
904.981	12772
905.098	12681
905.216	12582
905.334	12764
905.451	12669
905.569	12585
905.686	12646
905.803	12650
905.921	12475
906.038	12506
906.155	12498
906.272	12418
906.389	12418
906.506	12247
906.623	12213
906.74	12197
906.857	12148
906.974	12178
907.091	12334
907.208	12384
907.324	12300
907.441	12197
907.557	11969
907.674	12034
907.79	11965
907.907	11996
908.023	11961
908.139	11996
908.256	12030
908.372	11893
908.488	11946
908.604	11832
908.72	11733
908.836	11790
908.952	11726
909.068	11843
909.184	11863
909.3	11783
909.415	11813
909.531	11843
909.647	11486
909.762	11558
909.878	11482
909.993	11589
910.108	11448
910.224	11459
910.339	11581
910.454	11474
910.57	11429
910.685	11353
910.8	11661
910.915	11528
911.03	11356
911.145	11223
911.259	11227
911.374	11212
911.489	11197
911.604	11170
911.718	10892
911.833	11014
911.947	10896
912.062	10797
912.176	10987
912.291	11014
912.405	10976
912.519	11147
912.633	11178
912.748	11048
912.862	11006
912.976	10869
913.09	10820
913.204	10820
913.318	10930
913.431	10949
913.545	10900
913.659	10968
913.772	10850
913.886	10740
914	10774
914.113	10835
914.226	10896
914.34	10812
914.453	10714
914.566	10793
914.68	10668
914.793	10668
914.906	10478
915.019	10478
915.132	10428
915.245	10394
915.358	10580
915.47	10428
915.583	10546
915.696	10550
915.809	10641
915.921	10535
916.034	10443
916.146	10421
916.259	10379
916.371	10481
916.483	10489
916.595	10432
916.708	10485
916.82	10455
916.932	10322
917.044	10386
917.156	10394
917.268	10219
917.38	10344
917.491	10272
917.603	10341
917.715	10409
917.826	10382
917.938	10238
918.049	10192
918.161	10310
918.272	10428
918.384	10459
918.495	10360
918.606	10227
918.717	10120
918.828	10188
918.939	10200
919.05	10116
919.161	10204
919.272	10063
919.383	10162
919.494	10173
919.604	10462
919.715	10196
919.826	10074
919.936	10166
920.047	10257
920.157	10246
920.267	10432
920.378	10367
920.488	10196
920.598	10428
920.708	10550
920.818	10402
920.928	10322
921.038	10565
921.148	10504
921.258	10166
921.368	10185
921.477	10078
921.587	9998
921.697	9918
921.806	10116
921.916	10010
922.025	9842
922.134	9732
922.244	9793
922.353	9831
922.462	9580
922.571	9622
922.68	9473
922.789	9458
922.898	9439
923.007	9420
923.116	9568
923.224	9477
923.333	9492
923.442	9367
923.55	9367
923.659	9393
923.767	9416
923.876	9367
923.984	9454
924.092	9207
924.201	9397
924.309	9363
924.417	9253
924.525	9310
924.633	9405
924.741	10265
924.849	9142
924.956	9302
925.064	9112
925.172	9047
925.279	8975
925.387	9066
925.494	9116
925.602	9230
925.709	9192
925.816	9013
925.924	9085
926.031	9142
926.138	9093
926.245	9203
926.352	9028
926.459	9230
926.566	9195
926.673	9097
926.779	8979
926.886	8960
926.993	8921
927.099	8887
927.206	8845
927.312	8697
927.419	8921
927.525	8838
927.631	8845
927.737	8716
927.843	8773
927.95	8636
928.056	8727
928.162	8777
928.267	8796
928.373	9386
928.479	8804
928.585	8571
928.69	8705
928.796	8792
928.901	8632
929.007	8495
929.112	8625
929.218	8621
929.323	8564
929.428	8537
929.533	8705
929.638	8495
929.743	8537
929.848	8594
929.953	8564
930.058	8434
930.163	8279
930.267	8309
930.372	8473
930.477	8267
930.581	8507
930.685	8415
930.79	8263
930.894	8317
930.998	8240
931.103	8389
931.207	8073
931.311	8031
931.415	7898
931.519	7803
931.623	7761
