Data from test_V78500241_3235.txt Node
Date: Fri Mar 25 14:56:14 CST 2022
User: usil
Spectrometer: V785-0024
Trigger mode: 0
Integration Time (sec): 4.000000E-1
Scans to average: 1
Nonlinearity correction enabled: false
Boxcar width: 0
Storing dark spectrum: false
XAxis mode: Wavelengths
Number of Pixels in Spectrum: 1024
>>>>>Begin Spectral Data<<<<<
801.071	21915
801.214	21915
801.356	21690
801.499	21660
801.641	21439
801.783	21424
801.926	21370
802.068	21340
802.211	21192
802.353	21203
802.496	20994
802.638	20807
802.78	20815
802.923	20678
803.065	20705
803.208	20697
803.35	20792
803.492	20750
803.635	20777
803.777	20811
803.919	20735
804.061	21036
804.204	20663
804.346	20613
804.488	20587
804.63	20739
804.773	20629
804.915	20716
805.057	20693
805.199	20530
805.341	20632
805.483	20659
805.626	20670
805.768	20533
805.91	20716
806.052	20655
806.194	20575
806.336	20773
806.478	20609
806.62	20583
806.762	20644
806.904	20735
807.046	20960
807.188	20868
807.33	20998
807.472	20990
807.614	20769
807.756	20788
807.898	20754
808.04	20716
808.182	20689
808.324	20682
808.465	20762
808.607	20963
808.749	20986
808.891	21066
809.033	21135
809.174	20994
809.316	20834
809.458	21074
809.6	20815
809.741	21074
809.883	21028
810.025	21218
810.166	21173
810.308	21112
810.45	20906
810.591	20937
810.733	20880
810.875	20842
811.016	20674
811.158	20667
811.299	20724
811.441	20830
811.582	20883
811.724	20743
811.865	20727
812.007	20701
812.148	20712
812.29	20823
812.431	20937
812.573	21051
812.714	21180
812.855	21127
812.997	21214
813.138	21507
813.279	21275
813.421	21298
813.562	21119
813.703	21001
813.845	20914
813.986	20648
814.127	20431
814.268	20366
814.41	20415
814.551	20278
814.692	20347
814.833	20195
814.974	20263
815.115	20317
815.256	20119
815.397	20115
815.539	20096
815.68	20100
815.821	19856
815.962	19864
816.103	19997
816.244	19928
816.385	19761
816.526	19681
816.666	19510
816.807	19495
816.948	19571
817.089	19556
817.23	19502
817.371	19422
817.512	19316
817.653	19411
817.793	19422
817.934	19289
818.075	19419
818.216	19430
818.356	19377
818.497	19228
818.638	19228
818.778	19012
818.919	18970
819.06	19179
819.2	19194
819.341	19209
819.481	19156
819.622	19403
819.762	19613
819.903	19476
820.043	19502
820.184	19388
820.324	19445
820.465	19434
820.605	19346
820.746	19350
820.886	19251
821.026	19377
821.167	19403
821.307	19369
821.447	19228
821.588	19285
821.728	19084
821.868	18989
822.008	18795
822.149	18726
822.289	18688
822.429	18532
822.569	18471
822.709	18509
822.849	18319
822.99	18254
823.13	18159
823.27	18262
823.41	18140
823.55	18091
823.69	18106
823.83	18026
823.97	17980
824.11	17794
824.25	17847
824.389	17798
824.529	17824
824.669	17764
824.809	17973
824.949	17927
825.089	17882
825.228	17832
825.368	17680
825.508	17577
825.648	17623
825.787	17649
825.927	17665
826.067	17490
826.206	17676
826.346	17600
826.485	17676
826.625	17589
826.765	17718
826.904	17623
827.044	17383
827.183	17356
827.323	17322
827.462	17311
827.601	17337
827.741	17284
827.88	17299
828.02	17162
828.159	17265
828.298	17349
828.437	17414
828.577	17197
828.716	17356
828.855	17220
828.994	16976
829.134	17121
829.273	17136
829.412	17151
829.551	16991
829.69	17003
829.829	17200
829.968	17124
830.107	17109
830.246	17174
830.385	17056
830.524	16953
830.663	16900
830.802	16831
830.941	16702
831.08	16763
831.219	16744
831.357	16763
831.496	16900
831.635	16710
831.774	16687
831.913	16641
832.051	16432
832.19	16546
832.329	16546
832.467	16432
832.606	16344
832.744	16344
832.883	16367
833.022	16417
833.16	16424
833.299	16478
833.437	16447
833.576	16432
833.714	16455
833.852	16527
833.991	16447
834.129	16489
834.267	16497
834.406	16485
834.544	16500
834.682	16462
834.821	16382
834.959	16607
835.097	16470
835.235	16535
835.373	16478
835.511	16516
835.65	16432
835.788	16329
835.926	16135
836.064	16101
836.202	16154
836.34	16337
836.478	16421
836.615	16379
836.753	16352
836.891	16466
837.029	16375
837.167	16344
837.305	16394
837.443	16337
837.58	16268
837.718	16291
837.856	16196
837.993	16268
838.131	16284
838.269	16215
838.406	16268
838.544	16093
838.681	15953
838.819	15926
838.956	15812
839.094	15778
839.231	15884
839.369	15968
839.506	16223
839.643	15884
839.781	15755
839.918	15755
840.055	15762
840.193	15797
840.33	15835
840.467	15694
840.604	15838
840.742	16002
840.879	15759
841.016	15660
841.153	15667
841.29	15892
841.427	15831
841.564	15762
841.701	15770
841.838	15671
841.975	15633
842.112	15629
842.249	15629
842.385	15553
842.522	15690
842.659	15519
842.796	15545
842.933	15534
843.069	15549
843.206	15447
843.343	15804
843.479	15454
843.616	15584
843.752	15336
843.889	15370
844.025	15584
844.162	15416
844.298	15481
844.435	15283
844.571	15329
844.708	15340
844.844	15447
844.98	15500
845.117	15416
845.253	15245
845.389	15173
845.525	15272
845.661	15211
845.798	15051
845.934	15169
846.07	15058
846.206	15154
846.342	15272
846.478	15150
846.614	15020
846.75	14902
846.886	14834
847.022	14986
847.158	14872
847.294	14982
847.429	14960
847.565	14883
847.701	15097
847.837	14629
847.972	14583
848.108	14735
848.244	14739
848.379	14552
848.515	14541
848.65	14434
848.786	14594
848.921	14549
849.057	14518
849.192	14632
849.328	14503
849.463	14560
849.598	14533
849.734	14385
849.869	14469
850.004	14278
850.14	14412
850.275	14324
850.41	14225
850.545	14263
850.68	14290
850.815	14320
850.95	14244
851.085	14434
851.22	14446
851.355	14320
851.49	14343
851.625	14309
851.76	14275
851.895	14180
852.03	14126
852.165	14290
852.299	14336
852.434	14362
852.569	14294
852.703	14259
852.838	14343
852.973	14446
853.107	14396
853.242	14275
853.376	14210
853.511	14020
853.645	14123
853.78	14267
853.914	14138
854.048	14134
854.183	14126
854.317	14077
854.451	14301
854.585	14206
854.72	14119
854.854	14233
854.988	14119
855.122	14164
855.256	14001
855.39	14164
855.524	14134
855.658	14271
855.792	14161
855.926	14347
856.06	14259
856.194	14286
856.327	14134
856.461	14176
856.595	14221
856.729	14073
856.862	14275
856.996	14233
857.13	14248
857.263	14252
857.397	14278
857.53	14142
857.664	14183
857.797	14225
857.931	14183
858.064	14134
858.197	14301
858.331	14062
858.464	14259
858.597	14084
858.731	14092
858.864	14225
858.997	14195
859.13	14081
859.263	14115
859.396	14305
859.529	14096
859.662	14115
859.795	14069
859.928	14138
860.061	14221
860.194	14294
860.327	14267
860.46	14229
860.592	14301
860.725	14275
860.858	14313
860.99	14073
861.123	14062
861.256	14065
861.388	14168
861.521	14971
861.653	14039
861.786	14016
861.918	14126
862.05	14065
862.183	14248
862.315	14187
862.447	14191
862.58	14115
862.712	13989
862.844	13887
862.976	13963
863.108	13898
863.24	14332
863.372	13909
863.504	13978
863.636	13978
863.768	13986
863.9	13978
864.032	13940
864.164	13921
864.296	14039
864.428	13989
864.559	13947
864.691	13974
864.823	14035
864.954	13955
865.086	13997
865.217	13864
865.349	13833
865.48	13913
865.612	13928
865.743	14065
865.875	13860
866.006	13921
866.137	13993
866.269	13898
866.4	13955
866.531	13921
866.662	13864
866.793	13902
866.924	13894
867.055	13906
867.186	13803
867.317	13921
867.448	13818
867.579	13868
867.71	13822
867.841	13864
867.972	14012
868.103	13906
868.233	13932
868.364	13894
868.495	13986
868.625	14119
868.756	14195
868.886	14130
869.017	14134
869.147	14324
869.278	14343
869.408	14176
869.539	14119
869.669	14252
869.799	14103
869.929	14256
870.06	14214
870.19	14533
870.32	14415
870.45	14549
870.58	14583
870.71	14644
870.84	14636
870.97	14594
871.1	14602
871.23	14800
871.36	14762
871.489	14659
871.619	14686
871.749	14781
871.879	14792
872.008	14781
872.138	14834
872.267	14667
872.397	14724
872.526	14667
872.656	14632
872.785	14697
872.915	14788
873.044	14765
873.173	14807
873.303	14891
873.432	14804
873.561	14929
873.69	14872
873.819	14781
873.948	14872
874.077	14838
874.206	14826
874.335	14807
874.464	14948
874.593	15142
874.722	14998
874.851	15093
874.979	15058
875.108	15108
875.237	15131
875.365	15074
875.494	15066
875.623	15249
875.751	15074
875.88	15188
876.008	15294
876.136	15302
876.265	15557
876.393	15568
876.521	15690
876.65	15618
876.778	15576
876.906	15481
877.034	15572
877.162	15641
877.29	15462
877.418	15572
877.546	15496
877.674	15587
877.802	15507
877.93	15633
878.058	15572
878.185	15466
878.313	15545
878.441	15564
878.568	15386
878.696	15511
878.824	15530
878.951	15576
879.079	15671
879.206	15835
879.333	15736
879.461	15633
879.588	15644
879.715	15701
879.842	15759
879.97	15618
880.097	15485
880.224	15420
880.351	15454
880.478	15378
880.605	15401
880.732	15382
880.859	15530
880.986	15443
881.112	15454
881.239	15317
881.366	15161
881.493	15089
881.619	15028
881.746	15085
881.872	15066
881.999	14990
882.125	15005
882.252	15055
882.378	15146
882.505	15184
882.631	14941
882.757	14857
882.883	14929
883.01	14842
883.136	14731
883.262	14743
883.388	14773
883.514	14941
883.64	14963
883.766	14792
883.892	14758
884.018	14705
884.143	14849
884.269	14990
884.395	14575
884.52	14697
884.646	14587
884.772	14495
884.897	14457
885.023	14541
885.148	14731
885.274	14804
885.399	14731
885.524	14556
885.65	14644
885.775	14724
885.9	14598
886.025	14716
886.15	14625
886.275	14594
886.4	14533
886.525	14602
886.65	14530
886.775	14587
886.9	14807
887.025	14914
887.149	14648
887.274	14473
887.399	14381
887.523	14385
887.648	14324
887.773	14324
887.897	14492
888.021	14514
888.146	14355
888.27	14488
888.395	14457
888.519	14488
888.643	14549
888.767	14465
888.891	14313
889.015	14256
889.139	14225
889.263	14290
889.387	14366
889.511	14385
889.635	14377
889.759	14320
889.883	14282
890.006	14290
890.13	14385
890.254	14202
890.377	14259
890.501	14046
890.624	14088
890.748	14183
890.871	14027
890.995	13902
891.118	13864
891.241	14005
891.364	14012
891.488	14119
891.611	14024
891.734	13959
891.857	14100
891.98	14039
892.103	14062
892.226	14012
892.349	14016
892.471	13902
892.594	13997
892.717	14035
892.839	13970
892.962	14027
893.085	14046
893.207	14012
893.33	13879
893.452	13868
893.575	14115
893.697	14035
893.819	14195
893.941	14202
894.064	14168
894.186	14001
894.308	13959
894.43	14153
894.552	14225
894.674	14183
894.796	13959
894.918	13986
895.04	14043
895.161	14145
895.283	14130
895.405	14084
895.526	14069
895.648	14172
895.769	14096
895.891	14199
896.012	14195
896.134	14187
896.255	14161
896.376	14149
896.498	14176
896.619	14225
896.74	14103
896.861	14305
896.982	14465
897.103	14594
897.224	14503
897.345	14377
897.466	14396
897.587	14518
897.708	14476
897.828	14511
897.949	14339
898.07	14271
898.19	14450
898.311	14602
898.431	14549
898.552	14545
898.672	14602
898.792	14701
898.913	14625
899.033	14454
899.153	14370
899.273	14252
899.393	14381
899.513	14434
899.633	14374
899.753	14412
899.873	14336
899.993	14347
900.113	14339
900.232	14408
900.352	14320
900.472	14320
900.591	14180
900.711	14275
900.83	14218
900.95	14324
901.069	14290
901.189	14218
901.308	13906
901.427	13833
901.546	13993
901.665	13978
901.784	13974
901.904	13837
902.023	13719
902.141	13480
902.26	13578
902.379	13559
902.498	13468
902.617	13411
902.735	13594
902.854	13396
902.973	13396
903.091	13217
903.21	13244
903.328	13232
903.446	13099
903.565	13072
903.683	13042
903.801	13034
903.919	13046
904.038	13072
904.156	12909
904.274	12947
904.392	12882
904.51	12913
904.627	12909
904.745	12966
904.863	12871
904.981	12669
905.098	12601
905.216	12532
905.334	12623
905.451	12574
905.569	12544
905.686	12677
905.803	12627
905.921	12376
906.038	12475
906.155	12437
906.272	12330
906.389	12254
906.506	12182
906.623	12178
906.74	12110
906.857	12098
906.974	11996
907.091	12186
907.208	12277
907.324	12175
907.441	12167
907.557	11897
907.674	11954
907.79	11836
907.907	11843
908.023	11999
908.139	11843
908.256	11790
908.372	11904
908.488	11859
908.604	11657
908.72	11585
908.836	11695
908.952	11707
909.068	11684
909.184	11710
909.3	11642
909.415	11695
909.531	11551
909.647	11414
909.762	11535
909.878	11402
909.993	11493
910.108	11452
910.224	11417
910.339	11471
910.454	11379
910.57	11311
910.685	11250
910.8	11493
910.915	11512
911.03	11277
911.145	11181
911.259	11128
911.374	11143
911.489	11060
911.604	10991
911.718	10862
911.833	10877
911.947	10778
912.062	10812
912.176	10862
912.291	10869
912.405	10927
912.519	11136
912.633	11086
912.748	10995
912.862	10900
912.976	10801
913.09	10664
913.204	10797
913.318	10740
913.431	10858
913.545	10942
913.659	10923
913.772	10843
913.886	10675
914	10569
914.113	10702
914.226	10850
914.34	10790
914.453	10596
914.566	10736
914.68	10634
914.793	10672
914.906	10489
915.019	10402
915.132	10318
915.245	10428
915.358	10379
915.47	10474
915.583	10455
915.696	10436
915.809	10569
915.921	10565
916.034	10379
916.146	10413
916.259	10310
916.371	10375
916.483	10375
916.595	10337
916.708	10363
916.82	10360
916.932	10329
917.044	10295
917.156	10299
917.268	10242
917.38	10272
917.491	10280
917.603	10246
917.715	10295
917.826	10306
917.938	10207
918.049	10109
918.161	10284
918.272	10417
918.384	10360
918.495	10272
918.606	10131
918.717	10124
918.828	10158
918.939	10177
919.05	10010
919.161	10097
919.272	9953
919.383	9972
919.494	10139
919.604	10333
919.715	10143
919.826	10082
919.936	10082
920.047	10265
920.157	10177
920.267	10325
920.378	10287
920.488	10116
920.598	10405
920.708	10462
920.818	10325
920.928	10314
921.038	10565
921.148	10443
921.258	10204
921.368	10116
921.477	9979
921.587	9926
921.697	9827
921.806	10006
921.916	9850
922.025	9766
922.134	9652
922.244	9614
922.353	9740
922.462	9622
922.571	9572
922.68	9428
922.789	9435
922.898	9401
923.007	9363
923.116	9336
923.224	9431
923.333	9386
923.442	9298
923.55	9150
923.659	9249
923.767	9386
923.876	9195
923.984	9355
924.092	9226
924.201	9329
924.309	9241
924.417	9256
924.525	9188
924.633	9214
924.741	10253
924.849	9039
924.956	9173
925.064	9047
925.172	9043
925.279	9104
925.387	9062
925.494	9055
925.602	9180
925.709	9081
925.816	9028
925.924	8952
926.031	9195
926.138	9074
926.245	9108
926.352	8929
926.459	9093
926.566	9195
926.673	9093
926.779	8887
926.886	8887
926.993	8830
927.099	8750
927.206	8750
927.312	8777
927.419	8838
927.525	8724
927.631	8826
927.737	8636
927.843	8632
927.95	8590
928.056	8689
928.162	8716
928.267	8678
928.373	9298
928.479	8705
928.585	8492
928.69	8670
928.796	8758
928.901	8545
929.007	8385
929.112	8590
929.218	8594
929.323	8503
929.428	8526
929.533	8674
929.638	8514
929.743	8518
929.848	8533
929.953	8427
930.058	8423
930.163	8229
930.267	8279
930.372	8419
930.477	8199
930.581	8495
930.685	8343
930.79	8221
930.894	8252
930.998	8195
931.103	8358
931.207	8008
931.311	8001
931.415	7887
931.519	7681
931.623	7708
