Data from test_V78500241_2279.txt Node
Date: Fri Mar 25 14:49:34 CST 2022
User: usil
Spectrometer: V785-0024
Trigger mode: 0
Integration Time (sec): 4.000000E-1
Scans to average: 1
Nonlinearity correction enabled: false
Boxcar width: 0
Storing dark spectrum: false
XAxis mode: Wavelengths
Number of Pixels in Spectrum: 1024
>>>>>Begin Spectral Data<<<<<
801.071	22143
801.214	22063
801.356	21800
801.499	21778
801.641	21538
801.783	21545
801.926	21530
802.068	21507
802.211	21317
802.353	21291
802.496	21150
802.638	21074
802.78	21017
802.923	20986
803.065	20883
803.208	20868
803.35	20918
803.492	20933
803.635	20963
803.777	20899
803.919	20902
804.061	21264
804.204	21009
804.346	20830
804.488	20819
804.63	20861
804.773	20720
804.915	20887
805.057	20941
805.199	20762
805.341	20804
805.483	21032
805.626	20861
805.768	20804
805.91	20735
806.052	20838
806.194	20712
806.336	20910
806.478	20830
806.62	20872
806.762	20902
806.904	21058
807.046	21321
807.188	21245
807.33	21150
807.472	21116
807.614	21077
807.756	21062
807.898	21009
808.04	20861
808.182	20876
808.324	21036
808.465	20948
808.607	21104
808.749	21233
808.891	21329
809.033	21272
809.174	21218
809.316	21142
809.458	21184
809.6	21180
809.741	21184
809.883	21275
810.025	21408
810.166	21325
810.308	21397
810.45	21283
810.591	21135
810.733	21203
810.875	21013
811.016	20845
811.158	20838
811.299	20948
811.441	21161
811.582	21066
811.724	21043
811.865	20952
812.007	20941
812.148	20925
812.29	21024
812.431	21062
812.573	21226
812.714	21389
812.855	21450
812.997	21507
813.138	21717
813.279	21671
813.421	21367
813.562	21428
813.703	21272
813.845	21062
813.986	20872
814.127	20590
814.268	20663
814.41	20644
814.551	20488
814.692	20617
814.833	20484
814.974	20556
815.115	20587
815.256	20412
815.397	20377
815.539	20343
815.68	20278
815.821	20252
815.962	20244
816.103	20271
816.244	20077
816.385	20092
816.526	19913
816.666	19780
816.807	19624
816.948	19776
817.089	19818
817.23	19761
817.371	19510
817.512	19605
817.653	19559
817.793	19723
817.934	19582
818.075	19658
818.216	19704
818.356	19514
818.497	19377
818.638	19236
818.778	19354
818.919	19373
819.06	19278
819.2	19415
819.341	19552
819.481	19567
819.622	19696
819.762	19852
819.903	19772
820.043	19670
820.184	19521
820.324	19529
820.465	19666
820.605	19575
820.746	19597
820.886	19358
821.026	19521
821.167	19556
821.307	19632
821.447	19476
821.588	19411
821.728	19301
821.868	19171
822.008	19190
822.149	18989
822.289	18989
822.429	18726
822.569	18726
822.709	18646
822.849	18407
822.99	18506
823.13	18521
823.27	18448
823.41	18448
823.55	18209
823.69	18369
823.83	18266
823.97	18270
824.11	18083
824.25	18155
824.389	18140
824.529	18186
824.669	18045
824.809	18292
824.949	18254
825.089	18129
825.228	18178
825.368	17851
825.508	17889
825.648	17847
825.787	17870
825.927	17874
826.067	17805
826.206	17726
826.346	17855
826.485	17805
826.625	17885
826.765	18011
826.904	17775
827.044	17646
827.183	17710
827.323	17539
827.462	17649
827.601	17524
827.741	17463
827.88	17676
828.02	17364
828.159	17490
828.298	17490
828.437	17615
828.577	17463
828.716	17615
828.855	17414
828.994	17349
829.134	17322
829.273	17288
829.412	17223
829.551	17227
829.69	17235
829.829	17360
829.968	17429
830.107	17383
830.246	17356
830.385	17265
830.524	17273
830.663	17121
830.802	17071
830.941	16881
831.08	16961
831.219	16938
831.357	17041
831.496	17143
831.635	16877
831.774	16866
831.913	16786
832.051	16717
832.19	16706
832.329	16721
832.467	16641
832.606	16565
832.744	16706
832.883	16588
833.022	16535
833.16	16592
833.299	16603
833.437	16527
833.576	16630
833.714	16668
833.852	16679
833.991	16519
834.129	16672
834.267	16706
834.406	16679
834.544	16759
834.682	16634
834.821	16611
834.959	16763
835.097	16721
835.235	16744
835.373	16622
835.511	16611
835.65	16417
835.788	16531
835.926	16424
836.064	16356
836.202	16394
836.34	16462
836.478	16561
836.615	16466
836.753	16596
836.891	16634
837.029	16542
837.167	16569
837.305	16409
837.443	16371
837.58	16405
837.718	16432
837.856	16478
837.993	16314
838.131	16344
838.269	16215
838.406	16402
838.544	16333
838.681	16101
838.819	16105
838.956	15953
839.094	15953
839.231	15956
839.369	16059
839.506	16280
839.643	16097
839.781	15873
839.918	15983
840.055	16006
840.193	15895
840.33	15964
840.467	15934
840.604	15926
840.742	16131
840.879	15720
841.016	15747
841.153	15793
841.29	16040
841.427	15903
841.564	16055
841.701	15865
841.838	15842
841.975	15797
842.112	15778
842.249	15701
842.385	15770
842.522	15915
842.659	15694
842.796	15751
842.933	15717
843.069	15660
843.206	15682
843.343	15854
843.479	15743
843.616	15705
843.752	15526
843.889	15603
844.025	15629
844.162	15504
844.298	15519
844.435	15481
844.571	15454
844.708	15553
844.844	15724
844.98	15622
845.117	15580
845.253	15492
845.389	15420
845.525	15435
845.661	15321
845.798	15214
845.934	15367
846.07	15306
846.206	15382
846.342	15378
846.478	15260
846.614	15104
846.75	15028
846.886	15017
847.022	15154
847.158	15066
847.294	15150
847.429	15119
847.565	15009
847.701	15272
847.837	14853
847.972	14781
848.108	14887
848.244	14864
848.379	14716
848.515	14735
848.65	14617
848.786	14667
848.921	14735
849.057	14670
849.192	14754
849.328	14762
849.463	14594
849.598	14575
849.734	14507
849.869	14522
850.004	14381
850.14	14511
850.275	14442
850.41	14301
850.545	14381
850.68	14408
850.815	14362
850.95	14305
851.085	14613
851.22	14522
851.355	14366
851.49	14431
851.625	14385
851.76	14446
851.895	14267
852.03	14370
852.165	14271
852.299	14423
852.434	14469
852.569	14400
852.703	14389
852.838	14492
852.973	14537
853.107	14469
853.242	14393
853.376	14351
853.511	14145
853.645	14259
853.78	14339
853.914	14339
854.048	14286
854.183	14229
854.317	14263
854.451	14419
854.585	14256
854.72	14336
854.854	14313
854.988	14187
855.122	14290
855.256	14107
855.39	14278
855.524	14358
855.658	14434
855.792	14320
855.926	14355
856.06	14343
856.194	14461
856.327	14305
856.461	14263
856.595	14244
856.729	14176
856.862	14385
856.996	14377
857.13	14301
857.263	14431
857.397	14431
857.53	14355
857.664	14332
857.797	14381
857.931	14362
858.064	14404
858.197	14419
858.331	14202
858.464	14294
858.597	14286
858.731	14248
858.864	14275
858.997	14271
859.13	14290
859.263	14328
859.396	14351
859.529	14286
859.662	14278
859.795	14298
859.928	14252
860.061	14400
860.194	14442
860.327	14355
860.46	14336
860.592	14370
860.725	14415
860.858	14419
860.99	14286
861.123	14218
861.256	14157
861.388	14362
861.521	14823
861.653	14221
861.786	14149
861.918	14168
862.05	14111
862.183	14263
862.315	14275
862.447	14374
862.58	14172
862.712	14149
862.844	13940
862.976	14164
863.108	14180
863.24	14374
863.372	13993
863.504	14027
863.636	14119
863.768	14054
863.9	14092
864.032	14065
864.164	14081
864.296	14145
864.428	14183
864.559	14153
864.691	14172
864.823	14153
864.954	14119
865.086	14157
865.217	14153
865.349	14027
865.48	14088
865.612	14088
865.743	14259
865.875	14115
866.006	14027
866.137	14039
866.269	14001
866.4	13959
866.531	14100
866.662	13993
866.793	14081
866.924	14031
867.055	14050
867.186	14012
867.317	13917
867.448	13989
867.579	14012
867.71	13970
867.841	13944
867.972	14126
868.103	14115
868.233	14065
868.364	14119
868.495	14092
868.625	14168
868.756	14370
868.886	14218
869.017	14275
869.147	14469
869.278	14358
869.408	14317
869.539	14263
869.669	14328
869.799	14438
869.929	14412
870.06	14427
870.19	14549
870.32	14587
870.45	14636
870.58	14648
870.71	14811
870.84	14830
870.97	14632
871.1	14602
871.23	14929
871.36	14883
871.489	14792
871.619	14868
871.749	14861
871.879	14868
872.008	15028
872.138	14952
872.267	14872
872.397	14857
872.526	14754
872.656	14644
872.785	14674
872.915	14982
873.044	15024
873.173	14994
873.303	14956
873.432	14952
873.561	14960
873.69	14925
873.819	14960
873.948	14956
874.077	15036
874.206	14937
874.335	15009
874.464	15161
874.593	15245
874.722	15173
874.851	15313
874.979	15302
875.108	15336
875.237	15233
875.365	15211
875.494	15233
875.623	15313
875.751	15192
875.88	15336
876.008	15458
876.136	15572
876.265	15648
876.393	15724
876.521	15770
876.65	15816
876.778	15732
876.906	15610
877.034	15584
877.162	15675
877.29	15679
877.418	15663
877.546	15663
877.674	15652
877.802	15629
877.93	15728
878.058	15663
878.185	15538
878.313	15656
878.441	15679
878.568	15625
878.696	15694
878.824	15572
878.951	15671
879.079	15926
879.206	16002
879.333	15884
879.461	15762
879.588	15812
879.715	15922
879.842	16048
879.97	15778
880.097	15435
880.224	15435
880.351	15496
880.478	15481
880.605	15568
880.732	15466
880.859	15747
880.986	15500
881.112	15576
881.239	15355
881.366	15298
881.493	15169
881.619	15188
881.746	15169
881.872	15199
881.999	15070
882.125	15039
882.252	15150
882.378	15203
882.505	15348
882.631	15173
882.757	15058
882.883	15077
883.01	14929
883.136	14872
883.262	14941
883.388	14880
883.514	15047
883.64	15081
883.766	14990
883.892	14807
884.018	14834
884.143	14876
884.269	15085
884.395	14819
884.52	14701
884.646	14686
884.772	14575
884.897	14651
885.023	14583
885.148	14735
885.274	14857
885.399	14769
885.524	14663
885.65	14689
885.775	14746
885.9	14758
886.025	14845
886.15	14689
886.275	14659
886.4	14560
886.525	14686
886.65	14606
886.775	14632
886.9	14823
887.025	14933
887.149	14625
887.274	14564
887.399	14518
887.523	14461
887.648	14476
887.773	14434
887.897	14640
888.021	14598
888.146	14503
888.27	14606
888.395	14663
888.519	14518
888.643	14579
888.767	14590
888.891	14438
889.015	14294
889.139	14450
889.263	14351
889.387	14568
889.511	14602
889.635	14564
889.759	14362
889.883	14282
890.006	14408
890.13	14446
890.254	14332
890.377	14286
890.501	14256
890.624	14176
890.748	14202
890.871	14218
890.995	14077
891.118	14020
891.241	14065
891.364	14077
891.488	14259
891.611	14084
891.734	14103
891.857	14058
891.98	14126
892.103	14282
892.226	14195
892.349	14069
892.471	13978
892.594	14111
892.717	14103
892.839	14035
892.962	14130
893.085	14092
893.207	14172
893.33	13974
893.452	14046
893.575	14096
893.697	13967
893.819	14206
893.941	14267
894.064	14282
894.186	14039
894.308	14081
894.43	14317
894.552	14347
894.674	14233
894.796	14130
894.918	14206
895.04	14107
895.161	14263
895.283	14195
895.405	14164
895.526	14183
895.648	14202
895.769	14195
895.891	14278
896.012	14362
896.134	14286
896.255	14172
896.376	14324
896.498	14328
896.619	14324
896.74	14221
896.861	14301
896.982	14640
897.103	14746
897.224	14564
897.345	14514
897.466	14560
897.587	14575
897.708	14667
897.828	14682
897.949	14526
898.07	14396
898.19	14476
898.311	14701
898.431	14610
898.552	14640
898.672	14800
898.792	14682
898.913	14705
899.033	14518
899.153	14492
899.273	14389
899.393	14507
899.513	14450
899.633	14530
899.753	14461
899.873	14461
899.993	14476
900.113	14442
900.232	14499
900.352	14385
900.472	14343
900.591	14347
900.711	14366
900.83	14298
900.95	14442
901.069	14457
901.189	14286
901.308	13982
901.427	13906
901.546	13921
901.665	14119
901.784	14069
901.904	13944
902.023	13856
902.141	13704
902.26	13666
902.379	13708
902.498	13537
902.617	13586
902.735	13582
902.854	13548
902.973	13590
903.091	13354
903.21	13358
903.328	13270
903.446	13285
903.565	13202
903.683	13198
903.801	13076
903.919	13107
904.038	13152
904.156	13019
904.274	13069
904.392	12943
904.51	12920
904.627	12973
904.745	13080
904.863	12996
904.981	12829
905.098	12722
905.216	12707
905.334	12726
905.451	12703
905.569	12703
905.686	12681
905.803	12745
905.921	12475
906.038	12642
906.155	12456
906.272	12372
906.389	12361
906.506	12311
906.623	12311
906.74	12273
906.857	12095
906.974	12140
907.091	12407
907.208	12418
907.324	12262
907.441	12205
907.557	12129
907.674	11946
907.79	11935
907.907	12022
908.023	11973
908.139	12049
908.256	11916
908.372	11935
908.488	11923
908.604	11863
908.72	11741
908.836	11836
908.952	11710
909.068	11821
909.184	11824
909.3	11813
909.415	11870
909.531	11779
909.647	11592
909.762	11630
909.878	11539
909.993	11562
910.108	11592
910.224	11509
910.339	11630
910.454	11535
910.57	11421
910.685	11330
910.8	11592
910.915	11524
911.03	11467
911.145	11345
911.259	11185
911.374	11258
911.489	11170
911.604	11117
911.718	11003
911.833	11022
911.947	11014
912.062	10835
912.176	11010
912.291	11083
912.405	11010
912.519	11273
912.633	11261
912.748	11060
912.862	11067
912.976	10919
913.09	10828
913.204	10873
913.318	10828
913.431	11041
913.545	10991
913.659	10980
913.772	10892
913.886	10740
914	10778
914.113	10862
914.226	10793
914.34	10858
914.453	10675
914.566	10923
914.68	10763
914.793	10729
914.906	10588
915.019	10508
915.132	10432
915.245	10577
915.358	10523
915.47	10550
915.583	10584
915.696	10554
915.809	10675
915.921	10687
916.034	10535
916.146	10447
916.259	10405
916.371	10607
916.483	10531
916.595	10443
916.708	10443
916.82	10474
916.932	10424
917.044	10417
917.156	10413
917.268	10322
917.38	10390
917.491	10325
917.603	10310
917.715	10417
917.826	10459
917.938	10306
918.049	10268
918.161	10310
918.272	10451
918.384	10436
918.495	10485
918.606	10227
918.717	10207
918.828	10249
918.939	10253
919.05	10173
919.161	10219
919.272	10032
919.383	10124
919.494	10253
919.604	10519
919.715	10344
919.826	10177
919.936	10234
920.047	10394
920.157	10329
920.267	10417
920.378	10306
920.488	10299
920.598	10402
920.708	10634
920.818	10459
920.928	10516
921.038	10706
921.148	10546
921.258	10303
921.368	10204
921.477	10158
921.587	10067
921.697	9983
921.806	10166
921.916	10017
922.025	9903
922.134	9812
922.244	9747
922.353	9770
922.462	9705
922.571	9671
922.68	9523
922.789	9496
922.898	9542
923.007	9462
923.116	9553
923.224	9526
923.333	9507
923.442	9435
923.55	9412
923.659	9382
923.767	9447
923.876	9367
923.984	9454
924.092	9317
924.201	9386
924.309	9397
924.417	9389
924.525	9287
924.633	9359
924.741	10322
924.849	9192
924.956	9283
925.064	9188
925.172	9062
925.279	9127
925.387	9195
925.494	9176
925.602	9249
925.709	9214
925.816	9104
925.924	9100
926.031	9176
926.138	9165
926.245	9218
926.352	9150
926.459	9260
926.566	9230
926.673	9093
926.779	9066
926.886	9093
926.993	8876
927.099	8823
927.206	8834
927.312	8743
927.419	8952
927.525	8868
927.631	8883
927.737	8781
927.843	8754
927.95	8667
928.056	8724
928.162	8792
928.267	8807
928.373	9496
928.479	8857
928.585	8670
928.69	8769
928.796	8792
928.901	8716
929.007	8583
929.112	8621
929.218	8743
929.323	8678
929.428	8530
929.533	8739
929.638	8575
929.743	8556
929.848	8648
929.953	8560
930.058	8465
930.163	8412
930.267	8408
930.372	8469
930.477	8339
930.581	8537
930.685	8518
930.79	8279
930.894	8294
930.998	8271
931.103	8469
931.207	8046
931.311	8039
931.415	7940
931.519	7830
931.623	7753
