Data from test_V78500241_3503.txt Node
Date: Fri Mar 25 14:58:06 CST 2022
User: usil
Spectrometer: V785-0024
Trigger mode: 0
Integration Time (sec): 4.000000E-1
Scans to average: 1
Nonlinearity correction enabled: false
Boxcar width: 0
Storing dark spectrum: false
XAxis mode: Wavelengths
Number of Pixels in Spectrum: 1024
>>>>>Begin Spectral Data<<<<<
801.071	21816
801.214	21785
801.356	21439
801.499	21439
801.641	21397
801.783	21268
801.926	21374
802.068	21207
802.211	21108
802.353	21112
802.496	20925
802.638	20754
802.78	20758
802.923	20632
803.065	20568
803.208	20579
803.35	20629
803.492	20807
803.635	20716
803.777	20648
803.919	20750
804.061	20826
804.204	20655
804.346	20579
804.488	20469
804.63	20682
804.773	20545
804.915	20621
805.057	20602
805.199	20514
805.341	20533
805.483	20606
805.626	20556
805.768	20457
805.91	20602
806.052	20575
806.194	20495
806.336	20629
806.478	20499
806.62	20393
806.762	20564
806.904	20727
807.046	21001
807.188	20868
807.33	20762
807.472	21036
807.614	20861
807.756	20743
807.898	20693
808.04	20579
808.182	20602
808.324	20541
808.465	20651
808.607	20632
808.749	20807
808.891	20967
809.033	21085
809.174	20998
809.316	20830
809.458	20895
809.6	20807
809.741	20902
809.883	20982
810.025	21203
810.166	20963
810.308	21024
810.45	20921
810.591	20785
810.733	20773
810.875	20701
811.016	20530
811.158	20613
811.299	20609
811.441	20720
811.582	20765
811.724	20606
811.865	20507
812.007	20682
812.148	20564
812.29	20587
812.431	20727
812.573	20960
812.714	21013
812.855	21169
812.997	21085
813.138	21386
813.279	21169
813.421	21283
813.562	21058
813.703	20864
813.845	20826
813.986	20476
814.127	20271
814.268	20221
814.41	20180
814.551	20164
814.692	20263
814.833	20202
814.974	20138
815.115	20271
815.256	19970
815.397	20115
815.539	19959
815.68	19902
815.821	19909
815.962	19925
816.103	19944
816.244	19746
816.385	19772
816.526	19597
816.666	19392
816.807	19278
816.948	19518
817.089	19339
817.23	19346
817.371	19316
817.512	19327
817.653	19263
817.793	19225
817.934	19285
818.075	19282
818.216	19236
818.356	19301
818.497	19091
818.638	18916
818.778	18977
818.919	19080
819.06	19038
819.2	19187
819.341	19198
819.481	19164
819.622	19293
819.762	19537
819.903	19495
820.043	19358
820.184	19209
820.324	19251
820.465	19369
820.605	19362
820.746	19152
820.886	19190
821.026	19122
821.167	19312
821.307	19251
821.447	19285
821.588	19076
821.728	19084
821.868	18897
822.008	18711
822.149	18700
822.289	18646
822.429	18433
822.569	18300
822.709	18460
822.849	18178
822.99	18213
823.13	18201
823.27	18121
823.41	17980
823.55	17904
823.69	17885
823.83	17916
823.97	17988
824.11	17855
824.25	17691
824.389	17687
824.529	17764
824.669	17718
824.809	17878
824.949	17836
825.089	17794
825.228	17813
825.368	17695
825.508	17535
825.648	17535
825.787	17608
825.927	17596
826.067	17425
826.206	17630
826.346	17512
826.485	17592
826.625	17520
826.765	17558
826.904	17539
827.044	17231
827.183	17353
827.323	17208
827.462	17200
827.601	17208
827.741	17235
827.88	17212
828.02	17117
828.159	17242
828.298	17315
828.437	17216
828.577	17067
828.716	17395
828.855	17246
828.994	17048
829.134	16980
829.273	17006
829.412	16946
829.551	16942
829.69	16949
829.829	17067
829.968	16968
830.107	17064
830.246	17075
830.385	16938
830.524	16889
830.663	16835
830.802	16752
830.941	16516
831.08	16615
831.219	16710
831.357	16664
831.496	16919
831.635	16717
831.774	16569
831.913	16512
832.051	16462
832.19	16440
832.329	16428
832.467	16379
832.606	16188
832.744	16211
832.883	16154
833.022	16249
833.16	16348
833.299	16371
833.437	16322
833.576	16405
833.714	16356
833.852	16405
833.991	16443
834.129	16382
834.267	16443
834.406	16405
834.544	16436
834.682	16402
834.821	16337
834.959	16527
835.097	16375
835.235	16447
835.373	16295
835.511	16424
835.65	16325
835.788	16257
835.926	16158
836.064	16135
836.202	16162
836.34	16280
836.478	16424
836.615	16253
836.753	16337
836.891	16348
837.029	16325
837.167	16246
837.305	16287
837.443	16097
837.58	16207
837.718	16226
837.856	16215
837.993	16124
838.131	16162
838.269	16032
838.406	16013
838.544	16082
838.681	15926
838.819	15823
838.956	15694
839.094	15751
839.231	15732
839.369	15922
839.506	16188
839.643	15964
839.781	15743
839.918	15679
840.055	15720
840.193	15778
840.33	15747
840.467	15660
840.604	15781
840.742	16048
840.879	15587
841.016	15671
841.153	15591
841.29	15819
841.427	15747
841.564	15751
841.701	15690
841.838	15778
841.975	15595
842.112	15606
842.249	15549
842.385	15477
842.522	15724
842.659	15523
842.796	15488
842.933	15603
843.069	15496
843.206	15553
843.343	15568
843.479	15545
843.616	15500
843.752	15439
843.889	15359
844.025	15408
844.162	15321
844.298	15424
844.435	15245
844.571	15256
844.708	15359
844.844	15477
844.98	15519
845.117	15310
845.253	15291
845.389	15214
845.525	15306
845.661	15230
845.798	15043
845.934	15207
846.07	15009
846.206	15161
846.342	15264
846.478	15074
846.614	14975
846.75	14842
846.886	14864
847.022	14967
847.158	14971
847.294	14952
847.429	14925
847.565	14857
847.701	15157
847.837	14587
847.972	14575
848.108	14724
848.244	14651
848.379	14480
848.515	14484
848.65	14381
848.786	14545
848.921	14423
849.057	14682
849.192	14564
849.328	14431
849.463	14511
849.598	14465
849.734	14347
849.869	14339
850.004	14298
850.14	14240
850.275	14172
850.41	14153
850.545	14130
850.68	14176
850.815	14214
850.95	14252
851.085	14366
851.22	14309
851.355	14237
851.49	14233
851.625	14218
851.76	14233
851.895	14115
852.03	14039
852.165	14164
852.299	14290
852.434	14309
852.569	14286
852.703	14252
852.838	14263
852.973	14351
853.107	14320
853.242	14187
853.376	14126
853.511	14005
853.645	14005
853.78	14252
853.914	14195
854.048	14187
854.183	14020
854.317	14153
854.451	14271
854.585	14046
854.72	14130
854.854	14191
854.988	14031
855.122	14130
855.256	14035
855.39	14107
855.524	14138
855.658	14233
855.792	14092
855.926	14069
856.06	14206
856.194	14229
856.327	14103
856.461	14100
856.595	14119
856.729	14088
856.862	14191
856.996	14157
857.13	14214
857.263	14172
857.397	14176
857.53	14164
857.664	14149
857.797	14298
857.931	14195
858.064	14206
858.197	14328
858.331	14123
858.464	14103
858.597	14016
858.731	14172
858.864	14130
858.997	14123
859.13	14123
859.263	14142
859.396	14305
859.529	14073
859.662	14191
859.795	14157
859.928	14119
860.061	14210
860.194	14271
860.327	14164
860.46	14103
860.592	14248
860.725	14298
860.858	14218
860.99	14123
861.123	14020
861.256	14065
861.388	14084
861.521	14830
861.653	13906
861.786	13807
861.918	13955
862.05	14142
862.183	14088
862.315	14153
862.447	14210
862.58	14058
862.712	13883
862.844	13822
862.976	13967
863.108	13936
863.24	14214
863.372	13712
863.504	13879
863.636	13902
863.768	13932
863.9	13894
864.032	13655
864.164	13868
864.296	13944
864.428	13970
864.559	14073
864.691	13993
864.823	13898
864.954	13932
865.086	13921
865.217	13856
865.349	13837
865.48	13860
865.612	13814
865.743	13974
865.875	13894
866.006	13906
866.137	13856
866.269	13868
866.4	13928
866.531	13738
866.662	13849
866.793	13780
866.924	13921
867.055	13890
867.186	13875
867.317	13890
867.448	13689
867.579	13868
867.71	13807
867.841	13772
867.972	13860
868.103	13936
868.233	13814
868.364	13837
868.495	14020
868.625	14161
868.756	14149
868.886	14024
869.017	14103
869.147	14221
869.278	14206
869.408	14202
869.539	14126
869.669	14145
869.799	14244
869.929	14176
870.06	14202
870.19	14495
870.32	14446
870.45	14446
870.58	14556
870.71	14701
870.84	14568
870.97	14484
871.1	14537
871.23	14663
871.36	14720
871.489	14598
871.619	14648
871.749	14769
871.879	14754
872.008	14800
872.138	14800
872.267	14667
872.397	14644
872.526	14583
872.656	14545
872.785	14629
872.915	14792
873.044	14845
873.173	14705
873.303	14781
873.432	14800
873.561	14853
873.69	14758
873.819	14712
873.948	14880
874.077	14849
874.206	14727
874.335	14838
874.464	14975
874.593	15123
874.722	14967
874.851	15161
874.979	15184
875.108	15100
875.237	15146
875.365	15089
875.494	15104
875.623	15184
875.751	15116
875.88	15142
876.008	15211
876.136	15336
876.265	15538
876.393	15698
876.521	15587
876.65	15625
876.778	15500
876.906	15477
877.034	15454
877.162	15526
877.29	15370
877.418	15504
877.546	15553
877.674	15458
877.802	15542
877.93	15500
878.058	15386
878.185	15435
878.313	15473
878.441	15603
878.568	15412
878.696	15435
878.824	15591
878.951	15557
879.079	15671
879.206	15865
879.333	15629
879.461	15458
879.588	15599
879.715	15694
879.842	15823
879.97	15557
880.097	15443
880.224	15393
880.351	15367
880.478	15420
880.605	15336
880.732	15363
880.859	15614
880.986	15317
881.112	15504
881.239	15256
881.366	15108
881.493	15176
881.619	15051
881.746	15036
881.872	14975
881.999	14994
882.125	15043
882.252	15127
882.378	15135
882.505	15135
882.631	15036
882.757	14880
882.883	15001
883.01	14819
883.136	14861
883.262	14727
883.388	14705
883.514	14876
883.64	14872
883.766	14731
883.892	14640
884.018	14731
884.143	14800
884.269	14941
884.395	14583
884.52	14587
884.646	14511
884.772	14518
884.897	14412
885.023	14617
885.148	14640
885.274	14792
885.399	14640
885.524	14549
885.65	14552
885.775	14655
885.9	14537
886.025	14697
886.15	14587
886.275	14537
886.4	14446
886.525	14476
886.65	14396
886.775	14507
886.9	14746
887.025	14777
887.149	14594
887.274	14305
887.399	14355
887.523	14377
887.648	14309
887.773	14404
887.897	14309
888.021	14415
888.146	14336
888.27	14457
888.395	14533
888.519	14454
888.643	14381
888.767	14400
888.891	14336
889.015	14237
889.139	14332
889.263	14172
889.387	14286
889.511	14461
889.635	14419
889.759	14328
889.883	14214
890.006	14263
890.13	14339
890.254	14176
890.377	14195
890.501	13974
890.624	14058
890.748	14145
890.871	14027
890.995	13852
891.118	13849
891.241	13894
891.364	13894
891.488	14024
891.611	14031
891.734	13959
891.857	14039
891.98	14008
892.103	14065
892.226	13982
892.349	13925
892.471	13894
892.594	13928
892.717	13963
892.839	13951
892.962	13947
893.085	14084
893.207	13989
893.33	13894
893.452	13871
893.575	14054
893.697	13921
893.819	14153
893.941	14145
894.064	14107
894.186	13947
894.308	13822
894.43	14111
894.552	14233
894.674	14145
894.796	13932
894.918	13932
895.04	13913
895.161	14058
895.283	14107
895.405	14027
895.526	14031
895.648	14031
895.769	14161
895.891	14111
896.012	14115
896.134	14176
896.255	14092
896.376	14012
896.498	14088
896.619	14138
896.74	14054
896.861	14206
896.982	14423
897.103	14537
897.224	14408
897.345	14374
897.466	14377
897.587	14358
897.708	14499
897.828	14374
897.949	14366
898.07	14290
898.19	14313
898.311	14556
898.431	14473
898.552	14431
898.672	14579
898.792	14533
898.913	14514
899.033	14385
899.153	14476
899.273	14290
899.393	14286
899.513	14389
899.633	14412
899.753	14396
899.873	14366
899.993	14419
900.113	14408
900.232	14404
900.352	14454
900.472	14282
900.591	14142
900.711	14210
900.83	14126
900.95	14374
901.069	14339
901.189	14100
901.308	13989
901.427	13940
901.546	13875
901.665	13936
901.784	13959
901.904	13807
902.023	13677
902.141	13537
902.26	13464
902.379	13559
902.498	13460
902.617	13521
902.735	13510
902.854	13468
902.973	13411
903.091	13232
903.21	13228
903.328	13190
903.446	13095
903.565	12954
903.683	13206
903.801	13004
903.919	13088
904.038	13031
904.156	12993
904.274	12916
904.392	12833
904.51	12920
904.627	12814
904.745	12920
904.863	12947
904.981	12738
905.098	12513
905.216	12544
905.334	12620
905.451	12570
905.569	12604
905.686	12681
905.803	12540
905.921	12414
906.038	12502
906.155	12418
906.272	12323
906.389	12270
906.506	12140
906.623	12216
906.74	12197
906.857	12125
906.974	12171
907.091	12239
907.208	12300
907.324	12232
907.441	12136
907.557	11958
907.674	11923
907.79	11878
907.907	11935
908.023	11977
908.139	11939
908.256	11870
908.372	11859
908.488	11802
908.604	11737
908.72	11600
908.836	11665
908.952	11649
909.068	11699
909.184	11798
909.3	11688
909.415	11764
909.531	11695
909.647	11509
909.762	11440
909.878	11372
909.993	11425
910.108	11402
910.224	11433
910.339	11478
910.454	11292
910.57	11322
910.685	11220
910.8	11528
910.915	11478
911.03	11326
911.145	11136
911.259	11166
911.374	11223
911.489	11071
911.604	11067
911.718	10984
911.833	10968
911.947	10828
912.062	10809
912.176	10881
912.291	10927
912.405	10991
912.519	11041
912.633	11124
912.748	10984
912.862	10972
912.976	10755
913.09	10675
913.204	10733
913.318	10786
913.431	10911
913.545	10828
913.659	10915
913.772	10778
913.886	10706
914	10736
914.113	10797
914.226	10763
914.34	10805
914.453	10615
914.566	10748
914.68	10596
914.793	10618
914.906	10508
915.019	10344
915.132	10352
915.245	10363
915.358	10398
915.47	10466
915.583	10516
915.696	10413
915.809	10558
915.921	10603
916.034	10493
916.146	10421
916.259	10371
916.371	10470
916.483	10409
916.595	10341
916.708	10421
916.82	10390
916.932	10337
917.044	10371
917.156	10348
917.268	10238
917.38	10192
917.491	10192
917.603	10238
917.715	10337
917.826	10287
917.938	10246
918.049	10082
918.161	10215
918.272	10409
918.384	10360
918.495	10227
918.606	10139
918.717	10120
918.828	10188
918.939	10135
919.05	10048
919.161	10158
919.272	9991
919.383	9979
919.494	10185
919.604	10352
919.715	10150
919.826	10078
919.936	10181
920.047	10257
920.157	10105
920.267	10360
920.378	10215
920.488	10169
920.598	10268
920.708	10474
920.818	10291
920.928	10341
921.038	10405
921.148	10424
921.258	10173
921.368	10040
921.477	10078
921.587	10040
921.697	9899
921.806	10074
921.916	9937
922.025	9800
922.134	9671
922.244	9667
922.353	9797
922.462	9564
922.571	9473
922.68	9416
922.789	9389
922.898	9420
923.007	9332
923.116	9435
923.224	9412
923.333	9469
923.442	9363
923.55	9253
923.659	9336
923.767	9393
923.876	9241
923.984	9389
924.092	9256
924.201	9336
924.309	9336
924.417	9226
924.525	9253
924.633	9264
924.741	10002
924.849	9077
924.956	9154
925.064	9058
925.172	8979
925.279	9009
925.387	9108
925.494	9138
925.602	9176
925.709	9108
925.816	8975
925.924	9077
926.031	9142
926.138	9097
926.245	9074
926.352	9032
926.459	9119
926.566	9211
926.673	9047
926.779	8975
926.886	8963
926.993	8804
927.099	8823
927.206	8663
927.312	8720
927.419	8830
927.525	8811
927.631	8872
927.737	8731
927.843	8727
927.95	8568
928.056	8613
928.162	8750
928.267	8826
928.373	9332
928.479	8804
928.585	8568
928.69	8686
928.796	8621
928.901	8571
929.007	8442
929.112	8587
929.218	8583
929.323	8568
929.428	8579
929.533	8670
929.638	8503
929.743	8511
929.848	8533
929.953	8571
930.058	8374
930.163	8259
930.267	8301
930.372	8374
930.477	8229
930.581	8465
930.685	8366
930.79	8218
930.894	8252
930.998	8252
931.103	8347
931.207	7993
931.311	7967
931.415	7936
931.519	7753
931.623	7727
