Data from test_V78500241_2151.txt Node
Date: Fri Mar 25 14:48:41 CST 2022
User: usil
Spectrometer: V785-0024
Trigger mode: 0
Integration Time (sec): 4.000000E-1
Scans to average: 1
Nonlinearity correction enabled: false
Boxcar width: 0
Storing dark spectrum: false
XAxis mode: Wavelengths
Number of Pixels in Spectrum: 1024
>>>>>Begin Spectral Data<<<<<
801.071	22158
801.214	22013
801.356	21686
801.499	21808
801.641	21629
801.783	21561
801.926	21671
802.068	21526
802.211	21336
802.353	21363
802.496	21154
802.638	21070
802.78	21036
802.923	20880
803.065	20899
803.208	20819
803.35	20918
803.492	21077
803.635	21138
803.777	20868
803.919	21047
804.061	21199
804.204	21058
804.346	20872
804.488	20731
804.63	20834
804.773	20697
804.915	20910
805.057	20823
805.199	20785
805.341	20876
805.483	21066
805.626	20979
805.768	20750
805.91	20769
806.052	20807
806.194	20769
806.336	20933
806.478	20777
806.62	20800
806.762	20891
806.904	21077
807.046	21252
807.188	21165
807.33	21123
807.472	21245
807.614	21013
807.756	21066
807.898	20925
808.04	20754
808.182	20853
808.324	20948
808.465	20925
808.607	21028
808.749	21272
808.891	21249
809.033	21466
809.174	21226
809.316	21203
809.458	21241
809.6	21108
809.741	21275
809.883	21310
810.025	21336
810.166	21382
810.308	21382
810.45	21306
810.591	21131
810.733	21157
810.875	20975
811.016	20941
811.158	20952
811.299	20971
811.441	21062
811.582	21047
811.724	20975
811.865	20819
812.007	20906
812.148	20838
812.29	20971
812.431	21154
812.573	21279
812.714	21325
812.855	21332
812.997	21583
813.138	21709
813.279	21614
813.421	21408
813.562	21306
813.703	21218
813.845	21146
813.986	20838
814.127	20743
814.268	20659
814.41	20590
814.551	20552
814.692	20575
814.833	20320
814.974	20438
815.115	20568
815.256	20362
815.397	20370
815.539	20362
815.68	20161
815.821	20115
815.962	20153
816.103	20206
816.244	20054
816.385	19940
816.526	20050
816.666	19864
816.807	19662
816.948	19765
817.089	19769
817.23	19753
817.371	19723
817.512	19613
817.653	19624
817.793	19597
817.934	19556
818.075	19753
818.216	19685
818.356	19556
818.497	19506
818.638	19308
818.778	19422
818.919	19274
819.06	19362
819.2	19635
819.341	19518
819.481	19556
819.622	19780
819.762	19875
819.903	19849
820.043	19681
820.184	19681
820.324	19723
820.465	19753
820.605	19635
820.746	19613
820.886	19495
821.026	19559
821.167	19597
821.307	19624
821.447	19601
821.588	19468
821.728	19297
821.868	19175
822.008	19076
822.149	19129
822.289	19057
822.429	18867
822.569	18749
822.709	18681
822.849	18559
822.99	18418
823.13	18555
823.27	18426
823.41	18429
823.55	18304
823.69	18323
823.83	18308
823.97	18270
824.11	18095
824.25	18041
824.389	18190
824.529	18178
824.669	17958
824.809	18167
824.949	18289
825.089	18247
825.228	18064
825.368	17916
825.508	17923
825.648	17885
825.787	17927
825.927	17931
826.067	17897
826.206	17851
826.346	17958
826.485	17977
826.625	17897
826.765	17942
826.904	17946
827.044	17710
827.183	17562
827.323	17505
827.462	17707
827.601	17668
827.741	17493
827.88	17589
828.02	17482
828.159	17630
828.298	17748
828.437	17627
828.577	17509
828.716	17680
828.855	17547
828.994	17280
829.134	17318
829.273	17292
829.412	17284
829.551	17250
829.69	17303
829.829	17242
829.968	17436
830.107	17410
830.246	17299
830.385	17296
830.524	17330
830.663	17159
830.802	17067
830.941	16953
831.08	16938
831.219	17083
831.357	17048
831.496	17220
831.635	16976
831.774	16892
831.913	16984
832.051	16793
832.19	16733
832.329	16816
832.467	16626
832.606	16622
832.744	16698
832.883	16645
833.022	16519
833.16	16618
833.299	16717
833.437	16546
833.576	16660
833.714	16702
833.852	16706
833.991	16668
834.129	16717
834.267	16748
834.406	16664
834.544	16679
834.682	16653
834.821	16584
834.959	16744
835.097	16668
835.235	16660
835.373	16675
835.511	16641
835.65	16599
835.788	16569
835.926	16489
836.064	16409
836.202	16512
836.34	16542
836.478	16660
836.615	16523
836.753	16607
836.891	16710
837.029	16626
837.167	16694
837.305	16531
837.443	16569
837.58	16367
837.718	16489
837.856	16485
837.993	16360
838.131	16360
838.269	16348
838.406	16436
838.544	16424
838.681	16158
838.819	16147
838.956	15953
839.094	16044
839.231	16013
839.369	16112
839.506	16348
839.643	16299
839.781	15983
839.918	15956
840.055	16093
840.193	16059
840.33	16025
840.467	15979
840.604	15953
840.742	16207
840.879	15823
841.016	15842
841.153	15873
841.29	16131
841.427	16090
841.564	16120
841.701	16093
841.838	15835
841.975	15926
842.112	15991
842.249	15895
842.385	15713
842.522	15831
842.659	15816
842.796	15698
842.933	15789
843.069	15755
843.206	15789
843.343	15850
843.479	15865
843.616	15698
843.752	15564
843.889	15591
844.025	15690
844.162	15568
844.298	15625
844.435	15492
844.571	15523
844.708	15485
844.844	15720
844.98	15679
845.117	15709
845.253	15511
845.389	15435
845.525	15507
845.661	15416
845.798	15454
845.934	15428
846.07	15351
846.206	15500
846.342	15477
846.478	15397
846.614	15233
846.75	15154
846.886	15085
847.022	15264
847.158	15207
847.294	15157
847.429	15131
847.565	15066
847.701	15348
847.837	14910
847.972	14941
848.108	15043
848.244	14925
848.379	14830
848.515	14682
848.65	14651
848.786	14746
848.921	14727
849.057	14864
849.192	14796
849.328	14788
849.463	14735
849.598	14785
849.734	14697
849.869	14598
850.004	14526
850.14	14545
850.275	14602
850.41	14412
850.545	14473
850.68	14465
850.815	14442
850.95	14522
851.085	14655
851.22	14686
851.355	14480
851.49	14499
851.625	14537
851.76	14396
851.895	14423
852.03	14351
852.165	14518
852.299	14434
852.434	14655
852.569	14632
852.703	14533
852.838	14579
852.973	14625
853.107	14617
853.242	14480
853.376	14317
853.511	14396
853.645	14294
853.78	14560
853.914	14461
854.048	14324
854.183	14343
854.317	14366
854.451	14568
854.585	14385
854.72	14275
854.854	14419
854.988	14267
855.122	14328
855.256	14229
855.39	14381
855.524	14476
855.658	14431
855.792	14324
855.926	14396
856.06	14564
856.194	14427
856.327	14317
856.461	14298
856.595	14389
856.729	14290
856.862	14545
856.996	14454
857.13	14454
857.263	14549
857.397	14461
857.53	14252
857.664	14400
857.797	14404
857.931	14495
858.064	14427
858.197	14457
858.331	14313
858.464	14233
858.597	14218
858.731	14313
858.864	14339
858.997	14278
859.13	14461
859.263	14484
859.396	14526
859.529	14404
859.662	14396
859.795	14286
859.928	14317
860.061	14560
860.194	14583
860.327	14343
860.46	14317
860.592	14343
860.725	14526
860.858	14454
860.99	14332
861.123	14317
861.256	14339
861.388	14415
861.521	15043
861.653	14237
861.786	14218
861.918	14252
862.05	14301
862.183	14324
862.315	14377
862.447	14370
862.58	14317
862.712	14153
862.844	14126
862.976	14145
863.108	14259
863.24	14431
863.372	14035
863.504	14111
863.636	14172
863.768	14187
863.9	14221
864.032	13986
864.164	13963
864.296	14237
864.428	14199
864.559	14138
864.691	14218
864.823	14161
864.954	14103
865.086	14202
865.217	14077
865.349	14096
865.48	14176
865.612	14153
865.743	14282
865.875	14142
866.006	14111
866.137	14164
866.269	14115
866.4	14058
866.531	14062
866.662	14081
866.793	14043
866.924	14111
867.055	14153
867.186	14172
867.317	14138
867.448	14005
867.579	14024
867.71	14062
867.841	14100
867.972	14096
868.103	14069
868.233	14115
868.364	14134
868.495	14161
868.625	14305
868.756	14431
868.886	14351
869.017	14355
869.147	14393
869.278	14473
869.408	14393
869.539	14446
869.669	14415
869.799	14431
869.929	14484
870.06	14526
870.19	14731
870.32	14682
870.45	14705
870.58	14800
870.71	14826
870.84	14883
870.97	14682
871.1	14872
871.23	15070
871.36	14921
871.489	14876
871.619	15001
871.749	14937
871.879	15047
872.008	15161
872.138	14952
872.267	14948
872.397	14937
872.526	14758
872.656	14819
872.785	14842
872.915	14956
873.044	15165
873.173	14982
873.303	15036
873.432	15017
873.561	15116
873.69	15043
873.819	15089
873.948	15055
874.077	15070
874.206	15047
874.335	15047
874.464	15169
874.593	15359
874.722	15351
874.851	15382
874.979	15325
875.108	15294
875.237	15313
875.365	15207
875.494	15370
875.623	15477
875.751	15363
875.88	15431
876.008	15488
876.136	15557
876.265	15743
876.393	15937
876.521	15838
876.65	15861
876.778	15812
876.906	15804
877.034	15808
877.162	15770
877.29	15637
877.418	15690
877.546	15793
877.674	15785
877.802	15838
877.93	15728
878.058	15641
878.185	15679
878.313	15751
878.441	15709
878.568	15675
878.696	15751
878.824	15755
878.951	15930
879.079	15991
879.206	16071
879.333	15888
879.461	15869
879.588	15781
879.715	15888
879.842	16059
879.97	15865
880.097	15629
880.224	15504
880.351	15595
880.478	15595
880.605	15606
880.732	15564
880.859	15854
880.986	15652
881.112	15739
881.239	15515
881.366	15481
881.493	15313
881.619	15317
881.746	15241
881.872	15222
881.999	15214
882.125	15207
882.252	15348
882.378	15218
882.505	15428
882.631	15214
882.757	15173
882.883	15211
883.01	15195
883.136	15028
883.262	14876
883.388	14910
883.514	15142
883.64	15116
883.766	15112
883.892	14895
884.018	15009
884.143	15009
884.269	15142
884.395	14868
884.52	14674
884.646	14792
884.772	14651
884.897	14705
885.023	14929
885.148	14914
885.274	15013
885.399	14910
885.524	14792
885.65	14781
885.775	14887
885.9	14800
886.025	14971
886.15	14906
886.275	14762
886.4	14739
886.525	14781
886.65	14712
886.775	14838
886.9	14941
887.025	15131
887.149	14804
887.274	14686
887.399	14568
887.523	14598
887.648	14621
887.773	14522
887.897	14819
888.021	14727
888.146	14648
888.27	14754
888.395	14845
888.519	14708
888.643	14727
888.767	14773
888.891	14610
889.015	14450
889.139	14526
889.263	14454
889.387	14564
889.511	14750
889.635	14701
889.759	14511
889.883	14461
890.006	14560
890.13	14632
890.254	14450
890.377	14541
890.501	14355
890.624	14313
890.748	14469
890.871	14271
890.995	14142
891.118	14202
891.241	14180
891.364	14210
891.488	14355
891.611	14218
891.734	14161
891.857	14286
891.98	14202
892.103	14339
892.226	14328
892.349	14176
892.471	14134
892.594	14084
892.717	14225
892.839	14233
892.962	14263
893.085	14248
893.207	14202
893.33	14130
893.452	14119
893.575	14248
893.697	14142
893.819	14347
893.941	14339
894.064	14358
894.186	14237
894.308	14126
894.43	14317
894.552	14404
894.674	14332
894.796	14183
894.918	14240
895.04	14180
895.161	14252
895.283	14362
895.405	14244
895.526	14412
895.648	14347
895.769	14282
895.891	14450
896.012	14431
896.134	14438
896.255	14446
896.376	14301
896.498	14278
896.619	14404
896.74	14450
896.861	14514
896.982	14724
897.103	14838
897.224	14629
897.345	14587
897.466	14518
897.587	14686
897.708	14769
897.828	14750
897.949	14674
898.07	14442
898.19	14564
898.311	14765
898.431	14724
898.552	14682
898.672	14899
898.792	14845
898.913	14807
899.033	14659
899.153	14651
899.273	14450
899.393	14484
899.513	14575
899.633	14590
899.753	14541
899.873	14552
899.993	14613
900.113	14587
900.232	14571
900.352	14583
900.472	14579
900.591	14412
900.711	14438
900.83	14339
900.95	14549
901.069	14579
901.189	14366
901.308	14202
901.427	14123
901.546	14123
901.665	14134
901.784	14096
901.904	14103
902.023	13883
902.141	13681
902.26	13643
902.379	13830
902.498	13521
902.617	13643
902.735	13734
902.854	13696
902.973	13636
903.091	13457
903.21	13407
903.328	13373
903.446	13312
903.565	13301
903.683	13304
903.801	13198
903.919	13225
904.038	13202
904.156	13133
904.274	13118
904.392	13069
904.51	13065
904.627	12962
904.745	13145
904.863	13118
904.981	12932
905.098	12749
905.216	12734
905.334	12764
905.451	12738
905.569	12768
905.686	12730
905.803	12745
905.921	12635
906.038	12681
906.155	12601
906.272	12506
906.389	12513
906.506	12391
906.623	12350
906.74	12232
906.857	12262
906.974	12262
907.091	12445
907.208	12585
907.324	12308
907.441	12247
907.557	12106
907.674	12060
907.79	12030
907.907	12087
908.023	12087
908.139	12030
908.256	12026
908.372	12003
908.488	11996
908.604	11908
908.72	11764
908.836	11813
908.952	11847
909.068	11863
909.184	11920
909.3	11783
909.415	11878
909.531	11843
909.647	11676
909.762	11596
909.878	11577
909.993	11600
910.108	11600
910.224	11611
910.339	11615
910.454	11585
910.57	11455
910.685	11395
910.8	11695
910.915	11684
911.03	11497
911.145	11311
911.259	11261
911.374	11429
911.489	11280
911.604	11185
911.718	11102
911.833	11090
911.947	11067
912.062	10972
912.176	11083
912.291	10987
912.405	11117
912.519	11292
912.633	11288
912.748	11140
912.862	11159
912.976	10980
913.09	10805
913.204	10953
913.318	11064
913.431	11022
913.545	10987
913.659	11090
913.772	11018
913.886	10911
914	10820
914.113	10911
914.226	10927
914.34	10927
914.453	10748
914.566	10915
914.68	10767
914.793	10831
914.906	10637
915.019	10580
915.132	10455
915.245	10497
915.358	10596
915.47	10580
915.583	10634
915.696	10698
915.809	10668
915.921	10733
916.034	10558
916.146	10561
916.259	10440
916.371	10637
916.483	10577
916.595	10493
916.708	10413
916.82	10561
916.932	10462
917.044	10413
917.156	10523
917.268	10352
917.38	10402
917.491	10386
917.603	10382
917.715	10375
917.826	10546
917.938	10428
918.049	10238
918.161	10398
918.272	10554
918.384	10561
918.495	10447
918.606	10287
918.717	10162
918.828	10295
918.939	10284
919.05	10078
919.161	10242
919.272	10105
919.383	10128
919.494	10325
919.604	10451
919.715	10333
919.826	10173
919.936	10306
920.047	10386
920.157	10238
920.267	10497
920.378	10322
920.488	10284
920.598	10489
920.708	10660
920.818	10417
920.928	10512
921.038	10588
921.148	10561
921.258	10314
921.368	10185
921.477	10215
921.587	10116
921.697	10063
921.806	10188
921.916	10017
922.025	9876
922.134	9842
922.244	9785
922.353	9972
922.462	9667
922.571	9701
922.68	9584
922.789	9534
922.898	9515
923.007	9500
923.116	9606
923.224	9584
923.333	9599
923.442	9397
923.55	9428
923.659	9481
923.767	9515
923.876	9435
923.984	9473
924.092	9332
924.201	9393
924.309	9450
924.417	9469
924.525	9336
924.633	9359
924.741	10051
924.849	9214
924.956	9386
925.064	9230
925.172	9127
925.279	9169
925.387	9214
925.494	9275
925.602	9332
925.709	9264
925.816	9138
925.924	9233
926.031	9253
926.138	9211
926.245	9214
926.352	9047
926.459	9260
926.566	9287
926.673	9184
926.779	9066
926.886	9039
926.993	8937
927.099	8933
927.206	8895
927.312	8899
927.419	8872
927.525	8861
927.631	8921
927.737	8838
927.843	8861
927.95	8610
928.056	8777
928.162	8815
928.267	8792
928.373	9462
928.479	8842
928.585	8727
928.69	8872
928.796	8834
928.901	8705
929.007	8590
929.112	8724
929.218	8617
929.323	8629
929.428	8610
929.533	8720
929.638	8598
929.743	8648
929.848	8613
929.953	8625
930.058	8454
930.163	8381
930.267	8343
930.372	8450
930.477	8336
930.581	8583
930.685	8484
930.79	8374
930.894	8393
930.998	8317
931.103	8484
931.207	8138
931.311	8046
931.415	7997
931.519	7864
931.623	7814
