Data from test_V78500241_1146.txt Node
Date: Fri Mar 25 14:41:41 CST 2022
User: usil
Spectrometer: V785-0024
Trigger mode: 0
Integration Time (sec): 4.000000E-1
Scans to average: 1
Nonlinearity correction enabled: false
Boxcar width: 0
Storing dark spectrum: false
XAxis mode: Wavelengths
Number of Pixels in Spectrum: 1024
>>>>>Begin Spectral Data<<<<<
801.071	22561
801.214	22474
801.356	22215
801.499	22158
801.641	21918
801.783	21956
801.926	21960
802.068	21804
802.211	21800
802.353	21736
802.496	21481
802.638	21458
802.78	21283
802.923	21287
803.065	21264
803.208	21313
803.35	21260
803.492	21473
803.635	21348
803.777	21283
803.919	21313
804.061	21591
804.204	21348
804.346	21108
804.488	21222
804.63	21351
804.773	21142
804.915	21329
805.057	21283
805.199	21169
805.341	21264
805.483	21222
805.626	21176
805.768	21154
805.91	21192
806.052	21245
806.194	21093
806.336	21313
806.478	21123
806.62	21154
806.762	21199
806.904	21473
807.046	21542
807.188	21545
807.33	21591
807.472	21690
807.614	21542
807.756	21500
807.898	21370
808.04	21256
808.182	21378
808.324	21443
808.465	21466
808.607	21660
808.749	21793
808.891	21778
809.033	22032
809.174	21915
809.316	21682
809.458	21800
809.6	21675
809.741	21823
809.883	21823
810.025	21854
810.166	21880
810.308	21816
810.45	21819
810.591	21629
810.733	21454
810.875	21382
811.016	21336
811.158	21313
811.299	21416
811.441	21580
811.582	21595
811.724	21515
811.865	21363
812.007	21389
812.148	21378
812.29	21466
812.431	21557
812.573	21709
812.714	21774
812.855	21819
812.997	22002
813.138	22154
813.279	22120
813.421	21880
813.562	21804
813.703	21652
813.845	21428
813.986	21283
814.127	21089
814.268	20971
814.41	21039
814.551	20910
814.692	21017
814.833	20777
814.974	20853
815.115	20921
815.256	20819
815.397	20792
815.539	20739
815.68	20701
815.821	20545
815.962	20602
816.103	20705
816.244	20571
816.385	20461
816.526	20377
816.666	20271
816.807	20088
816.948	20294
817.089	20286
817.23	20221
817.371	20145
817.512	20195
817.653	20035
817.793	20054
817.934	20161
818.075	20164
818.216	20138
818.356	20005
818.497	19909
818.638	19727
818.778	19731
818.919	19704
819.06	19837
819.2	20016
819.341	19955
819.481	19913
819.622	20058
819.762	20271
819.903	20248
820.043	20138
820.184	20103
820.324	20020
820.465	20111
820.605	20122
820.746	20092
820.886	19811
821.026	19997
821.167	20103
821.307	19986
821.447	20020
821.588	19887
821.728	19750
821.868	19514
822.008	19476
822.149	19460
822.289	19407
822.429	19129
822.569	19103
822.709	19088
822.849	19053
822.99	18993
823.13	18913
823.27	18852
823.41	18863
823.55	18642
823.69	18734
823.83	18806
823.97	18642
824.11	18578
824.25	18513
824.389	18513
824.529	18627
824.669	18669
824.809	18646
824.949	18681
825.089	18467
825.228	18551
825.368	18361
825.508	18232
825.648	18334
825.787	18304
825.927	18429
826.067	18319
826.206	18342
826.346	18365
826.485	18330
826.625	18296
826.765	18483
826.904	18380
827.044	18026
827.183	18079
827.323	17969
827.462	18045
827.601	18011
827.741	18045
827.88	18034
828.02	17931
828.159	18076
828.298	18011
828.437	18079
828.577	17935
828.716	18125
828.855	18003
828.994	17737
829.134	17752
829.273	17855
829.412	17695
829.551	17642
829.69	17805
829.829	17843
829.968	17969
830.107	17752
830.246	17912
830.385	17726
830.524	17604
830.663	17474
830.802	17558
830.941	17364
831.08	17356
831.219	17391
831.357	17467
831.496	17657
831.635	17455
831.774	17417
831.913	17296
832.051	17155
832.19	17140
832.329	17235
832.467	16995
832.606	17064
832.744	17025
832.883	17067
833.022	17162
833.16	17178
833.299	17140
833.437	17041
833.576	17204
833.714	17124
833.852	17162
833.991	17216
834.129	17318
834.267	17136
834.406	17174
834.544	17193
834.682	17288
834.821	17212
834.959	17337
835.097	17041
835.235	17246
835.373	17109
835.511	17147
835.65	17022
835.788	17098
835.926	16820
836.064	16858
836.202	16953
836.34	17041
836.478	17166
836.615	17079
836.753	17109
836.891	17109
837.029	16991
837.167	16972
837.305	16946
837.443	17029
837.58	16911
837.718	16991
837.856	16923
837.993	16892
838.131	16938
838.269	16911
838.406	16862
838.544	16778
838.681	16649
838.819	16611
838.956	16436
839.094	16386
839.231	16588
839.369	16679
839.506	16869
839.643	16733
839.781	16474
839.918	16409
840.055	16485
840.193	16474
840.33	16386
840.467	16382
840.604	16531
840.742	16630
840.879	16344
841.016	16329
841.153	16322
841.29	16599
841.427	16565
841.564	16398
841.701	16447
841.838	16402
841.975	16299
842.112	16379
842.249	16242
842.385	16265
842.522	16432
842.659	16333
842.796	16207
842.933	16230
843.069	16196
843.206	16253
843.343	16310
843.479	16280
843.616	16246
843.752	16044
843.889	16021
844.025	16257
844.162	15918
844.298	16173
844.435	16071
844.571	15998
844.708	16143
844.844	16188
844.98	16272
845.117	16162
845.253	15968
845.389	15968
845.525	16044
845.661	16040
845.798	16002
845.934	16147
846.07	16055
846.206	16147
846.342	16112
846.478	15949
846.614	15778
846.75	15622
846.886	15614
847.022	15766
847.158	15599
847.294	15675
847.429	15591
847.565	15622
847.701	15774
847.837	15428
847.972	15348
848.108	15462
848.244	15325
848.379	15188
848.515	15070
848.65	15180
848.786	15104
848.921	15119
849.057	15222
849.192	15230
849.328	15241
849.463	15112
849.598	15108
849.734	15146
849.869	15009
850.004	15051
850.14	14982
850.275	14994
850.41	14963
850.545	14887
850.68	14902
850.815	15001
850.95	14899
851.085	15077
851.22	15017
851.355	14937
851.49	14914
851.625	14883
851.76	14918
851.895	14762
852.03	14785
852.165	14895
852.299	14941
852.434	15097
852.569	15032
852.703	14982
852.838	15028
852.973	15169
853.107	15062
853.242	14910
853.376	14933
853.511	14640
853.645	14739
853.78	14944
853.914	14864
854.048	14804
854.183	14735
854.317	14857
854.451	14990
854.585	14857
854.72	14830
854.854	14826
854.988	14689
855.122	14811
855.256	14720
855.39	14773
855.524	14921
855.658	14864
855.792	14845
855.926	14872
856.06	14861
856.194	14777
856.327	14804
856.461	14746
856.595	14705
856.729	14857
856.862	14845
856.996	14895
857.13	14804
857.263	14872
857.397	14910
857.53	14868
857.664	14960
857.797	14914
857.931	15009
858.064	14823
858.197	14910
858.331	14815
858.464	14750
858.597	14708
858.731	14743
858.864	14811
858.997	14781
859.13	14899
859.263	14807
859.396	14906
859.529	14754
859.662	14868
859.795	14750
859.928	14750
860.061	15047
860.194	14872
860.327	14853
860.46	14773
860.592	14906
860.725	14864
860.858	14971
860.99	14750
861.123	14785
861.256	14739
861.388	14849
861.521	15553
861.653	14701
861.786	14735
861.918	14712
862.05	14629
862.183	14701
862.315	14773
862.447	14902
862.58	14735
862.712	14610
862.844	14606
862.976	14678
863.108	14575
863.24	15032
863.372	14495
863.504	14590
863.636	14556
863.768	14598
863.9	14541
864.032	14579
864.164	14438
864.296	14594
864.428	14765
864.559	14746
864.691	14632
864.823	14670
864.954	14625
865.086	14640
865.217	14636
865.349	14541
865.48	14541
865.612	14518
865.743	14727
865.875	14644
866.006	14499
866.137	14549
866.269	14564
866.4	14514
866.531	14469
866.662	14495
866.793	14423
866.924	14484
867.055	14606
867.186	14492
867.317	14484
867.448	14450
867.579	14556
867.71	14419
867.841	14499
867.972	14579
868.103	14575
868.233	14507
868.364	14579
868.495	14575
868.625	14830
868.756	14834
868.886	14686
869.017	14834
869.147	14944
869.278	14887
869.408	14826
869.539	14918
869.669	14849
869.799	14876
869.929	14937
870.06	14925
870.19	15070
870.32	15123
870.45	15165
870.58	15298
870.71	15275
870.84	15348
870.97	15268
871.1	15108
871.23	15408
871.36	15393
871.489	15252
871.619	15393
871.749	15462
871.879	15416
872.008	15557
872.138	15348
872.267	15359
872.397	15310
872.526	15302
872.656	15241
872.785	15336
872.915	15416
873.044	15549
873.173	15405
873.303	15530
873.432	15530
873.561	15545
873.69	15488
873.819	15469
873.948	15584
874.077	15370
874.206	15530
874.335	15553
874.464	15690
874.593	15759
874.722	15667
874.851	15884
874.979	15827
875.108	15743
875.237	15804
875.365	15728
875.494	15797
875.623	15781
875.751	15781
875.88	15835
876.008	15846
876.136	15918
876.265	16219
876.393	16325
876.521	16230
876.65	16356
876.778	16219
876.906	16181
877.034	16006
877.162	16135
877.29	16032
877.418	16135
877.546	16139
877.674	16230
877.802	16143
877.93	16253
878.058	16204
878.185	16055
878.313	16200
878.441	16131
878.568	16021
878.696	16017
878.824	16226
878.951	16253
879.079	16478
879.206	16538
879.333	16485
879.461	16402
879.588	16470
879.715	16417
879.842	16573
879.97	16363
880.097	16139
880.224	16063
880.351	16059
880.478	16067
880.605	16044
880.732	16116
880.859	16363
880.986	16090
881.112	16051
881.239	15937
881.366	15819
881.493	15713
881.619	15644
881.746	15724
881.872	15732
881.999	15603
882.125	15705
882.252	15797
882.378	15701
882.505	15778
882.631	15603
882.757	15545
882.883	15591
883.01	15473
883.136	15504
883.262	15382
883.388	15325
883.514	15629
883.64	15599
883.766	15507
883.892	15291
884.018	15302
884.143	15542
884.269	15606
884.395	15256
884.52	15195
884.646	15188
884.772	15203
884.897	15173
885.023	15287
885.148	15241
885.274	15393
885.399	15195
885.524	15222
885.65	15081
885.775	15283
885.9	15112
886.025	15332
886.15	15313
886.275	15207
886.4	15074
886.525	15104
886.65	15112
886.775	15032
886.9	15222
887.025	15435
887.149	15211
887.274	15100
887.399	15013
887.523	15020
887.648	15001
887.773	14952
887.897	15032
888.021	15062
888.146	15039
888.27	15085
888.395	15138
888.519	15116
888.643	15058
888.767	15020
888.891	14937
889.015	14861
889.139	14883
889.263	14849
889.387	14971
889.511	15089
889.635	15013
889.759	14876
889.883	14834
890.006	14895
890.13	14952
890.254	14800
890.377	14830
890.501	14640
890.624	14621
890.748	14678
890.871	14602
890.995	14522
891.118	14499
891.241	14549
891.364	14560
891.488	14636
891.611	14522
891.734	14518
891.857	14564
891.98	14579
892.103	14636
892.226	14541
892.349	14552
892.471	14461
892.594	14503
892.717	14575
892.839	14507
892.962	14514
893.085	14640
893.207	14552
893.33	14450
893.452	14499
893.575	14659
893.697	14469
893.819	14800
893.941	14663
894.064	14762
894.186	14537
894.308	14495
894.43	14705
894.552	14712
894.674	14689
894.796	14552
894.918	14644
895.04	14564
895.161	14720
895.283	14613
895.405	14533
895.526	14655
895.648	14575
895.769	14720
895.891	14746
896.012	14739
896.134	14750
896.255	14735
896.376	14682
896.498	14621
896.619	14678
896.74	14746
896.861	14838
896.982	15074
897.103	15226
897.224	14944
897.345	14941
897.466	14792
897.587	14910
897.708	15135
897.828	14982
897.949	15009
898.07	14857
898.19	14864
898.311	15001
898.431	14994
898.552	15024
898.672	15093
898.792	15138
898.913	15100
899.033	15001
899.153	14826
899.273	14746
899.393	14876
899.513	14944
899.633	14880
899.753	14902
899.873	14891
899.993	14914
900.113	14910
900.232	14826
900.352	14899
900.472	14792
900.591	14758
900.711	14804
900.83	14781
900.95	14838
901.069	14921
901.189	14682
901.308	14549
901.427	14358
901.546	14396
901.665	14473
901.784	14450
901.904	14240
902.023	14229
902.141	14073
902.26	13947
902.379	14008
902.498	13955
902.617	13917
902.735	13959
902.854	13989
902.973	13887
903.091	13681
903.21	13628
903.328	13731
903.446	13746
903.565	13502
903.683	13628
903.801	13430
903.919	13514
904.038	13480
904.156	13343
904.274	13453
904.392	13335
904.51	13304
904.627	13312
904.745	13377
904.863	13434
904.981	13236
905.098	13076
905.216	13038
905.334	13099
905.451	12958
905.569	13031
905.686	13156
905.803	13038
905.921	12920
906.038	13015
906.155	12916
906.272	12776
906.389	12802
906.506	12578
906.623	12646
906.74	12563
906.857	12544
906.974	12479
907.091	12726
907.208	12806
907.324	12631
907.441	12578
907.557	12414
907.674	12342
907.79	12228
907.907	12311
908.023	12460
908.139	12445
908.256	12350
908.372	12266
908.488	12285
908.604	12144
908.72	12106
908.836	12110
908.952	12148
909.068	12148
909.184	12190
909.3	12175
909.415	12140
909.531	12178
909.647	11874
909.762	11878
909.878	11870
909.993	11901
910.108	11897
910.224	11775
910.339	11961
910.454	11756
910.57	11775
910.685	11627
910.8	11935
910.915	11897
911.03	11771
911.145	11596
911.259	11615
911.374	11623
911.489	11547
911.604	11497
911.718	11318
911.833	11326
911.947	11231
912.062	11181
912.176	11311
912.291	11345
912.405	11235
912.519	11516
912.633	11539
912.748	11341
912.862	11349
912.976	11166
913.09	11105
913.204	11223
913.318	11231
913.431	11337
913.545	11326
913.659	11307
913.772	11239
913.886	11140
914	11037
914.113	11124
914.226	11201
914.34	11132
914.453	10953
914.566	11143
914.68	11003
914.793	10961
914.906	10843
915.019	10820
915.132	10801
915.245	10782
915.358	10736
915.47	10858
915.583	10774
915.696	10824
915.809	10976
915.921	10949
916.034	10759
916.146	10721
916.259	10763
916.371	10801
916.483	10797
916.595	10755
916.708	10759
916.82	10774
916.932	10736
917.044	10748
917.156	10668
917.268	10611
917.38	10611
917.491	10641
917.603	10630
917.715	10653
917.826	10729
917.938	10615
918.049	10459
918.161	10683
918.272	10748
918.384	10752
918.495	10664
918.606	10558
918.717	10409
918.828	10573
918.939	10592
919.05	10413
919.161	10538
919.272	10287
919.383	10398
919.494	10603
919.604	10755
919.715	10535
919.826	10386
919.936	10451
920.047	10531
920.157	10512
920.267	10767
920.378	10512
920.488	10569
920.598	10729
920.708	10900
920.818	10679
920.928	10752
921.038	10885
921.148	10721
921.258	10603
921.368	10432
921.477	10306
921.587	10402
921.697	10219
921.806	10432
921.916	10280
922.025	10055
922.134	10036
922.244	10051
922.353	10048
922.462	10055
922.571	9899
922.68	9740
922.789	9732
922.898	9819
923.007	9762
923.116	9831
923.224	9778
923.333	9633
923.442	9629
923.55	9534
923.659	9663
923.767	9709
923.876	9591
923.984	9652
924.092	9549
924.201	9591
924.309	9576
924.417	9618
924.525	9580
924.633	9534
924.741	10329
924.849	9424
924.956	9545
925.064	9431
925.172	9321
925.279	9389
925.387	9374
925.494	9420
925.602	9488
925.709	9507
925.816	9332
925.924	9473
926.031	9526
926.138	9431
926.245	9488
926.352	9313
926.459	9466
926.566	9500
926.673	9325
926.779	9226
926.886	9241
926.993	9146
927.099	9089
927.206	9116
927.312	8956
927.419	9169
927.525	9074
927.631	9161
927.737	8960
927.843	8994
927.95	8910
928.056	9013
928.162	8956
928.267	9066
928.373	9644
928.479	9119
928.585	8853
928.69	9070
928.796	9062
928.901	8853
929.007	8678
929.112	8933
929.218	8868
929.323	8857
929.428	8796
929.533	8906
929.638	8712
929.743	8853
929.848	8830
929.953	8739
930.058	8705
930.163	8590
930.267	8526
930.372	8720
930.477	8549
930.581	8750
930.685	8693
930.79	8396
930.894	8552
930.998	8488
931.103	8621
931.207	8320
931.311	8202
931.415	8149
931.519	7986
931.623	8016
