Data from test_V78500241_1694.txt Node
Date: Fri Mar 25 14:45:30 CST 2022
User: usil
Spectrometer: V785-0024
Trigger mode: 0
Integration Time (sec): 4.000000E-1
Scans to average: 1
Nonlinearity correction enabled: false
Boxcar width: 0
Storing dark spectrum: false
XAxis mode: Wavelengths
Number of Pixels in Spectrum: 1024
>>>>>Begin Spectral Data<<<<<
801.071	22306
801.214	22063
801.356	21861
801.499	21781
801.641	21656
801.783	21515
801.926	21511
802.068	21542
802.211	21587
802.353	21386
802.496	21298
802.638	21195
802.78	21199
802.923	21028
803.065	21009
803.208	21077
803.35	20982
803.492	21066
803.635	21036
803.777	21096
803.919	21001
804.061	21260
804.204	20963
804.346	20849
804.488	20861
804.63	20902
804.773	20861
804.915	20971
805.057	21013
805.199	20914
805.341	20910
805.483	20986
805.626	20971
805.768	20891
805.91	20963
806.052	20948
806.194	20788
806.336	20906
806.478	20902
806.62	20925
806.762	20899
806.904	21051
807.046	21256
807.188	21112
807.33	21252
807.472	21230
807.614	21116
807.756	21161
807.898	21074
808.04	21051
808.182	20963
808.324	20944
808.465	21119
808.607	21249
808.749	21294
808.891	21412
809.033	21454
809.174	21378
809.316	21306
809.458	21313
809.6	21233
809.741	21348
809.883	21428
810.025	21515
810.166	21439
810.308	21488
810.45	21344
810.591	21268
810.733	21283
810.875	21032
811.016	20937
811.158	20956
811.299	20998
811.441	21241
811.582	21176
811.724	21100
811.865	21108
812.007	21116
812.148	21017
812.29	21047
812.431	21180
812.573	21279
812.714	21397
812.855	21644
812.997	21587
813.138	21789
813.279	21591
813.421	21561
813.562	21534
813.703	21351
813.845	21176
813.986	21032
814.127	20708
814.268	20701
814.41	20655
814.551	20701
814.692	20743
814.833	20545
814.974	20583
815.115	20495
815.256	20454
815.397	20366
815.539	20431
815.68	20427
815.821	20206
815.962	20408
816.103	20256
816.244	20199
816.385	20138
816.526	20122
816.666	19902
816.807	19795
816.948	19795
817.089	19887
817.23	19913
817.371	19776
817.512	19704
817.653	19750
817.793	19643
817.934	19791
818.075	19723
818.216	19715
818.356	19689
818.497	19533
818.638	19438
818.778	19263
818.919	19449
819.06	19445
819.2	19457
819.341	19605
819.481	19616
819.622	19647
819.762	19849
819.903	19807
820.043	19875
820.184	19647
820.324	19742
820.465	19864
820.605	19757
820.746	19681
820.886	19594
821.026	19734
821.167	19658
821.307	19647
821.447	19620
821.588	19491
821.728	19381
821.868	19209
822.008	19084
822.149	19103
822.289	19091
822.429	18840
822.569	18802
822.709	18802
822.849	18620
822.99	18585
823.13	18483
823.27	18498
823.41	18319
823.55	18262
823.69	18376
823.83	18372
823.97	18369
824.11	18178
824.25	18144
824.389	18114
824.529	18277
824.669	18182
824.809	18258
824.949	18292
825.089	18235
825.228	18228
825.368	18060
825.508	18034
825.648	18068
825.787	18076
825.927	17977
826.067	17977
826.206	17904
826.346	17946
826.485	18003
826.625	17984
826.765	17992
826.904	17901
827.044	17733
827.183	17672
827.323	17573
827.462	17745
827.601	17619
827.741	17695
827.88	17756
828.02	17528
828.159	17638
828.298	17642
828.437	17687
828.577	17649
828.716	17737
828.855	17608
828.994	17452
829.134	17429
829.273	17463
829.412	17368
829.551	17204
829.69	17448
829.829	17417
829.968	17474
830.107	17383
830.246	17433
830.385	17379
830.524	17376
830.663	17189
830.802	17174
830.941	17060
831.08	16980
831.219	17166
831.357	17113
831.496	17181
831.635	17124
831.774	16953
831.913	16831
832.051	16839
832.19	16744
832.329	16790
832.467	16763
832.606	16641
832.744	16713
832.883	16748
833.022	16702
833.16	16767
833.299	16694
833.437	16706
833.576	16790
833.714	16706
833.852	16694
833.991	16816
834.129	16763
834.267	16774
834.406	16790
834.544	16828
834.682	16774
834.821	16649
834.959	16911
835.097	16755
835.235	16873
835.373	16774
835.511	16698
835.65	16645
835.788	16748
835.926	16500
836.064	16451
836.202	16516
836.34	16691
836.478	16812
836.615	16740
836.753	16752
836.891	16786
837.029	16672
837.167	16618
837.305	16554
837.443	16596
837.58	16516
837.718	16577
837.856	16622
837.993	16535
838.131	16512
838.269	16424
838.406	16474
838.544	16451
838.681	16238
838.819	16192
838.956	16025
839.094	16051
839.231	16105
839.369	16234
839.506	16519
839.643	16314
839.781	16128
839.918	16063
840.055	16101
840.193	16158
840.33	16082
840.467	16059
840.604	16101
840.742	16329
840.879	15926
841.016	15998
841.153	16048
841.29	16154
841.427	16131
841.564	16143
841.701	16112
841.838	16067
841.975	15991
842.112	15979
842.249	15797
842.385	15880
842.522	15945
842.659	15808
842.796	15739
842.933	15816
843.069	15778
843.206	15804
843.343	15884
843.479	15793
843.616	15937
843.752	15618
843.889	15568
844.025	15804
844.162	15591
844.298	15732
844.435	15656
844.571	15572
844.708	15675
844.844	15789
844.98	15785
845.117	15797
845.253	15591
845.389	15591
845.525	15580
845.661	15587
845.798	15519
845.934	15561
846.07	15412
846.206	15557
846.342	15591
846.478	15488
846.614	15252
846.75	15211
846.886	15230
847.022	15313
847.158	15275
847.294	15146
847.429	15165
847.565	15097
847.701	15393
847.837	14963
847.972	14933
848.108	14998
848.244	15013
848.379	14826
848.515	14754
848.65	14686
848.786	14811
848.921	14883
849.057	14975
849.192	14853
849.328	14845
849.463	14823
849.598	14754
849.734	14697
849.869	14625
850.004	14617
850.14	14636
850.275	14484
850.41	14507
850.545	14552
850.68	14518
850.815	14621
850.95	14511
851.085	14826
851.22	14708
851.355	14590
851.49	14651
851.625	14571
851.76	14495
851.895	14431
852.03	14480
852.165	14507
852.299	14610
852.434	14743
852.569	14625
852.703	14613
852.838	14648
852.973	14708
853.107	14724
853.242	14549
853.376	14385
853.511	14259
853.645	14465
853.78	14495
853.914	14492
854.048	14541
854.183	14423
854.317	14461
854.451	14526
854.585	14400
854.72	14374
854.854	14507
854.988	14461
855.122	14381
855.256	14252
855.39	14419
855.524	14541
855.658	14511
855.792	14549
855.926	14358
856.06	14533
856.194	14427
856.327	14412
856.461	14324
856.595	14320
856.729	14381
856.862	14541
856.996	14465
857.13	14492
857.263	14568
857.397	14476
857.53	14473
857.664	14465
857.797	14514
857.931	14575
858.064	14461
858.197	14545
858.331	14492
858.464	14408
858.597	14370
858.731	14492
858.864	14461
858.997	14351
859.13	14511
859.263	14473
859.396	14571
859.529	14415
859.662	14347
859.795	14412
859.928	14503
860.061	14655
860.194	14545
860.327	14484
860.46	14339
860.592	14629
860.725	14617
860.858	14537
860.99	14446
861.123	14339
861.256	14324
861.388	14393
861.521	14994
861.653	14351
861.786	14214
861.918	14282
862.05	14298
862.183	14427
862.315	14431
862.447	14503
862.58	14286
862.712	14191
862.844	14111
862.976	14248
863.108	14176
863.24	14648
863.372	14172
863.504	14233
863.636	14168
863.768	14244
863.9	14252
864.032	14183
864.164	14172
864.296	14248
864.428	14313
864.559	14339
864.691	14355
864.823	14214
864.954	14191
865.086	14244
865.217	14214
865.349	14123
865.48	14191
865.612	14199
865.743	14377
865.875	14202
866.006	14221
866.137	14256
866.269	14183
866.4	14164
866.531	14138
866.662	14092
866.793	14202
866.924	14256
867.055	14218
867.186	14210
867.317	14126
867.448	14069
867.579	14035
867.71	14054
867.841	14035
867.972	14176
868.103	14138
868.233	14199
868.364	14176
868.495	14328
868.625	14419
868.756	14503
868.886	14412
869.017	14514
869.147	14587
869.278	14541
869.408	14438
869.539	14412
869.669	14427
869.799	14408
869.929	14537
870.06	14511
870.19	14701
870.32	14712
870.45	14807
870.58	14765
870.71	14960
870.84	14952
870.97	14777
871.1	14868
871.23	14990
871.36	15070
871.489	14925
871.619	15062
871.749	14918
871.879	15062
872.008	15074
872.138	15051
872.267	15032
872.397	14963
872.526	14823
872.656	14815
872.785	14807
872.915	15066
873.044	15104
873.173	15077
873.303	15104
873.432	15055
873.561	15131
873.69	15017
873.819	15009
873.948	15180
874.077	15154
874.206	15192
874.335	15142
874.464	15260
874.593	15389
874.722	15363
874.851	15405
874.979	15405
875.108	15439
875.237	15321
875.365	15344
875.494	15374
875.623	15462
875.751	15340
875.88	15511
876.008	15606
876.136	15603
876.265	15778
876.393	16048
876.521	15918
876.65	15854
876.778	15918
876.906	15793
877.034	15698
877.162	15759
877.29	15785
877.418	15842
877.546	15850
877.674	15842
877.802	15736
877.93	15835
878.058	15709
878.185	15622
878.313	15785
878.441	15789
878.568	15656
878.696	15755
878.824	15819
878.951	15937
879.079	16006
879.206	16185
879.333	15895
879.461	15873
879.588	15903
879.715	15960
879.842	16051
879.97	15892
880.097	15682
880.224	15705
880.351	15720
880.478	15739
880.605	15713
880.732	15637
880.859	15808
880.986	15629
881.112	15606
881.239	15492
881.366	15458
881.493	15363
881.619	15351
881.746	15348
881.872	15310
881.999	15252
882.125	15233
882.252	15287
882.378	15393
882.505	15367
882.631	15249
882.757	15150
882.883	15203
883.01	15192
883.136	15097
883.262	14956
883.388	14967
883.514	15165
883.64	15199
883.766	15104
883.892	14902
884.018	14910
884.143	15173
884.269	15214
884.395	14883
884.52	14765
884.646	14819
884.772	14842
884.897	14807
885.023	14864
885.148	15074
885.274	15024
885.399	14933
885.524	14758
885.65	14796
885.775	14861
885.9	14842
886.025	15028
886.15	14823
886.275	14834
886.4	14659
886.525	14788
886.65	14769
886.775	14785
886.9	14952
887.025	15051
887.149	14895
887.274	14674
887.399	14629
887.523	14651
887.648	14613
887.773	14526
887.897	14727
888.021	14693
888.146	14655
888.27	14773
888.395	14804
888.519	14682
888.643	14636
888.767	14750
888.891	14689
889.015	14507
889.139	14575
889.263	14465
889.387	14667
889.511	14773
889.635	14632
889.759	14492
889.883	14434
890.006	14518
890.13	14629
890.254	14465
890.377	14450
890.501	14423
890.624	14305
890.748	14431
890.871	14263
890.995	14115
891.118	14195
891.241	14172
891.364	14130
891.488	14343
891.611	14332
891.734	14191
891.857	14278
891.98	14305
892.103	14355
892.226	14248
892.349	14145
892.471	14123
892.594	14214
892.717	14221
892.839	14210
892.962	14206
893.085	14256
893.207	14172
893.33	14103
893.452	14107
893.575	14180
893.697	14210
893.819	14366
893.941	14347
894.064	14385
894.186	14218
894.308	14191
894.43	14362
894.552	14457
894.674	14374
894.796	14119
894.918	14282
895.04	14214
895.161	14324
895.283	14248
895.405	14267
895.526	14252
895.648	14294
895.769	14419
895.891	14355
896.012	14355
896.134	14442
896.255	14362
896.376	14271
896.498	14454
896.619	14385
896.74	14396
896.861	14461
896.982	14724
897.103	14796
897.224	14727
897.345	14602
897.466	14610
897.587	14636
897.708	14887
897.828	14651
897.949	14686
898.07	14488
898.19	14590
898.311	14708
898.431	14651
898.552	14739
898.672	14796
898.792	14773
898.913	14701
899.033	14686
899.153	14598
899.273	14514
899.393	14602
899.513	14594
899.633	14560
899.753	14556
899.873	14552
899.993	14644
900.113	14522
900.232	14762
900.352	14640
900.472	14499
900.591	14461
900.711	14545
900.83	14301
900.95	14545
901.069	14667
901.189	14290
901.308	14157
901.427	14001
901.546	14172
901.665	14187
901.784	14157
901.904	13951
902.023	13871
902.141	13791
902.26	13624
902.379	13845
902.498	13636
902.617	13609
902.735	13639
902.854	13670
902.973	13647
903.091	13457
903.21	13289
903.328	13369
903.446	13365
903.565	13171
903.683	13228
903.801	13190
903.919	13320
904.038	13278
904.156	13110
904.274	13118
904.392	13004
904.51	13053
904.627	13133
904.745	13103
904.863	13137
904.981	12951
905.098	12757
905.216	12764
905.334	12745
905.451	12806
905.569	12825
905.686	12817
905.803	12783
905.921	12547
906.038	12719
906.155	12650
906.272	12460
906.389	12452
906.506	12330
906.623	12372
906.74	12300
906.857	12289
906.974	12285
907.091	12361
907.208	12502
907.324	12388
907.441	12258
907.557	12087
907.674	12136
907.79	11992
907.907	12034
908.023	12190
908.139	12133
908.256	12098
908.372	11984
908.488	11954
908.604	11870
908.72	11805
908.836	11840
908.952	11760
909.068	11859
909.184	11939
909.3	11817
909.415	11912
909.531	11809
909.647	11665
909.762	11649
909.878	11619
909.993	11676
910.108	11585
910.224	11581
910.339	11657
910.454	11543
910.57	11551
910.685	11448
910.8	11672
910.915	11691
911.03	11505
911.145	11410
911.259	11341
911.374	11311
911.489	11315
911.604	11231
911.718	11056
911.833	11029
911.947	10991
912.062	10862
912.176	11037
912.291	11056
912.405	11075
912.519	11284
912.633	11212
912.748	11181
912.862	11048
912.976	10927
913.09	10820
913.204	10877
913.318	10946
913.431	11102
913.545	11010
913.659	11048
913.772	10858
913.886	10839
914	10767
914.113	10915
914.226	10938
914.34	10892
914.453	10714
914.566	10938
914.68	10748
914.793	10714
914.906	10573
915.019	10500
915.132	10485
915.245	10531
915.358	10664
915.47	10546
915.583	10630
915.696	10694
915.809	10717
915.921	10706
916.034	10569
916.146	10561
916.259	10516
916.371	10588
916.483	10535
916.595	10569
916.708	10497
916.82	10527
916.932	10485
917.044	10462
917.156	10459
917.268	10325
917.38	10459
917.491	10333
917.603	10440
917.715	10527
917.826	10508
917.938	10451
918.049	10402
918.161	10379
918.272	10596
918.384	10497
918.495	10478
918.606	10242
918.717	10211
918.828	10322
918.939	10390
919.05	10143
919.161	10284
919.272	10025
919.383	10185
919.494	10390
919.604	10592
919.715	10314
919.826	10253
919.936	10325
920.047	10352
920.157	10402
920.267	10523
920.378	10405
920.488	10322
920.598	10500
920.708	10691
920.818	10512
920.928	10489
921.038	10698
921.148	10725
921.258	10470
921.368	10409
921.477	10120
921.587	10139
921.697	9968
921.806	10227
921.916	10048
922.025	9922
922.134	9888
922.244	9755
922.353	9873
922.462	9808
922.571	9751
922.68	9610
922.789	9557
922.898	9599
923.007	9545
923.116	9610
923.224	9564
923.333	9682
923.442	9542
923.55	9389
923.659	9511
923.767	9504
923.876	9420
923.984	9526
924.092	9363
924.201	9488
924.309	9485
924.417	9534
924.525	9298
924.633	9386
924.741	10329
924.849	9165
924.956	9447
925.064	9249
925.172	9142
925.279	9233
925.387	9260
925.494	9211
925.602	9298
925.709	9321
925.816	9203
925.924	9207
926.031	9344
926.138	9275
926.245	9310
926.352	9180
926.459	9245
926.566	9340
926.673	9176
926.779	9020
926.886	9070
926.993	9039
927.099	8937
927.206	8918
927.312	8960
927.419	8982
927.525	8937
927.631	9001
927.737	8845
927.843	8880
927.95	8682
928.056	8849
928.162	8857
928.267	8800
928.373	9428
928.479	8948
928.585	8644
928.69	8899
928.796	8826
928.901	8766
929.007	8613
929.112	8750
929.218	8727
929.323	8701
929.428	8617
929.533	8815
929.638	8606
929.743	8648
929.848	8712
929.953	8659
930.058	8587
930.163	8461
930.267	8473
930.372	8560
930.477	8385
930.581	8613
930.685	8579
930.79	8412
930.894	8427
930.998	8355
931.103	8495
931.207	8142
931.311	8100
931.415	8092
931.519	7894
931.623	7936
