Data from test_V78500241_503.txt Node
Date: Fri Mar 25 14:37:13 CST 2022
User: usil
Spectrometer: V785-0024
Trigger mode: 0
Integration Time (sec): 4.000000E-1
Scans to average: 1
Nonlinearity correction enabled: false
Boxcar width: 0
Storing dark spectrum: false
XAxis mode: Wavelengths
Number of Pixels in Spectrum: 1024
>>>>>Begin Spectral Data<<<<<
801.071	26823
801.214	26781
801.356	26473
801.499	26499
801.641	26263
801.783	26107
801.926	26278
802.068	26187
802.211	26149
802.353	26005
802.496	25784
802.638	25803
802.78	25830
802.923	25738
803.065	25719
803.208	25715
803.35	25597
803.492	25776
803.635	25860
803.777	25750
803.919	25978
804.061	26130
804.204	25982
804.346	25540
804.488	25643
804.63	25674
804.773	25685
804.915	25727
805.057	25852
805.199	25708
805.341	25738
805.483	25822
805.626	25852
805.768	25677
805.91	25776
806.052	25841
806.194	25601
806.336	25875
806.478	25890
806.62	25807
806.762	25993
806.904	26077
807.046	26256
807.188	26358
807.33	26408
807.472	26351
807.614	26415
807.756	26328
807.898	26374
808.04	26339
808.182	26499
808.324	26594
808.465	26826
808.607	27321
808.749	27447
808.891	27785
809.033	27861
809.174	27545
809.316	27382
809.458	27013
809.6	26861
809.741	26849
809.883	26769
810.025	26701
810.166	26594
810.308	26522
810.45	26480
810.591	26385
810.733	26187
810.875	26145
811.016	26122
811.158	26081
811.299	26130
811.441	26275
811.582	26180
811.724	26195
811.865	26039
812.007	26024
812.148	26027
812.29	26024
812.431	26252
812.573	26298
812.714	26389
812.855	26564
812.997	26415
813.138	26750
813.279	26678
813.421	26625
813.562	26442
813.703	26298
813.845	26271
813.986	25875
814.127	25734
814.268	25533
814.41	25571
814.551	25521
814.692	25624
814.833	25453
814.974	25571
815.115	25514
815.256	25415
815.397	25331
815.539	25464
815.68	25377
815.821	25209
815.962	25278
816.103	25209
816.244	25091
816.385	24996
816.526	25031
816.666	24848
816.807	24741
816.948	24833
817.089	24848
817.23	24772
817.371	24612
817.512	24677
817.653	24570
817.793	24559
817.934	24627
818.075	24612
818.216	24616
818.356	24536
818.497	24483
818.638	24365
818.778	24270
818.919	24311
819.06	24369
819.2	24361
819.341	24612
819.481	24403
819.622	24722
819.762	24932
819.903	24772
820.043	24768
820.184	24673
820.324	24734
820.465	24703
820.605	24574
820.746	24574
820.886	24407
821.026	24661
821.167	24490
821.307	24597
821.447	24547
821.588	24391
821.728	24121
821.868	24136
822.008	23954
822.149	23931
822.289	23828
822.429	23729
822.569	23592
822.709	23634
822.849	23307
822.99	23364
823.13	23372
823.27	23334
823.41	23216
823.55	23056
823.69	23166
823.83	23155
823.97	22976
824.11	22809
824.25	23018
824.389	22911
824.529	23064
824.669	22915
824.809	23010
824.949	22957
825.089	23044
825.228	23079
825.368	22782
825.508	22782
825.648	22850
825.787	22740
825.927	22850
826.067	22744
826.206	22691
826.346	22694
826.485	22664
826.625	22774
826.765	22774
826.904	22831
827.044	22672
827.183	22557
827.323	22493
827.462	22481
827.601	22421
827.741	22257
827.88	22459
828.02	22402
828.159	22352
828.298	22478
828.437	22413
828.577	22291
828.716	22455
828.855	22265
828.994	22131
829.134	22074
829.273	22185
829.412	22078
829.551	21987
829.69	22116
829.829	22147
829.968	22223
830.107	22093
830.246	22059
830.385	22010
830.524	21918
830.663	21960
830.802	21797
830.941	21663
831.08	21732
831.219	21648
831.357	21724
831.496	21918
831.635	21690
831.774	21572
831.913	21599
832.051	21492
832.19	21534
832.329	21542
832.467	21397
832.606	21382
832.744	21313
832.883	21416
833.022	21431
833.16	21382
833.299	21466
833.437	21401
833.576	21485
833.714	21306
833.852	21378
833.991	21496
834.129	21405
834.267	21545
834.406	21382
834.544	21378
834.682	21428
834.821	21462
834.959	21504
835.097	21256
835.235	21363
835.373	21431
835.511	21321
835.65	21180
835.788	21131
835.926	21051
836.064	20986
836.202	20994
836.34	21108
836.478	21256
836.615	21188
836.753	21203
836.891	21184
837.029	21226
837.167	21108
837.305	21211
837.443	21062
837.58	21009
837.718	21104
837.856	21036
837.993	20876
838.131	21043
838.269	20929
838.406	20876
838.544	20910
838.681	20712
838.819	20708
838.956	20412
839.094	20480
839.231	20434
839.369	20598
839.506	20796
839.643	20724
839.781	20469
839.918	20355
840.055	20362
840.193	20347
840.33	20381
840.467	20343
840.604	20366
840.742	20724
840.879	20233
841.016	20221
841.153	20225
841.29	20507
841.427	20351
841.564	20400
841.701	20366
841.838	20248
841.975	20244
842.112	20218
842.249	20100
842.385	20149
842.522	20328
842.659	20081
842.796	20016
842.933	20058
843.069	20031
843.206	20065
843.343	20183
843.479	20088
843.616	20084
843.752	19837
843.889	19940
844.025	20046
844.162	19837
844.298	19852
844.435	19959
844.571	19894
844.708	19845
844.844	19978
844.98	19917
845.117	20119
845.253	20001
845.389	20069
845.525	20183
845.661	20514
845.798	20842
845.934	21260
846.07	21435
846.206	21428
846.342	21165
846.478	20629
846.614	20130
846.75	19788
846.886	19601
847.022	19563
847.158	19392
847.294	19434
847.429	19419
847.565	19285
847.701	19514
847.837	19076
847.972	19133
848.108	19129
848.244	19114
848.379	18977
848.515	18867
848.65	18909
848.786	18871
848.921	18951
849.057	18962
849.192	18901
849.328	18829
849.463	18825
849.598	18844
849.734	18696
849.869	18730
850.004	18658
850.14	18661
850.275	18692
850.41	18593
850.545	18536
850.68	18601
850.815	18631
850.95	18620
851.085	18798
851.22	18604
851.355	18578
851.49	18604
851.625	18566
851.76	18540
851.895	18486
852.03	18521
852.165	18509
852.299	18563
852.434	18623
852.569	18582
852.703	18585
852.838	18555
852.973	18738
853.107	18715
853.242	18544
853.376	18433
853.511	18433
853.645	18517
853.78	18589
853.914	18445
854.048	18376
854.183	18445
854.317	18456
854.451	18578
854.585	18414
854.72	18433
854.854	18452
854.988	18342
855.122	18456
855.256	18273
855.39	18429
855.524	18467
855.658	18525
855.792	18410
855.926	18521
856.06	18563
856.194	18506
856.327	18433
856.461	18346
856.595	18399
856.729	18296
856.862	18513
856.996	18338
857.13	18521
857.263	18486
857.397	18574
857.53	18528
857.664	18410
857.797	18536
857.931	18502
858.064	18467
858.197	18448
858.331	18380
858.464	18300
858.597	18232
858.731	18361
858.864	18235
858.997	18281
859.13	18407
859.263	18319
859.396	18456
859.529	18365
859.662	18399
859.795	18224
859.928	18304
860.061	18521
860.194	18452
860.327	18338
860.46	18289
860.592	18433
860.725	18410
860.858	18437
860.99	18391
861.123	18247
861.256	18220
861.388	18273
861.521	19175
861.653	18262
861.786	18095
861.918	18232
862.05	18220
862.183	18327
862.315	18433
862.447	18498
862.58	18376
862.712	18076
862.844	18060
862.976	18213
863.108	18114
863.24	18555
863.372	18003
863.504	17942
863.636	17961
863.768	18159
863.9	18072
864.032	18038
864.164	18034
864.296	18022
864.428	18174
864.559	18019
864.691	18144
864.823	17935
864.954	18076
865.086	18117
865.217	17996
865.349	18034
865.48	17916
865.612	18003
865.743	18216
865.875	17977
866.006	18003
866.137	18068
866.269	17988
866.4	17969
866.531	17859
866.662	17942
866.793	17889
866.924	17893
867.055	18045
867.186	17859
867.317	17885
867.448	17889
867.579	17923
867.71	17859
867.841	17965
867.972	17969
868.103	18026
868.233	17946
868.364	17980
868.495	18098
868.625	18205
868.756	18213
868.886	18079
869.017	18152
869.147	18174
869.278	18300
869.408	18178
869.539	18224
869.669	18216
869.799	18228
869.929	18270
870.06	18289
870.19	18483
870.32	18391
870.45	18551
870.58	18601
870.71	18715
870.84	18692
870.97	18494
871.1	18589
871.23	18684
871.36	18757
871.489	18677
871.619	18776
871.749	18696
871.879	18760
872.008	18947
872.138	18760
872.267	18806
872.397	18601
872.526	18540
872.656	18681
872.785	18684
872.915	18821
873.044	18867
873.173	18707
873.303	18856
873.432	18741
873.561	18886
873.69	18745
873.819	18806
873.948	18985
874.077	18848
874.206	18768
874.335	18821
874.464	18920
874.593	19164
874.722	18928
874.851	19118
874.979	19202
875.108	19209
875.237	19000
875.365	18996
875.494	19126
875.623	19156
875.751	19137
875.88	19148
876.008	19236
876.136	19388
876.265	19632
876.393	19807
876.521	19590
876.65	19521
876.778	19575
876.906	19521
877.034	19556
877.162	19495
877.29	19514
877.418	19575
877.546	19632
877.674	19495
877.802	19548
877.93	19613
878.058	19624
878.185	19495
878.313	19677
878.441	19563
878.568	19464
878.696	19609
878.824	19746
878.951	19830
879.079	20187
879.206	20240
879.333	20332
879.461	20484
879.588	20526
879.715	20575
879.842	20514
879.97	20240
880.097	19978
880.224	19826
880.351	19746
880.478	19632
880.605	19559
880.732	19700
880.859	19723
880.986	19578
881.112	19613
881.239	19426
881.366	19301
881.493	19270
881.619	19198
881.746	19175
881.872	19217
881.999	19198
882.125	19232
882.252	19297
882.378	19179
882.505	19175
882.631	19206
882.757	18985
882.883	19122
883.01	19042
883.136	18837
883.262	18776
883.388	18760
883.514	19057
883.64	19053
883.766	18901
883.892	18760
884.018	18814
884.143	18985
884.269	19019
884.395	18760
884.52	18616
884.646	18585
884.772	18570
884.897	18467
885.023	18623
885.148	18703
885.274	18669
885.399	18703
885.524	18654
885.65	18601
885.775	18620
885.9	18525
886.025	18707
886.15	18585
886.275	18418
886.4	18445
886.525	18410
886.65	18471
886.775	18475
886.9	18688
887.025	18749
887.149	18532
887.274	18380
887.399	18273
887.523	18281
887.648	18171
887.773	18194
887.897	18338
888.021	18296
888.146	18144
888.27	18308
888.395	18155
888.519	18232
888.643	18239
888.767	18304
888.891	18235
889.015	18121
889.139	18110
889.263	18053
889.387	18186
889.511	18201
889.635	18251
889.759	18152
889.883	18011
890.006	17992
890.13	18121
890.254	17901
890.377	17916
890.501	17756
890.624	17767
890.748	17939
890.871	17756
890.995	17733
891.118	17630
891.241	17623
891.364	17722
891.488	17733
891.611	17665
891.734	17699
891.857	17619
891.98	17707
892.103	17718
892.226	17646
892.349	17642
892.471	17353
892.594	17539
892.717	17619
892.839	17505
892.962	17615
893.085	17585
893.207	17520
893.33	17493
893.452	17497
893.575	17577
893.697	17589
893.819	17684
893.941	17741
894.064	17646
894.186	17547
894.308	17543
894.43	17604
894.552	17722
894.674	17551
894.796	17520
894.918	17589
895.04	17463
895.161	17634
895.283	17703
895.405	17497
895.526	17570
895.648	17501
895.769	17695
895.891	17611
896.012	17794
896.134	17577
896.255	17581
896.376	17623
896.498	17680
896.619	17737
896.74	17649
896.861	17752
896.982	18022
897.103	18076
897.224	18030
897.345	17996
897.466	17885
897.587	17893
897.708	18041
897.828	17923
897.949	17851
898.07	17707
898.19	17843
898.311	17965
898.431	17897
898.552	17878
898.672	17946
898.792	17984
898.913	17870
899.033	17851
899.153	17684
899.273	17562
899.393	17707
899.513	17638
899.633	17589
899.753	17707
899.873	17619
899.993	17638
900.113	17566
900.232	17630
900.352	17695
900.472	17520
900.591	17455
900.711	17459
900.83	17520
900.95	17615
901.069	17615
901.189	17379
901.308	17311
901.427	17200
901.546	17075
901.665	17193
901.784	17094
901.904	16961
902.023	16908
902.141	16653
902.26	16622
902.379	16786
902.498	16615
902.617	16592
902.735	16645
902.854	16523
902.973	16535
903.091	16306
903.21	16379
903.328	16348
903.446	16310
903.565	16196
903.683	16029
903.801	16090
903.919	16086
904.038	16101
904.156	15903
904.274	16002
904.392	15922
904.51	15876
904.627	15930
904.745	15968
904.863	15842
904.981	15599
905.098	15496
905.216	15549
905.334	15576
905.451	15538
905.569	15580
905.686	15595
905.803	15469
905.921	15386
906.038	15469
906.155	15260
906.272	15374
906.389	15230
906.506	15116
906.623	15180
906.74	15112
906.857	15001
906.974	15051
907.091	15188
907.208	15211
907.324	15077
907.441	15062
907.557	14785
907.674	14899
907.79	14765
907.907	14735
908.023	14872
908.139	14754
908.256	14762
908.372	14689
908.488	14617
908.604	14503
908.72	14495
908.836	14530
908.952	14537
909.068	14560
909.184	14507
909.3	14476
909.415	14606
909.531	14442
909.647	14252
909.762	14263
909.878	14183
909.993	14202
910.108	14248
910.224	14183
910.339	14248
910.454	14069
910.57	14130
910.685	13928
910.8	14206
910.915	14164
911.03	13944
911.145	13879
911.259	13811
911.374	13799
911.489	13765
911.604	13734
911.718	13559
911.833	13613
911.947	13499
912.062	13426
912.176	13666
912.291	13658
912.405	13525
912.519	13826
912.633	13719
912.748	13605
912.862	13506
912.976	13445
913.09	13316
913.204	13445
913.318	13377
913.431	13529
913.545	13472
913.659	13548
913.772	13358
913.886	13251
914	13190
914.113	13331
914.226	13441
914.34	13384
914.453	13171
914.566	13285
914.68	13171
914.793	13164
914.906	12958
915.019	12939
915.132	12932
915.245	13019
915.358	12954
915.47	12920
915.583	13034
915.696	12985
915.809	13099
915.921	13065
916.034	12890
916.146	12897
916.259	12844
916.371	12939
916.483	12916
916.595	12928
916.708	12749
916.82	12840
916.932	12745
917.044	12840
917.156	12760
917.268	12703
917.38	12696
917.491	12688
917.603	12684
917.715	12730
917.826	12764
917.938	12593
918.049	12494
918.161	12715
918.272	12798
918.384	12776
918.495	12585
918.606	12585
918.717	12407
918.828	12536
918.939	12460
919.05	12418
919.161	12498
919.272	12277
919.383	12285
919.494	12509
919.604	12749
919.715	12437
919.826	12369
919.936	12414
920.047	12540
920.157	12460
920.267	12650
920.378	12490
920.488	12506
920.598	12627
920.708	12662
920.818	12612
920.928	12582
921.038	12810
921.148	12772
921.258	12464
921.368	12308
921.477	12213
921.587	12197
921.697	12129
921.806	12194
921.916	12121
922.025	11946
922.134	11942
922.244	11878
922.353	11889
922.462	11802
922.571	11707
922.68	11642
922.789	11433
922.898	11539
923.007	11505
923.116	11440
923.224	11528
923.333	11539
923.442	11444
923.55	11364
923.659	11474
923.767	11433
923.876	11360
923.984	11349
924.092	11311
924.201	11292
924.309	11326
924.417	11356
924.525	11307
924.633	11368
924.741	12254
924.849	11124
924.956	11288
925.064	11166
925.172	10972
925.279	10942
925.387	11056
925.494	11083
925.602	11162
925.709	11193
925.816	11010
925.924	11067
926.031	11159
926.138	11064
926.245	11048
926.352	10923
926.459	11109
926.566	11147
926.673	10953
926.779	10873
926.886	10892
926.993	10793
927.099	10755
927.206	10634
927.312	10668
927.419	10824
927.525	10698
927.631	10725
927.737	10660
927.843	10569
927.95	10485
928.056	10634
928.162	10523
928.267	10656
928.373	11254
928.479	10580
928.585	10417
928.69	10618
928.796	10542
928.901	10455
929.007	10348
929.112	10546
929.218	10405
929.323	10360
929.428	10276
929.533	10504
929.638	10192
929.743	10424
929.848	10337
929.953	10242
930.058	10238
930.163	10116
930.267	10036
930.372	10181
930.477	10048
930.581	10204
930.685	10128
930.79	9895
930.894	9975
930.998	9953
931.103	10074
931.207	9732
931.311	9618
931.415	9660
931.519	9458
931.623	9344
