Data from test_V78500241_192.txt Node
Date: Fri Mar 25 14:35:03 CST 2022
User: usil
Spectrometer: V785-0024
Trigger mode: 0
Integration Time (sec): 4.000000E-1
Scans to average: 1
Nonlinearity correction enabled: false
Boxcar width: 0
Storing dark spectrum: false
XAxis mode: Wavelengths
Number of Pixels in Spectrum: 1024
>>>>>Begin Spectral Data<<<<<
801.071	28230
801.214	28185
801.356	28021
801.499	27937
801.641	27785
801.783	27823
801.926	27739
802.068	27713
802.211	27534
802.353	27534
802.496	27370
802.638	27340
802.78	27302
802.923	27199
803.065	27142
803.208	27249
803.35	27359
803.492	27389
803.635	27458
803.777	27367
803.919	27397
804.061	27618
804.204	27485
804.346	27226
804.488	27226
804.63	27241
804.773	27226
804.915	27264
805.057	27340
805.199	27260
805.341	27477
805.483	27431
805.626	27298
805.768	27222
805.91	27382
806.052	27325
806.194	27302
806.336	27641
806.478	27344
806.62	27443
806.762	27405
806.904	27705
807.046	27892
807.188	27656
807.33	27751
807.472	27892
807.614	27953
807.756	27850
807.898	27629
808.04	27994
808.182	27968
808.324	28070
808.465	28158
808.607	28584
808.749	28854
808.891	28847
809.033	29132
809.174	28866
809.316	28694
809.458	28607
809.6	28280
809.741	28447
809.883	28261
810.025	28310
810.166	28154
810.308	28192
810.45	28234
810.591	28070
810.733	27983
810.875	27861
811.016	27656
811.158	27671
811.299	27648
811.441	27846
811.582	27785
811.724	27686
811.865	27728
812.007	27618
812.148	27846
812.29	27614
812.431	27930
812.573	28116
812.714	28048
812.855	28192
812.997	28147
813.138	28375
813.279	28173
813.421	28211
813.562	28147
813.703	27930
813.845	27717
813.986	27439
814.127	27507
814.268	27294
814.41	27180
814.551	27287
814.692	27291
814.833	27024
814.974	27108
815.115	27161
815.256	27112
815.397	27135
815.539	26990
815.68	27009
815.821	26781
815.962	27089
816.103	27020
816.244	26762
816.385	26613
816.526	26617
816.666	26465
816.807	26404
816.948	26320
817.089	26400
817.23	26473
817.371	26400
817.512	26271
817.653	26298
817.793	26385
817.934	26225
818.075	26381
818.216	26370
818.356	26374
818.497	26161
818.638	26043
818.778	26046
818.919	25966
819.06	26058
819.2	26107
819.341	26214
819.481	26301
819.622	26339
819.762	26488
819.903	26537
820.043	26358
820.184	26438
820.324	26210
820.465	26309
820.605	26252
820.746	26210
820.886	25925
821.026	26161
821.167	26221
821.307	26259
821.447	26244
821.588	26107
821.728	26024
821.868	25772
822.008	25571
822.149	25715
822.289	25559
822.429	25411
822.569	25339
822.709	25422
822.849	25164
822.99	25050
823.13	24962
823.27	25038
823.41	24951
823.55	24848
823.69	24985
823.83	24913
823.97	24852
824.11	24673
824.25	24642
824.389	24806
824.529	24745
824.669	24711
824.809	24760
824.949	24642
825.089	24715
825.228	24604
825.368	24452
825.508	24460
825.648	24555
825.787	24433
825.927	24547
826.067	24399
826.206	24528
826.346	24445
826.485	24479
826.625	24410
826.765	24616
826.904	24593
827.044	24228
827.183	24201
827.323	23958
827.462	24045
827.601	24064
827.741	24155
827.88	24121
828.02	23977
828.159	24060
828.298	24018
828.437	24155
828.577	24030
828.716	24106
828.855	23999
828.994	23737
829.134	23760
829.273	23824
829.412	23752
829.551	23657
829.69	23760
829.829	23813
829.968	23745
830.107	23802
830.246	23756
830.385	23649
830.524	23562
830.663	23490
830.802	23429
830.941	23341
831.08	23326
831.219	23341
831.357	23512
831.496	23531
831.635	23273
831.774	23151
831.913	23273
832.051	23109
832.19	22995
832.329	23105
832.467	22995
832.606	22953
832.744	23056
832.883	22904
833.022	22991
833.16	22896
833.299	23159
833.437	22987
833.576	23083
833.714	23067
833.852	23083
833.991	23124
834.129	23166
834.267	23052
834.406	23128
834.544	23113
834.682	22957
834.821	22980
834.959	23086
835.097	22850
835.235	23029
835.373	23124
835.511	22938
835.65	22786
835.788	22873
835.926	22805
836.064	22641
836.202	22664
836.34	22847
836.478	22904
836.615	22805
836.753	22778
836.891	22850
837.029	22904
837.167	22801
837.305	22561
837.443	22721
837.58	22679
837.718	22573
837.856	22626
837.993	22561
838.131	22645
838.269	22535
838.406	22573
838.544	22352
838.681	22268
838.819	22284
838.956	22086
839.094	22093
839.231	22139
839.369	22200
839.506	22474
839.643	22306
839.781	21994
839.918	22017
840.055	22078
840.193	22082
840.33	21823
840.467	21975
840.604	22006
840.742	22139
840.879	21759
841.016	21778
841.153	21842
841.29	22025
841.427	21888
841.564	22067
841.701	22036
841.838	21972
841.975	21854
842.112	21770
842.249	21762
842.385	21606
842.522	21819
842.659	21686
842.796	21709
842.933	21736
843.069	21515
843.206	21496
843.343	21728
843.479	21644
843.616	21789
843.752	21469
843.889	21359
844.025	21496
844.162	21378
844.298	21561
844.435	21408
844.571	21367
844.708	21477
844.844	21564
844.98	21595
845.117	21644
845.253	21485
845.389	21386
845.525	21724
845.661	21953
845.798	22036
845.934	22462
846.07	22645
846.206	22455
846.342	22424
846.478	21827
846.614	21428
846.75	21226
846.886	21005
847.022	20902
847.158	20914
847.294	20914
847.429	20899
847.565	20781
847.701	21062
847.837	20609
847.972	20545
848.108	20682
848.244	20583
848.379	20469
848.515	20415
848.65	20393
848.786	20358
848.921	20317
849.057	20579
849.192	20476
849.328	20355
849.463	20263
849.598	20286
849.734	20252
849.869	20259
850.004	20142
850.14	20237
850.275	20259
850.41	20107
850.545	20111
850.68	20069
850.815	20142
850.95	20126
851.085	20320
851.22	20202
851.355	20107
851.49	20069
851.625	20031
851.76	20043
851.895	19955
852.03	19967
852.165	20031
852.299	20164
852.434	20180
852.569	20176
852.703	19936
852.838	20195
852.973	20206
853.107	20157
853.242	20016
853.376	20046
853.511	19868
853.645	19898
853.78	20092
853.914	19887
854.048	19864
854.183	19986
854.317	19978
854.451	20039
854.585	20005
854.72	20024
854.854	20012
854.988	19902
855.122	19818
855.256	19753
855.39	19818
855.524	20005
855.658	19898
855.792	19822
855.926	19936
856.06	19944
856.194	20043
856.327	19970
856.461	19879
856.595	19841
856.729	19860
856.862	19959
856.996	19871
857.13	20016
857.263	19978
857.397	19982
857.53	19917
857.664	20031
857.797	19997
857.931	20020
858.064	19951
858.197	19887
858.331	19830
858.464	19746
858.597	19757
858.731	19772
858.864	19902
858.997	19769
859.13	19951
859.263	19868
859.396	19963
859.529	19894
859.662	19871
859.795	19860
859.928	19837
860.061	20035
860.194	20058
860.327	19791
860.46	19860
860.592	19883
860.725	19997
860.858	19917
860.99	19833
861.123	19799
861.256	19700
861.388	19837
861.521	20427
861.653	19769
861.786	19647
861.918	19681
862.05	19852
862.183	19822
862.315	19909
862.447	19997
862.58	19883
862.712	19723
862.844	19620
862.976	19628
863.108	19666
863.24	19890
863.372	19514
863.504	19438
863.636	19601
863.768	19601
863.9	19605
864.032	19540
864.164	19578
864.296	19601
864.428	19647
864.559	19670
864.691	19632
864.823	19578
864.954	19502
865.086	19476
865.217	19472
865.349	19373
865.48	19407
865.612	19320
865.743	19529
865.875	19525
866.006	19301
866.137	19453
866.269	19472
866.4	19415
866.531	19297
866.662	19411
866.793	19362
866.924	19441
867.055	19403
867.186	19343
867.317	19293
867.448	19327
867.579	19438
867.71	19316
867.841	19304
867.972	19392
868.103	19457
868.233	19419
868.364	19373
868.495	19483
868.625	19491
868.756	19674
868.886	19590
869.017	19685
869.147	19734
869.278	19734
869.408	19571
869.539	19594
869.669	19567
869.799	19670
869.929	19674
870.06	19681
870.19	19944
870.32	20016
870.45	19856
870.58	20092
870.71	20195
870.84	20191
870.97	20081
871.1	19986
871.23	20073
871.36	20191
871.489	20031
871.619	20240
871.749	20248
871.879	20218
872.008	20298
872.138	20218
872.267	20180
872.397	20077
872.526	20008
872.656	20081
872.785	20096
872.915	20195
873.044	20221
873.173	20252
873.303	20256
873.432	20240
873.561	20343
873.69	20275
873.819	20229
873.948	20278
874.077	20324
874.206	20191
874.335	20290
874.464	20374
874.593	20609
874.722	20404
874.851	20499
874.979	20545
875.108	20606
875.237	20469
875.365	20446
875.494	20492
875.623	20670
875.751	20530
875.88	20499
876.008	20689
876.136	20731
876.265	21127
876.393	20883
876.521	21028
876.65	20895
876.778	20899
876.906	20925
877.034	20842
877.162	20910
877.29	20906
877.418	21009
877.546	21017
877.674	20921
877.802	20956
877.93	20899
878.058	20944
878.185	20914
878.313	20990
878.441	21085
878.568	20880
878.696	21051
878.824	21180
878.951	21218
879.079	21313
879.206	21663
879.333	21587
879.461	21526
879.588	21724
879.715	21641
879.842	21660
879.97	21469
880.097	21272
880.224	20979
880.351	21077
880.478	21074
880.605	20914
880.732	20880
880.859	21112
880.986	20864
881.112	20979
881.239	20804
881.366	20648
881.493	20613
881.619	20606
881.746	20621
881.872	20488
881.999	20484
882.125	20454
882.252	20594
882.378	20556
882.505	20579
882.631	20423
882.757	20313
882.883	20294
883.01	20282
883.136	20358
883.262	20096
883.388	20126
883.514	20180
883.64	20320
883.766	20229
883.892	20142
884.018	20096
884.143	20218
884.269	20256
884.395	19970
884.52	19837
884.646	19989
884.772	19852
884.897	19803
885.023	19955
885.148	19978
885.274	20084
885.399	20046
885.524	19818
885.65	19925
885.775	19951
885.9	19887
886.025	19936
886.15	19837
886.275	19818
886.4	19753
886.525	19791
886.65	19696
886.775	19719
886.9	19845
887.025	20008
887.149	19830
887.274	19666
887.399	19689
887.523	19571
887.648	19548
887.773	19518
887.897	19575
888.021	19590
888.146	19510
888.27	19548
888.395	19624
888.519	19616
888.643	19590
888.767	19632
888.891	19457
889.015	19339
889.139	19426
889.263	19304
889.387	19460
889.511	19651
889.635	19426
889.759	19308
889.883	19247
890.006	19179
890.13	19384
890.254	19396
890.377	19293
890.501	19168
890.624	19107
890.748	19065
890.871	18935
890.995	18954
891.118	18844
891.241	18989
891.364	18848
891.488	18981
891.611	18928
891.734	18966
891.857	18996
891.98	18848
892.103	18939
892.226	18977
892.349	18890
892.471	18574
892.594	18844
892.717	18810
892.839	18833
892.962	18909
893.085	18916
893.207	18867
893.33	18639
893.452	18688
893.575	18871
893.697	18776
893.819	19008
893.941	18852
894.064	19019
894.186	18757
894.308	18745
894.43	18886
894.552	19027
894.674	18985
894.796	18707
894.918	18741
895.04	18719
895.161	18909
895.283	18817
895.405	18779
895.526	18779
895.648	18821
895.769	18730
895.891	18920
896.012	19008
896.134	18939
896.255	18958
896.376	18829
896.498	18741
896.619	18901
896.74	18932
896.861	18935
896.982	19247
897.103	19304
897.224	19126
897.345	19091
897.466	19107
897.587	19027
897.708	19247
897.828	19141
897.949	19107
898.07	18909
898.19	19015
898.311	19133
898.431	19046
898.552	19053
898.672	19076
898.792	19114
898.913	19065
899.033	18977
899.153	18913
899.273	18802
899.393	18856
899.513	18962
899.633	18825
899.753	18802
899.873	18707
899.993	19038
900.113	18779
900.232	18787
900.352	18783
900.472	18681
900.591	18544
900.711	18646
900.83	18692
900.95	18817
901.069	18703
901.189	18578
901.308	18403
901.427	18209
901.546	18448
901.665	18346
901.784	18247
901.904	18106
902.023	18068
902.141	17790
902.26	17794
902.379	17748
902.498	17760
902.617	17687
902.735	17790
902.854	17699
902.973	17608
903.091	17558
903.21	17429
903.328	17395
903.446	17315
903.565	17250
903.683	17155
903.801	17071
903.919	17231
904.038	17162
904.156	17010
904.274	17071
904.392	17056
904.51	16968
904.627	17045
904.745	17094
904.863	16957
904.981	16668
905.098	16634
905.216	16630
905.334	16721
905.451	16558
905.569	16565
905.686	16683
905.803	16717
905.921	16424
906.038	16588
906.155	16523
906.272	16215
906.389	16360
906.506	16143
906.623	16181
906.74	16147
906.857	16013
906.974	16128
907.091	16192
907.208	16276
907.324	16173
907.441	16093
907.557	15926
907.674	15827
907.79	15778
907.907	15762
908.023	15819
908.139	15850
908.256	15732
908.372	15743
908.488	15759
908.604	15652
908.72	15435
908.836	15576
908.952	15564
909.068	15618
909.184	15656
909.3	15454
909.415	15496
909.531	15488
909.647	15310
909.762	15287
909.878	15214
909.993	15233
910.108	15097
910.224	15184
910.339	15203
910.454	15093
910.57	15085
910.685	14956
910.8	15252
910.915	15199
911.03	15043
911.145	14910
911.259	14788
911.374	14864
911.489	14746
911.604	14785
911.718	14575
911.833	14575
911.947	14434
912.062	14396
912.176	14594
912.291	14598
912.405	14568
912.519	14724
912.633	14807
912.748	14651
912.862	14537
912.976	14419
913.09	14347
913.204	14324
913.318	14450
913.431	14476
913.545	14507
913.659	14454
913.772	14347
913.886	14351
914	14286
914.113	14225
914.226	14290
914.34	14324
914.453	14123
914.566	14324
914.68	14176
914.793	14035
914.906	14001
915.019	13849
915.132	13837
915.245	13890
915.358	13959
915.47	13887
915.583	13909
915.696	13871
915.809	13944
915.921	13974
916.034	13780
916.146	13856
916.259	13712
916.371	13887
916.483	13772
916.595	13753
916.708	13753
916.82	13746
916.932	13689
917.044	13757
917.156	13704
917.268	13620
917.38	13636
917.491	13582
917.603	13628
917.715	13670
917.826	13677
917.938	13510
918.049	13521
918.161	13533
918.272	13628
918.384	13613
918.495	13476
918.606	13365
918.717	13377
918.828	13346
918.939	13392
919.05	13324
919.161	13335
919.272	13133
919.383	13217
919.494	13407
919.604	13514
919.715	13324
919.826	13270
919.936	13278
920.047	13441
920.157	13301
920.267	13487
920.378	13209
920.488	13304
920.598	13377
920.708	13628
920.818	13335
920.928	13430
921.038	13537
921.148	13521
921.258	13327
921.368	13198
921.477	13023
921.587	13031
921.697	13038
921.806	13053
921.916	12943
922.025	12734
922.134	12715
922.244	12623
922.353	12760
922.462	12608
922.571	12555
922.68	12471
922.789	12384
922.898	12376
923.007	12350
923.116	12372
923.224	12361
923.333	12296
923.442	12197
923.55	12209
923.659	12190
923.767	12266
923.876	12159
923.984	12243
924.092	12182
924.201	12224
924.309	12178
924.417	12155
924.525	12068
924.633	12079
924.741	12943
924.849	11836
924.956	11969
925.064	11961
925.172	11688
925.279	11775
925.387	11870
925.494	11908
925.602	11931
925.709	11958
925.816	11729
925.924	11798
926.031	11878
926.138	11771
926.245	11866
926.352	11737
926.459	11885
926.566	11840
926.673	11718
926.779	11623
926.886	11676
926.993	11501
927.099	11402
927.206	11398
927.312	11383
927.419	11570
927.525	11429
927.631	11467
927.737	11368
927.843	11334
927.95	11258
928.056	11280
928.162	11292
928.267	11356
928.373	11977
928.479	11387
928.585	11102
928.69	11189
928.796	11307
928.901	11121
929.007	11029
929.112	11060
929.218	11052
929.323	11071
929.428	11045
929.533	11079
929.638	11022
929.743	10934
929.848	11025
929.953	10987
930.058	10839
930.163	10687
930.267	10691
930.372	10877
930.477	10748
930.581	10946
930.685	10828
930.79	10630
930.894	10668
930.998	10615
931.103	10702
931.207	10394
931.311	10325
931.415	10268
931.519	10055
931.623	10029
