Data from test_V78500241_3022.txt Node
Date: Fri Mar 25 14:54:45 CST 2022
User: usil
Spectrometer: V785-0024
Trigger mode: 0
Integration Time (sec): 4.000000E-1
Scans to average: 1
Nonlinearity correction enabled: false
Boxcar width: 0
Storing dark spectrum: false
XAxis mode: Wavelengths
Number of Pixels in Spectrum: 1024
>>>>>Begin Spectral Data<<<<<
801.071	22120
801.214	21800
801.356	21835
801.499	21625
801.641	21534
801.783	21332
801.926	21401
802.068	21325
802.211	21355
802.353	21370
802.496	21066
802.638	20887
802.78	20929
802.923	20944
803.065	20636
803.208	20796
803.35	20800
803.492	20906
803.635	21013
803.777	20826
803.919	20876
804.061	21112
804.204	20918
804.346	20857
804.488	20659
804.63	20868
804.773	20674
804.915	20758
805.057	20777
805.199	20716
805.341	20701
805.483	20750
805.626	20762
805.768	20659
805.91	20697
806.052	20720
806.194	20587
806.336	20815
806.478	20724
806.62	20777
806.762	20708
806.904	20823
807.046	21207
807.188	21017
807.33	21104
807.472	21207
807.614	20918
807.756	21138
807.898	20864
808.04	20872
808.182	20743
808.324	20800
808.465	20948
808.607	21024
808.749	21135
808.891	21093
809.033	21325
809.174	21226
809.316	21039
809.458	21123
809.6	21096
809.741	21039
809.883	21146
810.025	21321
810.166	21169
810.308	21340
810.45	21154
810.591	21062
810.733	20944
810.875	20902
811.016	20899
811.158	20781
811.299	21089
811.441	20918
811.582	20982
811.724	20952
811.865	20815
812.007	20823
812.148	20864
812.29	20929
812.431	21047
812.573	21157
812.714	21256
812.855	21374
812.997	21428
813.138	21507
813.279	21507
813.421	21348
813.562	21275
813.703	21039
813.845	21036
813.986	20705
814.127	20537
814.268	20423
814.41	20434
814.551	20446
814.692	20465
814.833	20294
814.974	20336
815.115	20393
815.256	20286
815.397	20263
815.539	20252
815.68	20084
815.821	20096
815.962	20199
816.103	20008
816.244	19955
816.385	19925
816.526	19833
816.666	19708
816.807	19609
816.948	19544
817.089	19731
817.23	19674
817.371	19559
817.512	19613
817.653	19468
817.793	19613
817.934	19552
818.075	19529
818.216	19514
818.356	19426
818.497	19289
818.638	19225
818.778	19247
818.919	19362
819.06	19278
819.2	19384
819.341	19369
819.481	19430
819.622	19590
819.762	19784
819.903	19578
820.043	19540
820.184	19438
820.324	19487
820.465	19495
820.605	19453
820.746	19441
820.886	19346
821.026	19369
821.167	19381
821.307	19681
821.447	19552
821.588	19354
821.728	19301
821.868	19057
822.008	18928
822.149	18989
822.289	18863
822.429	18620
822.569	18566
822.709	18627
822.849	18410
822.99	18475
823.13	18391
823.27	18311
823.41	18205
823.55	18152
823.69	18327
823.83	18060
823.97	18125
824.11	17996
824.25	17931
824.389	18045
824.529	18022
824.669	17920
824.809	18167
824.949	18060
825.089	17992
825.228	18022
825.368	17798
825.508	17718
825.648	17783
825.787	17794
825.927	17786
826.067	17741
826.206	17691
826.346	17783
826.485	17756
826.625	17615
826.765	17805
826.904	17756
827.044	17615
827.183	17486
827.323	17425
827.462	17482
827.601	17497
827.741	17379
827.88	17452
828.02	17277
828.159	17341
828.298	17444
828.437	17425
828.577	17349
828.716	17455
828.855	17353
828.994	17094
829.134	17223
829.273	17235
829.412	17086
829.551	17113
829.69	17105
829.829	17193
829.968	17166
830.107	17227
830.246	17155
830.385	17140
830.524	17094
830.663	17052
830.802	16896
830.941	16778
831.08	16717
831.219	16900
831.357	16847
831.496	16961
831.635	16774
831.774	16771
831.913	16706
832.051	16565
832.19	16500
832.329	16611
832.467	16481
832.606	16443
832.744	16462
832.883	16451
833.022	16356
833.16	16440
833.299	16516
833.437	16577
833.576	16493
833.714	16493
833.852	16436
833.991	16588
834.129	16561
834.267	16592
834.406	16599
834.544	16573
834.682	16447
834.821	16558
834.959	16698
835.097	16466
835.235	16580
835.373	16527
835.511	16493
835.65	16379
835.788	16405
835.926	16181
836.064	16287
836.202	16185
836.34	16462
836.478	16538
836.615	16432
836.753	16527
836.891	16421
837.029	16512
837.167	16356
837.305	16398
837.443	16360
837.58	16322
837.718	16295
837.856	16291
837.993	16352
838.131	16337
838.269	16226
838.406	16173
838.544	16257
838.681	16032
838.819	15972
838.956	15816
839.094	15819
839.231	15983
839.369	15895
839.506	16223
839.643	16090
839.781	15857
839.918	15766
840.055	15823
840.193	15827
840.33	15816
840.467	15804
840.604	15800
840.742	16074
840.879	15648
841.016	15663
841.153	15709
841.29	15880
841.427	15770
841.564	15831
841.701	15827
841.838	15800
841.975	15747
842.112	15743
842.249	15591
842.385	15545
842.522	15713
842.659	15679
842.796	15515
842.933	15595
843.069	15564
843.206	15553
843.343	15644
843.479	15603
843.616	15675
843.752	15416
843.889	15329
844.025	15477
844.162	15382
844.298	15557
844.435	15310
844.571	15291
844.708	15367
844.844	15542
844.98	15542
845.117	15511
845.253	15367
845.389	15192
845.525	15386
845.661	15287
845.798	15154
845.934	15252
846.07	15104
846.206	15272
846.342	15325
846.478	15241
846.614	14986
846.75	14899
846.886	14895
847.022	15043
847.158	14918
847.294	14941
847.429	14967
847.565	14967
847.701	15165
847.837	14754
847.972	14644
848.108	14823
848.244	14788
848.379	14629
848.515	14526
848.65	14518
848.786	14579
848.921	14537
849.057	14583
849.192	14693
849.328	14518
849.463	14560
849.598	14465
849.734	14499
849.869	14374
850.004	14370
850.14	14358
850.275	14404
850.41	14225
850.545	14252
850.68	14275
850.815	14358
850.95	14248
851.085	14419
851.22	14473
851.355	14355
851.49	14298
851.625	14320
851.76	14366
851.895	14180
852.03	14355
852.165	14343
852.299	14290
852.434	14370
852.569	14374
852.703	14313
852.838	14320
852.973	14415
853.107	14511
853.242	14221
853.376	14153
853.511	14069
853.645	14123
853.78	14324
853.914	14282
854.048	14138
854.183	14096
854.317	14218
854.451	14339
854.585	14088
854.72	14138
854.854	14244
854.988	14107
855.122	14126
855.256	14073
855.39	14214
855.524	14374
855.658	14263
855.792	14305
855.926	14187
856.06	14320
856.194	14263
856.327	14172
856.461	14145
856.595	14065
856.729	14168
856.862	14286
856.996	14153
857.13	14233
857.263	14191
857.397	14294
857.53	14149
857.664	14206
857.797	14282
857.931	14298
858.064	14172
858.197	14305
858.331	14202
858.464	14119
858.597	14050
858.731	14183
858.864	14233
858.997	14111
859.13	14183
859.263	14275
859.396	14370
859.529	14225
859.662	14157
859.795	14126
859.928	14180
860.061	14377
860.194	14347
860.327	14263
860.46	14256
860.592	14195
860.725	14298
860.858	14225
860.99	14092
861.123	14100
861.256	14157
861.388	14271
861.521	14826
861.653	14092
861.786	14012
861.918	14027
862.05	14088
862.183	14145
862.315	14111
862.447	14210
862.58	14073
862.712	13947
862.844	13913
862.976	14043
863.108	14050
863.24	14484
863.372	13818
863.504	13906
863.636	13898
863.768	14035
863.9	14035
864.032	13906
864.164	13932
864.296	13989
864.428	14115
864.559	14157
864.691	14016
864.823	14050
864.954	14073
865.086	13970
865.217	13970
865.349	13909
865.48	13989
865.612	13986
865.743	14016
865.875	14046
866.006	13883
866.137	13989
866.269	13944
866.4	13932
866.531	13947
866.662	13932
866.793	13913
866.924	13989
867.055	13959
867.186	14001
867.317	13978
867.448	13879
867.579	13902
867.71	13898
867.841	13814
867.972	13932
868.103	13932
868.233	13978
868.364	13967
868.495	14054
868.625	14202
868.756	14298
868.886	14183
869.017	14164
869.147	14301
869.278	14332
869.408	14172
869.539	14278
869.669	14275
869.799	14347
869.929	14347
870.06	14309
870.19	14613
870.32	14431
870.45	14446
870.58	14686
870.71	14636
870.84	14659
870.97	14526
871.1	14644
871.23	14895
871.36	14823
871.489	14716
871.619	14720
871.749	14727
871.879	14937
872.008	14887
872.138	14705
872.267	14758
872.397	14632
872.526	14670
872.656	14537
872.785	14731
872.915	14800
873.044	14895
873.173	14872
873.303	14914
873.432	14899
873.561	14929
873.69	14933
873.819	14807
873.948	14979
874.077	14845
874.206	14849
874.335	14891
874.464	15085
874.593	15104
874.722	15047
874.851	15188
874.979	15112
875.108	15123
875.237	15036
875.365	15085
875.494	15241
875.623	15359
875.751	15093
875.88	15302
876.008	15321
876.136	15405
876.265	15538
876.393	15743
876.521	15652
876.65	15584
876.778	15591
876.906	15523
877.034	15500
877.162	15530
877.29	15572
877.418	15538
877.546	15564
877.674	15526
877.802	15576
877.93	15641
878.058	15534
878.185	15450
878.313	15584
878.441	15599
878.568	15408
878.696	15424
878.824	15534
878.951	15595
879.079	15759
879.206	15873
879.333	15717
879.461	15580
879.588	15587
879.715	15827
879.842	15876
879.97	15675
880.097	15370
880.224	15397
880.351	15500
880.478	15473
880.605	15458
880.732	15473
880.859	15686
880.986	15519
881.112	15462
881.239	15268
881.366	15241
881.493	15142
881.619	15020
881.746	15100
881.872	15108
881.999	15112
882.125	15005
882.252	15173
882.378	15150
882.505	15355
882.631	15001
882.757	14914
882.883	14921
883.01	14941
883.136	14773
883.262	14785
883.388	14785
883.514	14982
883.64	14929
883.766	14853
883.892	14746
884.018	14682
884.143	14887
884.269	15017
884.395	14689
884.52	14617
884.646	14636
884.772	14564
884.897	14499
885.023	14545
885.148	14648
885.274	14739
885.399	14678
885.524	14541
885.65	14590
885.775	14640
885.9	14629
886.025	14800
886.15	14587
886.275	14541
886.4	14560
886.525	14674
886.65	14568
886.775	14552
886.9	14686
887.025	14895
887.149	14541
887.274	14457
887.399	14332
887.523	14320
887.648	14317
887.773	14389
887.897	14461
888.021	14457
888.146	14332
888.27	14533
888.395	14503
888.519	14499
888.643	14545
888.767	14526
888.891	14305
889.015	14267
889.139	14298
889.263	14263
889.387	14347
889.511	14457
889.635	14431
889.759	14244
889.883	14298
890.006	14343
890.13	14339
890.254	14199
890.377	14221
890.501	14062
890.624	14043
890.748	14069
890.871	14077
890.995	13947
891.118	13856
891.241	14062
891.364	14024
891.488	14191
891.611	14008
891.734	13967
891.857	14065
891.98	14039
892.103	13989
892.226	14111
892.349	14046
892.471	13830
892.594	13986
892.717	14043
892.839	13970
892.962	13955
893.085	14119
893.207	13986
893.33	13890
893.452	14035
893.575	14084
893.697	14031
893.819	14180
893.941	14240
894.064	14233
894.186	14027
894.308	13898
894.43	14107
894.552	14275
894.674	14092
894.796	13986
894.918	13982
895.04	14111
895.161	14168
895.283	14046
895.405	14020
895.526	14134
895.648	14107
895.769	14123
895.891	14195
896.012	14294
896.134	14206
896.255	14218
896.376	14100
896.498	14157
896.619	14206
896.74	14248
896.861	14259
896.982	14549
897.103	14640
897.224	14522
897.345	14434
897.466	14393
897.587	14366
897.708	14533
897.828	14484
897.949	14408
898.07	14202
898.19	14492
898.311	14629
898.431	14473
898.552	14640
898.672	14629
898.792	14689
898.913	14549
899.033	14507
899.153	14393
899.273	14317
899.393	14381
899.513	14393
899.633	14423
899.753	14385
899.873	14412
899.993	14522
900.113	14431
900.232	14415
900.352	14400
900.472	14298
900.591	14183
900.711	14267
900.83	14244
900.95	14290
901.069	14377
901.189	14195
901.308	13967
901.427	13868
901.546	14058
901.665	14050
901.784	13913
901.904	13959
902.023	13757
902.141	13495
902.26	13491
902.379	13693
902.498	13445
902.617	13400
902.735	13624
902.854	13483
902.973	13419
903.091	13263
903.21	13316
903.328	13354
903.446	13156
903.565	13152
903.683	13110
903.801	12993
903.919	13072
904.038	12981
904.156	12859
904.274	13012
904.392	12894
904.51	12958
904.627	12810
904.745	12970
904.863	12924
904.981	12760
905.098	12589
905.216	12540
905.334	12639
905.451	12597
905.569	12601
905.686	12597
905.803	12612
905.921	12410
906.038	12555
906.155	12429
906.272	12251
906.389	12323
906.506	12197
906.623	12155
906.74	12129
906.857	12003
906.974	12110
907.091	12197
907.208	12369
907.324	12182
907.441	12167
907.557	12057
907.674	11965
907.79	11901
907.907	11912
908.023	11935
908.139	11996
908.256	11885
908.372	11889
908.488	11889
908.604	11680
908.72	11665
908.836	11638
908.952	11592
909.068	11680
909.184	11821
909.3	11710
909.415	11729
909.531	11760
909.647	11532
909.762	11459
909.878	11471
909.993	11497
910.108	11421
910.224	11402
910.339	11425
910.454	11410
910.57	11368
910.685	11227
910.8	11490
910.915	11467
911.03	11326
911.145	11189
911.259	11201
911.374	11185
911.489	11113
911.604	10965
911.718	10965
911.833	10915
911.947	10782
912.062	10752
912.176	10862
912.291	10915
912.405	10866
912.519	11079
912.633	11121
912.748	11003
912.862	10877
912.976	10835
913.09	10725
913.204	10725
913.318	10805
913.431	10965
913.545	10847
913.659	10835
913.772	10854
913.886	10717
914	10710
914.113	10771
914.226	10790
914.34	10733
914.453	10603
914.566	10744
914.68	10622
914.793	10603
914.906	10443
915.019	10379
915.132	10386
915.245	10538
915.358	10402
915.47	10485
915.583	10459
915.696	10466
915.809	10618
915.921	10565
916.034	10436
916.146	10390
916.259	10272
916.371	10455
916.483	10428
916.595	10314
916.708	10417
916.82	10246
916.932	10337
917.044	10394
917.156	10200
917.268	10227
917.38	10265
917.491	10238
917.603	10329
917.715	10295
917.826	10356
917.938	10192
918.049	10131
918.161	10272
918.272	10386
918.384	10379
918.495	10219
918.606	10200
918.717	10040
918.828	10162
918.939	10139
919.05	10078
919.161	10101
919.272	9972
919.383	9960
919.494	10188
919.604	10306
919.715	10185
919.826	10116
919.936	10169
920.047	10249
920.157	10188
920.267	10310
920.378	10166
920.488	10101
920.598	10390
920.708	10489
920.818	10367
920.928	10405
921.038	10432
921.148	10497
921.258	10287
921.368	10082
921.477	10010
921.587	10002
921.697	9937
921.806	10097
921.916	9876
922.025	9766
922.134	9713
922.244	9663
922.353	9819
922.462	9587
922.571	9587
922.68	9412
922.789	9431
922.898	9488
923.007	9420
923.116	9435
923.224	9412
923.333	9401
923.442	9313
923.55	9218
923.659	9332
923.767	9359
923.876	9214
923.984	9332
924.092	9241
924.201	9329
924.309	9249
924.417	9291
924.525	9241
924.633	9302
924.741	10128
924.849	8975
924.956	9192
925.064	9089
925.172	8982
925.279	9009
925.387	9097
925.494	9081
925.602	9256
925.709	9097
925.816	9036
925.924	9074
926.031	9108
926.138	9036
926.245	9116
926.352	9017
926.459	9119
926.566	9195
926.673	9036
926.779	9005
926.886	8925
926.993	8807
927.099	8773
927.206	8785
927.312	8739
927.419	8891
927.525	8842
927.631	8868
927.737	8758
927.843	8663
927.95	8518
928.056	8598
928.162	8705
928.267	8727
928.373	9256
928.479	8800
928.585	8629
928.69	8720
928.796	8705
928.901	8617
929.007	8450
929.112	8598
929.218	8594
929.323	8514
929.428	8476
929.533	8762
929.638	8450
929.743	8488
929.848	8499
929.953	8495
930.058	8484
930.163	8218
930.267	8267
930.372	8396
930.477	8244
930.581	8507
930.685	8339
930.79	8214
930.894	8218
930.998	8210
931.103	8362
931.207	8035
931.311	7921
931.415	7860
931.519	7708
931.623	7799
