Data from test_V78500241_3721.txt Node
Date: Fri Mar 25 14:59:37 CST 2022
User: usil
Spectrometer: V785-0024
Trigger mode: 0
Integration Time (sec): 4.000000E-1
Scans to average: 1
Nonlinearity correction enabled: false
Boxcar width: 0
Storing dark spectrum: false
XAxis mode: Wavelengths
Number of Pixels in Spectrum: 1024
>>>>>Begin Spectral Data<<<<<
801.071	22025
801.214	21835
801.356	21610
801.499	21496
801.641	21275
801.783	21245
801.926	21351
802.068	21252
802.211	21100
802.353	21112
802.496	20705
802.638	20781
802.78	20670
802.923	20686
803.065	20602
803.208	20602
803.35	20625
803.492	20716
803.635	20716
803.777	20575
803.919	20762
804.061	21009
804.204	20571
804.346	20442
804.488	20400
804.63	20488
804.773	20480
804.915	20602
805.057	20587
805.199	20450
805.341	20613
805.483	20644
805.626	20587
805.768	20446
805.91	20412
806.052	20526
806.194	20339
806.336	20530
806.478	20530
806.62	20503
806.762	20522
806.904	20769
807.046	20807
807.188	20777
807.33	20773
807.472	20876
807.614	20705
807.756	20678
807.898	20514
808.04	20488
808.182	20431
808.324	20606
808.465	20602
808.607	20773
808.749	20975
808.891	20853
809.033	21157
809.174	20921
809.316	20823
809.458	20804
809.6	20800
809.741	20933
809.883	21024
810.025	20986
810.166	21013
810.308	20933
810.45	20910
810.591	20754
810.733	20621
810.875	20644
811.016	20617
811.158	20495
811.299	20590
811.441	20743
811.582	20727
811.724	20522
811.865	20511
812.007	20488
812.148	20568
812.29	20613
812.431	20819
812.573	20925
812.714	20979
812.855	21074
812.997	21195
813.138	21317
813.279	21199
813.421	21070
813.562	21169
813.703	20834
813.845	20701
813.986	20457
814.127	20278
814.268	20282
814.41	20244
814.551	20134
814.692	20103
814.833	20145
814.974	20031
815.115	20180
815.256	20031
815.397	20005
815.539	19928
815.68	19936
815.821	19814
815.962	19955
816.103	19811
816.244	19780
816.385	19624
816.526	19544
816.666	19411
816.807	19369
816.948	19289
817.089	19396
817.23	19282
817.371	19179
817.512	19232
817.653	19240
817.793	19247
817.934	19247
818.075	19335
818.216	19289
818.356	19217
818.497	19114
818.638	18973
818.778	19015
818.919	19012
819.06	19004
819.2	19148
819.341	19152
819.481	19187
819.622	19263
819.762	19529
819.903	19510
820.043	19304
820.184	19187
820.324	19179
820.465	19373
820.605	19175
820.746	19335
820.886	19080
821.026	19266
821.167	19270
821.307	19339
821.447	19080
821.588	19095
821.728	18989
821.868	18795
822.008	18608
822.149	18612
822.289	18589
822.429	18429
822.569	18334
822.709	18403
822.849	18106
822.99	18163
823.13	18186
823.27	18133
823.41	17889
823.55	18007
823.69	17992
823.83	17992
823.97	17847
824.11	17805
824.25	17859
824.389	17767
824.529	17893
824.669	17756
824.809	17897
824.949	17821
825.089	17745
825.228	17813
825.368	17585
825.508	17497
825.648	17478
825.787	17551
825.927	17581
826.067	17471
826.206	17520
826.346	17436
826.485	17482
826.625	17600
826.765	17611
826.904	17493
827.044	17345
827.183	17284
827.323	17174
827.462	17356
827.601	17250
827.741	17136
827.88	17239
828.02	17052
828.159	17189
828.298	17220
828.437	17318
828.577	17185
828.716	17258
828.855	17178
828.994	17003
829.134	17064
829.273	16892
829.412	16934
829.551	16915
829.69	16908
829.829	16949
829.968	17159
830.107	16961
830.246	16930
830.385	16915
830.524	16892
830.663	16733
830.802	16702
830.941	16558
831.08	16603
831.219	16611
831.357	16649
831.496	16858
831.635	16573
831.774	16538
831.913	16497
832.051	16436
832.19	16417
832.329	16432
832.467	16352
832.606	16249
832.744	16207
832.883	16265
833.022	16249
833.16	16284
833.299	16310
833.437	16268
833.576	16375
833.714	16402
833.852	16379
833.991	16371
834.129	16531
834.267	16424
834.406	16249
834.544	16451
834.682	16287
834.821	16382
834.959	16550
835.097	16428
835.235	16379
835.373	16303
835.511	16375
835.65	16177
835.788	16272
835.926	16177
836.064	16109
836.202	16109
836.34	16173
836.478	16333
836.615	16234
836.753	16314
836.891	16268
837.029	16348
837.167	16261
837.305	16181
837.443	16215
837.58	16101
837.718	16162
837.856	16185
837.993	16116
838.131	16135
838.269	16116
838.406	16097
838.544	16059
838.681	15793
838.819	15899
838.956	15690
839.094	15747
839.231	15781
839.369	15808
839.506	16109
839.643	15949
839.781	15793
839.918	15648
840.055	15736
840.193	15652
840.33	15679
840.467	15663
840.604	15694
840.742	15945
840.879	15492
841.016	15542
841.153	15603
841.29	15774
841.427	15717
841.564	15709
841.701	15747
841.838	15637
841.975	15545
842.112	15652
842.249	15523
842.385	15462
842.522	15709
842.659	15519
842.796	15466
842.933	15431
843.069	15416
843.206	15504
843.343	15568
843.479	15477
843.616	15572
843.752	15321
843.889	15275
844.025	15439
844.162	15287
844.298	15378
844.435	15272
844.571	15195
844.708	15321
844.844	15462
844.98	15386
845.117	15348
845.253	15211
845.389	15199
845.525	15203
845.661	15138
845.798	15047
845.934	15184
846.07	15036
846.206	15066
846.342	15150
846.478	15036
846.614	14895
846.75	14781
846.886	14834
847.022	15013
847.158	14921
847.294	14918
847.429	14910
847.565	14876
847.701	15127
847.837	14655
847.972	14492
848.108	14651
848.244	14678
848.379	14480
848.515	14431
848.65	14408
848.786	14473
848.921	14457
849.057	14617
849.192	14579
849.328	14541
849.463	14427
849.598	14438
849.734	14473
849.869	14317
850.004	14256
850.14	14244
850.275	14240
850.41	14081
850.545	14153
850.68	14161
850.815	14252
850.95	14191
851.085	14381
851.22	14267
851.355	14248
851.49	14225
851.625	14187
851.76	14138
851.895	14035
852.03	14100
852.165	14191
852.299	14199
852.434	14237
852.569	14218
852.703	14199
852.838	14233
852.973	14282
853.107	14332
853.242	14191
853.376	14153
853.511	13997
853.645	14069
853.78	14210
853.914	14005
854.048	14005
854.183	14123
854.317	14149
854.451	14290
854.585	14134
854.72	14058
854.854	14126
854.988	13955
855.122	14081
855.256	13887
855.39	14088
855.524	14077
855.658	14210
855.792	14081
855.926	14050
856.06	14123
856.194	14244
856.327	14081
856.461	14062
856.595	14020
856.729	14123
856.862	14256
856.996	14126
857.13	14142
857.263	14240
857.397	14183
857.53	14134
857.664	14183
857.797	14172
857.931	14267
858.064	14256
858.197	14172
858.331	14183
858.464	14039
858.597	14084
858.731	14107
858.864	14126
858.997	14100
859.13	14130
859.263	14054
859.396	14142
859.529	14107
859.662	14069
859.795	14130
859.928	14172
860.061	14309
860.194	14221
860.327	14176
860.46	14084
860.592	14202
860.725	14259
860.858	14138
860.99	14027
861.123	13989
861.256	14096
861.388	14130
861.521	14796
861.653	13989
861.786	13932
861.918	13906
862.05	13982
862.183	14046
862.315	14081
862.447	14088
862.58	14027
862.712	13852
862.844	13845
862.976	13906
863.108	13913
863.24	14332
863.372	13856
863.504	13928
863.636	13967
863.768	13902
863.9	13822
864.032	13856
864.164	13913
864.296	13955
864.428	13959
864.559	14012
864.691	13989
864.823	14012
864.954	14001
865.086	14012
865.217	13822
865.349	13807
865.48	13814
865.612	13944
865.743	14035
865.875	13860
866.006	13849
866.137	13833
866.269	13856
866.4	13894
866.531	13826
866.662	13772
866.793	13845
866.924	13761
867.055	13849
867.186	13849
867.317	13795
867.448	13750
867.579	13784
867.71	13685
867.841	13780
867.972	13788
868.103	13906
868.233	13822
868.364	13864
868.495	13997
868.625	14077
868.756	14157
868.886	14012
869.017	14005
869.147	14180
869.278	14225
869.408	14096
869.539	14119
869.669	14225
869.799	14168
869.929	14176
870.06	14145
870.19	14438
870.32	14408
870.45	14450
870.58	14503
870.71	14617
870.84	14575
870.97	14522
871.1	14533
871.23	14560
871.36	14762
871.489	14644
871.619	14708
871.749	14712
871.879	14792
872.008	14857
872.138	14769
872.267	14636
872.397	14564
872.526	14575
872.656	14617
872.785	14583
872.915	14644
873.044	14868
873.173	14727
873.303	14754
873.432	14758
873.561	14864
873.69	14727
873.819	14788
873.948	14826
874.077	14868
874.206	14750
874.335	14845
874.464	14956
874.593	14956
874.722	15013
874.851	15104
874.979	14994
875.108	15112
875.237	15009
875.365	15028
875.494	15085
875.623	15203
875.751	15024
875.88	15176
876.008	15249
876.136	15378
876.265	15553
876.393	15622
876.521	15568
876.65	15599
876.778	15511
876.906	15439
877.034	15523
877.162	15523
877.29	15431
877.418	15496
877.546	15492
877.674	15591
877.802	15488
877.93	15405
878.058	15466
878.185	15428
878.313	15428
878.441	15485
878.568	15405
878.696	15473
878.824	15507
878.951	15648
879.079	15675
879.206	15720
879.333	15652
879.461	15572
879.588	15557
879.715	15690
879.842	15778
879.97	15622
880.097	15291
880.224	15405
880.351	15382
880.478	15310
880.605	15222
880.732	15283
880.859	15454
880.986	15374
881.112	15378
881.239	15157
881.366	15100
881.493	15081
881.619	15199
881.746	15116
881.872	15005
881.999	14921
882.125	15001
882.252	15066
882.378	15058
882.505	15032
882.631	15058
882.757	14796
882.883	14902
883.01	14880
883.136	14826
883.262	14686
883.388	14636
883.514	14849
883.64	14937
883.766	14754
883.892	14705
884.018	14716
884.143	14804
884.269	14906
884.395	14598
884.52	14473
884.646	14590
884.772	14465
884.897	14461
885.023	14492
885.148	14606
885.274	14594
885.399	14583
885.524	14511
885.65	14667
885.775	14613
885.9	14514
886.025	14689
886.15	14602
886.275	14450
886.4	14423
886.525	14427
886.65	14469
886.775	14480
886.9	14689
887.025	14762
887.149	14564
887.274	14313
887.399	14199
887.523	14404
887.648	14275
887.773	14313
887.897	14404
888.021	14446
888.146	14396
888.27	14556
888.395	14408
888.519	14400
888.643	14454
888.767	14438
888.891	14286
889.015	14225
889.139	14210
889.263	14256
889.387	14366
889.511	14507
889.635	14377
889.759	14199
889.883	14180
890.006	14294
890.13	14351
890.254	14103
890.377	14142
890.501	14043
890.624	14005
890.748	14065
890.871	13993
890.995	13936
891.118	13944
891.241	14020
891.364	13986
891.488	14077
891.611	13890
891.734	13959
891.857	13970
891.98	13932
892.103	13982
892.226	14039
892.349	13906
892.471	13761
892.594	13868
892.717	14020
892.839	13986
892.962	13841
893.085	13978
893.207	13940
893.33	13887
893.452	13890
893.575	13871
893.697	13940
893.819	14153
893.941	14130
894.064	14180
894.186	13871
894.308	13963
894.43	14088
894.552	14138
894.674	14024
894.796	13959
894.918	13951
895.04	13936
895.161	14130
895.283	14134
895.405	13997
895.526	14043
895.648	14039
895.769	14096
895.891	14062
896.012	14195
896.134	14092
896.255	14153
896.376	14016
896.498	14088
896.619	14164
896.74	14202
896.861	14214
896.982	14473
897.103	14670
897.224	14355
897.345	14362
897.466	14347
897.587	14336
897.708	14503
897.828	14488
897.949	14301
898.07	14347
898.19	14374
898.311	14545
898.431	14446
898.552	14507
898.672	14503
898.792	14579
898.913	14518
899.033	14396
899.153	14324
899.273	14206
899.393	14286
899.513	14358
899.633	14221
899.753	14400
899.873	14347
899.993	14366
900.113	14343
900.232	14370
900.352	14339
900.472	14324
900.591	14123
900.711	14278
900.83	14027
900.95	14286
901.069	14252
901.189	14081
901.308	14008
901.427	13898
901.546	13860
901.665	13906
901.784	13932
901.904	13803
902.023	13590
902.141	13449
902.26	13472
902.379	13472
902.498	13457
902.617	13495
902.735	13430
902.854	13430
902.973	13422
903.091	13141
903.21	13179
903.328	13160
903.446	13103
903.565	13012
903.683	13046
903.801	12894
903.919	13000
904.038	12951
904.156	12913
904.274	12932
904.392	12833
904.51	12916
904.627	12806
904.745	12821
904.863	12859
904.981	12601
905.098	12559
905.216	12490
905.334	12684
905.451	12471
905.569	12570
905.686	12601
905.803	12521
905.921	12327
906.038	12490
906.155	12323
906.272	12327
906.389	12216
906.506	12117
906.623	12064
906.74	12152
906.857	11999
906.974	11999
907.091	12163
907.208	12220
907.324	12186
907.441	11996
907.557	11840
907.674	11923
907.79	11885
907.907	11790
908.023	11912
908.139	11931
908.256	11741
908.372	11980
908.488	11748
908.604	11634
908.72	11691
908.836	11570
908.952	11585
909.068	11573
909.184	11714
909.3	11611
909.415	11630
909.531	11630
909.647	11425
909.762	11455
909.878	11425
909.993	11421
910.108	11425
910.224	11364
910.339	11406
910.454	11307
910.57	11277
910.685	11117
910.8	11436
910.915	11368
911.03	11311
911.145	11045
911.259	11109
911.374	11052
911.489	10995
911.604	11060
911.718	10828
911.833	10866
911.947	10683
912.062	10698
912.176	10885
912.291	10919
912.405	10927
912.519	10946
912.633	11025
912.748	10915
912.862	10839
912.976	10698
913.09	10599
913.204	10691
913.318	10733
913.431	10885
913.545	10862
913.659	10843
913.772	10782
913.886	10630
914	10592
914.113	10748
914.226	10801
914.34	10733
914.453	10554
914.566	10694
914.68	10596
914.793	10538
914.906	10459
915.019	10348
915.132	10280
915.245	10329
915.358	10417
915.47	10409
915.583	10390
915.696	10409
915.809	10474
915.921	10493
916.034	10337
916.146	10360
916.259	10284
916.371	10371
916.483	10371
916.595	10348
916.708	10348
916.82	10337
916.932	10329
917.044	10299
917.156	10234
917.268	10120
917.38	10238
917.491	10223
917.603	10261
917.715	10325
917.826	10348
917.938	10227
918.049	10078
918.161	10223
918.272	10348
918.384	10318
918.495	10215
918.606	10067
918.717	9991
918.828	10166
918.939	10097
919.05	10010
919.161	10055
919.272	9865
919.383	9983
919.494	10207
919.604	10253
919.715	10101
919.826	10051
919.936	10029
920.047	10150
920.157	10147
920.267	10310
920.378	10162
920.488	10097
920.598	10341
920.708	10375
920.818	10284
920.928	10341
921.038	10508
921.148	10421
921.258	10093
921.368	10032
921.477	9991
921.587	9861
921.697	9937
921.806	9975
921.916	9808
922.025	9694
922.134	9652
922.244	9652
922.353	9698
922.462	9572
922.571	9462
922.68	9332
922.789	9351
922.898	9382
923.007	9275
923.116	9386
923.224	9374
923.333	9389
923.442	9302
923.55	9325
923.659	9241
923.767	9317
923.876	9218
923.984	9283
924.092	9142
924.201	9264
924.309	9188
924.417	9253
924.525	9135
924.633	9192
924.741	10074
924.849	9032
924.956	9119
925.064	8960
925.172	8902
925.279	9013
925.387	9005
925.494	9093
925.602	9154
925.709	9119
925.816	8933
925.924	9070
926.031	9142
926.138	9077
926.245	9058
926.352	8880
926.459	9062
926.566	9165
926.673	9013
926.779	8941
926.886	8880
926.993	8773
927.099	8766
927.206	8648
927.312	8667
927.419	8796
927.525	8674
927.631	8758
927.737	8678
927.843	8644
927.95	8499
928.056	8590
928.162	8644
928.267	8625
928.373	9260
928.479	8716
928.585	8579
928.69	8670
928.796	8617
928.901	8545
929.007	8362
929.112	8549
929.218	8575
929.323	8526
929.428	8442
929.533	8564
929.638	8362
929.743	8423
929.848	8503
929.953	8442
930.058	8408
930.163	8244
930.267	8286
930.372	8320
930.477	8225
930.581	8438
930.685	8301
930.79	8202
930.894	8187
930.998	8172
931.103	8313
931.207	7963
931.311	8008
931.415	7845
931.519	7662
931.623	7761
