Data from test_V78500241_1994.txt Node
Date: Fri Mar 25 14:47:35 CST 2022
User: usil
Spectrometer: V785-0024
Trigger mode: 0
Integration Time (sec): 4.000000E-1
Scans to average: 1
Nonlinearity correction enabled: false
Boxcar width: 0
Storing dark spectrum: false
XAxis mode: Wavelengths
Number of Pixels in Spectrum: 1024
>>>>>Begin Spectral Data<<<<<
801.071	21987
801.214	21888
801.356	21652
801.499	21641
801.641	21462
801.783	21523
801.926	21530
802.068	21412
802.211	21302
802.353	21146
802.496	21074
802.638	20899
802.78	20853
802.923	20823
803.065	20796
803.208	20796
803.35	20773
803.492	20853
803.635	20975
803.777	20773
803.919	20918
804.061	21116
804.204	20853
804.346	20834
804.488	20651
804.63	20727
804.773	20625
804.915	20842
805.057	20796
805.199	20667
805.341	20834
805.483	20750
805.626	20762
805.768	20609
805.91	20705
806.052	20769
806.194	20655
806.336	20788
806.478	20640
806.62	20617
806.762	20746
806.904	20864
807.046	21108
807.188	21001
807.33	21135
807.472	21150
807.614	20921
807.756	20929
807.898	20785
808.04	20727
808.182	20735
808.324	20807
808.465	20815
808.607	20933
808.749	21062
808.891	21256
809.033	21138
809.174	21077
809.316	20971
809.458	21020
809.6	20918
809.741	21123
809.883	21203
810.025	21230
810.166	21283
810.308	21173
810.45	21256
810.591	21089
810.733	20956
810.875	20910
811.016	20788
811.158	20682
811.299	20872
811.441	21051
811.582	21032
811.724	20941
811.865	20819
812.007	20792
812.148	20849
812.29	20956
812.431	20982
812.573	21154
812.714	21150
812.855	21279
812.997	21507
813.138	21545
813.279	21488
813.421	21370
813.562	21355
813.703	21055
813.845	21096
813.986	20686
814.127	20632
814.268	20393
814.41	20503
814.551	20442
814.692	20511
814.833	20469
814.974	20362
815.115	20396
815.256	20210
815.397	20202
815.539	20366
815.68	20210
815.821	20077
815.962	20168
816.103	20084
816.244	19932
816.385	19860
816.526	19890
816.666	19674
816.807	19464
816.948	19635
817.089	19689
817.23	19746
817.371	19491
817.512	19411
817.653	19502
817.793	19514
817.934	19495
818.075	19537
818.216	19586
818.356	19586
818.497	19411
818.638	19198
818.778	19213
818.919	19209
819.06	19289
819.2	19468
819.341	19422
819.481	19620
819.622	19563
819.762	19681
819.903	19662
820.043	19613
820.184	19537
820.324	19411
820.465	19632
820.605	19525
820.746	19571
820.886	19396
821.026	19468
821.167	19415
821.307	19533
821.447	19480
821.588	19316
821.728	19240
821.868	19099
822.008	18989
822.149	18966
822.289	18878
822.429	18601
822.569	18688
822.709	18616
822.849	18361
822.99	18334
823.13	18388
823.27	18376
823.41	18300
823.55	18235
823.69	18209
823.83	18091
823.97	18136
824.11	17984
824.25	17999
824.389	18030
824.529	18068
824.669	17882
824.809	18125
824.949	18148
825.089	18041
825.228	18034
825.368	17813
825.508	17813
825.648	17851
825.787	17870
825.927	17908
826.067	17771
826.206	17687
826.346	17775
826.485	17794
826.625	17809
826.765	17897
826.904	17783
827.044	17524
827.183	17497
827.323	17448
827.462	17562
827.601	17448
827.741	17471
827.88	17471
828.02	17330
828.159	17448
828.298	17459
828.437	17417
828.577	17421
828.716	17615
828.855	17425
828.994	17261
829.134	17356
829.273	17318
829.412	17109
829.551	17140
829.69	17200
829.829	17322
829.968	17277
830.107	17273
830.246	17132
830.385	17147
830.524	17242
830.663	17018
830.802	16972
830.941	16881
831.08	16725
831.219	16923
831.357	16949
831.496	17094
831.635	16991
831.774	16771
831.913	16748
832.051	16645
832.19	16656
832.329	16637
832.467	16535
832.606	16641
832.744	16504
832.883	16519
833.022	16489
833.16	16577
833.299	16603
833.437	16531
833.576	16691
833.714	16519
833.852	16535
833.991	16691
834.129	16717
834.267	16611
834.406	16584
834.544	16717
834.682	16569
834.821	16573
834.959	16755
835.097	16569
835.235	16786
835.373	16626
835.511	16577
835.65	16489
835.788	16466
835.926	16394
836.064	16409
836.202	16363
836.34	16561
836.478	16603
836.615	16405
836.753	16478
836.891	16535
837.029	16523
837.167	16535
837.305	16455
837.443	16417
837.58	16226
837.718	16455
837.856	16417
837.993	16325
838.131	16459
838.269	16337
838.406	16219
838.544	16230
838.681	16071
838.819	16002
838.956	15945
839.094	15991
839.231	15987
839.369	16154
839.506	16337
839.643	16242
839.781	15880
839.918	15922
840.055	15880
840.193	15972
840.33	15991
840.467	16032
840.604	15956
840.742	16196
840.879	15797
841.016	15785
841.153	15842
841.29	15956
841.427	15934
841.564	16002
841.701	15953
841.838	15949
841.975	15869
842.112	15793
842.249	15827
842.385	15667
842.522	15873
842.659	15705
842.796	15660
842.933	15675
843.069	15641
843.206	15667
843.343	15888
843.479	15736
843.616	15717
843.752	15625
843.889	15469
844.025	15622
844.162	15519
844.298	15652
844.435	15564
844.571	15466
844.708	15576
844.844	15648
844.98	15660
845.117	15679
845.253	15473
845.389	15382
845.525	15492
845.661	15473
845.798	15332
845.934	15351
846.07	15207
846.206	15431
846.342	15610
846.478	15397
846.614	15233
846.75	15020
846.886	14998
847.022	15222
847.158	15119
847.294	15119
847.429	15066
847.565	15047
847.701	15332
847.837	14872
847.972	14731
848.108	14853
848.244	14929
848.379	14758
848.515	14659
848.65	14636
848.786	14674
848.921	14689
849.057	14758
849.192	14716
849.328	14705
849.463	14701
849.598	14712
849.734	14579
849.869	14579
850.004	14518
850.14	14549
850.275	14461
850.41	14332
850.545	14381
850.68	14431
850.815	14465
850.95	14431
851.085	14613
851.22	14545
851.355	14415
851.49	14484
851.625	14484
851.76	14404
851.895	14301
852.03	14381
852.165	14374
852.299	14480
852.434	14530
852.569	14355
852.703	14450
852.838	14518
852.973	14629
853.107	14488
853.242	14488
853.376	14290
853.511	14225
853.645	14206
853.78	14522
853.914	14275
854.048	14324
854.183	14275
854.317	14263
854.451	14389
854.585	14286
854.72	14225
854.854	14374
854.988	14191
855.122	14317
855.256	14107
855.39	14408
855.524	14355
855.658	14358
855.792	14370
855.926	14404
856.06	14393
856.194	14385
856.327	14317
856.461	14263
856.595	14256
856.729	14248
856.862	14366
856.996	14362
857.13	14442
857.263	14450
857.397	14461
857.53	14328
857.664	14400
857.797	14465
857.931	14377
858.064	14275
858.197	14438
858.331	14286
858.464	14259
858.597	14183
858.731	14221
858.864	14309
858.997	14305
859.13	14305
859.263	14305
859.396	14431
859.529	14355
859.662	14385
859.795	14301
859.928	14320
860.061	14423
860.194	14495
860.327	14381
860.46	14332
860.592	14454
860.725	14465
860.858	14423
860.99	14282
861.123	14267
861.256	14252
861.388	14427
861.521	14952
861.653	14180
861.786	14183
861.918	14138
862.05	14332
862.183	14278
862.315	14202
862.447	14385
862.58	14328
862.712	14115
862.844	14016
862.976	14119
863.108	14145
863.24	14549
863.372	14020
863.504	14088
863.636	14145
863.768	14100
863.9	14024
864.032	14062
864.164	14020
864.296	14111
864.428	14183
864.559	14187
864.691	14240
864.823	14103
864.954	14107
865.086	14161
865.217	14016
865.349	13883
865.48	14035
865.612	14126
865.743	14259
865.875	14046
866.006	14016
866.137	14065
866.269	13986
866.4	14062
866.531	14149
866.662	13967
866.793	13967
866.924	13940
867.055	14126
867.186	14031
867.317	14012
867.448	14008
867.579	14008
867.71	13982
867.841	13909
867.972	14031
868.103	14050
868.233	14172
868.364	14050
868.495	14123
868.625	14362
868.756	14404
868.886	14218
869.017	14324
869.147	14457
869.278	14473
869.408	14336
869.539	14248
869.669	14446
869.799	14385
869.929	14492
870.06	14511
870.19	14712
870.32	14594
870.45	14678
870.58	14758
870.71	14804
870.84	14819
870.97	14777
871.1	14777
871.23	14906
871.36	14941
871.489	14914
871.619	14948
871.749	14906
871.879	14979
872.008	14975
872.138	14986
872.267	14963
872.397	14758
872.526	14796
872.656	14743
872.785	14621
872.915	14986
873.044	15150
873.173	14906
873.303	15070
873.432	14960
873.561	15138
873.69	15001
873.819	14986
873.948	15070
874.077	14941
874.206	15055
874.335	15039
874.464	15192
874.593	15298
874.722	15241
874.851	15287
874.979	15321
875.108	15408
875.237	15302
875.365	15321
875.494	15211
875.623	15389
875.751	15260
875.88	15306
876.008	15420
876.136	15542
876.265	15770
876.393	15941
876.521	15865
876.65	15804
876.778	15785
876.906	15663
877.034	15694
877.162	15732
877.29	15698
877.418	15698
877.546	15759
877.674	15732
877.802	15800
877.93	15698
878.058	15667
878.185	15622
878.313	15739
878.441	15743
878.568	15549
878.696	15694
878.824	15759
878.951	15857
879.079	15956
879.206	16071
879.333	15915
879.461	15842
879.588	15869
879.715	15895
879.842	16055
879.97	15869
880.097	15591
880.224	15637
880.351	15610
880.478	15648
880.605	15386
880.732	15504
880.859	15732
880.986	15694
881.112	15652
881.239	15492
881.366	15310
881.493	15313
881.619	15211
881.746	15237
881.872	15184
881.999	15226
882.125	15313
882.252	15287
882.378	15245
882.505	15439
882.631	15211
882.757	15119
882.883	15032
883.01	15192
883.136	14963
883.262	15001
883.388	14948
883.514	14994
883.64	15150
883.766	14979
883.892	14845
884.018	14918
884.143	15009
884.269	15192
884.395	14834
884.52	14731
884.646	14819
884.772	14678
884.897	14689
885.023	14746
885.148	14868
885.274	14895
885.399	14883
885.524	14762
885.65	14735
885.775	14914
885.9	14697
886.025	14960
886.15	14796
886.275	14788
886.4	14651
886.525	14724
886.65	14743
886.775	14804
886.9	14944
887.025	15055
887.149	14868
887.274	14560
887.399	14545
887.523	14514
887.648	14560
887.773	14419
887.897	14632
888.021	14754
888.146	14499
888.27	14750
888.395	14792
888.519	14602
888.643	14651
888.767	14727
888.891	14587
889.015	14556
889.139	14526
889.263	14396
889.387	14617
889.511	14636
889.635	14575
889.759	14355
889.883	14488
890.006	14476
890.13	14495
890.254	14415
890.377	14446
890.501	14286
890.624	14202
890.748	14339
890.871	14225
890.995	14145
891.118	14126
891.241	14149
891.364	14126
891.488	14309
891.611	14233
891.734	14229
891.857	14317
891.98	14237
892.103	14290
892.226	14214
892.349	14218
892.471	14005
892.594	14119
892.717	14233
892.839	14164
892.962	14183
893.085	14309
893.207	14195
893.33	14046
893.452	14084
893.575	14195
893.697	14172
893.819	14305
893.941	14389
894.064	14252
894.186	14176
894.308	14111
894.43	14317
894.552	14419
894.674	14347
894.796	14134
894.918	14107
895.04	14267
895.161	14282
895.283	14278
895.405	14176
895.526	14244
895.648	14263
895.769	14336
895.891	14366
896.012	14332
896.134	14374
896.255	14423
896.376	14309
896.498	14347
896.619	14412
896.74	14347
896.861	14446
896.982	14670
897.103	14826
897.224	14651
897.345	14587
897.466	14454
897.587	14602
897.708	14746
897.828	14693
897.949	14617
898.07	14454
898.19	14533
898.311	14648
898.431	14610
898.552	14682
898.672	14701
898.792	14773
898.913	14716
899.033	14716
899.153	14518
899.273	14469
899.393	14571
899.513	14484
899.633	14602
899.753	14659
899.873	14522
899.993	14434
900.113	14552
900.232	14533
900.352	14533
900.472	14412
900.591	14347
900.711	14408
900.83	14263
900.95	14396
901.069	14457
901.189	14355
901.308	14126
901.427	13955
901.546	14077
901.665	14084
901.784	14145
901.904	13967
902.023	13906
902.141	13738
902.26	13586
902.379	13677
902.498	13620
902.617	13491
902.735	13651
902.854	13544
902.973	13578
903.091	13426
903.21	13396
903.328	13358
903.446	13221
903.565	13168
903.683	13190
903.801	13103
903.919	13232
904.038	13129
904.156	13057
904.274	12916
904.392	13050
904.51	12989
904.627	13031
904.745	13027
904.863	13065
904.981	12859
905.098	12665
905.216	12696
905.334	12757
905.451	12711
905.569	12688
905.686	12730
905.803	12738
905.921	12445
906.038	12639
906.155	12521
906.272	12448
906.389	12433
906.506	12350
906.623	12304
906.74	12273
906.857	12136
906.974	12228
907.091	12376
907.208	12445
907.324	12380
907.441	12197
907.557	11988
907.674	12106
907.79	11977
907.907	11996
908.023	12114
908.139	12087
908.256	11984
908.372	12045
908.488	11958
908.604	11885
908.72	11805
908.836	11897
908.952	11729
909.068	11851
909.184	11893
909.3	11836
909.415	11851
909.531	11737
909.647	11570
909.762	11661
909.878	11554
909.993	11627
910.108	11448
910.224	11573
910.339	11551
910.454	11505
910.57	11455
910.685	11368
910.8	11642
910.915	11592
911.03	11467
911.145	11341
911.259	11311
911.374	11349
911.489	11265
911.604	11185
911.718	11048
911.833	11060
911.947	10885
912.062	10873
912.176	11014
912.291	10999
912.405	11025
912.519	11197
912.633	11269
912.748	11105
912.862	11105
912.976	10995
913.09	10866
913.204	10854
913.318	10915
913.431	10980
913.545	10991
913.659	11003
913.772	10949
913.886	10805
914	10793
914.113	10892
914.226	10938
914.34	10854
914.453	10637
914.566	10927
914.68	10599
914.793	10771
914.906	10588
915.019	10462
915.132	10455
915.245	10443
915.358	10516
915.47	10573
915.583	10577
915.696	10626
915.809	10706
915.921	10641
916.034	10538
916.146	10360
916.259	10531
916.371	10607
916.483	10531
916.595	10398
916.708	10421
916.82	10421
916.932	10538
917.044	10428
917.156	10428
917.268	10390
917.38	10299
917.491	10405
917.603	10421
917.715	10508
917.826	10512
917.938	10348
918.049	10287
918.161	10329
918.272	10436
918.384	10527
918.495	10402
918.606	10276
918.717	10249
918.828	10223
918.939	10291
919.05	10093
919.161	10173
919.272	9975
919.383	10112
919.494	10276
919.604	10417
919.715	10291
919.826	10223
919.936	10215
920.047	10371
920.157	10238
920.267	10523
920.378	10314
920.488	10204
920.598	10466
920.708	10592
920.818	10485
920.928	10474
921.038	10599
921.148	10588
921.258	10306
921.368	10261
921.477	10139
921.587	10169
921.697	9991
921.806	10150
921.916	9972
922.025	9934
922.134	9865
922.244	9686
922.353	9823
922.462	9740
922.571	9637
922.68	9568
922.789	9473
922.898	9488
923.007	9412
923.116	9511
923.224	9447
923.333	9530
923.442	9424
923.55	9340
923.659	9488
923.767	9466
923.876	9367
923.984	9439
924.092	9302
924.201	9355
924.309	9370
924.417	9393
924.525	9245
924.633	9302
924.741	10303
924.849	9157
924.956	9287
925.064	9104
925.172	9036
925.279	9146
925.387	9195
925.494	9176
925.602	9287
925.709	9222
925.816	9055
925.924	9161
926.031	9256
926.138	9211
926.245	9093
926.352	9093
926.459	9131
926.566	9249
926.673	9104
926.779	9047
926.886	9100
926.993	8864
927.099	8895
927.206	8815
927.312	8838
927.419	8880
927.525	8887
927.631	8948
927.737	8769
927.843	8792
927.95	8625
928.056	8724
928.162	8792
928.267	8853
928.373	9507
928.479	8826
928.585	8701
928.69	8758
928.796	8807
928.901	8667
929.007	8552
929.112	8716
929.218	8640
929.323	8583
929.428	8621
929.533	8746
929.638	8492
929.743	8579
929.848	8606
929.953	8594
930.058	8503
930.163	8313
930.267	8370
930.372	8431
930.477	8324
930.581	8587
930.685	8434
930.79	8259
930.894	8237
930.998	8252
931.103	8423
931.207	8092
931.311	8043
931.415	7974
931.519	7860
931.623	7822
