Data from test_V78500241_3307.txt Node
Date: Fri Mar 25 14:56:44 CST 2022
User: usil
Spectrometer: V785-0024
Trigger mode: 0
Integration Time (sec): 4.000000E-1
Scans to average: 1
Nonlinearity correction enabled: false
Boxcar width: 0
Storing dark spectrum: false
XAxis mode: Wavelengths
Number of Pixels in Spectrum: 1024
>>>>>Begin Spectral Data<<<<<
801.071	22010
801.214	21789
801.356	21663
801.499	21401
801.641	21435
801.783	21302
801.926	21428
802.068	21268
802.211	21310
802.353	21089
802.496	20853
802.638	20807
802.78	20697
802.923	20758
803.065	20568
803.208	20598
803.35	20644
803.492	20769
803.635	20811
803.777	20712
803.919	20754
804.061	20971
804.204	20781
804.346	20609
804.488	20480
804.63	20651
804.773	20587
804.915	20617
805.057	20765
805.199	20587
805.341	20602
805.483	20705
805.626	20625
805.768	20499
805.91	20537
806.052	20503
806.194	20412
806.336	20708
806.478	20476
806.62	20587
806.762	20773
806.904	20773
807.046	20975
807.188	20838
807.33	20834
807.472	20914
807.614	20830
807.756	20861
807.898	20800
808.04	20564
808.182	20545
808.324	20689
808.465	20693
808.607	20792
808.749	20956
808.891	21047
809.033	21085
809.174	21005
809.316	20788
809.458	20864
809.6	20914
809.741	20941
809.883	20967
810.025	21188
810.166	21081
810.308	20975
810.45	20982
810.591	20952
810.733	20712
810.875	20724
811.016	20625
811.158	20533
811.299	20773
811.441	20792
811.582	20815
811.724	20708
811.865	20651
812.007	20636
812.148	20625
812.29	20826
812.431	20765
812.573	21005
812.714	21074
812.855	21032
812.997	21184
813.138	21393
813.279	21245
813.421	21252
813.562	21089
813.703	20956
813.845	20876
813.986	20511
814.127	20400
814.268	20252
814.41	20221
814.551	20164
814.692	20271
814.833	20035
814.974	20130
815.115	20278
815.256	20126
815.397	20138
815.539	20069
815.68	20016
815.821	19909
815.962	20043
816.103	19845
816.244	19818
816.385	19677
816.526	19704
816.666	19518
816.807	19358
816.948	19384
817.089	19430
817.23	19407
817.371	19346
817.512	19331
817.653	19377
817.793	19381
817.934	19354
818.075	19400
818.216	19312
818.356	19293
818.497	19152
818.638	19019
818.778	19004
818.919	19027
819.06	19061
819.2	19099
819.341	19095
819.481	19308
819.622	19327
819.762	19434
819.903	19453
820.043	19384
820.184	19381
820.324	19206
820.465	19388
820.605	19377
820.746	19221
820.886	19168
821.026	19244
821.167	19202
821.307	19324
821.447	19148
821.588	19110
821.728	19000
821.868	18764
822.008	18665
822.149	18802
822.289	18703
822.429	18460
822.569	18475
822.709	18437
822.849	18152
822.99	18304
823.13	18273
823.27	18228
823.41	18011
823.55	17916
823.69	18022
823.83	18026
823.97	17863
824.11	17748
824.25	17790
824.389	17790
824.529	17710
824.669	17885
824.809	17878
824.949	17885
825.089	17836
825.228	17828
825.368	17630
825.508	17570
825.648	17653
825.787	17687
825.927	17726
826.067	17520
826.206	17482
826.346	17577
826.485	17619
826.625	17608
826.765	17687
826.904	17695
827.044	17360
827.183	17322
827.323	17140
827.462	17379
827.601	17299
827.741	17303
827.88	17258
828.02	17132
828.159	17227
828.298	17292
828.437	17326
828.577	17303
828.716	17516
828.855	17242
828.994	17052
829.134	17067
829.273	17094
829.412	17151
829.551	17045
829.69	17006
829.829	17056
829.968	17109
830.107	17102
830.246	17029
830.385	17003
830.524	16923
830.663	16923
830.802	16752
830.941	16672
831.08	16733
831.219	16713
831.357	16717
831.496	16900
831.635	16615
831.774	16577
831.913	16523
832.051	16455
832.19	16436
832.329	16478
832.467	16432
832.606	16287
832.744	16287
832.883	16363
833.022	16325
833.16	16299
833.299	16367
833.437	16512
833.576	16402
833.714	16360
833.852	16443
833.991	16428
834.129	16527
834.267	16402
834.406	16500
834.544	16417
834.682	16405
834.821	16405
834.959	16618
835.097	16360
835.235	16538
835.373	16436
835.511	16409
835.65	16337
835.788	16325
835.926	16196
836.064	16128
836.202	16192
836.34	16375
836.478	16390
836.615	16306
836.753	16341
836.891	16310
837.029	16390
837.167	16337
837.305	16230
837.443	16253
837.58	16124
837.718	16207
837.856	16280
837.993	16086
838.131	16268
838.269	16147
838.406	16090
838.544	16139
838.681	15979
838.819	15861
838.956	15755
839.094	15816
839.231	15770
839.369	15968
839.506	16051
839.643	16036
839.781	15774
839.918	15755
840.055	15759
840.193	15759
840.33	15816
840.467	15762
840.604	15720
840.742	15934
840.879	15557
841.016	15671
841.153	15705
841.29	15907
841.427	15778
841.564	15804
841.701	15713
841.838	15629
841.975	15660
842.112	15709
842.249	15515
842.385	15534
842.522	15682
842.659	15523
842.796	15545
842.933	15519
843.069	15526
843.206	15549
843.343	15656
843.479	15553
843.616	15530
843.752	15226
843.889	15370
844.025	15538
844.162	15321
844.298	15370
844.435	15306
844.571	15389
844.708	15447
844.844	15469
844.98	15473
845.117	15355
845.253	15249
845.389	15157
845.525	15245
845.661	15298
845.798	15192
845.934	15203
846.07	15051
846.206	15116
846.342	15211
846.478	15207
846.614	15017
846.75	14880
846.886	14929
847.022	14990
847.158	14815
847.294	14960
847.429	14956
847.565	14864
847.701	15138
847.837	14651
847.972	14640
848.108	14716
848.244	14750
848.379	14545
848.515	14514
848.65	14533
848.786	14442
848.921	14404
849.057	14613
849.192	14560
849.328	14507
849.463	14571
849.598	14389
849.734	14400
849.869	14324
850.004	14218
850.14	14408
850.275	14263
850.41	14256
850.545	14206
850.68	14218
850.815	14233
850.95	14248
851.085	14473
851.22	14324
851.355	14301
851.49	14229
851.625	14206
851.76	14172
851.895	14168
852.03	14168
852.165	14172
852.299	14336
852.434	14343
852.569	14317
852.703	14301
852.838	14320
852.973	14431
853.107	14385
853.242	14278
853.376	14130
853.511	14046
853.645	14054
853.78	14259
853.914	14275
854.048	14050
854.183	14103
854.317	14180
854.451	14328
854.585	14111
854.72	14088
854.854	14145
854.988	14024
855.122	14100
855.256	13970
855.39	14050
855.524	14240
855.658	14237
855.792	14149
855.926	14191
856.06	14263
856.194	14290
856.327	14172
856.461	14202
856.595	14126
856.729	14123
856.862	14168
856.996	14290
857.13	14210
857.263	14210
857.397	14259
857.53	14073
857.664	14275
857.797	14336
857.931	14282
858.064	14218
858.197	14252
858.331	14111
858.464	14138
858.597	13997
858.731	14145
858.864	14183
858.997	14199
859.13	14142
859.263	14164
859.396	14119
859.529	14020
859.662	14092
859.795	14077
859.928	14149
860.061	14252
860.194	14199
860.327	14153
860.46	14164
860.592	14366
860.725	14267
860.858	14263
860.99	14107
861.123	14073
861.256	14081
861.388	14130
861.521	14891
861.653	14096
861.786	13967
861.918	14054
862.05	14176
862.183	14119
862.315	14103
862.447	14107
862.58	14046
862.712	13894
862.844	13864
862.976	13947
863.108	13993
863.24	14267
863.372	13799
863.504	13982
863.636	13871
863.768	14016
863.9	13944
864.032	13811
864.164	13887
864.296	14005
864.428	14046
864.559	14088
864.691	13909
864.823	14065
864.954	14005
865.086	13967
865.217	13909
865.349	13814
865.48	13997
865.612	13936
865.743	14077
865.875	13955
866.006	13917
866.137	13970
866.269	13928
866.4	13959
866.531	13898
866.662	13811
866.793	13826
866.924	13928
867.055	13906
867.186	13879
867.317	13917
867.448	13913
867.579	13917
867.71	13776
867.841	13830
867.972	13917
868.103	13974
868.233	14039
868.364	13936
868.495	13997
868.625	14084
868.756	14271
868.886	14046
869.017	14202
869.147	14271
869.278	14259
869.408	14168
869.539	14142
869.669	14244
869.799	14183
869.929	14324
870.06	14423
870.19	14465
870.32	14469
870.45	14522
870.58	14415
870.71	14667
870.84	14708
870.97	14549
871.1	14511
871.23	14724
871.36	14651
871.489	14689
871.619	14773
871.749	14834
871.879	14785
872.008	14891
872.138	14773
872.267	14773
872.397	14606
872.526	14655
872.656	14545
872.785	14598
872.915	14777
873.044	14891
873.173	14781
873.303	14845
873.432	14883
873.561	14963
873.69	14921
873.819	14815
873.948	14914
874.077	14792
874.206	14826
874.335	14849
874.464	15036
874.593	15108
874.722	15051
874.851	15093
874.979	15051
875.108	15157
875.237	15028
875.365	15032
875.494	15112
875.623	15192
875.751	15150
875.88	15150
876.008	15310
876.136	15325
876.265	15591
876.393	15652
876.521	15595
876.65	15660
876.778	15595
876.906	15496
877.034	15393
877.162	15553
877.29	15534
877.418	15496
877.546	15496
877.674	15572
877.802	15530
877.93	15557
878.058	15515
878.185	15492
878.313	15526
878.441	15549
878.568	15348
878.696	15488
878.824	15534
878.951	15641
879.079	15789
879.206	15915
879.333	15663
879.461	15717
879.588	15701
879.715	15770
879.842	15743
879.97	15568
880.097	15348
880.224	15389
880.351	15401
880.478	15393
880.605	15386
880.732	15382
880.859	15526
880.986	15397
881.112	15348
881.239	15313
881.366	15192
881.493	15214
881.619	15055
881.746	15047
881.872	15017
881.999	14982
882.125	14990
882.252	15062
882.378	15104
882.505	15260
882.631	15112
882.757	14849
882.883	14902
883.01	14880
883.136	14804
883.262	14781
883.388	14712
883.514	14842
883.64	14880
883.766	14826
883.892	14686
884.018	14743
884.143	14834
884.269	14952
884.395	14678
884.52	14571
884.646	14682
884.772	14522
884.897	14336
885.023	14484
885.148	14670
885.274	14708
885.399	14655
885.524	14533
885.65	14655
885.775	14575
885.9	14549
886.025	14667
886.15	14727
886.275	14594
886.4	14541
886.525	14583
886.65	14594
886.775	14545
886.9	14765
887.025	14842
887.149	14575
887.274	14366
887.399	14438
887.523	14431
887.648	14324
887.773	14278
887.897	14499
888.021	14476
888.146	14256
888.27	14530
888.395	14514
888.519	14476
888.643	14511
888.767	14377
888.891	14393
889.015	14210
889.139	14225
889.263	14176
889.387	14400
889.511	14454
889.635	14377
889.759	14164
889.883	14256
890.006	14343
890.13	14415
890.254	14294
890.377	14309
890.501	14081
890.624	14088
890.748	14100
890.871	14065
890.995	13955
891.118	13951
891.241	14065
891.364	13967
891.488	14054
891.611	14020
891.734	14046
891.857	14031
891.98	14073
892.103	13951
892.226	14062
892.349	14077
892.471	13830
892.594	13982
892.717	13974
892.839	13944
892.962	14092
893.085	13997
893.207	13974
893.33	13841
893.452	13970
893.575	14096
893.697	13909
893.819	14168
893.941	14237
894.064	14107
894.186	13849
894.308	13925
894.43	14073
894.552	14161
894.674	14111
894.796	14043
894.918	14031
895.04	14054
895.161	14157
895.283	14142
895.405	14126
895.526	14046
895.648	14138
895.769	14054
895.891	14130
896.012	14221
896.134	14164
896.255	14191
896.376	14088
896.498	14115
896.619	14176
896.74	14149
896.861	14206
896.982	14583
897.103	14621
897.224	14412
897.345	14423
897.466	14358
897.587	14454
897.708	14541
897.828	14575
897.949	14484
898.07	14244
898.19	14412
898.311	14560
898.431	14454
898.552	14495
898.672	14632
898.792	14667
898.913	14537
899.033	14484
899.153	14370
899.273	14347
899.393	14237
899.513	14446
899.633	14404
899.753	14259
899.873	14298
899.993	14446
900.113	14355
900.232	14374
900.352	14377
900.472	14206
900.591	14210
900.711	14229
900.83	14202
900.95	14313
901.069	14389
901.189	14202
901.308	13944
901.427	13830
901.546	13902
901.665	13868
901.784	13894
901.904	13753
902.023	13605
902.141	13609
902.26	13472
902.379	13590
902.498	13506
902.617	13415
902.735	13567
902.854	13499
902.973	13419
903.091	13209
903.21	13187
903.328	13278
903.446	13080
903.565	13065
903.683	13057
903.801	13053
903.919	13015
904.038	13042
904.156	12882
904.274	12859
904.392	12894
904.51	12924
904.627	12833
904.745	12970
904.863	12886
904.981	12658
905.098	12509
905.216	12589
905.334	12544
905.451	12566
905.569	12517
905.686	12608
905.803	12574
905.921	12334
906.038	12483
906.155	12445
906.272	12346
906.389	12289
906.506	12175
906.623	12079
906.74	12098
906.857	11980
906.974	12095
907.091	12155
907.208	12239
907.324	12163
907.441	12060
907.557	11927
907.674	11901
907.79	11874
907.907	11851
908.023	12041
908.139	11999
908.256	11809
908.372	11805
908.488	11817
908.604	11657
908.72	11608
908.836	11726
908.952	11558
909.068	11752
909.184	11741
909.3	11600
909.415	11676
909.531	11703
909.647	11528
909.762	11356
909.878	11391
909.993	11490
910.108	11334
910.224	11448
910.339	11444
910.454	11307
910.57	11284
910.685	11155
910.8	11589
910.915	11341
911.03	11273
911.145	11147
911.259	11071
911.374	11162
911.489	11067
911.604	10953
911.718	10923
911.833	10927
911.947	10820
912.062	10664
912.176	10873
912.291	10919
912.405	10900
912.519	10968
912.633	11060
912.748	10965
912.862	10885
912.976	10809
913.09	10694
913.204	10725
913.318	10824
913.431	10835
913.545	10812
913.659	10892
913.772	10805
913.886	10687
914	10588
914.113	10698
914.226	10790
914.34	10714
914.453	10622
914.566	10653
914.68	10584
914.793	10554
914.906	10390
915.019	10367
915.132	10291
915.245	10375
915.358	10329
915.47	10436
915.583	10459
915.696	10394
915.809	10512
915.921	10554
916.034	10428
916.146	10398
916.259	10344
916.371	10432
916.483	10428
916.595	10421
916.708	10443
916.82	10413
916.932	10272
917.044	10363
917.156	10348
917.268	10200
917.38	10234
917.491	10207
917.603	10284
917.715	10322
917.826	10337
917.938	10223
918.049	10071
918.161	10230
918.272	10363
918.384	10409
918.495	10253
918.606	10185
918.717	10044
918.828	10147
918.939	10105
919.05	10021
919.161	10112
919.272	9964
919.383	10048
919.494	10093
919.604	10382
919.715	10166
919.826	10048
919.936	10128
920.047	10200
920.157	10219
920.267	10379
920.378	10188
920.488	10154
920.598	10382
920.708	10459
920.818	10363
920.928	10257
921.038	10470
921.148	10466
921.258	10166
921.368	10090
921.477	9960
921.587	9945
921.697	9922
921.806	10059
921.916	9884
922.025	9724
922.134	9717
922.244	9698
922.353	9709
922.462	9584
922.571	9481
922.68	9466
922.789	9382
922.898	9450
923.007	9344
923.116	9477
923.224	9344
923.333	9431
923.442	9291
923.55	9298
923.659	9310
923.767	9386
923.876	9245
923.984	9370
924.092	9298
924.201	9264
924.309	9272
924.417	9298
924.525	9256
924.633	9241
924.741	10158
924.849	9074
924.956	9230
925.064	9013
925.172	8994
925.279	9009
925.387	9131
925.494	8990
925.602	9077
925.709	9089
925.816	8998
925.924	9043
926.031	9116
926.138	9146
926.245	9020
926.352	8952
926.459	9085
926.566	9249
926.673	9066
926.779	8941
926.886	8925
926.993	8800
927.099	8800
927.206	8750
927.312	8743
927.419	8845
927.525	8788
927.631	8758
927.737	8697
927.843	8686
927.95	8564
928.056	8682
928.162	8613
928.267	8697
928.373	9317
928.479	8766
928.585	8560
928.69	8610
928.796	8716
928.901	8590
929.007	8461
929.112	8697
929.218	8617
929.323	8454
929.428	8393
929.533	8583
929.638	8473
929.743	8488
929.848	8514
929.953	8511
930.058	8423
930.163	8187
930.267	8237
930.372	8427
930.477	8206
930.581	8454
930.685	8336
930.79	8214
930.894	8256
930.998	8100
931.103	8324
931.207	7989
931.311	7967
931.415	7898
931.519	7696
931.623	7700
