Data from test_V78500241_2656.txt Node
Date: Fri Mar 25 14:52:12 CST 2022
User: usil
Spectrometer: V785-0024
Trigger mode: 0
Integration Time (sec): 4.000000E-1
Scans to average: 1
Nonlinearity correction enabled: false
Boxcar width: 0
Storing dark spectrum: false
XAxis mode: Wavelengths
Number of Pixels in Spectrum: 1024
>>>>>Begin Spectral Data<<<<<
801.071	22036
801.214	21808
801.356	21682
801.499	21526
801.641	21344
801.783	21405
801.926	21302
802.068	21279
802.211	21268
802.353	21058
802.496	20956
802.638	20883
802.78	20914
802.923	20720
803.065	20686
803.208	20727
803.35	20621
803.492	20823
803.635	20807
803.777	20754
803.919	20689
804.061	21001
804.204	20678
804.346	20606
804.488	20537
804.63	20644
804.773	20575
804.915	20765
805.057	20674
805.199	20571
805.341	20648
805.483	20861
805.626	20750
805.768	20609
805.91	20689
806.052	20598
806.194	20511
806.336	20727
806.478	20549
806.62	20629
806.762	20678
806.904	20746
807.046	21020
807.188	20834
807.33	20960
807.472	20902
807.614	20823
807.756	20762
807.898	20739
808.04	20636
808.182	20606
808.324	20632
808.465	20659
808.607	20743
808.749	21009
808.891	20986
809.033	21173
809.174	21005
809.316	20823
809.458	20941
809.6	20891
809.741	20990
809.883	21062
810.025	21116
810.166	21062
810.308	21032
810.45	20899
810.591	20918
810.733	20819
810.875	20811
811.016	20621
811.158	20568
811.299	20743
811.441	20811
811.582	20941
811.724	20743
811.865	20773
812.007	20773
812.148	20750
812.29	20762
812.431	20849
812.573	21005
812.714	21089
812.855	21245
812.997	21245
813.138	21469
813.279	21348
813.421	21329
813.562	21093
813.703	20963
813.845	20746
813.986	20705
814.127	20552
814.268	20332
814.41	20336
814.551	20324
814.692	20298
814.833	20081
814.974	20210
815.115	20202
815.256	20050
815.397	20130
815.539	20275
815.68	19967
815.821	20054
815.962	20016
816.103	19947
816.244	19890
816.385	19742
816.526	19723
816.666	19571
816.807	19422
816.948	19540
817.089	19552
817.23	19422
817.371	19426
817.512	19331
817.653	19472
817.793	19289
817.934	19415
818.075	19518
818.216	19411
818.356	19453
818.497	19171
818.638	19019
818.778	19004
818.919	19088
819.06	19103
819.2	19388
819.341	19236
819.481	19407
819.622	19460
819.762	19533
819.903	19575
820.043	19575
820.184	19324
820.324	19533
820.465	19472
820.605	19487
820.746	19381
820.886	19164
821.026	19472
821.167	19293
821.307	19407
821.447	19350
821.588	19183
821.728	19152
821.868	18962
822.008	18856
822.149	18928
822.289	18738
822.429	18555
822.569	18437
822.709	18494
822.849	18376
822.99	18353
823.13	18254
823.27	18262
823.41	18098
823.55	18011
823.69	18136
823.83	18136
823.97	18030
824.11	17889
824.25	17863
824.389	17901
824.529	17889
824.669	17908
824.809	17874
824.949	17961
825.089	17901
825.228	17790
825.368	17733
825.508	17615
825.648	17771
825.787	17764
825.927	17718
826.067	17627
826.206	17741
826.346	17805
826.485	17714
826.625	17661
826.765	17802
826.904	17653
827.044	17509
827.183	17376
827.323	17459
827.462	17471
827.601	17467
827.741	17326
827.88	17337
828.02	17185
828.159	17273
828.298	17330
828.437	17436
828.577	17425
828.716	17532
828.855	17315
828.994	17090
829.134	17151
829.273	17143
829.412	17159
829.551	16965
829.69	17018
829.829	17113
829.968	17132
830.107	17265
830.246	17166
830.385	16991
830.524	16995
830.663	17045
830.802	16797
830.941	16759
831.08	16672
831.219	16713
831.357	16873
831.496	16885
831.635	16717
831.774	16710
831.913	16500
832.051	16516
832.19	16565
832.329	16500
832.467	16436
832.606	16295
832.744	16470
832.883	16489
833.022	16318
833.16	16470
833.299	16417
833.437	16478
833.576	16569
833.714	16451
833.852	16466
833.991	16538
834.129	16622
834.267	16455
834.406	16516
834.544	16531
834.682	16489
834.821	16531
834.959	16611
835.097	16481
835.235	16561
835.373	16516
835.511	16459
835.65	16421
835.788	16402
835.926	16238
836.064	16124
836.202	16268
836.34	16382
836.478	16516
836.615	16348
836.753	16424
836.891	16455
837.029	16333
837.167	16341
837.305	16428
837.443	16314
837.58	16177
837.718	16428
837.856	16390
837.993	16287
838.131	16303
838.269	16226
838.406	16200
838.544	16173
838.681	16032
838.819	15941
838.956	15831
839.094	15778
839.231	15804
839.369	15972
839.506	16215
839.643	16040
839.781	15918
839.918	15774
840.055	15789
840.193	15911
840.33	15854
840.467	15873
840.604	15759
840.742	16097
840.879	15671
841.016	15869
841.153	15705
841.29	15956
841.427	15865
841.564	15823
841.701	15850
841.838	15785
841.975	15705
842.112	15759
842.249	15728
842.385	15637
842.522	15724
842.659	15564
842.796	15641
842.933	15599
843.069	15534
843.206	15580
843.343	15690
843.479	15682
843.616	15709
843.752	15492
843.889	15473
844.025	15507
844.162	15291
844.298	15606
844.435	15485
844.571	15317
844.708	15401
844.844	15549
844.98	15534
845.117	15504
845.253	15428
845.389	15165
845.525	15310
845.661	15336
845.798	15207
845.934	15233
846.07	15192
846.206	15256
846.342	15317
846.478	15237
846.614	15009
846.75	14960
846.886	14895
847.022	15100
847.158	14925
847.294	14982
847.429	15066
847.565	14937
847.701	15195
847.837	14667
847.972	14682
848.108	14804
848.244	14826
848.379	14682
848.515	14575
848.65	14632
848.786	14651
848.921	14514
849.057	14682
849.192	14610
849.328	14610
849.463	14492
849.598	14541
849.734	14541
849.869	14488
850.004	14427
850.14	14393
850.275	14339
850.41	14278
850.545	14282
850.68	14298
850.815	14415
850.95	14313
851.085	14530
851.22	14427
851.355	14355
851.49	14336
851.625	14328
851.76	14377
851.895	14294
852.03	14240
852.165	14347
852.299	14400
852.434	14427
852.569	14446
852.703	14339
852.838	14389
852.973	14461
853.107	14412
853.242	14362
853.376	14237
853.511	14123
853.645	14100
853.78	14244
853.914	14301
854.048	14256
854.183	14172
854.317	14218
854.451	14339
854.585	14313
854.72	14172
854.854	14290
854.988	14142
855.122	14275
855.256	14069
855.39	14145
855.524	14240
855.658	14298
855.792	14229
855.926	14229
856.06	14313
856.194	14362
856.327	14233
856.461	14153
856.595	14119
856.729	14164
856.862	14294
856.996	14317
857.13	14298
857.263	14347
857.397	14347
857.53	14237
857.664	14336
857.797	14320
857.931	14362
858.064	14263
858.197	14362
858.331	14195
858.464	14252
858.597	14176
858.731	14172
858.864	14149
858.997	14111
859.13	14256
859.263	14320
859.396	14324
859.529	14339
859.662	14183
859.795	14195
859.928	14286
860.061	14355
860.194	14450
860.327	14214
860.46	14206
860.592	14286
860.725	14309
860.858	14332
860.99	14187
861.123	14073
861.256	14157
861.388	14218
861.521	14864
861.653	14123
861.786	14039
861.918	14024
862.05	14145
862.183	14153
862.315	14199
862.447	14199
862.58	14164
862.712	13917
862.844	13894
862.976	14062
863.108	13955
863.24	14355
863.372	13970
863.504	13906
863.636	14016
863.768	14043
863.9	13989
864.032	13883
864.164	14024
864.296	13909
864.428	14115
864.559	14107
864.691	14096
864.823	14024
864.954	14077
865.086	14046
865.217	13947
865.349	13894
865.48	14001
865.612	14012
865.743	14111
865.875	13978
866.006	13856
866.137	13993
866.269	13883
866.4	14005
866.531	13951
866.662	13963
866.793	13993
866.924	13906
867.055	13852
867.186	13955
867.317	13909
867.448	13947
867.579	13940
867.71	13928
867.841	13849
867.972	13986
868.103	14043
868.233	13944
868.364	14054
868.495	14050
868.625	14290
868.756	14362
868.886	13997
869.017	14240
869.147	14259
869.278	14438
869.408	14301
869.539	14267
869.669	14294
869.799	14282
869.929	14362
870.06	14351
870.19	14480
870.32	14499
870.45	14560
870.58	14712
870.71	14735
870.84	14727
870.97	14689
871.1	14625
871.23	14781
871.36	14823
871.489	14754
871.619	14777
871.749	14872
871.879	14819
872.008	15013
872.138	14777
872.267	14823
872.397	14697
872.526	14667
872.656	14678
872.785	14811
872.915	14891
873.044	14941
873.173	14800
873.303	14971
873.432	14906
873.561	14941
873.69	14876
873.819	14906
873.948	15009
874.077	14868
874.206	14861
874.335	15017
874.464	15039
874.593	15161
874.722	15074
874.851	15287
874.979	15199
875.108	15340
875.237	15036
875.365	15097
875.494	15142
875.623	15237
875.751	15123
875.88	15256
876.008	15344
876.136	15428
876.265	15564
876.393	15766
876.521	15686
876.65	15720
876.778	15591
876.906	15603
877.034	15572
877.162	15625
877.29	15663
877.418	15675
877.546	15576
877.674	15568
877.802	15652
877.93	15660
878.058	15595
878.185	15477
878.313	15587
878.441	15625
878.568	15511
878.696	15576
878.824	15637
878.951	15622
879.079	15686
879.206	15903
879.333	15831
879.461	15618
879.588	15797
879.715	15785
879.842	15861
879.97	15663
880.097	15511
880.224	15431
880.351	15504
880.478	15485
880.605	15424
880.732	15428
880.859	15751
880.986	15507
881.112	15526
881.239	15485
881.366	15313
881.493	15192
881.619	15074
881.746	15074
881.872	15043
881.999	15218
882.125	15043
882.252	15207
882.378	15154
882.505	15291
882.631	15058
882.757	14948
882.883	14956
883.01	15036
883.136	14864
883.262	14887
883.388	14785
883.514	14975
883.64	15039
883.766	14807
883.892	14788
884.018	14720
884.143	14948
884.269	14914
884.395	14785
884.52	14583
884.646	14674
884.772	14575
884.897	14568
885.023	14590
885.148	14705
885.274	14716
885.399	14739
885.524	14667
885.65	14625
885.775	14667
885.9	14533
886.025	14845
886.15	14651
886.275	14636
886.4	14511
886.525	14697
886.65	14579
886.775	14632
886.9	14826
887.025	14807
887.149	14670
887.274	14393
887.399	14438
887.523	14499
887.648	14465
887.773	14332
887.897	14526
888.021	14579
888.146	14404
888.27	14579
888.395	14636
888.519	14495
888.643	14564
888.767	14541
888.891	14377
889.015	14343
889.139	14454
889.263	14309
889.387	14408
889.511	14583
889.635	14423
889.759	14309
889.883	14313
890.006	14358
890.13	14480
890.254	14301
890.377	14271
890.501	14195
890.624	14103
890.748	14157
890.871	14058
890.995	13959
891.118	13932
891.241	14214
891.364	14111
891.488	14191
891.611	14054
891.734	14065
891.857	14058
891.98	14027
892.103	14161
892.226	14183
892.349	13978
892.471	13864
892.594	13936
892.717	14069
892.839	14024
892.962	13997
893.085	14153
893.207	14126
893.33	13921
893.452	13993
893.575	14096
893.697	13993
893.819	14305
893.941	14320
894.064	14290
894.186	14043
894.308	14031
894.43	14119
894.552	14248
894.674	14191
894.796	14024
894.918	14164
895.04	14054
895.161	14225
895.283	14126
895.405	14176
895.526	14134
895.648	14286
895.769	14229
895.891	14263
896.012	14214
896.134	14225
896.255	14191
896.376	14221
896.498	14199
896.619	14305
896.74	14248
896.861	14256
896.982	14545
897.103	14720
897.224	14571
897.345	14518
897.466	14495
897.587	14518
897.708	14568
897.828	14499
897.949	14469
898.07	14404
898.19	14377
898.311	14629
898.431	14511
898.552	14590
898.672	14644
898.792	14636
898.913	14560
899.033	14511
899.153	14385
899.273	14370
899.393	14412
899.513	14393
899.633	14495
899.753	14393
899.873	14233
899.993	14454
900.113	14404
900.232	14484
900.352	14408
900.472	14317
900.591	14229
900.711	14415
900.83	14275
900.95	14366
901.069	14362
901.189	14214
901.308	13894
901.427	14005
901.546	14012
901.665	14077
901.784	13932
901.904	13830
902.023	13750
902.141	13605
902.26	13559
902.379	13613
902.498	13480
902.617	13464
902.735	13670
902.854	13499
902.973	13476
903.091	13282
903.21	13335
903.328	13282
903.446	13171
903.565	13107
903.683	13187
903.801	12993
903.919	13057
904.038	13072
904.156	12905
904.274	13000
904.392	13004
904.51	12852
904.627	12954
904.745	12935
904.863	12985
904.981	12783
905.098	12650
905.216	12703
905.334	12608
905.451	12669
905.569	12517
905.686	12608
905.803	12677
905.921	12403
906.038	12570
906.155	12426
906.272	12311
906.389	12353
906.506	12205
906.623	12251
906.74	12194
906.857	12110
906.974	12076
907.091	12270
907.208	12296
907.324	12277
907.441	12091
907.557	12026
907.674	11942
907.79	11939
907.907	11935
908.023	11961
908.139	11954
908.256	11878
908.372	11855
908.488	11866
908.604	11699
908.72	11714
908.836	11779
908.952	11649
909.068	11726
909.184	11775
909.3	11722
909.415	11760
909.531	11699
909.647	11585
909.762	11448
909.878	11471
909.993	11452
910.108	11497
910.224	11482
910.339	11558
910.454	11379
910.57	11337
910.685	11277
910.8	11577
910.915	11467
911.03	11406
911.145	11254
911.259	11181
911.374	11117
911.489	11132
911.604	11052
911.718	10919
911.833	10949
911.947	10847
912.062	10858
912.176	10995
912.291	10930
912.405	10896
912.519	11124
912.633	11090
912.748	11010
912.862	10987
912.976	10828
913.09	10710
913.204	10843
913.318	10839
913.431	10877
913.545	10953
913.659	10919
913.772	10812
913.886	10706
914	10710
914.113	10828
914.226	10862
914.34	10809
914.453	10618
914.566	10801
914.68	10706
914.793	10702
914.906	10436
915.019	10459
915.132	10306
915.245	10500
915.358	10447
915.47	10489
915.583	10474
915.696	10527
915.809	10573
915.921	10565
916.034	10436
916.146	10447
916.259	10352
916.371	10527
916.483	10398
916.595	10402
916.708	10344
916.82	10329
916.932	10352
917.044	10375
917.156	10371
917.268	10211
917.38	10329
917.491	10299
917.603	10390
917.715	10379
917.826	10470
917.938	10284
918.049	10265
918.161	10272
918.272	10371
918.384	10421
918.495	10280
918.606	10093
918.717	10048
918.828	10177
918.939	10249
919.05	10017
919.161	10162
919.272	10040
919.383	10021
919.494	10162
919.604	10432
919.715	10112
919.826	10109
919.936	10192
920.047	10310
920.157	10169
920.267	10379
920.378	10303
920.488	10192
920.598	10367
920.708	10485
920.818	10329
920.928	10375
921.038	10542
921.148	10516
921.258	10272
921.368	10139
921.477	10051
921.587	10025
921.697	9960
921.806	10044
921.916	9915
922.025	9709
922.134	9656
922.244	9686
922.353	9835
922.462	9618
922.571	9534
922.68	9435
922.789	9466
922.898	9405
923.007	9374
923.116	9439
923.224	9458
923.333	9386
923.442	9249
923.55	9332
923.659	9344
923.767	9447
923.876	9272
923.984	9344
924.092	9268
924.201	9313
924.309	9275
924.417	9306
924.525	9211
924.633	9298
924.741	10040
924.849	9028
924.956	9195
925.064	9043
925.172	9032
925.279	9058
925.387	9135
925.494	9199
925.602	9180
925.709	9127
925.816	9070
925.924	9112
926.031	9157
926.138	9108
926.245	9161
926.352	8960
926.459	9108
926.566	9169
926.673	9100
926.779	8994
926.886	8937
926.993	8830
927.099	8819
927.206	8781
927.312	8746
927.419	8838
927.525	8804
927.631	8785
927.737	8678
927.843	8625
927.95	8606
928.056	8629
928.162	8689
928.267	8743
928.373	9340
928.479	8868
928.585	8598
928.69	8674
928.796	8716
928.901	8636
929.007	8488
929.112	8678
929.218	8606
929.323	8530
929.428	8541
929.533	8716
929.638	8495
929.743	8568
929.848	8514
929.953	8484
930.058	8431
930.163	8336
930.267	8332
930.372	8461
930.477	8301
930.581	8507
930.685	8366
930.79	8252
930.894	8244
930.998	8244
931.103	8381
931.207	8111
931.311	7940
931.415	7879
931.519	7719
931.623	7780
