Data from test_V78500241_3527.txt Node
Date: Fri Mar 25 14:58:16 CST 2022
User: usil
Spectrometer: V785-0024
Trigger mode: 0
Integration Time (sec): 4.000000E-1
Scans to average: 1
Nonlinearity correction enabled: false
Boxcar width: 0
Storing dark spectrum: false
XAxis mode: Wavelengths
Number of Pixels in Spectrum: 1024
>>>>>Begin Spectral Data<<<<<
801.071	22025
801.214	21827
801.356	21603
801.499	21530
801.641	21310
801.783	21218
801.926	21336
802.068	21218
802.211	21127
802.353	21089
802.496	20804
802.638	20629
802.78	20739
802.923	20648
803.065	20537
803.208	20499
803.35	20606
803.492	20625
803.635	20720
803.777	20621
803.919	20636
804.061	20944
804.204	20606
804.346	20533
804.488	20541
804.63	20530
804.773	20484
804.915	20408
805.057	20613
805.199	20503
805.341	20503
805.483	20575
805.626	20602
805.768	20495
805.91	20469
806.052	20602
806.194	20473
806.336	20549
806.478	20511
806.62	20393
806.762	20522
806.904	20693
807.046	21013
807.188	20857
807.33	20792
807.472	20941
807.614	20746
807.756	20705
807.898	20541
808.04	20484
808.182	20503
808.324	20484
808.465	20625
808.607	20826
808.749	20925
808.891	20834
809.033	20826
809.174	20910
809.316	20880
809.458	20834
809.6	20773
809.741	20807
809.883	20937
810.025	20994
810.166	21062
810.308	20967
810.45	20899
810.591	20895
810.733	20697
810.875	20716
811.016	20545
811.158	20492
811.299	20667
811.441	20758
811.582	20663
811.724	20636
811.865	20522
812.007	20617
812.148	20636
812.29	20575
812.431	20861
812.573	20925
812.714	21077
812.855	21161
812.997	21298
813.138	21283
813.279	21195
813.421	21123
813.562	21039
813.703	20948
813.845	20838
813.986	20400
814.127	20290
814.268	20248
814.41	20183
814.551	20168
814.692	20126
814.833	20001
814.974	20157
815.115	20012
815.256	19925
815.397	19951
815.539	19967
815.68	19955
815.821	19826
815.962	19967
816.103	19860
816.244	19738
816.385	19586
816.526	19590
816.666	19529
816.807	19270
816.948	19464
817.089	19529
817.23	19297
817.371	19282
817.512	19251
817.653	19217
817.793	19244
817.934	19236
818.075	19308
818.216	19141
818.356	19282
818.497	19107
818.638	18989
818.778	18981
818.919	19004
819.06	19050
819.2	19038
819.341	19046
819.481	19202
819.622	19247
819.762	19476
819.903	19388
820.043	19179
820.184	19266
820.324	19217
820.465	19316
820.605	19282
820.746	19274
820.886	19164
821.026	19217
821.167	19266
821.307	19282
821.447	19156
821.588	19095
821.728	19008
821.868	18825
822.008	18597
822.149	18684
822.289	18642
822.429	18467
822.569	18330
822.709	18334
822.849	18285
822.99	18171
823.13	18197
823.27	18144
823.41	18022
823.55	17912
823.69	18106
823.83	17931
823.97	17851
824.11	17790
824.25	17691
824.389	17824
824.529	17729
824.669	17798
824.809	17870
824.949	17714
825.089	17821
825.228	17767
825.368	17554
825.508	17509
825.648	17535
825.787	17604
825.927	17592
826.067	17501
826.206	17493
826.346	17493
826.485	17585
826.625	17551
826.765	17615
826.904	17581
827.044	17284
827.183	17303
827.323	17197
827.462	17299
827.601	17292
827.741	17159
827.88	17231
828.02	17098
828.159	17242
828.298	17223
828.437	17299
828.577	17193
828.716	17326
828.855	17185
828.994	17006
829.134	16942
829.273	16965
829.412	16915
829.551	16946
829.69	16976
829.829	16976
829.968	17003
830.107	17045
830.246	17037
830.385	16908
830.524	16991
830.663	16847
830.802	16771
830.941	16653
831.08	16573
831.219	16603
831.357	16679
831.496	16736
831.635	16569
831.774	16519
831.913	16516
832.051	16428
832.19	16394
832.329	16512
832.467	16413
832.606	16207
832.744	16295
832.883	16337
833.022	16310
833.16	16341
833.299	16284
833.437	16432
833.576	16390
833.714	16440
833.852	16276
833.991	16367
834.129	16405
834.267	16508
834.406	16356
834.544	16356
834.682	16382
834.821	16261
834.959	16481
835.097	16329
835.235	16455
835.373	16447
835.511	16363
835.65	16223
835.788	16363
835.926	16169
836.064	16044
836.202	16109
836.34	16280
836.478	16432
836.615	16276
836.753	16234
836.891	16386
837.029	16249
837.167	16287
837.305	16192
837.443	16162
837.58	16314
837.718	16215
837.856	16169
837.993	16154
838.131	16223
838.269	16071
838.406	16158
838.544	15994
838.681	15869
838.819	15854
838.956	15717
839.094	15667
839.231	15762
839.369	15907
839.506	16116
839.643	15972
839.781	15720
839.918	15724
840.055	15663
840.193	15717
840.33	15667
840.467	15682
840.604	15724
840.742	15994
840.879	15538
841.016	15591
841.153	15717
841.29	15789
841.427	15762
841.564	15797
841.701	15846
841.838	15580
841.975	15671
842.112	15599
842.249	15481
842.385	15576
842.522	15671
842.659	15534
842.796	15458
842.933	15561
843.069	15466
843.206	15477
843.343	15641
843.479	15416
843.616	15496
843.752	15370
843.889	15332
844.025	15329
844.162	15344
844.298	15477
844.435	15237
844.571	15291
844.708	15294
844.844	15344
844.98	15530
845.117	15340
845.253	15161
845.389	15252
845.525	15272
845.661	15214
845.798	14982
845.934	15207
846.07	15039
846.206	15123
846.342	15249
846.478	15089
846.614	14975
846.75	14891
846.886	14758
847.022	15074
847.158	14853
847.294	14823
847.429	14834
847.565	14891
847.701	15024
847.837	14606
847.972	14511
848.108	14720
848.244	14613
848.379	14454
848.515	14564
848.65	14473
848.786	14522
848.921	14412
849.057	14556
849.192	14579
849.328	14476
849.463	14522
849.598	14358
849.734	14309
849.869	14301
850.004	14233
850.14	14229
850.275	14244
850.41	14130
850.545	14176
850.68	14183
850.815	14278
850.95	14218
851.085	14442
851.22	14374
851.355	14206
851.49	14202
851.625	14142
851.76	14225
851.895	14130
852.03	14164
852.165	14145
852.299	14324
852.434	14328
852.569	14248
852.703	14263
852.838	14419
852.973	14324
853.107	14336
853.242	14202
853.376	14138
853.511	14058
853.645	14054
853.78	14206
853.914	14088
854.048	14027
854.183	14100
854.317	14092
854.451	14415
854.585	14164
854.72	14035
854.854	14176
854.988	13959
855.122	14050
855.256	13986
855.39	14229
855.524	14218
855.658	14145
855.792	14130
855.926	14103
856.06	14077
856.194	14244
856.327	14221
856.461	14020
856.595	14096
856.729	14043
856.862	14263
856.996	14195
857.13	14221
857.263	14286
857.397	14286
857.53	14126
857.664	14142
857.797	14157
857.931	14263
858.064	14210
858.197	14218
858.331	14046
858.464	14084
858.597	14046
858.731	14058
858.864	14069
858.997	14077
859.13	14164
859.263	14123
859.396	14199
859.529	14126
859.662	14065
859.795	14081
859.928	14233
860.061	14233
860.194	14358
860.327	14123
860.46	14096
860.592	14244
860.725	14225
860.858	14275
860.99	14187
861.123	13963
861.256	14020
861.388	14100
861.521	14948
861.653	14001
861.786	13936
861.918	13989
862.05	14027
862.183	14039
862.315	14111
862.447	14092
862.58	14119
862.712	13898
862.844	13837
862.976	13928
863.108	13959
863.24	14199
863.372	13852
863.504	13860
863.636	13940
863.768	13890
863.9	13925
864.032	13849
864.164	13811
864.296	13959
864.428	14054
864.559	14043
864.691	13936
864.823	14046
864.954	14020
865.086	13936
865.217	13841
865.349	13871
865.48	13890
865.612	13913
865.743	14081
865.875	13811
866.006	13921
866.137	13871
866.269	13887
866.4	13856
866.531	13799
866.662	13769
866.793	13826
866.924	13860
867.055	13906
867.186	13902
867.317	13890
867.448	13723
867.579	13814
867.71	13715
867.841	13845
867.972	14008
868.103	13670
868.233	13940
868.364	13818
868.495	13921
868.625	14229
868.756	14195
868.886	14046
869.017	14077
869.147	14180
869.278	14214
869.408	14225
869.539	14187
869.669	14244
869.799	14237
869.929	14358
870.06	14176
870.19	14511
870.32	14476
870.45	14446
870.58	14564
870.71	14629
870.84	14663
870.97	14533
871.1	14469
871.23	14727
871.36	14697
871.489	14705
871.619	14754
871.749	14758
871.879	14781
872.008	14845
872.138	14804
872.267	14720
872.397	14629
872.526	14667
872.656	14545
872.785	14556
872.915	14716
873.044	14823
873.173	14796
873.303	14857
873.432	14864
873.561	14785
873.69	14800
873.819	14773
873.948	14845
874.077	14826
874.206	14720
874.335	14701
874.464	15028
874.593	15112
874.722	14921
874.851	15199
874.979	15085
875.108	15112
875.237	15039
875.365	15001
875.494	15051
875.623	15199
875.751	15017
875.88	15154
876.008	15184
876.136	15287
876.265	15561
876.393	15686
876.521	15606
876.65	15644
876.778	15576
876.906	15603
877.034	15545
877.162	15485
877.29	15447
877.418	15492
877.546	15519
877.674	15462
877.802	15595
877.93	15587
878.058	15405
878.185	15488
878.313	15504
878.441	15614
878.568	15348
878.696	15435
878.824	15629
878.951	15492
879.079	15743
879.206	15926
879.333	15599
879.461	15610
879.588	15686
879.715	15751
879.842	15789
879.97	15557
880.097	15424
880.224	15359
880.351	15378
880.478	15500
880.605	15329
880.732	15340
880.859	15686
880.986	15485
881.112	15481
881.239	15306
881.366	15214
881.493	15112
881.619	15036
881.746	15077
881.872	15131
881.999	15116
882.125	15055
882.252	15028
882.378	15074
882.505	15256
882.631	15028
882.757	14975
882.883	14982
883.01	14906
883.136	14815
883.262	14876
883.388	14693
883.514	14910
883.64	14967
883.766	14880
883.892	14659
884.018	14796
884.143	14906
884.269	14986
884.395	14701
884.52	14598
884.646	14606
884.772	14632
884.897	14370
885.023	14583
885.148	14686
885.274	14708
885.399	14727
885.524	14640
885.65	14625
885.775	14621
885.9	14556
886.025	14773
886.15	14697
886.275	14480
886.4	14484
886.525	14533
886.65	14511
886.775	14492
886.9	14651
887.025	14834
887.149	14541
887.274	14507
887.399	14385
887.523	14347
887.648	14457
887.773	14305
887.897	14522
888.021	14492
888.146	14461
888.27	14549
888.395	14507
888.519	14484
888.643	14522
888.767	14484
888.891	14305
889.015	14347
889.139	14290
889.263	14298
889.387	14381
889.511	14518
889.635	14423
889.759	14370
889.883	14210
890.006	14396
890.13	14374
890.254	14149
890.377	14294
890.501	14111
890.624	13986
890.748	14206
890.871	14050
890.995	13986
891.118	13921
891.241	14001
891.364	14008
891.488	14149
891.611	13970
891.734	14035
891.857	14073
891.98	13974
892.103	14096
892.226	14008
892.349	14027
892.471	13833
892.594	13986
892.717	13993
892.839	13947
892.962	13932
893.085	14020
893.207	13982
893.33	13826
893.452	13940
893.575	14062
893.697	13928
893.819	14138
893.941	14252
894.064	14123
894.186	13997
894.308	13928
894.43	14043
894.552	14218
894.674	14130
894.796	14069
894.918	14088
895.04	13947
895.161	14187
895.283	14123
895.405	14065
895.526	14077
895.648	14176
895.769	14153
895.891	14119
896.012	14233
896.134	14138
896.255	14237
896.376	14164
896.498	14043
896.619	14259
896.74	14149
896.861	14153
896.982	14537
897.103	14610
897.224	14499
897.345	14332
897.466	14415
897.587	14495
897.708	14503
897.828	14492
897.949	14484
898.07	14343
898.19	14454
898.311	14575
898.431	14431
898.552	14461
898.672	14560
898.792	14613
898.913	14492
899.033	14404
899.153	14404
899.273	14366
899.393	14370
899.513	14415
899.633	14267
899.753	14389
899.873	14374
899.993	14530
900.113	14305
900.232	14362
900.352	14301
900.472	14385
900.591	14111
900.711	14248
900.83	14153
900.95	14343
901.069	14332
901.189	14206
901.308	13997
901.427	13898
901.546	13841
901.665	13944
901.784	13849
901.904	13890
902.023	13636
902.141	13537
902.26	13438
902.379	13620
902.498	13487
902.617	13407
902.735	13502
902.854	13396
902.973	13415
903.091	13282
903.21	13129
903.328	13251
903.446	13103
903.565	13023
903.683	13042
903.801	12966
903.919	13031
904.038	13042
904.156	12867
904.274	12837
904.392	12844
904.51	12901
904.627	12909
904.745	12859
904.863	12882
904.981	12662
905.098	12551
905.216	12494
905.334	12658
905.451	12608
905.569	12521
905.686	12528
905.803	12604
905.921	12429
906.038	12460
906.155	12372
906.272	12273
906.389	12334
906.506	12224
906.623	12159
906.74	12205
906.857	12049
906.974	12045
907.091	12178
907.208	12330
907.324	12258
907.441	12049
907.557	11916
907.674	11992
907.79	11870
907.907	11912
908.023	11908
908.139	11973
908.256	11817
908.372	11855
908.488	11813
908.604	11722
908.72	11668
908.836	11733
908.952	11585
909.068	11665
909.184	11794
909.3	11707
909.415	11668
909.531	11756
909.647	11410
909.762	11417
909.878	11433
909.993	11490
910.108	11376
910.224	11433
910.339	11417
910.454	11372
910.57	11242
910.685	11277
910.8	11501
910.915	11509
911.03	11296
911.145	11162
911.259	11132
911.374	11162
911.489	11094
911.604	10999
911.718	10854
911.833	10900
911.947	10843
912.062	10790
912.176	10847
912.291	10927
912.405	10919
912.519	11064
912.633	11147
912.748	11022
912.862	10881
912.976	10767
913.09	10698
913.204	10752
913.318	10809
913.431	10866
913.545	10869
913.659	10934
913.772	10733
913.886	10649
914	10675
914.113	10805
914.226	10679
914.34	10755
914.453	10596
914.566	10797
914.68	10554
914.793	10588
914.906	10478
915.019	10409
915.132	10379
915.245	10398
915.358	10443
915.47	10451
915.583	10428
915.696	10500
915.809	10691
915.921	10603
916.034	10428
916.146	10322
916.259	10390
916.371	10417
916.483	10470
916.595	10310
916.708	10337
916.82	10303
916.932	10341
917.044	10284
917.156	10295
917.268	10268
917.38	10276
917.491	10200
917.603	10284
917.715	10356
917.826	10428
917.938	10280
918.049	10101
918.161	10238
918.272	10428
918.384	10344
918.495	10204
918.606	10158
918.717	10147
918.828	10158
918.939	10128
919.05	10128
919.161	10131
919.272	9949
919.383	9983
919.494	10192
919.604	10318
919.715	10158
919.826	10074
919.936	10135
920.047	10204
920.157	10230
920.267	10367
920.378	10219
920.488	10109
920.598	10280
920.708	10519
920.818	10325
920.928	10375
921.038	10519
921.148	10478
921.258	10120
921.368	10116
921.477	10006
921.587	9934
921.697	9880
921.806	10036
921.916	9964
922.025	9728
922.134	9732
922.244	9671
922.353	9785
922.462	9496
922.571	9526
922.68	9466
922.789	9519
922.898	9393
923.007	9363
923.116	9477
923.224	9412
923.333	9351
923.442	9283
923.55	9287
923.659	9294
923.767	9408
923.876	9272
923.984	9283
924.092	9222
924.201	9253
924.309	9264
924.417	9230
924.525	9279
924.633	9241
924.741	10036
924.849	8963
924.956	9283
925.064	9138
925.172	8956
925.279	9020
925.387	9051
925.494	9097
925.602	9294
925.709	9161
925.816	8967
925.924	9055
926.031	9203
926.138	9032
926.245	9116
926.352	9005
926.459	9211
926.566	9199
926.673	9009
926.779	8933
926.886	8895
926.993	8777
927.099	8735
927.206	8712
927.312	8758
927.419	8842
927.525	8788
927.631	8876
927.737	8781
927.843	8716
927.95	8598
928.056	8621
928.162	8655
928.267	8781
928.373	9351
928.479	8750
928.585	8533
928.69	8701
928.796	8689
928.901	8518
929.007	8366
929.112	8541
929.218	8549
929.323	8507
929.428	8480
929.533	8640
929.638	8427
929.743	8446
929.848	8484
929.953	8511
930.058	8408
930.163	8267
930.267	8290
930.372	8389
930.477	8237
930.581	8434
930.685	8328
930.79	8256
930.894	8233
930.998	8199
931.103	8309
931.207	8039
931.311	7993
931.415	7890
931.519	7693
931.623	7772
