Data from test_V78500241_124.txt Node
Date: Fri Mar 25 14:34:35 CST 2022
User: usil
Spectrometer: V785-0024
Trigger mode: 0
Integration Time (sec): 4.000000E-1
Scans to average: 1
Nonlinearity correction enabled: false
Boxcar width: 0
Storing dark spectrum: false
XAxis mode: Wavelengths
Number of Pixels in Spectrum: 1024
>>>>>Begin Spectral Data<<<<<
801.071	30148
801.214	30114
801.356	29676
801.499	29699
801.641	29596
801.783	29364
801.926	29531
802.068	29425
802.211	29326
802.353	29440
802.496	29181
802.638	29258
802.78	29071
802.923	29155
803.065	29052
803.208	29060
803.35	29273
803.492	29292
803.635	29353
803.777	29212
803.919	29414
804.061	29638
804.204	29452
804.346	29273
804.488	29261
804.63	29360
804.773	29227
804.915	29490
805.057	29642
805.199	29436
805.341	29752
805.483	29707
805.626	29786
805.768	29946
805.91	29942
806.052	30026
806.194	30030
806.336	30407
806.478	30475
806.62	30475
806.762	30776
806.904	31274
807.046	31613
807.188	31856
807.33	32081
807.472	32606
807.614	33230
807.756	33892
807.898	34630
808.04	35783
808.182	37518
808.324	39443
808.465	41710
808.607	44096
808.749	46535
808.891	47832
809.033	47745
809.174	46409
809.316	44286
809.458	41680
809.6	39043
809.741	37004
809.883	35372
810.025	34238
810.166	33538
810.308	32720
810.45	32442
810.591	31860
810.733	31426
810.875	31129
811.016	30981
811.158	30696
811.299	30688
811.441	30734
811.582	30597
811.724	30319
811.865	30258
812.007	30194
812.148	30136
812.29	30174
812.431	30243
812.573	30262
812.714	30201
812.855	30395
812.997	30433
813.138	30665
813.279	30460
813.421	30349
813.562	30243
813.703	29923
813.845	29836
813.986	29608
814.127	29303
814.268	29159
814.41	29094
814.551	29197
814.692	29185
814.833	28991
814.974	29018
815.115	29113
815.256	28862
815.397	28892
815.539	28816
815.68	28710
815.821	28653
815.962	28740
816.103	28706
816.244	28580
816.385	28424
816.526	28466
816.666	28147
816.807	27983
816.948	28200
817.089	28105
817.23	28105
817.371	28021
817.512	28078
817.653	27937
817.793	27869
817.934	27987
818.075	28044
818.216	28017
818.356	27937
818.497	27819
818.638	27675
818.778	27743
818.919	27682
819.06	27728
819.2	27755
819.341	27884
819.481	27903
819.622	27983
819.762	28169
819.903	28082
820.043	27937
820.184	27880
820.324	27884
820.465	27918
820.605	27785
820.746	27838
820.886	27720
821.026	27720
821.167	27728
821.307	27667
821.447	27576
821.588	27603
821.728	27431
821.868	27207
822.008	27077
822.149	27020
822.289	26883
822.429	26899
822.569	26724
822.709	26632
822.849	26442
822.99	26495
823.13	26457
823.27	26393
823.41	26324
823.55	26164
823.69	26404
823.83	26233
823.97	26103
824.11	25989
824.25	25978
824.389	25955
824.529	25970
824.669	26058
824.809	26058
824.949	26024
825.089	26088
825.228	25947
825.368	25879
825.508	25883
825.648	25852
825.787	25894
825.927	25822
826.067	25784
826.206	25822
826.346	25795
826.485	25906
826.625	25837
826.765	25921
826.904	25982
827.044	25609
827.183	25426
827.323	25464
827.462	25525
827.601	25548
827.741	25510
827.88	25327
828.02	25354
828.159	25445
828.298	25521
828.437	25586
828.577	25358
828.716	25601
828.855	25339
828.994	25213
829.134	25202
829.273	25145
829.412	25110
829.551	25004
829.69	25023
829.829	25091
829.968	25118
830.107	25168
830.246	24970
830.385	24989
830.524	25000
830.663	24947
830.802	24798
830.941	24810
831.08	24620
831.219	24753
831.357	24730
831.496	24905
831.635	24639
831.774	24582
831.913	24593
832.051	24467
832.19	24479
832.329	24623
832.467	24513
832.606	24410
832.744	24467
832.883	24555
833.022	24627
833.16	24585
833.299	24677
833.437	24669
833.576	24920
833.714	24901
833.852	25164
833.991	25213
834.129	25232
834.267	25327
834.406	25270
834.544	25247
834.682	25072
834.821	24939
834.959	25152
835.097	24825
835.235	24738
835.373	24734
835.511	24509
835.65	24418
835.788	24365
835.926	24133
836.064	24152
836.202	24064
836.34	24369
836.478	24232
836.615	24110
836.753	24083
836.891	24201
837.029	24144
837.167	24220
837.305	23999
837.443	24083
837.58	23946
837.718	23878
837.856	23992
837.993	23855
838.131	23878
838.269	23805
838.406	23733
838.544	23638
838.681	23630
838.819	23463
838.956	23307
839.094	23349
839.231	23368
839.369	23611
839.506	23596
839.643	23444
839.781	23337
839.918	23136
840.055	23337
840.193	23079
840.33	23151
840.467	23322
840.604	23322
840.742	23379
840.879	23018
841.016	23102
841.153	23121
841.29	23303
841.427	23178
841.564	23185
841.701	23174
841.838	23311
841.975	22972
842.112	23003
842.249	22972
842.385	22854
842.522	23147
842.659	23044
842.796	22904
842.933	23029
843.069	22904
843.206	23006
843.343	23143
843.479	22987
843.616	23147
843.752	22946
843.889	22991
844.025	23185
844.162	22911
844.298	23162
844.435	23330
844.571	23242
844.708	23596
844.844	24064
844.98	24418
845.117	24875
845.253	25445
845.389	26651
845.525	29543
845.661	33808
845.798	39096
845.934	43289
846.07	44769
846.206	43518
846.342	40150
846.478	34786
846.614	30323
846.75	27119
846.886	25510
847.022	24464
847.158	23767
847.294	23296
847.429	22991
847.565	22942
847.701	22908
847.837	22352
847.972	22257
848.108	22158
848.244	22215
848.379	21903
848.515	21926
848.65	21819
848.786	21861
848.921	21762
849.057	21876
849.192	21945
849.328	21842
849.463	21743
849.598	21800
849.734	21656
849.869	21610
850.004	21538
850.14	21439
850.275	21466
850.41	21374
850.545	21473
850.68	21507
850.815	21488
850.95	21378
851.085	21557
851.22	21405
851.355	21454
851.49	21382
851.625	21348
851.76	21416
851.895	21412
852.03	21298
852.165	21405
852.299	21428
852.434	21526
852.569	21408
852.703	21454
852.838	21526
852.973	21504
853.107	21663
853.242	21439
853.376	21359
853.511	21264
853.645	21416
853.78	21618
853.914	21561
854.048	21469
854.183	21450
854.317	21690
854.451	21755
854.585	21606
854.72	21622
854.854	21648
854.988	21424
855.122	21488
855.256	21408
855.39	21386
855.524	21481
855.658	21466
855.792	21348
855.926	21348
856.06	21374
856.194	21382
856.327	21302
856.461	21222
856.595	21192
856.729	21108
856.862	21340
856.996	21252
857.13	21287
857.263	21249
857.397	21298
857.53	21085
857.664	21173
857.797	21268
857.931	21214
858.064	21298
858.197	21363
858.331	21062
858.464	21100
858.597	21055
858.731	21131
858.864	21089
858.997	21066
859.13	21173
859.263	21058
859.396	21203
859.529	21032
859.662	20899
859.795	21043
859.928	21032
860.061	21188
860.194	21146
860.327	21032
860.46	20929
860.592	21108
860.725	21176
860.858	21199
860.99	21009
861.123	20956
861.256	20914
861.388	21028
861.521	21797
861.653	20861
861.786	20788
861.918	20933
862.05	20979
862.183	20971
862.315	21150
862.447	21051
862.58	21047
862.712	20769
862.844	20872
862.976	20895
863.108	20849
863.24	21150
863.372	20708
863.504	20731
863.636	20788
863.768	20655
863.9	20701
864.032	20598
864.164	20560
864.296	20686
864.428	20830
864.559	20678
864.691	20807
864.823	20769
864.954	20674
865.086	20682
865.217	20602
865.349	20530
865.48	20568
865.612	20636
865.743	20663
865.875	20651
866.006	20549
866.137	20579
866.269	20663
866.4	20476
866.531	20533
866.662	20545
866.793	20495
866.924	20473
867.055	20488
867.186	20583
867.317	20522
867.448	20454
867.579	20408
867.71	20404
867.841	20351
867.972	20492
868.103	20552
868.233	20499
868.364	20518
868.495	20507
868.625	20830
868.756	20765
868.886	20758
869.017	20845
869.147	20872
869.278	20785
869.408	20769
869.539	20807
869.669	20838
869.799	20796
869.929	20872
870.06	20872
870.19	21070
870.32	21039
870.45	21039
870.58	21203
870.71	21199
870.84	21279
870.97	21272
871.1	21298
871.23	21355
871.36	21439
871.489	21336
871.619	21450
871.749	21336
871.879	21477
872.008	21504
872.138	21492
872.267	21515
872.397	21386
872.526	21313
872.656	21389
872.785	21348
872.915	21576
873.044	21625
873.173	21557
873.303	21686
873.432	21766
873.561	21694
873.69	21690
873.819	21576
873.948	21865
874.077	21736
874.206	21766
874.335	21766
874.464	21846
874.593	22128
874.722	21975
874.851	22181
874.979	22097
875.108	22211
875.237	22040
875.365	22074
875.494	22204
875.623	22196
875.751	22249
875.88	22379
876.008	22493
876.136	22432
876.265	22717
876.393	22885
876.521	22957
876.65	22873
876.778	22923
876.906	22957
877.034	23006
877.162	23041
877.29	23075
877.418	23143
877.546	23284
877.674	23452
877.802	23421
877.93	23684
878.058	23665
878.185	23779
878.313	23958
878.441	24270
878.568	24384
878.696	24962
878.824	25506
878.951	26355
879.079	27675
879.206	29296
879.333	30882
879.461	32202
879.588	33104
879.715	33146
879.842	32377
879.97	30928
880.097	29330
880.224	27884
880.351	27154
880.478	26343
880.605	25978
880.732	25738
880.859	25624
880.986	25274
881.112	25270
881.239	24962
881.366	24905
881.493	24783
881.619	24867
881.746	25031
881.872	24825
881.999	24943
882.125	24772
882.252	24837
882.378	24935
882.505	25053
882.631	24844
882.757	24730
882.883	24863
883.01	24703
883.136	24597
883.262	24509
883.388	24642
883.514	24601
883.64	24688
883.766	24517
883.892	24547
884.018	24479
884.143	24551
884.269	24703
884.395	24448
884.52	24456
884.646	24365
884.772	24380
884.897	24254
885.023	24410
885.148	24342
885.274	24517
885.399	24429
885.524	24110
885.65	24140
885.775	24015
885.9	23935
886.025	23817
886.15	23642
886.275	23482
886.4	23406
886.525	23181
886.65	23242
886.775	23060
886.9	23136
887.025	23105
887.149	22957
887.274	22683
887.399	22550
887.523	22580
887.648	22333
887.773	22143
887.897	22447
888.021	22192
888.146	22105
888.27	22303
888.395	22303
888.519	22223
888.643	22025
888.767	22101
888.891	21873
889.015	21778
889.139	21759
889.263	21724
889.387	21812
889.511	21869
889.635	21663
889.759	21496
889.883	21564
890.006	21534
890.13	21667
890.254	21302
890.377	21374
890.501	21195
890.624	21211
890.748	21195
890.871	21104
890.995	20807
891.118	20868
891.241	20857
891.364	20819
891.488	21081
891.611	20899
891.734	20849
891.857	20845
891.98	20724
892.103	20796
892.226	20762
892.349	20807
892.471	20499
892.594	20636
892.717	20579
892.839	20579
892.962	20423
893.085	20442
893.207	20431
893.33	20320
893.452	20320
893.575	20434
893.697	20301
893.819	20492
893.941	20571
894.064	20313
894.186	20328
894.308	20187
894.43	20366
894.552	20488
894.674	20294
894.796	20088
894.918	20111
895.04	20210
895.161	20320
895.283	20199
895.405	20065
895.526	20126
895.648	20016
895.769	20077
895.891	20035
896.012	20149
896.134	20008
896.255	20050
896.376	20142
896.498	20065
896.619	20005
896.74	20043
896.861	20149
896.982	20282
897.103	20541
897.224	20328
897.345	20396
897.466	20206
897.587	20172
897.708	20351
897.828	20157
897.949	20153
898.07	20058
898.19	20206
898.311	20191
898.431	20183
898.552	20305
898.672	20248
898.792	20199
898.913	20164
899.033	20103
899.153	19894
899.273	19875
899.393	19864
899.513	19951
899.633	19898
899.753	19894
899.873	19875
899.993	19936
900.113	19761
900.232	19925
900.352	19856
900.472	19677
900.591	19750
900.711	19712
900.83	19480
900.95	19841
901.069	19761
901.189	19601
901.308	19308
901.427	19236
901.546	19282
901.665	19221
901.784	19316
901.904	19099
902.023	18924
902.141	18772
902.26	18711
902.379	18833
902.498	18669
902.617	18715
902.735	18642
902.854	18711
902.973	18604
903.091	18270
903.21	18410
903.328	18296
903.446	18319
903.565	18174
903.683	18163
903.801	18083
903.919	18076
904.038	18007
904.156	17798
904.274	17912
904.392	17783
904.51	17714
904.627	17783
904.745	17771
904.863	17923
904.981	17627
905.098	17516
905.216	17421
905.334	17562
905.451	17509
905.569	17490
905.686	17486
905.803	17410
905.921	17220
906.038	17364
906.155	17254
906.272	17212
906.389	17162
906.506	16869
906.623	16968
906.74	17060
906.857	16797
906.974	16885
907.091	17014
907.208	16991
907.324	16919
907.441	16881
907.557	16736
907.674	16702
907.79	16519
907.907	16558
908.023	16717
908.139	16599
908.256	16580
908.372	16424
908.488	16421
908.604	16405
908.72	16299
908.836	16261
908.952	16265
909.068	16386
909.184	16386
909.3	16310
909.415	16394
909.531	16257
909.647	15975
909.762	16040
909.878	16067
909.993	16048
910.108	16071
910.224	15888
910.339	15956
910.454	15888
910.57	15819
910.685	15816
910.8	16010
910.915	15979
911.03	15804
911.145	15641
911.259	15633
911.374	15591
911.489	15690
911.604	15538
911.718	15370
911.833	15344
911.947	15230
912.062	15089
912.176	15412
912.291	15332
912.405	15329
912.519	15595
912.633	15507
912.748	15386
912.862	15279
912.976	15138
913.09	15009
913.204	14990
913.318	15192
913.431	15199
913.545	15287
913.659	15180
913.772	15127
913.886	15055
914	14925
914.113	15058
914.226	14979
914.34	15119
914.453	14872
914.566	15047
914.68	14899
914.793	14921
914.906	14678
915.019	14686
915.132	14644
915.245	14632
915.358	14754
915.47	14621
915.583	14693
915.696	14788
915.809	14864
915.921	14769
916.034	14594
916.146	14541
916.259	14602
916.371	14697
916.483	14636
916.595	14434
916.708	14560
916.82	14602
916.932	14590
917.044	14427
917.156	14495
917.268	14332
917.38	14347
917.491	14336
917.603	14393
917.715	14423
917.826	14377
917.938	14240
918.049	14077
918.161	14267
918.272	14339
918.384	14320
918.495	14210
918.606	14065
918.717	13974
918.828	14096
918.939	13997
919.05	13921
919.161	13925
919.272	13753
919.383	13955
919.494	14111
919.604	14149
919.715	13967
919.826	13833
919.936	13947
920.047	13982
920.157	13947
920.267	14142
920.378	14001
920.488	13951
920.598	14111
920.708	14229
920.818	14077
920.928	14001
921.038	14210
921.148	14225
921.258	13959
921.368	13803
921.477	13685
921.587	13693
921.697	13628
921.806	13655
921.916	13624
922.025	13411
922.134	13301
922.244	13308
922.353	13354
922.462	13251
922.571	13126
922.68	12973
922.789	12943
922.898	12989
923.007	13000
923.116	12962
923.224	12951
923.333	12882
923.442	12779
923.55	12783
923.659	12791
923.767	12913
923.876	12730
923.984	12802
924.092	12654
924.201	12688
924.309	12688
924.417	12772
924.525	12665
924.633	12612
924.741	13529
924.849	12403
924.956	12547
925.064	12437
925.172	12395
925.279	12308
925.387	12506
925.494	12399
925.602	12593
925.709	12513
925.816	12399
925.924	12483
926.031	12483
926.138	12429
926.245	12422
926.352	12304
926.459	12399
926.566	12418
926.673	12292
926.779	12205
926.886	12125
926.993	11992
927.099	11988
927.206	11885
927.312	11977
927.419	12003
927.525	11958
927.631	12007
927.737	11836
927.843	11923
927.95	11642
928.056	11805
928.162	11817
928.267	11832
928.373	12281
928.479	11935
928.585	11627
928.69	11760
928.796	11802
928.901	11638
929.007	11528
929.112	11718
929.218	11581
929.323	11604
929.428	11467
929.533	11596
929.638	11455
929.743	11474
929.848	11516
929.953	11501
930.058	11360
930.163	11212
930.267	11258
930.372	11311
930.477	11201
930.581	11436
930.685	11250
930.79	11060
930.894	11204
930.998	11113
931.103	11216
931.207	10934
931.311	10816
931.415	10729
931.519	10538
931.623	10523
