Data from test_V78500241_3605.txt Node
Date: Fri Mar 25 14:58:49 CST 2022
User: usil
Spectrometer: V785-0024
Trigger mode: 0
Integration Time (sec): 4.000000E-1
Scans to average: 1
Nonlinearity correction enabled: false
Boxcar width: 0
Storing dark spectrum: false
XAxis mode: Wavelengths
Number of Pixels in Spectrum: 1024
>>>>>Begin Spectral Data<<<<<
801.071	21918
801.214	21835
801.356	21447
801.499	21435
801.641	21408
801.783	21291
801.926	21420
802.068	21188
802.211	21123
802.353	21062
802.496	20834
802.638	20739
802.78	20857
802.923	20678
803.065	20621
803.208	20575
803.35	20556
803.492	20655
803.635	20689
803.777	20583
803.919	20708
804.061	20876
804.204	20659
804.346	20587
804.488	20362
804.63	20629
804.773	20469
804.915	20465
805.057	20613
805.199	20556
805.341	20556
805.483	20640
805.626	20533
805.768	20522
805.91	20492
806.052	20408
806.194	20431
806.336	20590
806.478	20518
806.62	20518
806.762	20663
806.904	20762
807.046	20864
807.188	20826
807.33	20819
807.472	20807
807.614	20735
807.756	20724
807.898	20609
808.04	20526
808.182	20617
808.324	20705
808.465	20556
808.607	20815
808.749	20857
808.891	20910
809.033	21009
809.174	20921
809.316	20887
809.458	20773
809.6	20815
809.741	20998
809.883	20921
810.025	20918
810.166	20979
810.308	20910
810.45	21005
810.591	20895
810.733	20800
810.875	20678
811.016	20663
811.158	20457
811.299	20583
811.441	20792
811.582	20746
811.724	20533
811.865	20541
812.007	20560
812.148	20473
812.29	20670
812.431	20788
812.573	20994
812.714	20971
812.855	21154
812.997	21188
813.138	21351
813.279	21230
813.421	21020
813.562	21062
813.703	20853
813.845	20826
813.986	20480
814.127	20237
814.268	20248
814.41	20210
814.551	20248
814.692	20168
814.833	20054
814.974	20092
815.115	20046
815.256	20008
815.397	19997
815.539	20024
815.68	19845
815.821	19807
815.962	20020
816.103	19818
816.244	19765
816.385	19715
816.526	19655
816.666	19400
816.807	19274
816.948	19365
817.089	19419
817.23	19346
817.371	19327
817.512	19175
817.653	19377
817.793	19244
817.934	19343
818.075	19327
818.216	19369
818.356	19244
818.497	19061
818.638	18962
818.778	19000
818.919	19031
819.06	19053
819.2	19228
819.341	19110
819.481	19114
819.622	19190
819.762	19502
819.903	19445
820.043	19316
820.184	19278
820.324	19236
820.465	19259
820.605	19289
820.746	19251
820.886	19065
821.026	19350
821.167	19129
821.307	19350
821.447	19156
821.588	19129
821.728	18863
821.868	18848
822.008	18722
822.149	18730
822.289	18650
822.429	18445
822.569	18327
822.709	18361
822.849	18281
822.99	18152
823.13	18140
823.27	18030
823.41	18022
823.55	17950
823.69	18030
823.83	18041
823.97	17813
824.11	17737
824.25	17634
824.389	17775
824.529	17668
824.669	17710
824.809	17809
824.949	17775
825.089	17733
825.228	17668
825.368	17516
825.508	17573
825.648	17691
825.787	17604
825.927	17665
826.067	17543
826.206	17471
826.346	17505
826.485	17558
826.625	17436
826.765	17638
826.904	17653
827.044	17334
827.183	17258
827.323	17250
827.462	17288
827.601	17292
827.741	17269
827.88	17337
828.02	17102
828.159	17189
828.298	17288
828.437	17250
828.577	17136
828.716	17318
828.855	17170
828.994	16999
829.134	16976
829.273	17052
829.412	16942
829.551	16820
829.69	17014
829.829	17006
829.968	17022
830.107	17109
830.246	17029
830.385	16900
830.524	16972
830.663	16759
830.802	16645
830.941	16618
831.08	16649
831.219	16580
831.357	16725
831.496	16919
831.635	16508
831.774	16542
831.913	16577
832.051	16443
832.19	16413
832.329	16398
832.467	16443
832.606	16234
832.744	16322
832.883	16306
833.022	16352
833.16	16261
833.299	16356
833.437	16375
833.576	16432
833.714	16276
833.852	16310
833.991	16432
834.129	16413
834.267	16478
834.406	16360
834.544	16405
834.682	16325
834.821	16310
834.959	16573
835.097	16379
835.235	16451
835.373	16459
835.511	16462
835.65	16318
835.788	16291
835.926	16120
836.064	16093
836.202	16162
836.34	16421
836.478	16299
836.615	16249
836.753	16451
836.891	16356
837.029	16413
837.167	16261
837.305	16200
837.443	16230
837.58	16131
837.718	16219
837.856	16093
837.993	16196
838.131	16188
838.269	16124
838.406	16090
838.544	16002
838.681	15857
838.819	15823
838.956	15827
839.094	15701
839.231	15770
839.369	15880
839.506	16120
839.643	16078
839.781	15739
839.918	15720
840.055	15717
840.193	15701
840.33	15720
840.467	15686
840.604	15800
840.742	16017
840.879	15584
841.016	15614
841.153	15625
841.29	15857
841.427	15705
841.564	15713
841.701	15637
841.838	15679
841.975	15675
842.112	15534
842.249	15428
842.385	15519
842.522	15682
842.659	15504
842.796	15420
842.933	15500
843.069	15504
843.206	15431
843.343	15610
843.479	15652
843.616	15561
843.752	15256
843.889	15241
844.025	15511
844.162	15207
844.298	15443
844.435	15207
844.571	15241
844.708	15306
844.844	15420
844.98	15420
845.117	15416
845.253	15230
845.389	15119
845.525	15298
845.661	15123
845.798	15009
845.934	15089
846.07	14975
846.206	15043
846.342	15329
846.478	15127
846.614	14902
846.75	14811
846.886	14758
847.022	14876
847.158	14834
847.294	14887
847.429	14883
847.565	14933
847.701	15089
847.837	14606
847.972	14560
848.108	14720
848.244	14655
848.379	14503
848.515	14488
848.65	14450
848.786	14476
848.921	14499
849.057	14537
849.192	14579
849.328	14541
849.463	14469
849.598	14381
849.734	14484
849.869	14343
850.004	14191
850.14	14275
850.275	14161
850.41	14164
850.545	14210
850.68	14187
850.815	14286
850.95	14187
851.085	14275
851.22	14332
851.355	14240
851.49	14267
851.625	14218
851.76	14259
851.895	14138
852.03	14134
852.165	14145
852.299	14332
852.434	14282
852.569	14225
852.703	14286
852.838	14309
852.973	14385
853.107	14271
853.242	14176
853.376	14180
853.511	13967
853.645	14069
853.78	14195
853.914	14100
854.048	14008
854.183	14077
854.317	14062
854.451	14252
854.585	14077
854.72	14126
854.854	14092
854.988	14050
855.122	14187
855.256	13902
855.39	14062
855.524	14191
855.658	14161
855.792	14062
855.926	14153
856.06	14168
856.194	14271
856.327	14084
856.461	14031
856.595	14031
856.729	14088
856.862	14172
856.996	14161
857.13	14145
857.263	14142
857.397	14225
857.53	14161
857.664	14134
857.797	14149
857.931	14221
858.064	14199
858.197	14081
858.331	14119
858.464	13959
858.597	13997
858.731	14005
858.864	14111
858.997	14103
859.13	14081
859.263	14149
859.396	14195
859.529	14005
859.662	14115
859.795	14012
859.928	14126
860.061	14191
860.194	14351
860.327	14065
860.46	14058
860.592	14237
860.725	14267
860.858	14248
860.99	14088
861.123	13970
861.256	14039
861.388	14172
861.521	14910
861.653	13944
861.786	13894
861.918	13989
862.05	14142
862.183	14081
862.315	14096
862.447	14187
862.58	14115
862.712	13837
862.844	13917
862.976	13963
863.108	13955
863.24	14309
863.372	13837
863.504	13894
863.636	13944
863.768	13909
863.9	13898
864.032	13928
864.164	13868
864.296	13833
864.428	13944
864.559	14016
864.691	13967
864.823	13963
864.954	13947
865.086	13837
865.217	13849
865.349	13784
865.48	13894
865.612	13940
865.743	14058
865.875	13864
866.006	13822
866.137	13856
866.269	13841
866.4	13894
866.531	13841
866.662	13830
866.793	13811
866.924	13791
867.055	13833
867.186	13959
867.317	13879
867.448	13750
867.579	13856
867.71	13700
867.841	13890
867.972	13871
868.103	13860
868.233	13883
868.364	13830
868.495	13944
868.625	14130
868.756	14199
868.886	14027
869.017	14077
869.147	14195
869.278	14286
869.408	14138
869.539	14161
869.669	14271
869.799	14138
869.929	14351
870.06	14191
870.19	14511
870.32	14355
870.45	14492
870.58	14530
870.71	14716
870.84	14556
870.97	14617
871.1	14571
871.23	14727
871.36	14727
871.489	14613
871.619	14621
871.749	14777
871.879	14800
872.008	14899
872.138	14765
872.267	14724
872.397	14651
872.526	14518
872.656	14606
872.785	14583
872.915	14823
873.044	14804
873.173	14773
873.303	14864
873.432	14796
873.561	14792
873.69	14792
873.819	14819
873.948	14819
874.077	14777
874.206	14769
874.335	14807
874.464	14975
874.593	15036
874.722	15039
874.851	15252
874.979	15116
875.108	15097
875.237	15104
875.365	15024
875.494	15001
875.623	15138
875.751	15043
875.88	15169
876.008	15112
876.136	15332
876.265	15496
876.393	15656
876.521	15587
876.65	15507
876.778	15466
876.906	15420
877.034	15538
877.162	15492
877.29	15481
877.418	15545
877.546	15545
877.674	15485
877.802	15507
877.93	15488
878.058	15443
878.185	15382
878.313	15435
878.441	15584
878.568	15408
878.696	15469
878.824	15473
878.951	15644
879.079	15785
879.206	15857
879.333	15682
879.461	15481
879.588	15618
879.715	15701
879.842	15781
879.97	15557
880.097	15359
880.224	15416
880.351	15439
880.478	15439
880.605	15325
880.732	15329
880.859	15542
880.986	15351
881.112	15458
881.239	15233
881.366	15028
881.493	15195
881.619	15013
881.746	15062
881.872	15024
881.999	14941
882.125	14952
882.252	15097
882.378	14998
882.505	15138
882.631	14933
882.757	14785
882.883	14956
883.01	14902
883.136	14807
883.262	14705
883.388	14731
883.514	14872
883.64	14876
883.766	14887
883.892	14678
884.018	14716
884.143	14826
884.269	14887
884.395	14651
884.52	14587
884.646	14587
884.772	14457
884.897	14400
885.023	14564
885.148	14590
885.274	14731
885.399	14678
885.524	14648
885.65	14571
885.775	14556
885.9	14518
886.025	14651
886.15	14594
886.275	14621
886.4	14457
886.525	14518
886.65	14450
886.775	14488
886.9	14720
887.025	14743
887.149	14651
887.274	14313
887.399	14339
887.523	14438
887.648	14278
887.773	14225
887.897	14511
888.021	14488
888.146	14377
888.27	14518
888.395	14545
888.519	14469
888.643	14446
888.767	14434
888.891	14324
889.015	14210
889.139	14237
889.263	14202
889.387	14343
889.511	14389
889.635	14328
889.759	14263
889.883	14176
890.006	14336
890.13	14351
890.254	14240
890.377	14244
890.501	14058
890.624	14077
890.748	14100
890.871	14073
890.995	14005
891.118	13814
891.241	13921
891.364	13974
891.488	14145
891.611	13913
891.734	13989
891.857	14039
891.98	13936
892.103	14020
892.226	13959
892.349	13955
892.471	13826
892.594	13970
892.717	13967
892.839	13955
892.962	13963
893.085	14027
893.207	13974
893.33	13769
893.452	13925
893.575	14020
893.697	13864
893.819	14134
893.941	14218
894.064	14016
894.186	14031
894.308	13906
894.43	14126
894.552	14176
894.674	14119
894.796	13890
894.918	14039
895.04	13925
895.161	14187
895.283	14016
895.405	13959
895.526	13928
895.648	14050
895.769	14145
895.891	14081
896.012	14237
896.134	14138
896.255	14176
896.376	14210
896.498	14138
896.619	14317
896.74	14161
896.861	14138
896.982	14503
897.103	14678
897.224	14499
897.345	14351
897.466	14248
897.587	14404
897.708	14473
897.828	14518
897.949	14438
898.07	14278
898.19	14419
898.311	14545
898.431	14339
898.552	14549
898.672	14575
898.792	14549
898.913	14541
899.033	14400
899.153	14358
899.273	14313
899.393	14252
899.513	14347
899.633	14263
899.753	14278
899.873	14442
899.993	14377
900.113	14320
900.232	14298
900.352	14294
900.472	14259
900.591	14126
900.711	14176
900.83	14157
900.95	14286
901.069	14320
901.189	14123
901.308	13921
901.427	14001
901.546	13898
901.665	13807
901.784	13868
901.904	13708
902.023	13685
902.141	13510
902.26	13434
902.379	13518
902.498	13453
902.617	13457
902.735	13499
902.854	13529
902.973	13441
903.091	13152
903.21	13114
903.328	13179
903.446	13057
903.565	12996
903.683	13046
903.801	12871
903.919	13027
904.038	13050
904.156	12814
904.274	12909
904.392	12783
904.51	12833
904.627	12768
904.745	12856
904.863	12932
904.981	12639
905.098	12551
905.216	12547
905.334	12536
905.451	12528
905.569	12410
905.686	12593
905.803	12570
905.921	12365
906.038	12479
906.155	12422
906.272	12216
906.389	12338
906.506	12167
906.623	12175
906.74	12102
906.857	12019
906.974	12022
907.091	12121
907.208	12247
907.324	12159
907.441	12060
907.557	11927
907.674	11859
907.79	11779
907.907	11790
908.023	11824
908.139	11878
908.256	11885
908.372	11851
908.488	11836
908.604	11627
908.72	11665
908.836	11672
908.952	11570
909.068	11718
909.184	11752
909.3	11596
909.415	11771
909.531	11630
909.647	11387
909.762	11414
909.878	11311
909.993	11398
910.108	11520
910.224	11360
910.339	11383
910.454	11318
910.57	11311
910.685	11151
910.8	11444
910.915	11482
911.03	11292
911.145	11041
911.259	11052
911.374	11102
911.489	11140
911.604	11003
911.718	10820
911.833	10942
911.947	10774
912.062	10687
912.176	10736
912.291	10843
912.405	10843
912.519	11124
912.633	11094
912.748	10889
912.862	10850
912.976	10752
913.09	10599
913.204	10729
913.318	10771
913.431	10831
913.545	10835
913.659	10797
913.772	10691
913.886	10615
914	10618
914.113	10725
914.226	10736
914.34	10710
914.453	10538
914.566	10698
914.68	10611
914.793	10489
914.906	10405
915.019	10287
915.132	10352
915.245	10360
915.358	10436
915.47	10455
915.583	10432
915.696	10523
915.809	10531
915.921	10550
916.034	10402
916.146	10268
916.259	10325
916.371	10409
916.483	10436
916.595	10291
916.708	10310
916.82	10295
916.932	10234
917.044	10402
917.156	10314
917.268	10215
917.38	10227
917.491	10173
917.603	10314
917.715	10295
917.826	10272
917.938	10265
918.049	10048
918.161	10280
918.272	10268
918.384	10348
918.495	10188
918.606	10143
918.717	9979
918.828	10082
918.939	10116
919.05	10017
919.161	10177
919.272	9869
919.383	9937
919.494	10192
919.604	10325
919.715	10150
919.826	10093
919.936	10097
920.047	10215
920.157	10177
920.267	10284
920.378	10162
920.488	10135
920.598	10371
920.708	10462
920.818	10291
920.928	10371
921.038	10379
921.148	10390
921.258	10055
921.368	10071
921.477	10002
921.587	9918
921.697	9857
921.806	10021
921.916	9918
922.025	9667
922.134	9705
922.244	9637
922.353	9774
922.462	9561
922.571	9557
922.68	9348
922.789	9355
922.898	9351
923.007	9291
923.116	9367
923.224	9428
923.333	9348
923.442	9298
923.55	9226
923.659	9283
923.767	9321
923.876	9260
923.984	9310
924.092	9157
924.201	9336
924.309	9154
924.417	9332
924.525	9173
924.633	9237
924.741	9953
924.849	9009
924.956	9169
925.064	8998
925.172	8941
925.279	9009
925.387	9047
925.494	9097
925.602	9077
925.709	9127
925.816	8941
925.924	9055
926.031	9066
926.138	9055
926.245	9081
926.352	8971
926.459	9131
926.566	9119
926.673	9001
926.779	8944
926.886	8895
926.993	8746
927.099	8739
927.206	8758
927.312	8743
927.419	8819
927.525	8769
927.631	8762
927.737	8697
927.843	8701
927.95	8545
928.056	8648
928.162	8659
928.267	8720
928.373	9222
928.479	8746
928.585	8571
928.69	8667
928.796	8659
928.901	8587
929.007	8377
929.112	8606
929.218	8556
929.323	8480
929.428	8469
929.533	8610
929.638	8362
929.743	8454
929.848	8476
929.953	8480
930.058	8377
930.163	8218
930.267	8267
930.372	8438
930.477	8206
930.581	8457
930.685	8313
930.79	8172
930.894	8195
930.998	8183
931.103	8282
931.207	7982
931.311	7909
931.415	7868
931.519	7674
931.623	7727
