Data from test_V78500241_2747.txt Node
Date: Fri Mar 25 14:52:50 CST 2022
User: usil
Spectrometer: V785-0024
Trigger mode: 0
Integration Time (sec): 4.000000E-1
Scans to average: 1
Nonlinearity correction enabled: false
Boxcar width: 0
Storing dark spectrum: false
XAxis mode: Wavelengths
Number of Pixels in Spectrum: 1024
>>>>>Begin Spectral Data<<<<<
801.071	22002
801.214	22006
801.356	21766
801.499	21641
801.641	21507
801.783	21416
801.926	21431
802.068	21283
802.211	21321
802.353	21241
802.496	21051
802.638	20956
802.78	20887
802.923	20906
803.065	20754
803.208	20701
803.35	20792
803.492	20842
803.635	20952
803.777	20781
803.919	20754
804.061	21131
804.204	20857
804.346	20708
804.488	20773
804.63	20750
804.773	20663
804.915	20720
805.057	20754
805.199	20659
805.341	20716
805.483	20861
805.626	20727
805.768	20590
805.91	20750
806.052	20735
806.194	20575
806.336	20750
806.478	20678
806.62	20686
806.762	20758
806.904	20838
807.046	21131
807.188	21032
807.33	21028
807.472	21096
807.614	20960
807.756	20899
807.898	20644
808.04	20712
808.182	20644
808.324	20720
808.465	20739
808.607	20921
808.749	21001
808.891	21123
809.033	21249
809.174	21055
809.316	20998
809.458	21020
809.6	20990
809.741	21150
809.883	21112
810.025	21272
810.166	21279
810.308	21142
810.45	21176
810.591	20975
810.733	20967
810.875	20937
811.016	20765
811.158	20701
811.299	20906
811.441	20956
811.582	20925
811.724	20872
811.865	20777
812.007	20811
812.148	20796
812.29	20956
812.431	20963
812.573	21051
812.714	21173
812.855	21256
812.997	21351
813.138	21599
813.279	21386
813.421	21306
813.562	21192
813.703	21062
813.845	20914
813.986	20693
814.127	20503
814.268	20396
814.41	20374
814.551	20476
814.692	20450
814.833	20248
814.974	20221
815.115	20290
815.256	20176
815.397	20240
815.539	20206
815.68	20039
815.821	20065
815.962	20062
816.103	20073
816.244	19932
816.385	19750
816.526	19696
816.666	19575
816.807	19499
816.948	19624
817.089	19578
817.23	19514
817.371	19518
817.512	19457
817.653	19460
817.793	19407
817.934	19480
818.075	19575
818.216	19552
818.356	19468
818.497	19251
818.638	19118
818.778	19084
818.919	19213
819.06	19228
819.2	19247
819.341	19301
819.481	19396
819.622	19483
819.762	19666
819.903	19578
820.043	19544
820.184	19525
820.324	19563
820.465	19590
820.605	19419
820.746	19426
820.886	19331
821.026	19400
821.167	19365
821.307	19407
821.447	19441
821.588	19270
821.728	19061
821.868	19164
822.008	18856
822.149	18810
822.289	18863
822.429	18658
822.569	18506
822.709	18509
822.849	18334
822.99	18429
823.13	18330
823.27	18178
823.41	18148
823.55	18121
823.69	18110
823.83	18079
823.97	18045
824.11	17954
824.25	17836
824.389	17863
824.529	18011
824.669	17878
824.809	17958
824.949	18083
825.089	17969
825.228	17916
825.368	17802
825.508	17756
825.648	17718
825.787	17722
825.927	17783
826.067	17729
826.206	17649
826.346	17726
826.485	17745
826.625	17714
826.765	17786
826.904	17748
827.044	17353
827.183	17516
827.323	17376
827.462	17459
827.601	17296
827.741	17497
827.88	17444
828.02	17265
828.159	17376
828.298	17452
828.437	17429
828.577	17364
828.716	17539
828.855	17318
828.994	17102
829.134	17162
829.273	17296
829.412	17079
829.551	17064
829.69	17098
829.829	17200
829.968	17307
830.107	17239
830.246	17159
830.385	17079
830.524	16942
830.663	16953
830.802	16930
830.941	16759
831.08	16717
831.219	16790
831.357	16847
831.496	16968
831.635	16824
831.774	16668
831.913	16694
832.051	16603
832.19	16519
832.329	16558
832.467	16417
832.606	16390
832.744	16386
832.883	16573
833.022	16474
833.16	16443
833.299	16607
833.437	16523
833.576	16538
833.714	16523
833.852	16550
833.991	16523
834.129	16546
834.267	16584
834.406	16550
834.544	16569
834.682	16512
834.821	16615
834.959	16683
835.097	16443
835.235	16607
835.373	16508
835.511	16489
835.65	16508
835.788	16451
835.926	16226
836.064	16226
836.202	16268
836.34	16485
836.478	16516
836.615	16493
836.753	16493
836.891	16500
837.029	16538
837.167	16398
837.305	16348
837.443	16223
837.58	16265
837.718	16325
837.856	16268
837.993	16223
838.131	16344
838.269	16246
838.406	16147
838.544	16166
838.681	15972
838.819	15892
838.956	15873
839.094	15827
839.231	15899
839.369	15994
839.506	16238
839.643	16040
839.781	15930
839.918	15861
840.055	15842
840.193	15816
840.33	15774
840.467	15884
840.604	15827
840.742	15994
840.879	15751
841.016	15751
841.153	15724
841.29	15892
841.427	15915
841.564	15865
841.701	15918
841.838	15915
841.975	15838
842.112	15876
842.249	15587
842.385	15644
842.522	15739
842.659	15800
842.796	15675
842.933	15618
843.069	15568
843.206	15587
843.343	15667
843.479	15671
843.616	15709
843.752	15428
843.889	15340
844.025	15618
844.162	15325
844.298	15504
844.435	15439
844.571	15435
844.708	15526
844.844	15637
844.98	15633
845.117	15595
845.253	15405
845.389	15313
845.525	15302
845.661	15367
845.798	15176
845.934	15165
846.07	15116
846.206	15199
846.342	15317
846.478	15237
846.614	15039
846.75	14902
846.886	15017
847.022	15047
847.158	15047
847.294	14990
847.429	15032
847.565	14963
847.701	15188
847.837	14811
847.972	14739
848.108	14849
848.244	14773
848.379	14621
848.515	14651
848.65	14503
848.786	14526
848.921	14651
849.057	14568
849.192	14678
849.328	14613
849.463	14552
849.598	14579
849.734	14507
849.869	14457
850.004	14355
850.14	14434
850.275	14317
850.41	14313
850.545	14343
850.68	14351
850.815	14305
850.95	14362
851.085	14518
851.22	14518
851.355	14313
851.49	14263
851.625	14252
851.76	14374
851.895	14229
852.03	14256
852.165	14259
852.299	14343
852.434	14355
852.569	14400
852.703	14339
852.838	14484
852.973	14484
853.107	14594
853.242	14347
853.376	14168
853.511	14142
853.645	14092
853.78	14374
853.914	14210
854.048	14180
854.183	14153
854.317	14244
854.451	14404
854.585	14218
854.72	14244
854.854	14252
854.988	14103
855.122	14195
855.256	14092
855.39	14119
855.524	14339
855.658	14191
855.792	14187
855.926	14240
856.06	14252
856.194	14347
856.327	14206
856.461	14286
856.595	14126
856.729	14187
856.862	14309
856.996	14324
857.13	14317
857.263	14328
857.397	14362
857.53	14164
857.664	14286
857.797	14328
857.931	14366
858.064	14324
858.197	14256
858.331	14259
858.464	14187
858.597	14149
858.731	14134
858.864	14256
858.997	14202
859.13	14206
859.263	14377
859.396	14317
859.529	14157
859.662	14172
859.795	14252
859.928	14252
860.061	14328
860.194	14419
860.327	14263
860.46	14237
860.592	14294
860.725	14347
860.858	14294
860.99	14183
861.123	14180
861.256	14206
861.388	14221
861.521	14990
861.653	14126
861.786	14058
861.918	14043
862.05	14187
862.183	14157
862.315	14244
862.447	14237
862.58	14126
862.712	14039
862.844	14008
862.976	14039
863.108	14123
863.24	14499
863.372	14027
863.504	13989
863.636	14001
863.768	14027
863.9	14092
864.032	13894
864.164	13963
864.296	14024
864.428	14153
864.559	14084
864.691	14092
864.823	14119
864.954	14058
865.086	14012
865.217	13955
865.349	13887
865.48	13970
865.612	13993
865.743	14164
865.875	14039
866.006	13947
866.137	13978
866.269	14024
866.4	13982
866.531	13986
866.662	13951
866.793	13955
866.924	13925
867.055	13986
867.186	14005
867.317	13856
867.448	13921
867.579	13967
867.71	13902
867.841	13921
867.972	13997
868.103	13989
868.233	13898
868.364	13947
868.495	14084
868.625	14298
868.756	14431
868.886	14248
869.017	14278
869.147	14309
869.278	14381
869.408	14294
869.539	14187
869.669	14305
869.799	14324
869.929	14309
870.06	14374
870.19	14537
870.32	14507
870.45	14682
870.58	14655
870.71	14693
870.84	14739
870.97	14621
871.1	14655
871.23	14838
871.36	14952
871.489	14815
871.619	14807
871.749	14716
871.879	14918
872.008	14960
872.138	14773
872.267	14800
872.397	14678
872.526	14610
872.656	14617
872.785	14765
872.915	14785
873.044	14963
873.173	14857
873.303	15039
873.432	14887
873.561	15043
873.69	14876
873.819	14902
873.948	14986
874.077	14796
874.206	14918
874.335	14944
874.464	15009
874.593	15214
874.722	14963
874.851	15218
874.979	15192
875.108	15218
875.237	15192
875.365	15157
875.494	15150
875.623	15237
875.751	15218
875.88	15207
876.008	15435
876.136	15443
876.265	15629
876.393	15751
876.521	15633
876.65	15743
876.778	15652
876.906	15629
877.034	15568
877.162	15633
877.29	15595
877.418	15625
877.546	15610
877.674	15599
877.802	15690
877.93	15648
878.058	15732
878.185	15450
878.313	15458
878.441	15614
878.568	15389
878.696	15568
878.824	15743
878.951	15675
879.079	15842
879.206	15873
879.333	15800
879.461	15637
879.588	15709
879.715	15876
879.842	15934
879.97	15637
880.097	15424
880.224	15340
880.351	15534
880.478	15496
880.605	15504
880.732	15416
880.859	15705
880.986	15477
881.112	15545
881.239	15382
881.366	15218
881.493	15245
881.619	15154
881.746	15249
881.872	15142
881.999	15131
882.125	14982
882.252	15150
882.378	15237
882.505	15203
882.631	15066
882.757	14956
882.883	14952
883.01	14925
883.136	14975
883.262	14800
883.388	14796
883.514	14910
883.64	14948
883.766	15024
883.892	14735
884.018	14887
884.143	14880
884.269	14979
884.395	14724
884.52	14670
884.646	14731
884.772	14636
884.897	14537
885.023	14720
885.148	14765
885.274	14891
885.399	14826
885.524	14674
885.65	14678
885.775	14682
885.9	14659
886.025	14689
886.15	14697
886.275	14629
886.4	14495
886.525	14606
886.65	14640
886.775	14541
886.9	14735
887.025	14876
887.149	14606
887.274	14469
887.399	14431
887.523	14457
887.648	14427
887.773	14419
887.897	14556
888.021	14522
888.146	14434
888.27	14454
888.395	14613
888.519	14594
888.643	14503
888.767	14575
888.891	14374
889.015	14362
889.139	14381
889.263	14343
889.387	14446
889.511	14571
889.635	14442
889.759	14301
889.883	14248
890.006	14332
890.13	14469
890.254	14267
890.377	14320
890.501	14142
890.624	14107
890.748	14248
890.871	14187
890.995	13982
891.118	13940
891.241	14092
891.364	14081
891.488	14100
891.611	14031
891.734	14092
891.857	13986
891.98	14195
892.103	14176
892.226	14062
892.349	14081
892.471	13978
892.594	14092
892.717	14001
892.839	14008
892.962	14058
893.085	14073
893.207	14073
893.33	13894
893.452	14016
893.575	14107
893.697	14058
893.819	14115
893.941	14256
894.064	14218
894.186	14054
894.308	14008
894.43	14149
894.552	14309
894.674	14214
894.796	14012
894.918	14149
895.04	14081
895.161	14298
895.283	14130
895.405	14107
895.526	14123
895.648	14119
895.769	14221
895.891	14164
896.012	14351
896.134	14305
896.255	14225
896.376	14096
896.498	14248
896.619	14233
896.74	14180
896.861	14259
896.982	14495
897.103	14720
897.224	14514
897.345	14499
897.466	14438
897.587	14423
897.708	14632
897.828	14526
897.949	14507
898.07	14290
898.19	14465
898.311	14594
898.431	14495
898.552	14560
898.672	14625
898.792	14648
898.913	14724
899.033	14522
899.153	14454
899.273	14336
899.393	14351
899.513	14457
899.633	14434
899.753	14343
899.873	14514
899.993	14495
900.113	14381
900.232	14419
900.352	14400
900.472	14362
900.591	14328
900.711	14332
900.83	14355
900.95	14419
901.069	14396
901.189	14275
901.308	14001
901.427	13955
901.546	14058
901.665	14012
901.784	13947
901.904	13845
902.023	13780
902.141	13578
902.26	13586
902.379	13620
902.498	13529
902.617	13514
902.735	13491
902.854	13540
902.973	13491
903.091	13289
903.21	13304
903.328	13183
903.446	13217
903.565	13065
903.683	13076
903.801	12977
903.919	13107
904.038	13065
904.156	12989
904.274	12981
904.392	12947
904.51	12996
904.627	12890
904.745	13046
904.863	12958
904.981	12654
905.098	12669
905.216	12483
905.334	12779
905.451	12650
905.569	12570
905.686	12688
905.803	12585
905.921	12342
906.038	12448
906.155	12429
906.272	12285
906.389	12441
906.506	12232
906.623	12251
906.74	12171
906.857	12091
906.974	12140
907.091	12254
907.208	12311
907.324	12258
907.441	12133
907.557	11996
907.674	12007
907.79	11847
907.907	11950
908.023	12034
908.139	11988
908.256	11893
908.372	11851
908.488	11851
908.604	11752
908.72	11718
908.836	11691
908.952	11665
909.068	11733
909.184	11847
909.3	11688
909.415	11748
909.531	11703
909.647	11490
909.762	11459
909.878	11493
909.993	11539
910.108	11436
910.224	11433
910.339	11501
910.454	11356
910.57	11372
910.685	11303
910.8	11524
910.915	11505
911.03	11395
911.145	11292
911.259	11117
911.374	11212
911.489	11094
911.604	11045
911.718	10961
911.833	10869
911.947	10885
912.062	10729
912.176	10980
912.291	10972
912.405	10976
912.519	11227
912.633	11094
912.748	10904
912.862	10927
912.976	10843
913.09	10691
913.204	10843
913.318	10843
913.431	10957
913.545	10869
913.659	10972
913.772	10835
913.886	10752
914	10721
914.113	10771
914.226	10866
914.34	10820
914.453	10702
914.566	10816
914.68	10691
914.793	10717
914.906	10470
915.019	10443
915.132	10379
915.245	10424
915.358	10413
915.47	10516
915.583	10428
915.696	10580
915.809	10630
915.921	10603
916.034	10489
916.146	10382
916.259	10394
916.371	10500
916.483	10466
916.595	10386
916.708	10333
916.82	10367
916.932	10344
917.044	10379
917.156	10360
917.268	10246
917.38	10234
917.491	10219
917.603	10272
917.715	10291
917.826	10459
917.938	10325
918.049	10120
918.161	10272
918.272	10402
918.384	10333
918.495	10280
918.606	10109
918.717	10135
918.828	10124
918.939	10219
919.05	10074
919.161	10147
919.272	9937
919.383	9983
919.494	10291
919.604	10402
919.715	10219
919.826	10025
919.936	10177
920.047	10230
920.157	10249
920.267	10386
920.378	10299
920.488	10215
920.598	10405
920.708	10588
920.818	10375
920.928	10371
921.038	10538
921.148	10500
921.258	10162
921.368	10154
921.477	9998
921.587	9998
921.697	9915
921.806	10040
921.916	9960
922.025	9766
922.134	9724
922.244	9732
922.353	9759
922.462	9637
922.571	9606
922.68	9466
922.789	9405
922.898	9386
923.007	9378
923.116	9492
923.224	9439
923.333	9492
923.442	9367
923.55	9272
923.659	9264
923.767	9439
923.876	9363
923.984	9401
924.092	9279
924.201	9325
924.309	9340
924.417	9313
924.525	9188
924.633	9260
924.741	9983
924.849	9066
924.956	9279
925.064	9135
925.172	9024
925.279	9081
925.387	9135
925.494	9093
925.602	9199
925.709	9184
925.816	9051
925.924	9089
926.031	9184
926.138	9062
926.245	9123
926.352	9047
926.459	9184
926.566	9161
926.673	9074
926.779	8994
926.886	8933
926.993	8823
927.099	8823
927.206	8754
927.312	8701
927.419	8880
927.525	8815
927.631	8872
927.737	8735
927.843	8724
927.95	8598
928.056	8667
928.162	8655
928.267	8766
928.373	9401
928.479	8842
928.585	8583
928.69	8727
928.796	8667
928.901	8602
929.007	8476
929.112	8712
929.218	8625
929.323	8537
929.428	8476
929.533	8629
929.638	8454
929.743	8495
929.848	8560
929.953	8503
930.058	8431
930.163	8271
930.267	8286
930.372	8434
930.477	8191
930.581	8556
930.685	8362
930.79	8301
930.894	8275
930.998	8271
931.103	8343
931.207	8008
931.311	8016
931.415	7940
931.519	7738
931.623	7715
