Data from test_V78500241_936.txt Node
Date: Fri Mar 25 14:40:14 CST 2022
User: usil
Spectrometer: V785-0024
Trigger mode: 0
Integration Time (sec): 4.000000E-1
Scans to average: 1
Nonlinearity correction enabled: false
Boxcar width: 0
Storing dark spectrum: false
XAxis mode: Wavelengths
Number of Pixels in Spectrum: 1024
>>>>>Begin Spectral Data<<<<<
801.071	24589
801.214	24292
801.356	24087
801.499	23984
801.641	23965
801.783	23767
801.926	23859
802.068	23714
802.211	23482
802.353	23490
802.496	23360
802.638	23299
802.78	23292
802.923	23280
803.065	23151
803.208	23235
803.35	23159
803.492	23296
803.635	23296
803.777	23231
803.919	23197
804.061	23543
804.204	23239
804.346	23204
804.488	23022
804.63	23197
804.773	23037
804.915	23208
805.057	23280
805.199	23128
805.341	23296
805.483	23326
805.626	23223
805.768	23151
805.91	23277
806.052	23277
806.194	23242
806.336	23433
806.478	23337
806.62	23330
806.762	23516
806.904	23539
807.046	23786
807.188	23779
807.33	23764
807.472	23954
807.614	24057
807.756	24285
807.898	24171
808.04	24365
808.182	24475
808.324	24734
808.465	25213
808.607	25681
808.749	26119
808.891	26450
809.033	26533
809.174	26157
809.316	25791
809.458	25384
809.6	24913
809.741	24783
809.883	24433
810.025	24452
810.166	24273
810.308	24213
810.45	24136
810.591	23916
810.733	23802
810.875	23767
811.016	23585
811.158	23512
811.299	23535
811.441	23687
811.582	23615
811.724	23406
811.865	23391
812.007	23421
812.148	23562
812.29	23505
812.431	23646
812.573	23809
812.714	23866
812.855	23851
812.997	24015
813.138	24201
813.279	23958
813.421	24003
813.562	23901
813.703	23718
813.845	23505
813.986	23197
814.127	23029
814.268	23041
814.41	22987
814.551	23044
814.692	23025
814.833	22778
814.974	22930
815.115	23064
815.256	22843
815.397	22801
815.539	22763
815.68	22801
815.821	22660
815.962	22691
816.103	22679
816.244	22508
816.385	22451
816.526	22272
816.666	22223
816.807	22044
816.948	22188
817.089	22268
817.23	22036
817.371	22063
817.512	21994
817.653	21998
817.793	21895
817.934	21975
818.075	22055
818.216	22063
818.356	21987
818.497	21861
818.638	21728
818.778	21759
818.919	21899
819.06	21739
819.2	21823
819.341	21964
819.481	21918
819.622	22002
819.762	22166
819.903	22177
820.043	21998
820.184	22063
820.324	21918
820.465	22097
820.605	22059
820.746	21907
820.886	21922
821.026	21960
821.167	22013
821.307	22048
821.447	21835
821.588	21778
821.728	21705
821.868	21466
822.008	21386
822.149	21329
822.289	21428
822.429	21169
822.569	21089
822.709	20971
822.849	20925
822.99	20743
823.13	20868
823.27	20838
823.41	20621
823.55	20511
823.69	20701
823.83	20720
823.97	20518
824.11	20339
824.25	20473
824.389	20400
824.529	20469
824.669	20393
824.809	20594
824.949	20488
825.089	20560
825.228	20408
825.368	20256
825.508	20240
825.648	20252
825.787	20252
825.927	20351
826.067	20142
826.206	20145
826.346	20199
826.485	20256
826.625	20145
826.765	20202
826.904	20214
827.044	19925
827.183	19993
827.323	19807
827.462	19894
827.601	19807
827.741	19917
827.88	19807
828.02	19655
828.159	19902
828.298	19849
828.437	19894
828.577	19727
828.716	20035
828.855	19811
828.994	19753
829.134	19696
829.273	19647
829.412	19525
829.551	19563
829.69	19544
829.829	19731
829.968	19696
830.107	19655
830.246	19719
830.385	19605
830.524	19575
830.663	19331
830.802	19331
830.941	19190
831.08	19145
831.219	19198
831.357	19297
831.496	19480
831.635	19285
831.774	19099
831.913	18996
832.051	18935
832.19	18932
832.329	19080
832.467	18837
832.606	18897
832.744	18814
832.883	18935
833.022	18802
833.16	18863
833.299	18981
833.437	18993
833.576	19023
833.714	18954
833.852	19015
833.991	19084
834.129	19175
834.267	19072
834.406	19061
834.544	19080
834.682	19004
834.821	19004
834.959	19171
835.097	18875
835.235	19015
835.373	19023
835.511	19015
835.65	18875
835.788	18939
835.926	18650
836.064	18597
836.202	18639
836.34	18798
836.478	18814
836.615	18795
836.753	18787
836.891	18810
837.029	18943
837.167	18719
837.305	18642
837.443	18696
837.58	18703
837.718	18601
837.856	18547
837.993	18578
838.131	18692
838.269	18509
838.406	18452
838.544	18475
838.681	18254
838.819	18239
838.956	18038
839.094	18136
839.231	18178
839.369	18117
839.506	18452
839.643	18342
839.781	18121
839.918	18015
840.055	18068
840.193	18110
840.33	18049
840.467	18136
840.604	18159
840.742	18426
840.879	17988
841.016	17999
841.153	17889
841.29	18117
841.427	18007
841.564	18098
841.701	18003
841.838	18129
841.975	17908
842.112	17931
842.249	17878
842.385	17920
842.522	18011
842.659	17824
842.796	17775
842.933	17794
843.069	17733
843.206	17760
843.343	17912
843.479	17790
843.616	17794
843.752	17653
843.889	17691
844.025	17802
844.162	17630
844.298	17680
844.435	17596
844.571	17653
844.708	17779
844.844	17813
844.98	18007
845.117	17988
845.253	17912
845.389	17980
845.525	18486
845.661	19031
845.798	19811
845.934	20423
846.07	20621
846.206	20765
846.342	20256
846.478	19346
846.614	18429
846.75	17965
846.886	17646
847.022	17558
847.158	17376
847.294	17326
847.429	17315
847.565	17136
847.701	17398
847.837	16942
847.972	16885
848.108	16946
848.244	16942
848.379	16839
848.515	16694
848.65	16710
848.786	16774
848.921	16752
849.057	16786
849.192	16809
849.328	16858
849.463	16626
849.598	16683
849.734	16596
849.869	16641
850.004	16382
850.14	16474
850.275	16538
850.41	16287
850.545	16436
850.68	16390
850.815	16474
850.95	16436
851.085	16641
851.22	16573
851.355	16360
851.49	16447
851.625	16409
851.76	16379
851.895	16253
852.03	16314
852.165	16413
852.299	16474
852.434	16634
852.569	16382
852.703	16421
852.838	16462
852.973	16588
853.107	16512
853.242	16432
853.376	16363
853.511	16196
853.645	16230
853.78	16478
853.914	16417
854.048	16299
854.183	16200
854.317	16432
854.451	16417
854.585	16371
854.72	16318
854.854	16329
854.988	16150
855.122	16363
855.256	16257
855.39	16322
855.524	16257
855.658	16402
855.792	16303
855.926	16337
856.06	16348
856.194	16344
856.327	16303
856.461	16314
856.595	16325
856.729	16276
856.862	16417
856.996	16379
857.13	16272
857.263	16371
857.397	16478
857.53	16306
857.664	16265
857.797	16470
857.931	16360
858.064	16322
858.197	16413
858.331	16181
858.464	16265
858.597	16234
858.731	16322
858.864	16291
858.997	16177
859.13	16299
859.263	16337
859.396	16344
859.529	16109
859.662	16223
859.795	16238
859.928	16379
860.061	16337
860.194	16409
860.327	16249
860.46	16226
860.592	16352
860.725	16459
860.858	16417
860.99	16211
861.123	16139
861.256	16200
861.388	16188
861.521	16889
861.653	16139
861.786	16010
861.918	16147
862.05	16215
862.183	16196
862.315	16230
862.447	16333
862.58	16181
862.712	16017
862.844	15911
862.976	16101
863.108	16082
863.24	16489
863.372	15915
863.504	15949
863.636	16010
863.768	16013
863.9	15926
864.032	15835
864.164	15956
864.296	15915
864.428	16169
864.559	16120
864.691	16048
864.823	15968
864.954	15926
865.086	16105
865.217	15979
865.349	15972
865.48	16032
865.612	15994
865.743	16071
865.875	15953
866.006	15930
866.137	15922
866.269	15983
866.4	15926
866.531	15922
866.662	15918
866.793	15876
866.924	15915
867.055	15960
867.186	15941
867.317	15884
867.448	15816
867.579	15819
867.71	15880
867.841	15854
867.972	15998
868.103	15892
868.233	15945
868.364	15861
868.495	16139
868.625	16139
868.756	16344
868.886	16093
869.017	16128
869.147	16337
869.278	16341
869.408	16169
869.539	16112
869.669	16287
869.799	16166
869.929	16303
870.06	16238
870.19	16462
870.32	16459
870.45	16440
870.58	16493
870.71	16660
870.84	16664
870.97	16504
871.1	16512
871.23	16782
871.36	16729
871.489	16713
871.619	16820
871.749	16683
871.879	16706
872.008	16809
872.138	16767
872.267	16797
872.397	16683
872.526	16660
872.656	16717
872.785	16710
872.915	16831
873.044	16889
873.173	16831
873.303	16930
873.432	16866
873.561	16923
873.69	16831
873.819	16866
873.948	16934
874.077	16820
874.206	16740
874.335	16889
874.464	16991
874.593	17204
874.722	17094
874.851	17147
874.979	17197
875.108	17143
875.237	17098
875.365	17117
875.494	17178
875.623	17318
875.751	17208
875.88	17231
876.008	17311
876.136	17379
876.265	17642
876.393	17752
876.521	17703
876.65	17691
876.778	17710
876.906	17600
877.034	17615
877.162	17554
877.29	17589
877.418	17672
877.546	17680
877.674	17687
877.802	17726
877.93	17634
878.058	17729
878.185	17638
878.313	17752
878.441	17786
878.568	17680
878.696	17866
878.824	17958
878.951	18163
879.079	18445
879.206	18772
879.333	18928
879.461	19164
879.588	19289
879.715	19362
879.842	19384
879.97	18817
880.097	18502
880.224	18308
880.351	18159
880.478	18091
880.605	17885
880.732	17828
880.859	18114
880.986	17965
881.112	17809
881.239	17718
881.366	17577
881.493	17414
881.619	17379
881.746	17490
881.872	17402
881.999	17478
882.125	17410
882.252	17482
882.378	17520
882.505	17630
882.631	17410
882.757	17280
882.883	17288
883.01	17280
883.136	17303
883.262	17170
883.388	17162
883.514	17334
883.64	17387
883.766	17273
883.892	17098
884.018	17159
884.143	17239
884.269	17398
884.395	17109
884.52	16908
884.646	16965
884.772	16949
884.897	16999
885.023	16976
885.148	17025
885.274	17090
885.399	17045
885.524	16843
885.65	17010
885.775	16953
885.9	16805
886.025	17041
886.15	16828
886.275	16869
886.4	16744
886.525	16801
886.65	16729
886.775	16839
886.9	16850
887.025	16980
887.149	16782
887.274	16615
887.399	16561
887.523	16500
887.648	16489
887.773	16497
887.897	16588
888.021	16523
888.146	16462
888.27	16535
888.395	16607
888.519	16641
888.643	16500
888.767	16573
888.891	16421
889.015	16356
889.139	16318
889.263	16276
889.387	16344
889.511	16462
889.635	16470
889.759	16276
889.883	16215
890.006	16306
890.13	16455
890.254	16204
890.377	16192
890.501	16078
890.624	15998
890.748	16124
890.871	16082
890.995	15934
891.118	15778
891.241	15926
891.364	15918
891.488	15956
891.611	15949
891.734	15949
891.857	15895
891.98	15983
892.103	15903
892.226	15953
892.349	15785
892.471	15743
892.594	15869
892.717	16006
892.839	15819
892.962	15899
893.085	15926
893.207	15774
893.33	15644
893.452	15831
893.575	15899
893.697	15793
893.819	15937
893.941	16071
894.064	15975
894.186	15846
894.308	15778
894.43	15960
894.552	16032
894.674	15873
894.796	15755
894.918	15793
895.04	15915
895.161	15975
895.283	15846
895.405	15755
895.526	16013
895.648	15869
895.769	15892
895.891	15991
896.012	15987
896.134	16017
896.255	15964
896.376	15968
896.498	15994
896.619	16051
896.74	15892
896.861	16036
896.982	16207
897.103	16417
897.224	16242
897.345	16116
897.466	16215
897.587	16204
897.708	16417
897.828	16242
897.949	16021
898.07	16063
898.19	16200
898.311	16291
898.431	16147
898.552	16242
898.672	16242
898.792	16276
898.913	16295
899.033	16192
899.153	16078
899.273	15968
899.393	16036
899.513	16124
899.633	16097
899.753	16188
899.873	16013
899.993	16101
900.113	16082
900.232	16013
900.352	16059
900.472	16002
900.591	15838
900.711	15945
900.83	15873
900.95	16006
901.069	15941
901.189	15926
901.308	15694
901.427	15572
901.546	15618
901.665	15557
901.784	15492
901.904	15458
902.023	15397
902.141	15161
902.26	15085
902.379	15207
902.498	15195
902.617	15017
902.735	15157
902.854	15051
902.973	14975
903.091	14834
903.21	14765
903.328	14887
903.446	14670
903.565	14708
903.683	14667
903.801	14575
903.919	14632
904.038	14667
904.156	14412
904.274	14511
904.392	14393
904.51	14294
904.627	14408
904.745	14522
904.863	14377
904.981	14183
905.098	14119
905.216	14046
905.334	14084
905.451	14176
905.569	14005
905.686	14130
905.803	14073
905.921	13860
906.038	14005
906.155	13982
906.272	13799
906.389	13830
906.506	13693
906.623	13624
906.74	13632
906.857	13472
906.974	13643
907.091	13597
907.208	13799
907.324	13788
907.441	13476
907.557	13407
907.674	13369
907.79	13346
907.907	13358
908.023	13388
908.139	13400
908.256	13274
908.372	13225
908.488	13255
908.604	13129
908.72	13110
908.836	13175
908.952	13004
909.068	13057
909.184	13164
909.3	13038
909.415	13137
909.531	13061
909.647	12943
909.762	12859
909.878	12825
909.993	12871
910.108	12852
910.224	12795
910.339	12791
910.454	12658
910.57	12650
910.685	12631
910.8	12913
910.915	12791
911.03	12677
911.145	12460
911.259	12540
911.374	12494
911.489	12380
911.604	12433
911.718	12152
911.833	12235
911.947	12106
912.062	12026
912.176	12136
912.291	12152
912.405	12216
912.519	12410
912.633	12448
912.748	12330
912.862	12247
912.976	12091
913.09	11996
913.204	12030
913.318	12136
913.431	12175
913.545	12197
913.659	12232
913.772	12068
913.886	12045
914	11904
914.113	12152
914.226	12133
914.34	11984
914.453	11939
914.566	12053
914.68	11866
914.793	11874
914.906	11668
915.019	11688
915.132	11623
915.245	11676
915.358	11703
915.47	11668
915.583	11745
915.696	11726
915.809	11813
915.921	11832
916.034	11566
916.146	11611
916.259	11661
916.371	11699
916.483	11642
916.595	11505
916.708	11558
916.82	11562
916.932	11619
917.044	11577
917.156	11562
917.268	11425
917.38	11524
917.491	11417
917.603	11493
917.715	11547
917.826	11619
917.938	11440
918.049	11368
918.161	11471
918.272	11562
918.384	11619
918.495	11482
918.606	11311
918.717	11212
918.828	11280
918.939	11395
919.05	11239
919.161	11189
919.272	11022
919.383	11181
919.494	11417
919.604	11493
919.715	11315
919.826	11258
919.936	11277
920.047	11349
920.157	11273
920.267	11421
920.378	11368
920.488	11318
920.598	11455
920.708	11604
920.818	11520
920.928	11478
921.038	11672
921.148	11630
921.258	11330
921.368	11197
921.477	11117
921.587	11052
921.697	10991
921.806	11136
921.916	10995
922.025	10831
922.134	10847
922.244	10729
922.353	10896
922.462	10744
922.571	10675
922.68	10455
922.789	10447
922.898	10504
923.007	10428
923.116	10485
923.224	10478
923.333	10493
923.442	10436
923.55	10348
923.659	10405
923.767	10447
923.876	10337
923.984	10379
924.092	10253
924.201	10310
924.309	10261
924.417	10367
924.525	10211
924.633	10280
924.741	11022
924.849	10086
924.956	10196
925.064	10074
925.172	9987
925.279	10006
925.387	10166
925.494	10147
925.602	10169
925.709	10169
925.816	10036
925.924	10078
926.031	10131
926.138	10120
926.245	10097
926.352	9994
926.459	10124
926.566	10177
926.673	10048
926.779	9964
926.886	9930
926.993	9861
927.099	9804
927.206	9599
927.312	9694
927.419	9755
927.525	9762
927.631	9873
927.737	9656
927.843	9663
927.95	9511
928.056	9584
928.162	9709
928.267	9743
928.373	10253
928.479	9842
928.585	9424
928.69	9682
928.796	9633
928.901	9519
929.007	9386
929.112	9576
929.218	9534
929.323	9363
929.428	9454
929.533	9477
929.638	9439
929.743	9458
929.848	9382
929.953	9462
930.058	9313
930.163	9256
930.267	9256
930.372	9370
930.477	9184
930.581	9428
930.685	9332
930.79	9116
930.894	9157
930.998	9085
931.103	9260
931.207	8849
931.311	8807
931.415	8727
931.519	8549
931.623	8644
