Data from test_V78500241_643.txt Node
Date: Fri Mar 25 14:38:11 CST 2022
User: usil
Spectrometer: V785-0024
Trigger mode: 0
Integration Time (sec): 4.000000E-1
Scans to average: 1
Nonlinearity correction enabled: false
Boxcar width: 0
Storing dark spectrum: false
XAxis mode: Wavelengths
Number of Pixels in Spectrum: 1024
>>>>>Begin Spectral Data<<<<<
801.071	27816
801.214	27789
801.356	27439
801.499	27466
801.641	27344
801.783	27161
801.926	27184
802.068	27157
802.211	27108
802.353	27077
802.496	26804
802.638	26857
802.78	26765
802.923	26670
803.065	26720
803.208	26792
803.35	26674
803.492	26857
803.635	26948
803.777	26804
803.919	26925
804.061	27184
804.204	26971
804.346	26769
804.488	26868
804.63	26940
804.773	26933
804.915	26986
805.057	27230
805.199	27157
805.341	27256
805.483	27294
805.626	27389
805.768	27370
805.91	27485
806.052	27545
806.194	27606
806.336	28067
806.478	28002
806.62	28055
806.762	28322
806.904	28831
807.046	29261
807.188	29577
807.33	29920
807.472	30292
807.614	30886
807.756	31719
807.898	32495
808.04	33884
808.182	35562
808.324	37852
808.465	40287
808.607	43038
808.749	45389
808.891	47018
809.033	47044
809.174	45804
809.316	43270
809.458	40333
809.6	37483
809.741	35185
809.883	33386
810.025	32138
810.166	31266
810.308	30536
810.45	30060
810.591	29429
810.733	29124
810.875	28854
811.016	28447
811.158	28314
811.299	28234
811.441	28306
811.582	28238
811.724	27949
811.865	27888
812.007	27774
812.148	27511
812.29	27599
812.431	27610
812.573	27903
812.714	27789
812.855	27895
812.997	27888
813.138	28002
813.279	27911
813.421	27865
813.562	27545
813.703	27416
813.845	27321
813.986	26979
814.127	26727
814.268	26644
814.41	26697
814.551	26632
814.692	26655
814.833	26579
814.974	26393
815.115	26438
815.256	26294
815.397	26339
815.539	26301
815.68	26084
815.821	26107
815.962	26195
816.103	26103
816.244	25894
816.385	25753
816.526	25890
816.666	25578
816.807	25403
816.948	25529
817.089	25495
817.23	25396
817.371	25320
817.512	25350
817.653	25343
817.793	25236
817.934	25263
818.075	25411
818.216	25297
818.356	25278
818.497	25179
818.638	25015
818.778	25088
818.919	24973
819.06	25000
819.2	25206
819.341	25221
819.481	25320
819.622	25457
819.762	25499
819.903	25365
820.043	25343
820.184	25232
820.324	25274
820.465	25263
820.605	25217
820.746	25141
820.886	25080
821.026	25141
821.167	25141
821.307	25118
821.447	25122
821.588	24779
821.728	24734
821.868	24623
822.008	24483
822.149	24448
822.289	24464
822.429	24285
822.569	24163
822.709	24133
822.849	23904
822.99	23927
823.13	23870
823.27	23927
823.41	23779
823.55	23630
823.69	23714
823.83	23687
823.97	23558
824.11	23509
824.25	23334
824.389	23391
824.529	23459
824.669	23414
824.809	23665
824.949	23623
825.089	23490
825.228	23414
825.368	23204
825.508	23254
825.648	23330
825.787	23273
825.927	23315
826.067	23143
826.206	23098
826.346	23376
826.485	23162
826.625	23159
826.765	23410
826.904	23254
827.044	22995
827.183	22942
827.323	22896
827.462	22991
827.601	22946
827.741	22801
827.88	22869
828.02	22774
828.159	22850
828.298	22847
828.437	22869
828.577	22831
828.716	22843
828.855	22774
828.994	22500
829.134	22664
829.273	22622
829.412	22607
829.551	22447
829.69	22504
829.829	22573
829.968	22569
830.107	22706
830.246	22573
830.385	22489
830.524	22386
830.663	22466
830.802	22413
830.941	22169
831.08	22207
831.219	22272
831.357	22173
831.496	22352
831.635	22200
831.774	22139
831.913	22002
832.051	22059
832.19	21949
832.329	22067
832.467	22029
832.606	21869
832.744	22074
832.883	22013
833.022	22128
833.16	22249
833.299	22200
833.437	22462
833.576	22538
833.714	22641
833.852	22809
833.991	22946
834.129	22965
834.267	22991
834.406	22968
834.544	22911
834.682	22778
834.821	22565
834.959	22580
835.097	22405
835.235	22459
835.373	22200
835.511	22101
835.65	21949
835.788	21880
835.926	21698
836.064	21557
836.202	21576
836.34	21884
836.478	21876
836.615	21717
836.753	21747
836.891	21671
837.029	21679
837.167	21599
837.305	21618
837.443	21679
837.58	21454
837.718	21603
837.856	21515
837.993	21519
838.131	21488
838.269	21481
838.406	21401
838.544	21245
838.681	21146
838.819	21089
838.956	20979
839.094	20910
839.231	21146
839.369	21017
839.506	21367
839.643	21169
839.781	20963
839.918	20887
840.055	20944
840.193	20902
840.33	20868
840.467	20830
840.604	20918
840.742	21047
840.879	20701
841.016	20724
841.153	20731
841.29	20891
841.427	20895
841.564	20956
841.701	20880
841.838	20815
841.975	20785
842.112	20880
842.249	20655
842.385	20640
842.522	20883
842.659	20785
842.796	20636
842.933	20743
843.069	20667
843.206	20651
843.343	20834
843.479	20724
843.616	20960
843.752	20575
843.889	20651
844.025	20883
844.162	20693
844.298	20887
844.435	21077
844.571	21096
844.708	21408
844.844	21720
844.98	22215
845.117	22672
845.253	23471
845.389	25012
845.525	27857
845.661	32720
845.798	38644
845.934	42973
846.07	44663
846.206	43438
846.342	39523
846.478	33819
846.614	28790
846.75	25460
846.886	23573
847.022	22466
847.158	21587
847.294	21157
847.429	20781
847.565	20568
847.701	20735
847.837	20092
847.972	19982
848.108	20062
848.244	19909
848.379	19875
848.515	19731
848.65	19651
848.786	19658
848.921	19658
849.057	19753
849.192	19723
849.328	19544
849.463	19533
849.598	19354
849.734	19491
849.869	19339
850.004	19282
850.14	19126
850.275	19266
850.41	19198
850.545	19225
850.68	19171
850.815	19259
850.95	19274
851.085	19365
851.22	19327
851.355	19221
851.49	19270
851.625	19168
851.76	19236
851.895	19209
852.03	19221
852.165	19301
852.299	19202
852.434	19460
852.569	19312
852.703	19441
852.838	19331
852.973	19487
853.107	19400
853.242	19320
853.376	19168
853.511	19103
853.645	19251
853.78	19415
853.914	19293
854.048	19358
854.183	19419
854.317	19426
854.451	19651
854.585	19445
854.72	19426
854.854	19358
854.988	19236
855.122	19301
855.256	19129
855.39	19320
855.524	19301
855.658	19304
855.792	19164
855.926	19137
856.06	19190
856.194	19187
856.327	19099
856.461	19008
856.595	18928
856.729	19031
856.862	19183
856.996	19072
857.13	19160
857.263	19110
857.397	19110
857.53	19027
857.664	19107
857.797	19137
857.931	19164
858.064	19122
858.197	19069
858.331	18996
858.464	18943
858.597	18844
858.731	18871
858.864	18932
858.997	18973
859.13	19008
859.263	18939
859.396	19004
859.529	18909
859.662	18916
859.795	18825
859.928	19008
860.061	19008
860.194	19034
860.327	18947
860.46	18856
860.592	19046
860.725	19114
860.858	19080
860.99	18863
861.123	18700
861.256	18760
861.388	18935
861.521	19620
861.653	18738
861.786	18722
861.918	18833
862.05	18871
862.183	18867
862.315	18863
862.447	18840
862.58	18833
862.712	18627
862.844	18608
862.976	18703
863.108	18661
863.24	18928
863.372	18513
863.504	18589
863.636	18547
863.768	18646
863.9	18673
864.032	18650
864.164	18551
864.296	18506
864.428	18570
864.559	18639
864.691	18616
864.823	18604
864.954	18570
865.086	18452
865.217	18479
865.349	18437
865.48	18479
865.612	18460
865.743	18650
865.875	18551
866.006	18513
866.137	18566
866.269	18414
866.4	18525
866.531	18521
866.662	18376
866.793	18369
866.924	18464
867.055	18536
867.186	18350
867.317	18353
867.448	18365
867.579	18532
867.71	18391
867.841	18384
867.972	18395
868.103	18445
868.233	18433
868.364	18513
868.495	18608
868.625	18635
868.756	18760
868.886	18593
869.017	18707
869.147	18837
869.278	18745
869.408	18734
869.539	18703
869.669	18734
869.799	18745
869.929	18825
870.06	18806
870.19	19038
870.32	18928
870.45	19110
870.58	19171
870.71	19206
870.84	19354
870.97	19179
871.1	19175
871.23	19362
871.36	19301
871.489	19297
871.619	19247
871.749	19392
871.879	19381
872.008	19434
872.138	19331
872.267	19358
872.397	19441
872.526	19339
872.656	19388
872.785	19441
872.915	19499
873.044	19632
873.173	19449
873.303	19658
873.432	19586
873.561	19738
873.69	19594
873.819	19643
873.948	19772
874.077	19670
874.206	19780
874.335	19799
874.464	19967
874.593	20050
874.722	20088
874.851	20252
874.979	20138
875.108	20263
875.237	20065
875.365	20084
875.494	20225
875.623	20404
875.751	20233
875.88	20412
876.008	20579
876.136	20632
876.265	20811
876.393	21070
876.521	21017
876.65	21123
876.778	20933
876.906	21062
877.034	20956
877.162	21096
877.29	21131
877.418	21367
877.546	21507
877.674	21450
877.802	21519
877.93	21732
878.058	21747
878.185	21960
878.313	22303
878.441	22443
878.568	22725
878.696	23166
878.824	23779
878.951	24932
879.079	26161
879.206	27934
879.333	29752
879.461	31008
879.588	32077
879.715	32088
879.842	31403
879.97	29828
880.097	27949
880.224	26457
880.351	25605
880.478	24810
880.605	24289
880.732	23889
880.859	24018
880.986	23619
881.112	23520
881.239	23307
881.366	23227
881.493	23178
881.619	23044
881.746	23170
881.872	23044
881.999	23117
882.125	23105
882.252	23258
882.378	23193
882.505	23349
882.631	23185
882.757	23102
882.883	23185
883.01	23052
883.136	23025
883.262	23006
883.388	22968
883.514	22972
883.64	23006
883.766	22957
883.892	22938
884.018	22923
884.143	22927
884.269	23162
884.395	22790
884.52	22831
884.646	22816
884.772	22592
884.897	22645
885.023	22862
885.148	22744
885.274	22835
885.399	22778
885.524	22584
885.65	22466
885.775	22394
885.9	22322
886.025	22234
886.15	22128
886.275	21842
886.4	21747
886.525	21629
886.65	21526
886.775	21473
886.9	21481
887.025	21435
887.149	21203
887.274	20948
887.399	20895
887.523	20750
887.648	20625
887.773	20571
887.897	20674
888.021	20583
888.146	20362
888.27	20473
888.395	20511
888.519	20400
888.643	20389
888.767	20355
888.891	20145
889.015	19932
889.139	19974
889.263	19841
889.387	20016
889.511	20199
889.635	19947
889.759	19818
889.883	19830
890.006	19776
890.13	19830
890.254	19597
890.377	19514
890.501	19480
890.624	19419
890.748	19415
890.871	19392
890.995	19084
891.118	19122
891.241	19255
891.364	19065
891.488	19187
891.611	19133
891.734	19012
891.857	19076
891.98	19091
892.103	19133
892.226	18867
892.349	18810
892.471	18703
892.594	18814
892.717	18856
892.839	18745
892.962	18779
893.085	18802
893.207	18734
893.33	18574
893.452	18604
893.575	18749
893.697	18669
893.819	18829
893.941	18856
894.064	18658
894.186	18490
894.308	18437
894.43	18608
894.552	18665
894.674	18555
894.796	18437
894.918	18467
895.04	18399
895.161	18566
895.283	18536
895.405	18327
895.526	18418
895.648	18292
895.769	18327
895.891	18494
896.012	18532
896.134	18376
896.255	18342
896.376	18365
896.498	18376
896.619	18346
896.74	18456
896.861	18399
896.982	18802
897.103	18825
897.224	18620
897.345	18517
897.466	18502
897.587	18547
897.708	18665
897.828	18597
897.949	18506
898.07	18410
898.19	18456
898.311	18604
898.431	18441
898.552	18540
898.672	18585
898.792	18570
898.913	18578
899.033	18471
899.153	18304
899.273	18289
899.393	18254
899.513	18285
899.633	18235
899.753	18224
899.873	18182
899.993	18300
900.113	18224
900.232	18311
900.352	18190
900.472	18114
900.591	18129
900.711	18026
900.83	18110
900.95	18216
901.069	18220
901.189	18022
901.308	17794
901.427	17710
901.546	17649
901.665	17687
901.784	17672
901.904	17455
902.023	17463
902.141	17246
902.26	17079
902.379	17258
902.498	17102
902.617	17052
902.735	17170
902.854	17098
902.973	16915
903.091	16824
903.21	16771
903.328	16767
903.446	16675
903.565	16584
903.683	16546
903.801	16512
903.919	16504
904.038	16421
904.156	16417
904.274	16424
904.392	16303
904.51	16318
904.627	16344
904.745	16341
904.863	16268
904.981	16090
905.098	15911
905.216	16010
905.334	16051
905.451	15983
905.569	15876
905.686	15987
905.803	15949
905.921	15774
906.038	15816
906.155	15804
906.272	15724
906.389	15663
906.506	15466
906.623	15477
906.74	15428
906.857	15317
906.974	15397
907.091	15553
907.208	15614
907.324	15424
907.441	15268
907.557	15283
907.674	15218
907.79	15112
907.907	15081
908.023	15150
908.139	15097
908.256	15112
908.372	15055
908.488	15066
908.604	14895
908.72	14933
908.836	14902
908.952	14849
909.068	14994
909.184	14876
909.3	14929
909.415	14883
909.531	14941
909.647	14610
909.762	14632
909.878	14598
909.993	14712
910.108	14670
910.224	14507
910.339	14629
910.454	14480
910.57	14415
910.685	14511
910.8	14655
910.915	14568
911.03	14518
911.145	14202
911.259	14195
911.374	14229
911.489	14199
911.604	14123
911.718	14012
911.833	13986
911.947	13909
912.062	13795
912.176	14050
912.291	14008
912.405	14008
912.519	14187
912.633	14161
912.748	13989
912.862	14046
912.976	13894
913.09	13693
913.204	13708
913.318	13864
913.431	13921
913.545	13864
913.659	14008
913.772	13811
913.886	13715
914	13651
914.113	13658
914.226	13814
914.34	13757
914.453	13586
914.566	13704
914.68	13628
914.793	13624
914.906	13343
915.019	13381
915.132	13259
915.245	13350
915.358	13304
915.47	13263
915.583	13403
915.696	13358
915.809	13403
915.921	13426
916.034	13308
916.146	13213
916.259	13297
916.371	13403
916.483	13327
916.595	13251
916.708	13293
916.82	13263
916.932	13377
917.044	13293
917.156	13198
917.268	13080
917.38	13050
917.491	13209
917.603	13110
917.715	13179
917.826	13171
917.938	12993
918.049	12962
918.161	13088
918.272	13149
918.384	13202
918.495	13023
918.606	12909
918.717	12909
918.828	12905
918.939	12905
919.05	12749
919.161	12852
919.272	12589
919.383	12585
919.494	12863
919.604	12932
919.715	12852
919.826	12703
919.936	12711
920.047	12806
920.157	12875
920.267	13000
920.378	12810
920.488	12776
920.598	13031
920.708	13027
920.818	12882
920.928	12837
921.038	13114
921.148	12981
921.258	12791
921.368	12627
921.477	12642
921.587	12502
921.697	12456
921.806	12555
921.916	12536
922.025	12251
922.134	12209
922.244	12201
922.353	12209
922.462	12148
922.571	12091
922.68	11988
922.789	11946
922.898	11946
923.007	11741
923.116	11901
923.224	11764
923.333	11874
923.442	11767
923.55	11714
923.659	11748
923.767	11760
923.876	11733
923.984	11817
924.092	11573
924.201	11638
924.309	11661
924.417	11642
924.525	11604
924.633	11668
924.741	12414
924.849	11478
924.956	11581
925.064	11395
925.172	11280
925.279	11376
925.387	11452
925.494	11303
925.602	11474
925.709	11528
925.816	11299
925.924	11337
926.031	11417
926.138	11360
926.245	11467
926.352	11303
926.459	11482
926.566	11402
926.673	11269
926.779	11121
926.886	11170
926.993	11071
927.099	11018
927.206	11014
927.312	10972
927.419	11075
927.525	10965
927.631	10999
927.737	10908
927.843	10904
927.95	10721
928.056	10850
928.162	10866
928.267	10934
928.373	11467
928.479	10968
928.585	10752
928.69	10782
928.796	10782
928.901	10714
929.007	10607
929.112	10820
929.218	10694
929.323	10656
929.428	10641
929.533	10774
929.638	10580
929.743	10599
929.848	10683
929.953	10618
930.058	10497
930.163	10363
930.267	10348
930.372	10500
930.477	10341
930.581	10554
930.685	10447
930.79	10257
930.894	10192
930.998	10261
931.103	10386
931.207	9960
931.311	9979
931.415	9945
931.519	9656
931.623	9660
