Data from test_V78500241_216.txt Node
Date: Fri Mar 25 14:35:13 CST 2022
User: usil
Spectrometer: V785-0024
Trigger mode: 0
Integration Time (sec): 4.000000E-1
Scans to average: 1
Nonlinearity correction enabled: false
Boxcar width: 0
Storing dark spectrum: false
XAxis mode: Wavelengths
Number of Pixels in Spectrum: 1024
>>>>>Begin Spectral Data<<<<<
801.071	27960
801.214	27781
801.356	27485
801.499	27462
801.641	27230
801.783	27355
801.926	27427
802.068	27332
802.211	27142
802.353	27089
802.496	26971
802.638	26868
802.78	26849
802.923	26895
803.065	26800
803.208	26746
803.35	26876
803.492	26807
803.635	26952
803.777	26762
803.919	26910
804.061	27222
804.204	26960
804.346	26701
804.488	26796
804.63	26788
804.773	26701
804.915	26750
805.057	26895
805.199	26739
805.341	26765
805.483	26842
805.626	26807
805.768	26762
805.91	26853
806.052	26861
806.194	26781
806.336	27047
806.478	26861
806.62	26883
806.762	26857
806.904	27169
807.046	27405
807.188	27317
807.33	27393
807.472	27249
807.614	27241
807.756	27310
807.898	27142
808.04	27214
808.182	27214
808.324	27370
808.465	27332
808.607	27545
808.749	27736
808.891	27838
809.033	27892
809.174	27854
809.316	27778
809.458	27682
809.6	27633
809.741	27717
809.883	27564
810.025	27694
810.166	27652
810.308	27755
810.45	27504
810.591	27424
810.733	27424
810.875	27325
811.016	27142
811.158	27173
811.299	27313
811.441	27370
811.582	27256
811.724	27119
811.865	27112
812.007	27207
812.148	27264
812.29	27252
812.431	27355
812.573	27469
812.714	27610
812.855	27755
812.997	27762
813.138	27914
813.279	27766
813.421	27679
813.562	27656
813.703	27374
813.845	27389
813.986	27089
814.127	26800
814.268	26743
814.41	26849
814.551	26807
814.692	26910
814.833	26693
814.974	26678
815.115	26746
815.256	26602
815.397	26621
815.539	26613
815.68	26526
815.821	26396
815.962	26492
816.103	26621
816.244	26347
816.385	26252
816.526	26282
816.666	26035
816.807	25689
816.948	25986
817.089	25970
817.23	25875
817.371	25868
817.512	25986
817.653	25795
817.793	25875
817.934	25940
818.075	25997
818.216	25909
818.356	25841
818.497	25746
818.638	25559
818.778	25590
818.919	25635
819.06	25731
819.2	25803
819.341	25689
819.481	25734
819.622	25864
819.762	26062
819.903	26039
820.043	25879
820.184	25852
820.324	25723
820.465	25890
820.605	25845
820.746	25875
820.886	25586
821.026	25784
821.167	25761
821.307	25894
821.447	25757
821.588	25571
821.728	25556
821.868	25407
822.008	25335
822.149	25190
822.289	25053
822.429	25050
822.569	24772
822.709	24791
822.849	24719
822.99	24715
823.13	24574
823.27	24566
823.41	24464
823.55	24292
823.69	24517
823.83	24376
823.97	24384
824.11	24232
824.25	24186
824.389	24361
824.529	24346
824.669	24163
824.809	24254
824.949	24281
825.089	24380
825.228	24258
825.368	24106
825.508	24034
825.648	24026
825.787	24041
825.927	24167
826.067	23950
826.206	24041
826.346	23969
826.485	24003
826.625	23973
826.765	24018
826.904	24232
827.044	23707
827.183	23668
827.323	23665
827.462	23699
827.601	23634
827.741	23539
827.88	23737
828.02	23474
828.159	23535
828.298	23657
828.437	23718
828.577	23615
828.716	23843
828.855	23558
828.994	23448
829.134	23379
829.273	23505
829.412	23467
829.551	23330
829.69	23322
829.829	23334
829.968	23387
830.107	23452
830.246	23337
830.385	23174
830.524	23189
830.663	23212
830.802	23033
830.941	22984
831.08	22877
831.219	23086
831.357	23033
831.496	23193
831.635	22908
831.774	22664
831.913	22740
832.051	22698
832.19	22592
832.329	22694
832.467	22596
832.606	22550
832.744	22462
832.883	22569
833.022	22599
833.16	22527
833.299	22561
833.437	22527
833.576	22603
833.714	22557
833.852	22725
833.991	22580
834.129	22649
834.267	22599
834.406	22603
834.544	22580
834.682	22478
834.821	22455
834.959	22668
835.097	22443
835.235	22645
835.373	22500
835.511	22504
835.65	22276
835.788	22405
835.926	22230
836.064	22196
836.202	22280
836.34	22413
836.478	22394
836.615	22303
836.753	22440
836.891	22493
837.029	22325
837.167	22265
837.305	22192
837.443	22310
837.58	22230
837.718	22215
837.856	22219
837.993	22226
838.131	22143
838.269	22150
838.406	22044
838.544	22036
838.681	21911
838.819	21770
838.956	21530
839.094	21743
839.231	21534
839.369	21816
839.506	22105
839.643	21819
839.781	21580
839.918	21587
840.055	21591
840.193	21682
840.33	21515
840.467	21580
840.604	21644
840.742	21743
840.879	21401
841.016	21500
841.153	21420
841.29	21485
841.427	21538
841.564	21557
841.701	21504
841.838	21428
841.975	21363
842.112	21344
842.249	21279
842.385	21218
842.522	21477
842.659	21203
842.796	21237
842.933	21252
843.069	21112
843.206	21256
843.343	21294
843.479	21226
843.616	21298
843.752	21028
843.889	21051
844.025	21123
844.162	20883
844.298	21070
844.435	21024
844.571	21001
844.708	21077
844.844	21157
844.98	21237
845.117	21058
845.253	20906
845.389	21024
845.525	21081
845.661	21131
845.798	21218
845.934	21458
846.07	21302
846.206	21397
846.342	21351
846.478	21032
846.614	20765
846.75	20568
846.886	20503
847.022	20705
847.158	20461
847.294	20480
847.429	20450
847.565	20351
847.701	20678
847.837	20233
847.972	20043
848.108	20278
848.244	20199
848.379	20073
848.515	20024
848.65	20092
848.786	20024
848.921	20081
849.057	20103
849.192	20081
849.328	20035
849.463	19974
849.598	19845
849.734	19883
849.869	19757
850.004	19746
850.14	19723
850.275	19674
850.41	19723
850.545	19719
850.68	19723
850.815	19658
850.95	19639
851.085	19856
851.22	19890
851.355	19670
851.49	19556
851.625	19575
851.76	19757
851.895	19628
852.03	19563
852.165	19715
852.299	19647
852.434	19780
852.569	19693
852.703	19712
852.838	19742
852.973	19765
853.107	19814
853.242	19696
853.376	19655
853.511	19415
853.645	19457
853.78	19651
853.914	19624
854.048	19556
854.183	19518
854.317	19597
854.451	19613
854.585	19556
854.72	19453
854.854	19613
854.988	19468
855.122	19597
855.256	19297
855.39	19476
855.524	19552
855.658	19590
855.792	19537
855.926	19578
856.06	19525
856.194	19655
856.327	19392
856.461	19381
856.595	19304
856.729	19499
856.862	19613
856.996	19480
857.13	19578
857.263	19544
857.397	19578
857.53	19521
857.664	19464
857.797	19510
857.931	19613
858.064	19563
858.197	19586
858.331	19502
858.464	19384
858.597	19392
858.731	19491
858.864	19426
858.997	19468
859.13	19449
859.263	19556
859.396	19571
859.529	19480
859.662	19400
859.795	19324
859.928	19384
860.061	19510
860.194	19559
860.327	19525
860.46	19457
860.592	19468
860.725	19613
860.858	19480
860.99	19502
861.123	19346
861.256	19304
861.388	19411
861.521	20039
861.653	19282
861.786	19190
861.918	19369
862.05	19362
862.183	19350
862.315	19521
862.447	19430
862.58	19483
862.712	19369
862.844	19091
862.976	19331
863.108	19194
863.24	19502
863.372	19008
863.504	19213
863.636	19118
863.768	19209
863.9	19187
864.032	19126
864.164	19126
864.296	19152
864.428	19316
864.559	19225
864.691	19145
864.823	19164
864.954	19107
865.086	19168
865.217	19099
865.349	19122
865.48	19069
865.612	19084
865.743	19228
865.875	19015
866.006	19034
866.137	19038
866.269	18928
866.4	19038
866.531	19008
866.662	18993
866.793	19023
866.924	18947
867.055	19038
867.186	19008
867.317	18848
867.448	18970
867.579	18966
867.71	18848
867.841	18970
867.972	18913
868.103	18981
868.233	19053
868.364	18985
868.495	19126
868.625	19228
868.756	19403
868.886	19164
869.017	19168
869.147	19285
869.278	19297
869.408	19255
869.539	19152
869.669	19225
869.799	19171
869.929	19266
870.06	19270
870.19	19559
870.32	19620
870.45	19514
870.58	19651
870.71	19719
870.84	19700
870.97	19575
871.1	19544
871.23	19772
871.36	19807
871.489	19776
871.619	19712
871.749	19822
871.879	19871
872.008	20043
872.138	19894
872.267	19883
872.397	19715
872.526	19643
872.656	19559
872.785	19643
872.915	19757
873.044	19898
873.173	19780
873.303	19898
873.432	19776
873.561	19780
873.69	19757
873.819	19860
873.948	19959
874.077	19776
874.206	19830
874.335	19814
874.464	19959
874.593	20183
874.722	20005
874.851	20187
874.979	20271
875.108	20119
875.237	20016
875.365	20024
875.494	20077
875.623	20092
875.751	20290
875.88	20149
876.008	20214
876.136	20362
876.265	20621
876.393	20560
876.521	20682
876.65	20678
876.778	20636
876.906	20609
877.034	20408
877.162	20609
877.29	20492
877.418	20590
877.546	20530
877.674	20514
877.802	20568
877.93	20465
878.058	20560
878.185	20412
878.313	20526
878.441	20579
878.568	20503
878.696	20484
878.824	20575
878.951	20674
879.079	20849
879.206	20952
879.333	20956
879.461	20834
879.588	21051
879.715	20994
879.842	21085
879.97	20864
880.097	20511
880.224	20484
880.351	20503
880.478	20317
880.605	20450
880.732	20374
880.859	20670
880.986	20442
881.112	20434
881.239	20347
881.366	20195
881.493	20225
881.619	19993
881.746	19879
881.872	20081
881.999	19932
882.125	19909
882.252	20069
882.378	20050
882.505	20054
882.631	19947
882.757	19814
882.883	19909
883.01	19731
883.136	19742
883.262	19708
883.388	19597
883.514	19818
883.64	19875
883.766	19753
883.892	19605
884.018	19514
884.143	19788
884.269	19803
884.395	19472
884.52	19419
884.646	19529
884.772	19373
884.897	19194
885.023	19438
885.148	19518
885.274	19647
885.399	19441
885.524	19472
885.65	19483
885.775	19445
885.9	19384
886.025	19426
886.15	19308
886.275	19270
886.4	19304
886.525	19350
886.65	19225
886.775	19289
886.9	19422
887.025	19567
887.149	19278
887.274	19084
887.399	19190
887.523	19183
887.648	19095
887.773	19053
887.897	19282
888.021	19202
888.146	19156
888.27	19221
888.395	19171
888.519	19213
888.643	19247
888.767	19118
888.891	18909
889.015	18909
889.139	19046
889.263	18840
889.387	19107
889.511	19107
889.635	19084
889.759	18867
889.883	18924
890.006	18916
890.13	18966
890.254	18806
890.377	18802
890.501	18661
890.624	18635
890.748	18707
890.871	18559
890.995	18601
891.118	18464
891.241	18547
891.364	18433
891.488	18654
891.611	18578
891.734	18410
891.857	18547
891.98	18429
892.103	18467
892.226	18559
892.349	18570
892.471	18311
892.594	18414
892.717	18486
892.839	18361
892.962	18467
893.085	18414
893.207	18528
893.33	18361
893.452	18296
893.575	18574
893.697	18380
893.819	18490
893.941	18673
894.064	18551
894.186	18342
894.308	18369
894.43	18525
894.552	18620
894.674	18589
894.796	18445
894.918	18448
895.04	18418
895.161	18566
895.283	18403
895.405	18327
895.526	18460
895.648	18429
895.769	18486
895.891	18460
896.012	18574
896.134	18521
896.255	18502
896.376	18528
896.498	18536
896.619	18654
896.74	18509
896.861	18521
896.982	18882
897.103	18954
897.224	18909
897.345	18760
897.466	18692
897.587	18700
897.708	18882
897.828	18722
897.949	18730
898.07	18578
898.19	18677
898.311	18859
898.431	18692
898.552	18692
898.672	18798
898.792	18749
898.913	18768
899.033	18654
899.153	18486
899.273	18296
899.393	18525
899.513	18536
899.633	18551
899.753	18513
899.873	18300
899.993	18620
900.113	18498
900.232	18525
900.352	18395
900.472	18433
900.591	18247
900.711	18452
900.83	18315
900.95	18551
901.069	18369
901.189	18258
901.308	17935
901.427	17885
901.546	17885
901.665	17916
901.784	18015
901.904	17798
902.023	17703
902.141	17520
902.26	17398
902.379	17539
902.498	17433
902.617	17345
902.735	17463
902.854	17532
902.973	17315
903.091	17189
903.21	17132
903.328	17075
903.446	17018
903.565	16930
903.683	16980
903.801	16763
903.919	16946
904.038	16877
904.156	16698
904.274	16915
904.392	16653
904.51	16599
904.627	16755
904.745	16710
904.863	16698
904.981	16371
905.098	16363
905.216	16421
905.334	16440
905.451	16356
905.569	16367
905.686	16390
905.803	16352
905.921	16147
906.038	16280
906.155	16093
906.272	16063
906.389	16051
906.506	15930
906.623	15903
906.74	15926
906.857	15724
906.974	15747
907.091	15869
907.208	15975
907.324	15949
907.441	15812
907.557	15553
907.674	15488
907.79	15477
907.907	15557
908.023	15580
908.139	15507
908.256	15466
908.372	15363
908.488	15306
908.604	15348
908.72	15294
908.836	15237
908.952	15195
909.068	15241
909.184	15405
909.3	15298
909.415	15332
909.531	15260
909.647	14990
909.762	15020
909.878	14929
909.993	14963
910.108	14868
910.224	14902
910.339	14960
910.454	14807
910.57	14811
910.685	14727
910.8	15119
910.915	14963
911.03	14712
911.145	14571
911.259	14655
911.374	14606
911.489	14575
911.604	14492
911.718	14419
911.833	14465
911.947	14187
912.062	14138
912.176	14248
912.291	14275
912.405	14393
912.519	14545
912.633	14457
912.748	14400
912.862	14221
912.976	14244
913.09	14058
913.204	14001
913.318	14107
913.431	14229
913.545	14263
913.659	14259
913.772	14092
913.886	14005
914	13955
914.113	14065
914.226	14027
914.34	14008
914.453	13883
914.566	13970
914.68	13830
914.793	13826
914.906	13685
915.019	13556
915.132	13582
915.245	13624
915.358	13658
915.47	13632
915.583	13628
915.696	13639
915.809	13712
915.921	13708
916.034	13559
916.146	13556
916.259	13487
916.371	13636
916.483	13525
916.595	13468
916.708	13575
916.82	13499
916.932	13491
917.044	13483
917.156	13388
917.268	13293
917.38	13320
917.491	13247
917.603	13335
917.715	13381
917.826	13441
917.938	13358
918.049	13164
918.161	13320
918.272	13445
918.384	13365
918.495	13289
918.606	13084
918.717	13069
918.828	13095
918.939	13194
919.05	13023
919.161	13057
919.272	12913
919.383	12901
919.494	13145
919.604	13282
919.715	13095
919.826	12859
919.936	13042
920.047	13095
920.157	13031
920.267	13240
920.378	13137
920.488	13114
920.598	13160
920.708	13358
920.818	13133
920.928	13190
921.038	13377
921.148	13278
921.258	13004
921.368	12932
921.477	12795
921.587	12768
921.697	12646
921.806	12852
921.916	12700
922.025	12563
922.134	12566
922.244	12452
922.353	12551
922.462	12391
922.571	12285
922.68	12175
922.789	12114
922.898	12133
923.007	12060
923.116	12205
923.224	12114
923.333	12133
923.442	12026
923.55	11973
923.659	11950
923.767	12045
923.876	11923
923.984	11927
924.092	11912
924.201	12015
924.309	11836
924.417	11901
924.525	11901
924.633	11866
924.741	12696
924.849	11745
924.956	11847
925.064	11630
925.172	11558
925.279	11627
925.387	11737
925.494	11668
925.602	11809
925.709	11619
925.816	11638
925.924	11619
926.031	11638
926.138	11600
926.245	11585
926.352	11501
926.459	11699
926.566	11680
926.673	11471
926.779	11440
926.886	11372
926.993	11280
927.099	11254
927.206	11193
927.312	11132
927.419	11296
927.525	11174
927.631	11220
927.737	11136
927.843	11140
927.95	10991
928.056	11143
928.162	11094
928.267	11159
928.373	11760
928.479	11178
928.585	10999
928.69	11109
928.796	11098
928.901	10934
929.007	10797
929.112	10976
929.218	11010
929.323	10828
929.428	10805
929.533	10942
929.638	10786
929.743	10763
929.848	10862
929.953	10782
930.058	10717
930.163	10592
930.267	10584
930.372	10710
930.477	10561
930.581	10778
930.685	10607
930.79	10424
930.894	10455
930.998	10466
931.103	10531
931.207	10173
931.311	10162
931.415	10128
931.519	9915
931.623	9876
