Data from test_V78500241_2166.txt Node
Date: Fri Mar 25 14:48:47 CST 2022
User: usil
Spectrometer: V785-0024
Trigger mode: 0
Integration Time (sec): 4.000000E-1
Scans to average: 1
Nonlinearity correction enabled: false
Boxcar width: 0
Storing dark spectrum: false
XAxis mode: Wavelengths
Number of Pixels in Spectrum: 1024
>>>>>Begin Spectral Data<<<<<
801.071	22207
801.214	22105
801.356	21831
801.499	21614
801.641	21412
801.783	21485
801.926	21485
802.068	21549
802.211	21287
802.353	21367
802.496	21112
802.638	21100
802.78	20944
802.923	20887
803.065	20781
803.208	20701
803.35	20849
803.492	20842
803.635	20941
803.777	20838
803.919	20990
804.061	21211
804.204	20975
804.346	20819
804.488	20876
804.63	20724
804.773	20705
804.915	20640
805.057	20921
805.199	20746
805.341	20895
805.483	20941
805.626	20887
805.768	20830
805.91	20739
806.052	20910
806.194	20648
806.336	20975
806.478	20743
806.62	20693
806.762	20819
806.904	20994
807.046	21157
807.188	21055
807.33	21127
807.472	21077
807.614	21127
807.756	20986
807.898	20868
808.04	20807
808.182	20876
808.324	20899
808.465	20956
808.607	21051
808.749	21188
808.891	21150
809.033	21294
809.174	21203
809.316	21169
809.458	21112
809.6	21233
809.741	21195
809.883	21264
810.025	21272
810.166	21359
810.308	21313
810.45	21199
810.591	21116
810.733	20994
810.875	20967
811.016	20895
811.158	20834
811.299	20986
811.441	21024
811.582	20986
811.724	20956
811.865	20792
812.007	20921
812.148	20948
812.29	20929
812.431	21085
812.573	21222
812.714	21222
812.855	21485
812.997	21504
813.138	21675
813.279	21629
813.421	21435
813.562	21313
813.703	21203
813.845	21047
813.986	20834
814.127	20598
814.268	20545
814.41	20648
814.551	20404
814.692	20571
814.833	20415
814.974	20412
815.115	20511
815.256	20233
815.397	20385
815.539	20324
815.68	20161
815.821	20107
815.962	20275
816.103	20202
816.244	19951
816.385	20039
816.526	19955
816.666	19772
816.807	19556
816.948	19677
817.089	19605
817.23	19624
817.371	19677
817.512	19681
817.653	19655
817.793	19575
817.934	19533
818.075	19746
818.216	19548
818.356	19578
818.497	19373
818.638	19365
818.778	19304
818.919	19392
819.06	19327
819.2	19441
819.341	19457
819.481	19396
819.622	19662
819.762	19772
819.903	19738
820.043	19662
820.184	19651
820.324	19544
820.465	19628
820.605	19700
820.746	19597
820.886	19407
821.026	19632
821.167	19586
821.307	19628
821.447	19544
821.588	19445
821.728	19354
821.868	19202
822.008	19027
822.149	18989
822.289	18886
822.429	18802
822.569	18620
822.709	18616
822.849	18456
822.99	18471
823.13	18464
823.27	18403
823.41	18346
823.55	18266
823.69	18296
823.83	18292
823.97	18186
824.11	18148
824.25	18140
824.389	18007
824.529	18171
824.669	18068
824.809	18148
824.949	18186
825.089	18060
825.228	18117
825.368	17802
825.508	17996
825.648	17923
825.787	17882
825.927	17851
826.067	17741
826.206	17786
826.346	17779
826.485	17866
826.625	17828
826.765	17901
826.904	17882
827.044	17608
827.183	17535
827.323	17493
827.462	17604
827.601	17562
827.741	17471
827.88	17577
828.02	17410
828.159	17482
828.298	17543
828.437	17543
828.577	17493
828.716	17790
828.855	17474
828.994	17239
829.134	17292
829.273	17318
829.412	17208
829.551	17200
829.69	17242
829.829	17223
829.968	17417
830.107	17273
830.246	17326
830.385	17269
830.524	17109
830.663	17041
830.802	16991
830.941	16904
831.08	16869
831.219	17041
831.357	16991
831.496	17155
831.635	16896
831.774	16866
831.913	16820
832.051	16687
832.19	16683
832.329	16843
832.467	16615
832.606	16474
832.744	16653
832.883	16512
833.022	16519
833.16	16634
833.299	16455
833.437	16565
833.576	16679
833.714	16622
833.852	16630
833.991	16607
834.129	16672
834.267	16653
834.406	16641
834.544	16687
834.682	16626
834.821	16656
834.959	16797
835.097	16618
835.235	16736
835.373	16668
835.511	16618
835.65	16481
835.788	16508
835.926	16428
836.064	16375
836.202	16322
836.34	16531
836.478	16573
836.615	16512
836.753	16565
836.891	16672
837.029	16512
837.167	16527
837.305	16538
837.443	16440
837.58	16390
837.718	16512
837.856	16447
837.993	16417
838.131	16428
838.269	16337
838.406	16322
838.544	16287
838.681	16158
838.819	16063
838.956	15987
839.094	15956
839.231	16086
839.369	16192
839.506	16318
839.643	16166
839.781	15907
839.918	15838
840.055	16032
840.193	15880
840.33	15926
840.467	15945
840.604	15983
840.742	16360
840.879	15831
841.016	15907
841.153	15797
841.29	15983
841.427	15895
841.564	16002
841.701	15892
841.838	15876
841.975	15857
842.112	15907
842.249	15766
842.385	15720
842.522	15850
842.659	15679
842.796	15724
842.933	15762
843.069	15576
843.206	15648
843.343	15793
843.479	15656
843.616	15762
843.752	15504
843.889	15530
844.025	15675
844.162	15469
844.298	15682
844.435	15572
844.571	15511
844.708	15580
844.844	15698
844.98	15614
845.117	15580
845.253	15397
845.389	15393
845.525	15443
845.661	15386
845.798	15279
845.934	15412
846.07	15317
846.206	15378
846.342	15340
846.478	15321
846.614	15188
846.75	15066
846.886	14986
847.022	15154
847.158	15081
847.294	15199
847.429	15119
847.565	15070
847.701	15321
847.837	14876
847.972	14811
848.108	14918
848.244	14826
848.379	14731
848.515	14727
848.65	14594
848.786	14670
848.921	14743
849.057	14670
849.192	14765
849.328	14632
849.463	14735
849.598	14629
849.734	14689
849.869	14610
850.004	14431
850.14	14518
850.275	14446
850.41	14446
850.545	14431
850.68	14404
850.815	14503
850.95	14423
851.085	14606
851.22	14571
851.355	14465
851.49	14457
851.625	14328
851.76	14419
851.895	14301
852.03	14343
852.165	14473
852.299	14507
852.434	14461
852.569	14476
852.703	14511
852.838	14625
852.973	14606
853.107	14522
853.242	14450
853.376	14358
853.511	14286
853.645	14221
853.78	14438
853.914	14320
854.048	14343
854.183	14248
854.317	14328
854.451	14454
854.585	14336
854.72	14229
854.854	14419
854.988	14225
855.122	14252
855.256	14191
855.39	14252
855.524	14370
855.658	14465
855.792	14389
855.926	14385
856.06	14385
856.194	14434
856.327	14305
856.461	14187
856.595	14275
856.729	14286
856.862	14336
856.996	14377
857.13	14431
857.263	14533
857.397	14423
857.53	14294
857.664	14465
857.797	14404
857.931	14434
858.064	14358
858.197	14454
858.331	14370
858.464	14301
858.597	14195
858.731	14370
858.864	14282
858.997	14271
859.13	14389
859.263	14389
859.396	14366
859.529	14263
859.662	14256
859.795	14187
859.928	14244
860.061	14492
860.194	14499
860.327	14328
860.46	14385
860.592	14465
860.725	14450
860.858	14343
860.99	14237
861.123	14244
861.256	14237
861.388	14332
861.521	14872
861.653	14218
861.786	14180
861.918	14199
862.05	14161
862.183	14267
862.315	14339
862.447	14412
862.58	14282
862.712	14081
862.844	14012
862.976	14187
863.108	14161
863.24	14393
863.372	14027
863.504	14084
863.636	14119
863.768	14164
863.9	14065
864.032	14058
864.164	14115
864.296	14138
864.428	14206
864.559	14157
864.691	14218
864.823	14229
864.954	14142
865.086	14202
865.217	14058
865.349	13997
865.48	14092
865.612	14145
865.743	14199
865.875	14149
866.006	14100
866.137	14062
866.269	14123
866.4	14069
866.531	14012
866.662	13989
866.793	14035
866.924	14206
867.055	14161
867.186	14077
867.317	14027
867.448	13925
867.579	14001
867.71	13951
867.841	14001
867.972	14130
868.103	14031
868.233	14020
868.364	14115
868.495	14206
868.625	14267
868.756	14408
868.886	14210
869.017	14237
869.147	14393
869.278	14461
869.408	14400
869.539	14347
869.669	14385
869.799	14336
869.929	14503
870.06	14488
870.19	14667
870.32	14629
870.45	14670
870.58	14674
870.71	14800
870.84	14861
870.97	14697
871.1	14716
871.23	14952
871.36	14914
871.489	14933
871.619	14948
871.749	14933
871.879	14952
872.008	15062
872.138	14963
872.267	14845
872.397	14823
872.526	14724
872.656	14758
872.785	14819
872.915	14925
873.044	14998
873.173	14944
873.303	14994
873.432	14979
873.561	15066
873.69	14975
873.819	14963
873.948	14979
874.077	14990
874.206	14902
874.335	15051
874.464	15165
874.593	15291
874.722	15150
874.851	15321
874.979	15317
875.108	15344
875.237	15306
875.365	15131
875.494	15226
875.623	15283
875.751	15321
875.88	15317
876.008	15507
876.136	15488
876.265	15747
876.393	15888
876.521	15781
876.65	15835
876.778	15682
876.906	15755
877.034	15736
877.162	15648
877.29	15667
877.418	15682
877.546	15705
877.674	15663
877.802	15705
877.93	15667
878.058	15690
878.185	15584
878.313	15713
878.441	15705
878.568	15618
878.696	15652
878.824	15641
878.951	15732
879.079	15789
879.206	16067
879.333	15861
879.461	15717
879.588	15778
879.715	15827
879.842	15926
879.97	15816
880.097	15660
880.224	15591
880.351	15572
880.478	15553
880.605	15492
880.732	15553
880.859	15694
880.986	15557
881.112	15610
881.239	15401
881.366	15317
881.493	15233
881.619	15313
881.746	15256
881.872	15207
881.999	15245
882.125	15077
882.252	15188
882.378	15184
882.505	15412
882.631	15199
882.757	15093
882.883	15070
883.01	15032
883.136	15020
883.262	14872
883.388	14861
883.514	15070
883.64	15131
883.766	15043
883.892	14724
884.018	14819
884.143	15127
884.269	15142
884.395	14708
884.52	14743
884.646	14689
884.772	14697
884.897	14598
885.023	14697
885.148	14883
885.274	14963
885.399	14914
885.524	14674
885.65	14724
885.775	14811
885.9	14754
886.025	14883
886.15	14765
886.275	14804
886.4	14549
886.525	14735
886.65	14640
886.775	14651
886.9	14887
887.025	15013
887.149	14777
887.274	14655
887.399	14571
887.523	14549
887.648	14446
887.773	14473
887.897	14655
888.021	14678
888.146	14526
888.27	14750
888.395	14602
888.519	14667
888.643	14610
888.767	14541
888.891	14511
889.015	14442
889.139	14446
889.263	14480
889.387	14579
889.511	14583
889.635	14583
889.759	14423
889.883	14499
890.006	14442
890.13	14594
890.254	14374
890.377	14415
890.501	14233
890.624	14244
890.748	14332
890.871	14138
890.995	14123
891.118	14008
891.241	14130
891.364	14187
891.488	14328
891.611	14077
891.734	14199
891.857	14084
891.98	14191
892.103	14256
892.226	14229
892.349	14134
892.471	13993
892.594	14084
892.717	14096
892.839	14149
892.962	14142
893.085	14092
893.207	14119
893.33	14035
893.452	14088
893.575	14142
893.697	14043
893.819	14237
893.941	14263
894.064	14267
894.186	14100
894.308	14233
894.43	14324
894.552	14301
894.674	14256
894.796	14096
894.918	14256
895.04	14031
895.161	14252
895.283	14221
895.405	14199
895.526	14164
895.648	14126
895.769	14244
895.891	14286
896.012	14313
896.134	14374
896.255	14286
896.376	14278
896.498	14374
896.619	14309
896.74	14324
896.861	14286
896.982	14648
897.103	14705
897.224	14674
897.345	14587
897.466	14503
897.587	14503
897.708	14648
897.828	14549
897.949	14552
898.07	14503
898.19	14533
898.311	14644
898.431	14674
898.552	14659
898.672	14743
898.792	14750
898.913	14689
899.033	14667
899.153	14518
899.273	14434
899.393	14537
899.513	14457
899.633	14514
899.753	14579
899.873	14495
899.993	14560
900.113	14484
900.232	14583
900.352	14476
900.472	14393
900.591	14419
900.711	14450
900.83	14290
900.95	14377
901.069	14484
901.189	14301
901.308	14062
901.427	14039
901.546	13997
901.665	14024
901.784	14039
901.904	13917
902.023	13841
902.141	13772
902.26	13518
902.379	13674
902.498	13586
902.617	13460
902.735	13605
902.854	13582
902.973	13556
903.091	13331
903.21	13335
903.328	13400
903.446	13381
903.565	13160
903.683	13183
903.801	13076
903.919	13118
904.038	13171
904.156	12996
904.274	13072
904.392	13069
904.51	12985
904.627	13088
904.745	13076
904.863	13053
904.981	12810
905.098	12662
905.216	12711
905.334	12715
905.451	12669
905.569	12665
905.686	12681
905.803	12681
905.921	12544
906.038	12642
906.155	12464
906.272	12441
906.389	12429
906.506	12281
906.623	12262
906.74	12235
906.857	12220
906.974	12182
907.091	12281
907.208	12376
907.324	12407
907.441	12140
907.557	12019
907.674	12019
907.79	11923
907.907	12007
908.023	12034
908.139	11965
908.256	11973
908.372	11992
908.488	11916
908.604	11813
908.72	11745
908.836	11813
908.952	11707
909.068	11767
909.184	11901
909.3	11718
909.415	11752
909.531	11840
909.647	11611
909.762	11566
909.878	11539
909.993	11608
910.108	11554
910.224	11474
910.339	11604
910.454	11417
910.57	11398
910.685	11360
910.8	11543
910.915	11604
911.03	11353
911.145	11181
911.259	11258
911.374	11208
911.489	11220
911.604	11178
911.718	11003
911.833	11010
911.947	10900
912.062	10847
912.176	11083
912.291	11079
912.405	10946
912.519	11178
912.633	11216
912.748	11102
912.862	11003
912.976	10911
913.09	10797
913.204	10828
913.318	10854
913.431	10972
913.545	10949
913.659	10987
913.772	10858
913.886	10797
914	10717
914.113	10847
914.226	10915
914.34	10839
914.453	10767
914.566	10885
914.68	10702
914.793	10637
914.906	10577
915.019	10519
915.132	10443
915.245	10497
915.358	10462
915.47	10523
915.583	10565
915.696	10538
915.809	10645
915.921	10565
916.034	10500
916.146	10497
916.259	10325
916.371	10565
916.483	10516
916.595	10440
916.708	10459
916.82	10462
916.932	10459
917.044	10466
917.156	10379
917.268	10325
917.38	10329
917.491	10303
917.603	10459
917.715	10451
917.826	10462
917.938	10276
918.049	10249
918.161	10310
918.272	10417
918.384	10440
918.495	10329
918.606	10215
918.717	10150
918.828	10242
918.939	10219
919.05	10120
919.161	10219
919.272	9975
919.383	10124
919.494	10280
919.604	10417
919.715	10268
919.826	10105
919.936	10131
920.047	10310
920.157	10246
920.267	10455
920.378	10211
920.488	10234
920.598	10538
920.708	10500
920.818	10459
920.928	10455
921.038	10611
921.148	10599
921.258	10318
921.368	10158
921.477	10040
921.587	10120
921.697	9991
921.806	10135
921.916	9979
922.025	9838
922.134	9759
922.244	9800
922.353	9816
922.462	9667
922.571	9614
922.68	9504
922.789	9458
922.898	9511
923.007	9466
923.116	9511
923.224	9485
923.333	9431
923.442	9306
923.55	9389
923.659	9351
923.767	9454
923.876	9325
923.984	9454
924.092	9283
924.201	9428
924.309	9401
924.417	9363
924.525	9272
924.633	9336
924.741	10101
924.849	9154
924.956	9256
925.064	9123
925.172	9081
925.279	9055
925.387	9211
925.494	9100
925.602	9264
925.709	9230
925.816	9100
925.924	9093
926.031	9256
926.138	9173
926.245	9214
926.352	9081
926.459	9214
926.566	9218
926.673	9119
926.779	9013
926.886	9047
926.993	8937
927.099	8849
927.206	8830
927.312	8872
927.419	8918
927.525	8876
927.631	8952
927.737	8720
927.843	8746
927.95	8663
928.056	8746
928.162	8739
928.267	8815
928.373	9310
928.479	8895
928.585	8552
928.69	8689
928.796	8735
928.901	8674
929.007	8503
929.112	8777
929.218	8648
929.323	8602
929.428	8560
929.533	8712
929.638	8530
929.743	8480
929.848	8606
929.953	8617
930.058	8476
930.163	8374
930.267	8320
930.372	8480
930.477	8309
930.581	8549
930.685	8442
930.79	8279
930.894	8339
930.998	8248
931.103	8442
931.207	8084
931.311	8069
931.415	7944
931.519	7788
931.623	7780
