Data from test_V78500241_3263.txt Node
Date: Fri Mar 25 14:56:26 CST 2022
User: usil
Spectrometer: V785-0024
Trigger mode: 0
Integration Time (sec): 4.000000E-1
Scans to average: 1
Nonlinearity correction enabled: false
Boxcar width: 0
Storing dark spectrum: false
XAxis mode: Wavelengths
Number of Pixels in Spectrum: 1024
>>>>>Begin Spectral Data<<<<<
801.071	22013
801.214	21915
801.356	21610
801.499	21576
801.641	21458
801.783	21317
801.926	21332
802.068	21420
802.211	21207
802.353	21211
802.496	20941
802.638	20899
802.78	20830
802.923	20716
803.065	20636
803.208	20571
803.35	20743
803.492	20674
803.635	20788
803.777	20686
803.919	20739
804.061	20899
804.204	20739
804.346	20663
804.488	20564
804.63	20644
804.773	20667
804.915	20594
805.057	20693
805.199	20629
805.341	20735
805.483	20663
805.626	20720
805.768	20617
805.91	20720
806.052	20648
806.194	20495
806.336	20689
806.478	20670
806.62	20579
806.762	20686
806.904	20781
807.046	21127
807.188	20956
807.33	20982
807.472	20941
807.614	20845
807.756	20861
807.898	20735
808.04	20473
808.182	20629
808.324	20811
808.465	20667
808.607	20914
808.749	20952
808.891	20982
809.033	21089
809.174	21112
809.316	20868
809.458	20960
809.6	20914
809.741	21032
809.883	21062
810.025	21230
810.166	21150
810.308	21142
810.45	21055
810.591	21001
810.733	20823
810.875	20739
811.016	20705
811.158	20712
811.299	20811
811.441	20788
811.582	20876
811.724	20629
811.865	20663
812.007	20777
812.148	20587
812.29	20804
812.431	20804
812.573	21119
812.714	21131
812.855	21306
812.997	21135
813.138	21530
813.279	21321
813.421	21218
813.562	21104
813.703	21013
813.845	20956
813.986	20629
814.127	20442
814.268	20362
814.41	20336
814.551	20370
814.692	20377
814.833	20252
814.974	20290
815.115	20282
815.256	20008
815.397	20183
815.539	20153
815.68	20081
815.821	19932
815.962	20077
816.103	20039
816.244	19837
816.385	19757
816.526	19613
816.666	19567
816.807	19381
816.948	19464
817.089	19529
817.23	19472
817.371	19514
817.512	19422
817.653	19567
817.793	19289
817.934	19335
818.075	19407
818.216	19419
818.356	19430
818.497	19209
818.638	19080
818.778	19061
818.919	19133
819.06	19076
819.2	19266
819.341	19301
819.481	19365
819.622	19434
819.762	19674
819.903	19510
820.043	19594
820.184	19468
820.324	19343
820.465	19476
820.605	19350
820.746	19396
820.886	19225
821.026	19251
821.167	19274
821.307	19449
821.447	19255
821.588	19179
821.728	19251
821.868	18901
822.008	18802
822.149	18859
822.289	18844
822.429	18407
822.569	18456
822.709	18566
822.849	18334
822.99	18285
823.13	18194
823.27	18148
823.41	18102
823.55	18049
823.69	18152
823.83	18045
823.97	18038
824.11	17939
824.25	17817
824.389	17760
824.529	17912
824.669	17912
824.809	17939
824.949	17912
825.089	17912
825.228	17931
825.368	17665
825.508	17649
825.648	17668
825.787	17729
825.927	17703
826.067	17573
826.206	17619
826.346	17600
826.485	17729
826.625	17661
826.765	17752
826.904	17642
827.044	17455
827.183	17395
827.323	17322
827.462	17387
827.601	17356
827.741	17315
827.88	17269
828.02	17280
828.159	17334
828.298	17334
828.437	17387
828.577	17330
828.716	17459
828.855	17337
828.994	17086
829.134	17170
829.273	17151
829.412	16942
829.551	16946
829.69	17109
829.829	17105
829.968	17174
830.107	17185
830.246	17067
830.385	17014
830.524	17041
830.663	16869
830.802	16790
830.941	16759
831.08	16702
831.219	16687
831.357	16763
831.496	16873
831.635	16702
831.774	16618
831.913	16466
832.051	16569
832.19	16565
832.329	16584
832.467	16455
832.606	16390
832.744	16455
832.883	16432
833.022	16382
833.16	16474
833.299	16379
833.437	16436
833.576	16451
833.714	16409
833.852	16569
833.991	16512
834.129	16626
834.267	16546
834.406	16417
834.544	16451
834.682	16504
834.821	16348
834.959	16584
835.097	16379
835.235	16481
835.373	16436
835.511	16432
835.65	16356
835.788	16352
835.926	16169
836.064	16238
836.202	16284
836.34	16291
836.478	16421
836.615	16284
836.753	16379
836.891	16440
837.029	16459
837.167	16382
837.305	16325
837.443	16246
837.58	16230
837.718	16398
837.856	16306
837.993	16215
838.131	16268
838.269	16093
838.406	16131
838.544	16147
838.681	15975
838.819	15922
838.956	15903
839.094	15717
839.231	15854
839.369	15953
839.506	16078
839.643	16036
839.781	15823
839.918	15732
840.055	15793
840.193	15755
840.33	15736
840.467	15804
840.604	15865
840.742	16044
840.879	15641
841.016	15717
841.153	15766
841.29	15934
841.427	15865
841.564	15861
841.701	15778
841.838	15652
841.975	15679
842.112	15739
842.249	15633
842.385	15530
842.522	15663
842.659	15599
842.796	15466
842.933	15595
843.069	15633
843.206	15481
843.343	15610
843.479	15618
843.616	15679
843.752	15378
843.889	15382
844.025	15511
844.162	15359
844.298	15500
844.435	15325
844.571	15302
844.708	15359
844.844	15564
844.98	15500
845.117	15462
845.253	15302
845.389	15184
845.525	15310
845.661	15287
845.798	15058
845.934	15298
846.07	15058
846.206	15214
846.342	15264
846.478	15123
846.614	14899
846.75	14864
846.886	14925
847.022	14941
847.158	14929
847.294	14887
847.429	14933
847.565	14918
847.701	15116
847.837	14659
847.972	14670
848.108	14785
848.244	14750
848.379	14640
848.515	14492
848.65	14518
848.786	14530
848.921	14495
849.057	14689
849.192	14564
849.328	14602
849.463	14545
849.598	14549
849.734	14442
849.869	14362
850.004	14275
850.14	14415
850.275	14332
850.41	14176
850.545	14256
850.68	14271
850.815	14317
850.95	14290
851.085	14457
851.22	14419
851.355	14301
851.49	14275
851.625	14221
851.76	14256
851.895	14275
852.03	14100
852.165	14229
852.299	14377
852.434	14358
852.569	14259
852.703	14328
852.838	14366
852.973	14412
853.107	14286
853.242	14324
853.376	14199
853.511	14126
853.645	14069
853.78	14324
853.914	14199
854.048	14073
854.183	14199
854.317	14183
854.451	14282
854.585	14103
854.72	14100
854.854	14221
854.988	14119
855.122	14172
855.256	14050
855.39	14096
855.524	14298
855.658	14358
855.792	14206
855.926	14214
856.06	14164
856.194	14305
856.327	14218
856.461	14115
856.595	14149
856.729	14145
856.862	14202
856.996	14180
857.13	14259
857.263	14298
857.397	14347
857.53	14100
857.664	14202
857.797	14267
857.931	14343
858.064	14172
858.197	14298
858.331	14123
858.464	14214
858.597	14130
858.731	14123
858.864	14240
858.997	14172
859.13	14138
859.263	14240
859.396	14191
859.529	14176
859.662	14043
859.795	14077
859.928	14233
860.061	14339
860.194	14450
860.327	14202
860.46	14172
860.592	14263
860.725	14358
860.858	14214
860.99	14149
861.123	14119
861.256	14123
861.388	14225
861.521	14925
861.653	14027
861.786	13928
861.918	14031
862.05	13944
862.183	14115
862.315	14172
862.447	14271
862.58	14065
862.712	13978
862.844	13852
862.976	13959
863.108	14031
863.24	14408
863.372	13871
863.504	13959
863.636	13917
863.768	14008
863.9	13883
864.032	13925
864.164	13951
864.296	13970
864.428	14096
864.559	14084
864.691	14073
864.823	14001
864.954	13974
865.086	13940
865.217	13970
865.349	13871
865.48	13959
865.612	14027
865.743	14073
865.875	13936
866.006	13906
866.137	13875
866.269	13963
866.4	13982
866.531	13909
866.662	13833
866.793	13970
866.924	13871
867.055	13906
867.186	13951
867.317	13898
867.448	13875
867.579	13963
867.71	13902
867.841	13947
867.972	14008
868.103	13936
868.233	13944
868.364	13951
868.495	13982
868.625	14111
868.756	14317
868.886	14100
869.017	14168
869.147	14328
869.278	14317
869.408	14233
869.539	14161
869.669	14263
869.799	14145
869.929	14324
870.06	14263
870.19	14469
870.32	14431
870.45	14457
870.58	14579
870.71	14678
870.84	14697
870.97	14644
871.1	14571
871.23	14670
871.36	14769
871.489	14602
871.619	14773
871.749	14716
871.879	14773
872.008	14899
872.138	14777
872.267	14804
872.397	14610
872.526	14560
872.656	14632
872.785	14640
872.915	14845
873.044	14880
873.173	14849
873.303	14845
873.432	14887
873.561	14872
873.69	14838
873.819	14781
873.948	14918
874.077	14849
874.206	14773
874.335	14708
874.464	14975
874.593	15093
874.722	15074
874.851	15165
874.979	15173
875.108	15203
875.237	15176
875.365	15097
875.494	15093
875.623	15222
875.751	15131
875.88	15188
876.008	15222
876.136	15374
876.265	15603
876.393	15709
876.521	15557
876.65	15656
876.778	15576
876.906	15515
877.034	15477
877.162	15561
877.29	15538
877.418	15488
877.546	15625
877.674	15610
877.802	15561
877.93	15549
878.058	15466
878.185	15450
878.313	15545
878.441	15526
878.568	15367
878.696	15443
878.824	15671
878.951	15675
879.079	15739
879.206	15888
879.333	15842
879.461	15625
879.588	15652
879.715	15895
879.842	15945
879.97	15644
880.097	15340
880.224	15428
880.351	15549
880.478	15389
880.605	15450
880.732	15378
880.859	15686
880.986	15488
881.112	15488
881.239	15401
881.366	15268
881.493	15100
881.619	15161
881.746	15097
881.872	15058
881.999	15047
882.125	15150
882.252	15157
882.378	15100
882.505	15252
882.631	15066
882.757	14910
882.883	15070
883.01	14941
883.136	14971
883.262	14746
883.388	14895
883.514	14979
883.64	14982
883.766	14842
883.892	14765
884.018	14762
884.143	14887
884.269	15001
884.395	14674
884.52	14644
884.646	14632
884.772	14587
884.897	14511
885.023	14610
885.148	14777
885.274	14750
885.399	14743
885.524	14598
885.65	14632
885.775	14644
885.9	14697
886.025	14800
886.15	14663
886.275	14587
886.4	14598
886.525	14568
886.65	14629
886.775	14545
886.9	14861
887.025	14804
887.149	14708
887.274	14480
887.399	14400
887.523	14358
887.648	14324
887.773	14336
887.897	14617
888.021	14526
888.146	14339
888.27	14545
888.395	14640
888.519	14480
888.643	14552
888.767	14507
888.891	14454
889.015	14336
889.139	14317
889.263	14347
889.387	14533
889.511	14514
889.635	14454
889.759	14286
889.883	14259
890.006	14320
890.13	14480
890.254	14267
890.377	14199
890.501	14126
890.624	14237
890.748	14271
890.871	14092
890.995	13982
891.118	13936
891.241	14050
891.364	13951
891.488	14092
891.611	14069
891.734	13997
891.857	14107
891.98	14069
892.103	14157
892.226	14130
892.349	14012
892.471	13925
892.594	14043
892.717	14027
892.839	14088
892.962	13883
893.085	14081
893.207	13989
893.33	13909
893.452	14077
893.575	14142
893.697	13932
893.819	14168
893.941	14210
894.064	14187
894.186	13940
894.308	14001
894.43	14161
894.552	14214
894.674	14134
894.796	14100
894.918	14073
895.04	14157
895.161	14157
895.283	14157
895.405	14046
895.526	14100
895.648	14096
895.769	14187
895.891	14123
896.012	14271
896.134	14271
896.255	14278
896.376	14073
896.498	14096
896.619	14298
896.74	14240
896.861	14214
896.982	14625
897.103	14648
897.224	14552
897.345	14419
897.466	14442
897.587	14423
897.708	14541
897.828	14560
897.949	14454
898.07	14370
898.19	14492
898.311	14583
898.431	14556
898.552	14541
898.672	14606
898.792	14670
898.913	14602
899.033	14526
899.153	14385
899.273	14301
899.393	14492
899.513	14473
899.633	14427
899.753	14404
899.873	14320
899.993	14571
900.113	14415
900.232	14415
900.352	14396
900.472	14286
900.591	14214
900.711	14282
900.83	14111
900.95	14385
901.069	14332
901.189	14225
901.308	13947
901.427	13963
901.546	13906
901.665	13959
901.784	14031
901.904	13826
902.023	13776
902.141	13559
902.26	13575
902.379	13552
902.498	13460
902.617	13411
902.735	13502
902.854	13407
902.973	13457
903.091	13304
903.21	13278
903.328	13225
903.446	13236
903.565	13065
903.683	13122
903.801	12886
903.919	13023
904.038	13133
904.156	12932
904.274	12966
904.392	12897
904.51	12894
904.627	12833
904.745	12913
904.863	13072
904.981	12707
905.098	12555
905.216	12722
905.334	12658
905.451	12627
905.569	12502
905.686	12642
905.803	12555
905.921	12445
906.038	12513
906.155	12399
906.272	12232
906.389	12300
906.506	12266
906.623	12140
906.74	12235
906.857	12015
906.974	12083
907.091	12319
907.208	12330
907.324	12182
907.441	12083
907.557	12038
907.674	11889
907.79	11859
907.907	11908
908.023	11908
908.139	11912
908.256	11878
908.372	11912
908.488	11893
908.604	11653
908.72	11737
908.836	11668
908.952	11680
909.068	11668
909.184	11771
909.3	11767
909.415	11786
909.531	11745
909.647	11512
909.762	11402
909.878	11436
909.993	11501
910.108	11421
910.224	11452
910.339	11478
910.454	11353
910.57	11391
910.685	11315
910.8	11516
910.915	11444
911.03	11315
911.145	11189
911.259	11136
911.374	11227
911.489	11136
911.604	11098
911.718	10919
911.833	10953
911.947	10877
912.062	10725
912.176	10934
912.291	10885
912.405	10934
912.519	11124
912.633	11159
912.748	10984
912.862	10980
912.976	10790
913.09	10641
913.204	10805
913.318	10740
913.431	10892
913.545	10873
913.659	10938
913.772	10816
913.886	10706
914	10706
914.113	10763
914.226	10736
914.34	10752
914.453	10626
914.566	10767
914.68	10577
914.793	10637
914.906	10382
915.019	10341
915.132	10348
915.245	10447
915.358	10451
915.47	10527
915.583	10432
915.696	10519
915.809	10569
915.921	10649
916.034	10413
916.146	10295
916.259	10398
916.371	10527
916.483	10500
916.595	10371
916.708	10386
916.82	10451
916.932	10356
917.044	10382
917.156	10295
917.268	10261
917.38	10352
917.491	10325
917.603	10379
917.715	10333
917.826	10363
917.938	10295
918.049	10223
918.161	10306
918.272	10447
918.384	10371
918.495	10261
918.606	10185
918.717	10131
918.828	10074
918.939	10249
919.05	10032
919.161	10181
919.272	9975
919.383	10010
919.494	10246
919.604	10413
919.715	10135
919.826	10059
919.936	10139
920.047	10306
920.157	10272
920.267	10344
920.378	10261
920.488	10162
920.598	10356
920.708	10500
920.818	10394
920.928	10390
921.038	10535
921.148	10497
921.258	10261
921.368	10120
921.477	10067
921.587	10029
921.697	9907
921.806	10086
921.916	9823
922.025	9736
922.134	9774
922.244	9694
922.353	9778
922.462	9587
922.571	9603
922.68	9416
922.789	9393
922.898	9431
923.007	9408
923.116	9435
923.224	9336
923.333	9477
923.442	9275
923.55	9253
923.659	9298
923.767	9382
923.876	9203
923.984	9401
924.092	9253
924.201	9279
924.309	9214
924.417	9298
924.525	9169
924.633	9192
924.741	10154
924.849	9070
924.956	9249
925.064	9058
925.172	8998
925.279	9001
925.387	9085
925.494	9116
925.602	9192
925.709	9138
925.816	8937
925.924	9077
926.031	9192
926.138	9089
926.245	9116
926.352	8914
926.459	9093
926.566	9260
926.673	9009
926.779	9013
926.886	8990
926.993	8811
927.099	8754
927.206	8773
927.312	8716
927.419	8842
927.525	8815
927.631	8853
927.737	8731
927.843	8708
927.95	8636
928.056	8693
928.162	8686
928.267	8705
928.373	9310
928.479	8792
928.585	8518
928.69	8678
928.796	8788
928.901	8526
929.007	8476
929.112	8640
929.218	8610
929.323	8518
929.428	8476
929.533	8659
929.638	8434
929.743	8522
929.848	8514
929.953	8507
930.058	8473
930.163	8248
930.267	8294
930.372	8476
930.477	8248
930.581	8511
930.685	8381
930.79	8218
930.894	8218
930.998	8199
931.103	8328
931.207	8027
931.311	7967
931.415	8001
931.519	7700
931.623	7776
