Data from test_V78500241_1573.txt Node
Date: Fri Mar 25 14:44:40 CST 2022
User: usil
Spectrometer: V785-0024
Trigger mode: 0
Integration Time (sec): 4.000000E-1
Scans to average: 1
Nonlinearity correction enabled: false
Boxcar width: 0
Storing dark spectrum: false
XAxis mode: Wavelengths
Number of Pixels in Spectrum: 1024
>>>>>Begin Spectral Data<<<<<
801.071	22344
801.214	22371
801.356	21953
801.499	21960
801.641	21762
801.783	21766
801.926	21823
802.068	21652
802.211	21660
802.353	21599
802.496	21344
802.638	21351
802.78	21275
802.923	21272
803.065	21093
803.208	21138
803.35	21131
803.492	21146
803.635	21169
803.777	21138
803.919	21310
804.061	21496
804.204	21123
804.346	21055
804.488	21009
804.63	21085
804.773	20994
804.915	21001
805.057	21070
805.199	20948
805.341	21096
805.483	21131
805.626	21173
805.768	21039
805.91	21146
806.052	21024
806.194	20838
806.336	21135
806.478	21062
806.62	20902
806.762	21066
806.904	21249
807.046	21511
807.188	21435
807.33	21306
807.472	21454
807.614	21355
807.756	21233
807.898	21260
808.04	21104
808.182	21161
808.324	21233
808.465	21207
808.607	21355
808.749	21557
808.891	21671
809.033	21766
809.174	21572
809.316	21523
809.458	21439
809.6	21420
809.741	21545
809.883	21545
810.025	21561
810.166	21614
810.308	21603
810.45	21652
810.591	21458
810.733	21260
810.875	21245
811.016	21203
811.158	21146
811.299	21294
811.441	21313
811.582	21348
811.724	21237
811.865	21138
812.007	21176
812.148	21233
812.29	21264
812.431	21408
812.573	21500
812.714	21576
812.855	21660
812.997	21880
813.138	21930
813.279	21838
813.421	21759
813.562	21717
813.703	21530
813.845	21340
813.986	21074
814.127	20921
814.268	20861
814.41	20823
814.551	20819
814.692	20857
814.833	20739
814.974	20845
815.115	20773
815.256	20670
815.397	20651
815.539	20571
815.68	20514
815.821	20442
815.962	20575
816.103	20511
816.244	20343
816.385	20195
816.526	20183
816.666	20084
816.807	19940
816.948	20119
817.089	20031
817.23	19989
817.371	19833
817.512	19887
817.653	19974
817.793	19879
817.934	19875
818.075	19883
818.216	19799
818.356	19894
818.497	19693
818.638	19559
818.778	19616
818.919	19544
819.06	19571
819.2	19601
819.341	19887
819.481	19734
819.622	19868
819.762	20081
819.903	20046
820.043	19928
820.184	19791
820.324	19860
820.465	20058
820.605	19928
820.746	19772
820.886	19765
821.026	19723
821.167	19856
821.307	19944
821.447	19841
821.588	19708
821.728	19685
821.868	19472
822.008	19339
822.149	19285
822.289	19152
822.429	18985
822.569	19015
822.709	18856
822.849	18837
822.99	18859
823.13	18696
823.27	18738
823.41	18654
823.55	18498
823.69	18593
823.83	18623
823.97	18498
824.11	18311
824.25	18342
824.389	18270
824.529	18395
824.669	18365
824.809	18437
824.949	18475
825.089	18346
825.228	18460
825.368	18216
825.508	18110
825.648	18136
825.787	18136
825.927	18136
826.067	17961
826.206	18015
826.346	18205
826.485	18053
826.625	18095
826.765	18178
826.904	18163
827.044	17897
827.183	17912
827.323	17798
827.462	17817
827.601	17817
827.741	17707
827.88	17939
828.02	17676
828.159	17893
828.298	17760
828.437	17897
828.577	17756
828.716	17908
828.855	17718
828.994	17433
829.134	17543
829.273	17615
829.412	17509
829.551	17520
829.69	17577
829.829	17528
829.968	17642
830.107	17520
830.246	17547
830.385	17459
830.524	17440
830.663	17254
830.802	17250
830.941	17254
831.08	17166
831.219	17277
831.357	17181
831.496	17360
831.635	17086
831.774	16999
831.913	16984
832.051	16904
832.19	16885
832.329	16885
832.467	16816
832.606	16793
832.744	16752
832.883	16877
833.022	16923
833.16	16778
833.299	16972
833.437	16778
833.576	16858
833.714	16892
833.852	16942
833.991	16866
834.129	16984
834.267	17045
834.406	16847
834.544	16911
834.682	16908
834.821	16862
834.959	17048
835.097	16809
835.235	16995
835.373	16923
835.511	16900
835.65	16786
835.788	16850
835.926	16698
836.064	16645
836.202	16687
836.34	16778
836.478	16938
836.615	16706
836.753	16824
836.891	16885
837.029	16752
837.167	16744
837.305	16790
837.443	16691
837.58	16615
837.718	16615
837.856	16668
837.993	16554
838.131	16584
838.269	16622
838.406	16474
838.544	16481
838.681	16371
838.819	16310
838.956	16150
839.094	16124
839.231	16185
839.369	16276
839.506	16702
839.643	16382
839.781	16135
839.918	16044
840.055	16211
840.193	16246
840.33	16158
840.467	16147
840.604	16238
840.742	16310
840.879	16010
841.016	16044
841.153	16162
841.29	16276
841.427	16211
841.564	16306
841.701	16204
841.838	16055
841.975	16177
842.112	16078
842.249	15964
842.385	15907
842.522	16082
842.659	15972
842.796	15922
842.933	15994
843.069	15861
843.206	15903
843.343	16048
843.479	15949
843.616	15956
843.752	15720
843.889	15713
844.025	15953
844.162	15720
844.298	15781
844.435	15622
844.571	15694
844.708	15838
844.844	15861
844.98	15850
845.117	15865
845.253	15766
845.389	15622
845.525	15774
845.661	15724
845.798	15606
845.934	15686
846.07	15660
846.206	15656
846.342	15751
846.478	15622
846.614	15500
846.75	15317
846.886	15367
847.022	15431
847.158	15188
847.294	15233
847.429	15340
847.565	15329
847.701	15610
847.837	15005
847.972	15070
848.108	15055
848.244	15119
848.379	14967
848.515	14887
848.65	14918
848.786	14773
848.921	14800
849.057	14963
849.192	14956
849.328	15009
849.463	14792
849.598	14788
849.734	14872
849.869	14785
850.004	14629
850.14	14758
850.275	14697
850.41	14606
850.545	14606
850.68	14606
850.815	14743
850.95	14651
851.085	14826
851.22	14716
851.355	14663
851.49	14571
851.625	14594
851.76	14613
851.895	14587
852.03	14522
852.165	14629
852.299	14625
852.434	14777
852.569	14682
852.703	14674
852.838	14724
852.973	14777
853.107	14800
853.242	14613
853.376	14648
853.511	14404
853.645	14450
853.78	14716
853.914	14514
854.048	14473
854.183	14598
854.317	14541
854.451	14648
854.585	14488
854.72	14533
854.854	14568
854.988	14442
855.122	14423
855.256	14366
855.39	14469
855.524	14610
855.658	14629
855.792	14583
855.926	14427
856.06	14549
856.194	14693
856.327	14587
856.461	14511
856.595	14473
856.729	14457
856.862	14663
856.996	14602
857.13	14579
857.263	14587
857.397	14667
857.53	14632
857.664	14655
857.797	14606
857.931	14651
858.064	14587
858.197	14636
858.331	14507
858.464	14514
858.597	14408
858.731	14518
858.864	14484
858.997	14579
859.13	14507
859.263	14556
859.396	14610
859.529	14499
859.662	14396
859.795	14454
859.928	14476
860.061	14693
860.194	14663
860.327	14533
860.46	14495
860.592	14636
860.725	14663
860.858	14663
860.99	14507
861.123	14343
861.256	14431
861.388	14526
861.521	15230
861.653	14476
861.786	14366
861.918	14374
862.05	14343
862.183	14442
862.315	14545
862.447	14457
862.58	14370
862.712	14221
862.844	14225
862.976	14381
863.108	14446
863.24	14746
863.372	14233
863.504	14263
863.636	14271
863.768	14370
863.9	14313
864.032	14206
864.164	14278
864.296	14377
864.428	14408
864.559	14381
864.691	14389
864.823	14351
864.954	14343
865.086	14309
865.217	14290
865.349	14180
865.48	14294
865.612	14313
865.743	14465
865.875	14305
866.006	14244
866.137	14305
866.269	14282
866.4	14259
866.531	14278
866.662	14210
866.793	14339
866.924	14267
867.055	14248
867.186	14248
867.317	14180
867.448	14084
867.579	14256
867.71	14252
867.841	14183
867.972	14309
868.103	14282
868.233	14256
868.364	14309
868.495	14415
868.625	14446
868.756	14602
868.886	14427
869.017	14465
869.147	14606
869.278	14651
869.408	14499
869.539	14480
869.669	14579
869.799	14598
869.929	14686
870.06	14663
870.19	14826
870.32	14758
870.45	14921
870.58	14944
870.71	15039
870.84	14967
870.97	14956
871.1	14880
871.23	15104
871.36	15184
871.489	14994
871.619	15043
871.749	15081
871.879	15100
872.008	15245
872.138	15028
872.267	15020
872.397	14941
872.526	14861
872.656	14960
872.785	14876
872.915	15230
873.044	15161
873.173	15157
873.303	15249
873.432	15302
873.561	15359
873.69	15116
873.819	15188
873.948	15218
874.077	15256
874.206	15165
874.335	15154
874.464	15306
874.593	15359
874.722	15450
874.851	15523
874.979	15515
875.108	15523
875.237	15481
875.365	15336
875.494	15412
875.623	15469
875.751	15458
875.88	15549
876.008	15671
876.136	15644
876.265	16017
876.393	16074
876.521	15876
876.65	16074
876.778	15880
876.906	15736
877.034	15732
877.162	15873
877.29	15835
877.418	15953
877.546	15869
877.674	15960
877.802	15934
877.93	15793
878.058	15827
878.185	15861
878.313	15819
878.441	15964
878.568	15797
878.696	15751
878.824	15880
878.951	15918
879.079	16116
879.206	16196
879.333	15983
879.461	16101
879.588	16044
879.715	16105
879.842	16253
879.97	16010
880.097	15709
880.224	15781
880.351	15800
880.478	15701
880.605	15789
880.732	15686
880.859	16017
880.986	15785
881.112	15800
881.239	15618
881.366	15538
881.493	15367
881.619	15466
881.746	15462
881.872	15389
881.999	15355
882.125	15431
882.252	15481
882.378	15359
882.505	15568
882.631	15332
882.757	15188
882.883	15241
883.01	15329
883.136	15074
883.262	15135
883.388	15108
883.514	15245
883.64	15325
883.766	15173
883.892	15058
884.018	15070
884.143	15249
884.269	15226
884.395	14971
884.52	14895
884.646	14902
884.772	14788
884.897	14804
885.023	14910
885.148	15028
885.274	15119
885.399	15043
885.524	14994
885.65	14918
885.775	15013
885.9	14952
886.025	14990
886.15	14948
886.275	14925
886.4	14864
886.525	14944
886.65	14830
886.775	14819
886.9	15020
887.025	15089
887.149	14906
887.274	14777
887.399	14705
887.523	14701
887.648	14659
887.773	14648
887.897	14933
888.021	14777
888.146	14663
888.27	14918
888.395	14864
888.519	14811
888.643	14838
888.767	14815
888.891	14705
889.015	14644
889.139	14651
889.263	14579
889.387	14640
889.511	14739
889.635	14762
889.759	14613
889.883	14575
890.006	14610
890.13	14731
890.254	14545
890.377	14556
890.501	14423
890.624	14396
890.748	14473
890.871	14313
890.995	14267
891.118	14157
891.241	14153
891.364	14309
891.488	14427
891.611	14275
891.734	14317
891.857	14317
891.98	14282
892.103	14347
892.226	14263
892.349	14313
892.471	14081
892.594	14252
892.717	14286
892.839	14290
892.962	14286
893.085	14294
893.207	14275
893.33	14149
893.452	14176
893.575	14374
893.697	14218
893.819	14446
893.941	14514
894.064	14370
894.186	14218
894.308	14286
894.43	14374
894.552	14488
894.674	14537
894.796	14244
894.918	14385
895.04	14290
895.161	14347
895.283	14461
895.405	14324
895.526	14404
895.648	14412
895.769	14438
895.891	14530
896.012	14514
896.134	14473
896.255	14415
896.376	14465
896.498	14408
896.619	14484
896.74	14358
896.861	14541
896.982	14796
897.103	14967
897.224	14640
897.345	14678
897.466	14716
897.587	14758
897.708	14792
897.828	14800
897.949	14663
898.07	14564
898.19	14655
898.311	14887
898.431	14655
898.552	14826
898.672	14948
898.792	14971
898.913	14880
899.033	14636
899.153	14598
899.273	14552
899.393	14640
899.513	14640
899.633	14632
899.753	14701
899.873	14667
899.993	14735
900.113	14678
900.232	14636
900.352	14686
900.472	14610
900.591	14480
900.711	14583
900.83	14511
900.95	14613
901.069	14667
901.189	14457
901.308	14351
901.427	14153
901.546	14233
901.665	14271
901.784	14218
901.904	14046
902.023	14005
902.141	13921
902.26	13890
902.379	13856
902.498	13803
902.617	13685
902.735	13871
902.854	13769
902.973	13708
903.091	13445
903.21	13480
903.328	13419
903.446	13449
903.565	13392
903.683	13369
903.801	13289
903.919	13388
904.038	13381
904.156	13228
904.274	13198
904.392	13122
904.51	13171
904.627	13095
904.745	13194
904.863	13179
904.981	12935
905.098	12757
905.216	12882
905.334	12894
905.451	12833
905.569	12829
905.686	12856
905.803	12916
905.921	12623
906.038	12730
906.155	12688
906.272	12502
906.389	12578
906.506	12384
906.623	12403
906.74	12384
906.857	12232
906.974	12289
907.091	12490
907.208	12525
907.324	12410
907.441	12311
907.557	12228
907.674	12232
907.79	12091
907.907	12178
908.023	12182
908.139	12194
908.256	12076
908.372	11969
908.488	11999
908.604	11946
908.72	11889
908.836	11866
908.952	11866
909.068	11988
909.184	11988
909.3	11927
909.415	11996
909.531	12019
909.647	11729
909.762	11794
909.878	11695
909.993	11680
910.108	11649
910.224	11714
910.339	11623
910.454	11596
910.57	11516
910.685	11421
910.8	11745
910.915	11642
911.03	11535
911.145	11406
911.259	11436
911.374	11463
911.489	11326
911.604	11235
911.718	11132
911.833	11147
911.947	11006
912.062	10980
912.176	11147
912.291	11208
912.405	11140
912.519	11315
912.633	11322
912.748	11178
912.862	11117
912.976	11037
913.09	10858
913.204	10892
913.318	11064
913.431	11155
913.545	11162
913.659	11102
913.772	11048
913.886	10968
914	10927
914.113	11003
914.226	10968
914.34	10938
914.453	10831
914.566	10957
914.68	10869
914.793	10782
914.906	10683
915.019	10634
915.132	10588
915.245	10603
915.358	10580
915.47	10603
915.583	10664
915.696	10691
915.809	10835
915.921	10812
916.034	10645
916.146	10565
916.259	10577
916.371	10641
916.483	10656
916.595	10573
916.708	10512
916.82	10523
916.932	10561
917.044	10462
917.156	10500
917.268	10398
917.38	10394
917.491	10531
917.603	10451
917.715	10470
917.826	10546
917.938	10474
918.049	10333
918.161	10489
918.272	10630
918.384	10489
918.495	10527
918.606	10299
918.717	10246
918.828	10348
918.939	10402
919.05	10303
919.161	10348
919.272	10147
919.383	10253
919.494	10356
919.604	10580
919.715	10409
919.826	10246
919.936	10360
920.047	10504
920.157	10440
920.267	10558
920.378	10390
920.488	10337
920.598	10584
920.708	10748
920.818	10462
920.928	10554
921.038	10752
921.148	10702
921.258	10375
921.368	10322
921.477	10211
921.587	10227
921.697	10116
921.806	10234
921.916	10116
922.025	9968
922.134	9918
922.244	9903
922.353	9934
922.462	9823
922.571	9736
922.68	9572
922.789	9561
922.898	9564
923.007	9511
923.116	9614
923.224	9618
923.333	9614
923.442	9504
923.55	9447
923.659	9507
923.767	9561
923.876	9401
923.984	9526
924.092	9519
924.201	9435
924.309	9431
924.417	9431
924.525	9469
924.633	9397
924.741	10367
924.849	9325
924.956	9401
925.064	9233
925.172	9173
925.279	9298
925.387	9253
925.494	9275
925.602	9370
925.709	9321
925.816	9180
925.924	9233
926.031	9260
926.138	9245
926.245	9291
926.352	9146
926.459	9264
926.566	9374
926.673	9218
926.779	9112
926.886	9154
926.993	9013
927.099	8975
927.206	8902
927.312	8902
927.419	9009
927.525	8963
927.631	8998
927.737	8861
927.843	8845
927.95	8777
928.056	8868
928.162	8819
928.267	8941
928.373	9386
928.479	8887
928.585	8712
928.69	8781
928.796	8857
928.901	8739
929.007	8689
929.112	8876
929.218	8739
929.323	8682
929.428	8655
929.533	8819
929.638	8541
929.743	8602
929.848	8727
929.953	8716
930.058	8587
930.163	8362
930.267	8419
930.372	8549
930.477	8370
930.581	8667
930.685	8560
930.79	8358
930.894	8381
930.998	8290
931.103	8469
931.207	8199
931.311	8161
931.415	8107
931.519	7959
931.623	7849
