Data from test_V78500241_3157.txt Node
Date: Fri Mar 25 14:55:41 CST 2022
User: usil
Spectrometer: V785-0024
Trigger mode: 0
Integration Time (sec): 4.000000E-1
Scans to average: 1
Nonlinearity correction enabled: false
Boxcar width: 0
Storing dark spectrum: false
XAxis mode: Wavelengths
Number of Pixels in Spectrum: 1024
>>>>>Begin Spectral Data<<<<<
801.071	22105
801.214	21979
801.356	21751
801.499	21671
801.641	21473
801.783	21439
801.926	21557
802.068	21389
802.211	21291
802.353	21230
802.496	21043
802.638	20929
802.78	20853
802.923	20724
803.065	20705
803.208	20674
803.35	20815
803.492	20849
803.635	20883
803.777	20678
803.919	20952
804.061	21093
804.204	20746
804.346	20697
804.488	20693
804.63	20724
804.773	20579
804.915	20701
805.057	20800
805.199	20609
805.341	20743
805.483	20853
805.626	20731
805.768	20560
805.91	20724
806.052	20682
806.194	20503
806.336	20830
806.478	20617
806.62	20476
806.762	20800
806.904	20819
807.046	21123
807.188	20914
807.33	21138
807.472	21017
807.614	20868
807.756	21009
807.898	20838
808.04	20693
808.182	20864
808.324	20811
808.465	20861
808.607	20876
808.749	21062
808.891	21135
809.033	21218
809.174	21001
809.316	21039
809.458	20979
809.6	20921
809.741	21077
809.883	21146
810.025	21165
810.166	21184
810.308	21249
810.45	21237
810.591	21108
810.733	21013
810.875	20743
811.016	20587
811.158	20693
811.299	20849
811.441	20880
811.582	20910
811.724	20712
811.865	20731
812.007	20796
812.148	20792
812.29	20979
812.431	20906
812.573	21100
812.714	21157
812.855	21245
812.997	21450
813.138	21511
813.279	21466
813.421	21233
813.562	21146
813.703	21161
813.845	21017
813.986	20674
814.127	20587
814.268	20404
814.41	20427
814.551	20393
814.692	20343
814.833	20298
814.974	20282
815.115	20377
815.256	20157
815.397	20210
815.539	20180
815.68	19993
815.821	20043
815.962	19989
816.103	20054
816.244	19944
816.385	19864
816.526	19795
816.666	19552
816.807	19449
816.948	19567
817.089	19567
817.23	19491
817.371	19571
817.512	19518
817.653	19438
817.793	19449
817.934	19521
818.075	19491
818.216	19502
818.356	19282
818.497	19297
818.638	19179
818.778	19206
818.919	19236
819.06	19175
819.2	19304
819.341	19468
819.481	19308
819.622	19384
819.762	19616
819.903	19567
820.043	19518
820.184	19510
820.324	19441
820.465	19495
820.605	19476
820.746	19403
820.886	19339
821.026	19335
821.167	19422
821.307	19491
821.447	19255
821.588	19171
821.728	19095
821.868	18935
822.008	18901
822.149	18939
822.289	18802
822.429	18593
822.569	18483
822.709	18574
822.849	18395
822.99	18395
823.13	18266
823.27	18365
823.41	18117
823.55	18117
823.69	18125
823.83	18194
823.97	17977
824.11	17984
824.25	17942
824.389	17954
824.529	17965
824.669	17863
824.809	17965
824.949	17988
825.089	17942
825.228	18007
825.368	17748
825.508	17665
825.648	17703
825.787	17779
825.927	17729
826.067	17623
826.206	17630
826.346	17699
826.485	17809
826.625	17748
826.765	17805
826.904	17722
827.044	17376
827.183	17383
827.323	17459
827.462	17440
827.601	17356
827.741	17364
827.88	17372
828.02	17296
828.159	17341
828.298	17372
828.437	17452
828.577	17318
828.716	17493
828.855	17368
828.994	17189
829.134	17132
829.273	17170
829.412	17060
829.551	17124
829.69	16972
829.829	17136
829.968	17292
830.107	17147
830.246	17208
830.385	17140
830.524	16987
830.663	16961
830.802	16778
830.941	16653
831.08	16752
831.219	16835
831.357	16862
831.496	16980
831.635	16797
831.774	16683
831.913	16679
832.051	16538
832.19	16485
832.329	16596
832.467	16440
832.606	16440
832.744	16402
832.883	16360
833.022	16409
833.16	16405
833.299	16409
833.437	16497
833.576	16409
833.714	16508
833.852	16497
833.991	16413
834.129	16561
834.267	16481
834.406	16478
834.544	16558
834.682	16558
834.821	16527
834.959	16565
835.097	16409
835.235	16656
835.373	16516
835.511	16497
835.65	16344
835.788	16474
835.926	16284
836.064	16143
836.202	16219
836.34	16424
836.478	16443
836.615	16299
836.753	16386
836.891	16474
837.029	16440
837.167	16299
837.305	16341
837.443	16325
837.58	16341
837.718	16303
837.856	16223
837.993	16181
838.131	16276
838.269	16242
838.406	16177
838.544	16044
838.681	15949
838.819	15964
838.956	15838
839.094	15789
839.231	15911
839.369	15987
839.506	16105
839.643	16090
839.781	15778
839.918	15819
840.055	15759
840.193	15857
840.33	15720
840.467	15789
840.604	15827
840.742	15987
840.879	15625
841.016	15686
841.153	15682
841.29	15823
841.427	15800
841.564	15865
841.701	15778
841.838	15800
841.975	15717
842.112	15629
842.249	15648
842.385	15561
842.522	15804
842.659	15572
842.796	15603
842.933	15599
843.069	15466
843.206	15580
843.343	15679
843.479	15603
843.616	15496
843.752	15416
843.889	15370
844.025	15485
844.162	15287
844.298	15473
844.435	15340
844.571	15344
844.708	15382
844.844	15462
844.98	15462
845.117	15538
845.253	15306
845.389	15157
845.525	15291
845.661	15237
845.798	15195
845.934	15214
846.07	15176
846.206	15214
846.342	15313
846.478	15146
846.614	15036
846.75	14933
846.886	14880
847.022	14933
847.158	14986
847.294	14979
847.429	14990
847.565	14823
847.701	15085
847.837	14765
847.972	14689
848.108	14682
848.244	14735
848.379	14575
848.515	14590
848.65	14434
848.786	14655
848.921	14651
849.057	14530
849.192	14632
849.328	14587
849.463	14537
849.598	14499
849.734	14571
849.869	14454
850.004	14362
850.14	14374
850.275	14408
850.41	14221
850.545	14377
850.68	14377
850.815	14336
850.95	14301
851.085	14507
851.22	14522
851.355	14248
851.49	14313
851.625	14343
851.76	14393
851.895	14138
852.03	14195
852.165	14351
852.299	14252
852.434	14358
852.569	14385
852.703	14294
852.838	14366
852.973	14514
853.107	14503
853.242	14309
853.376	14191
853.511	14142
853.645	14168
853.78	14343
853.914	14206
854.048	14161
854.183	14145
854.317	14256
854.451	14358
854.585	14218
854.72	14256
854.854	14237
854.988	14161
855.122	14058
855.256	14092
855.39	14168
855.524	14282
855.658	14298
855.792	14275
855.926	14286
856.06	14256
856.194	14324
856.327	14317
856.461	14084
856.595	14065
856.729	14187
856.862	14343
856.996	14256
857.13	14271
857.263	14309
857.397	14339
857.53	14301
857.664	14267
857.797	14389
857.931	14358
858.064	14275
858.197	14393
858.331	14221
858.464	14248
858.597	14084
858.731	14278
858.864	14172
858.997	14176
859.13	14233
859.263	14313
859.396	14324
859.529	14157
859.662	14149
859.795	14164
859.928	14256
860.061	14377
860.194	14366
860.327	14187
860.46	14263
860.592	14294
860.725	14343
860.858	14339
860.99	14252
861.123	14142
861.256	14195
861.388	14278
861.521	14979
861.653	14164
861.786	14027
861.918	14111
862.05	14111
862.183	14142
862.315	14244
862.447	14164
862.58	14142
862.712	13989
862.844	13913
862.976	14119
863.108	14027
863.24	14317
863.372	13936
863.504	14035
863.636	13967
863.768	14020
863.9	13993
864.032	13913
864.164	14024
864.296	14020
864.428	14065
864.559	14024
864.691	14001
864.823	14054
864.954	14054
865.086	14016
865.217	13932
865.349	13868
865.48	14050
865.612	14016
865.743	14164
865.875	13993
866.006	13928
866.137	13967
866.269	13921
866.4	14020
866.531	13898
866.662	13879
866.793	13997
866.924	13944
867.055	13978
867.186	13917
867.317	13967
867.448	13894
867.579	13906
867.71	13944
867.841	13917
867.972	13963
868.103	13993
868.233	14020
868.364	14035
868.495	14107
868.625	14233
868.756	14301
868.886	14168
869.017	14282
869.147	14404
869.278	14461
869.408	14286
869.539	14142
869.669	14305
869.799	14317
869.929	14366
870.06	14301
870.19	14514
870.32	14511
870.45	14632
870.58	14682
870.71	14773
870.84	14754
870.97	14571
871.1	14579
871.23	14769
871.36	14815
871.489	14686
871.619	14864
871.749	14765
871.879	14872
872.008	14937
872.138	14880
872.267	14868
872.397	14678
872.526	14674
872.656	14571
872.785	14640
872.915	14857
873.044	15036
873.173	14853
873.303	14868
873.432	14868
873.561	14899
873.69	14948
873.819	14883
873.948	15039
874.077	14914
874.206	14800
874.335	14914
874.464	15097
874.593	15283
874.722	15135
874.851	15222
874.979	15207
875.108	15157
875.237	15161
875.365	15097
875.494	15142
875.623	15279
875.751	15211
875.88	15176
876.008	15325
876.136	15382
876.265	15705
876.393	15682
876.521	15641
876.65	15717
876.778	15698
876.906	15572
877.034	15496
877.162	15557
877.29	15469
877.418	15629
877.546	15641
877.674	15622
877.802	15618
877.93	15614
878.058	15496
878.185	15523
878.313	15580
878.441	15599
878.568	15504
878.696	15606
878.824	15603
878.951	15595
879.079	15762
879.206	15903
879.333	15800
879.461	15580
879.588	15675
879.715	15808
879.842	15903
879.97	15755
880.097	15496
880.224	15458
880.351	15504
880.478	15469
880.605	15473
880.732	15454
880.859	15625
880.986	15462
881.112	15500
881.239	15370
881.366	15260
881.493	15089
881.619	15123
881.746	15058
881.872	15135
881.999	14994
882.125	15074
882.252	15119
882.378	15039
882.505	15192
882.631	15020
882.757	14906
882.883	14967
883.01	14941
883.136	14899
883.262	14693
883.388	14819
883.514	14948
883.64	15020
883.766	14765
883.892	14788
884.018	14727
884.143	14861
884.269	15001
884.395	14724
884.52	14663
884.646	14629
884.772	14568
884.897	14526
885.023	14556
885.148	14682
885.274	14724
885.399	14705
885.524	14598
885.65	14621
885.775	14560
885.9	14678
886.025	14727
886.15	14674
886.275	14560
886.4	14480
886.525	14636
886.65	14533
886.775	14564
886.9	14788
887.025	14785
887.149	14606
887.274	14434
887.399	14362
887.523	14450
887.648	14355
887.773	14358
887.897	14473
888.021	14480
888.146	14461
888.27	14545
888.395	14606
888.519	14461
888.643	14408
888.767	14522
888.891	14408
889.015	14267
889.139	14412
889.263	14282
889.387	14431
889.511	14427
889.635	14495
889.759	14278
889.883	14339
890.006	14366
890.13	14476
890.254	14214
890.377	14244
890.501	14199
890.624	14107
890.748	14202
890.871	14107
890.995	13967
891.118	13940
891.241	14081
891.364	14020
891.488	14172
891.611	14115
891.734	14073
891.857	14065
891.98	13951
892.103	14100
892.226	14031
892.349	14016
892.471	13852
892.594	14054
892.717	13970
892.839	13944
892.962	14138
893.085	14050
893.207	14005
893.33	13868
893.452	13890
893.575	14161
893.697	14069
893.819	14202
893.941	14256
894.064	14119
894.186	13970
894.308	13997
894.43	14149
894.552	14240
894.674	14278
894.796	14012
894.918	14043
895.04	14081
895.161	14164
895.283	14096
895.405	14107
895.526	14035
895.648	14031
895.769	14286
895.891	14176
896.012	14187
896.134	14210
896.255	14195
896.376	14206
896.498	14138
896.619	14282
896.74	14210
896.861	14339
896.982	14541
897.103	14632
897.224	14476
897.345	14400
897.466	14370
897.587	14442
897.708	14522
897.828	14465
897.949	14389
898.07	14286
898.19	14457
898.311	14659
898.431	14492
898.552	14564
898.672	14674
898.792	14583
898.913	14541
899.033	14522
899.153	14328
899.273	14298
899.393	14336
899.513	14374
899.633	14431
899.753	14377
899.873	14396
899.993	14526
900.113	14347
900.232	14469
900.352	14412
900.472	14294
900.591	14271
900.711	14282
900.83	14305
900.95	14385
901.069	14358
901.189	14202
901.308	14130
901.427	13940
901.546	13963
901.665	13928
901.784	14027
901.904	13753
902.023	13651
902.141	13537
902.26	13514
902.379	13670
902.498	13582
902.617	13480
902.735	13613
902.854	13624
902.973	13525
903.091	13274
903.21	13202
903.328	13308
903.446	13251
903.565	13000
903.683	13088
903.801	13027
903.919	13038
904.038	13050
904.156	12905
904.274	12939
904.392	12920
904.51	12837
904.627	12810
904.745	12935
904.863	12985
904.981	12738
905.098	12681
905.216	12578
905.334	12620
905.451	12612
905.569	12563
905.686	12635
905.803	12570
905.921	12422
906.038	12540
906.155	12361
906.272	12327
906.389	12376
906.506	12232
906.623	12171
906.74	12144
906.857	12007
906.974	12049
907.091	12182
907.208	12270
907.324	12232
907.441	12136
907.557	11882
907.674	12007
907.79	11908
907.907	11836
908.023	12030
908.139	11969
908.256	11859
908.372	11904
908.488	11771
908.604	11680
908.72	11649
908.836	11752
908.952	11623
909.068	11646
909.184	11805
909.3	11672
909.415	11733
909.531	11695
909.647	11497
909.762	11448
909.878	11471
909.993	11490
910.108	11417
910.224	11444
910.339	11505
910.454	11376
910.57	11231
910.685	11292
910.8	11535
910.915	11493
911.03	11376
911.145	11212
911.259	11159
911.374	11151
911.489	11140
911.604	11067
911.718	10927
911.833	10923
911.947	10805
912.062	10717
912.176	10927
912.291	10923
912.405	10900
912.519	11086
912.633	11079
912.748	11075
912.862	10900
912.976	10786
913.09	10641
913.204	10748
913.318	10763
913.431	10824
913.545	10915
913.659	10908
913.772	10786
913.886	10767
914	10653
914.113	10805
914.226	10805
914.34	10740
914.453	10516
914.566	10706
914.68	10641
914.793	10599
914.906	10447
915.019	10375
915.132	10440
915.245	10504
915.358	10402
915.47	10440
915.583	10405
915.696	10485
915.809	10599
915.921	10615
916.034	10402
916.146	10371
916.259	10318
916.371	10489
916.483	10417
916.595	10333
916.708	10363
916.82	10329
916.932	10341
917.044	10356
917.156	10272
917.268	10227
917.38	10227
917.491	10261
917.603	10299
917.715	10375
917.826	10348
917.938	10185
918.049	10128
918.161	10265
918.272	10405
918.384	10424
918.495	10356
918.606	10090
918.717	9998
918.828	10128
918.939	10109
919.05	10101
919.161	10143
919.272	9945
919.383	9991
919.494	10200
919.604	10398
919.715	10143
919.826	10082
919.936	10131
920.047	10223
920.157	10169
920.267	10379
920.378	10196
920.488	10150
920.598	10375
920.708	10546
920.818	10394
920.928	10333
921.038	10489
921.148	10405
921.258	10211
921.368	10082
921.477	9979
921.587	9895
921.697	9930
921.806	10063
921.916	9975
922.025	9732
922.134	9656
922.244	9644
922.353	9819
922.462	9572
922.571	9542
922.68	9431
922.789	9351
922.898	9435
923.007	9405
923.116	9477
923.224	9447
923.333	9428
923.442	9264
923.55	9253
923.659	9313
923.767	9367
923.876	9203
923.984	9367
924.092	9233
924.201	9294
924.309	9298
924.417	9310
924.525	9321
924.633	9298
924.741	10169
924.849	9131
924.956	9226
925.064	9043
925.172	8933
925.279	9024
925.387	9100
925.494	9017
925.602	9100
925.709	9116
925.816	9024
925.924	9074
926.031	9097
926.138	9074
926.245	9127
926.352	9043
926.459	9161
926.566	9253
926.673	9017
926.779	8914
926.886	8941
926.993	8815
927.099	8769
927.206	8777
927.312	8743
927.419	8811
927.525	8758
927.631	8838
927.737	8663
927.843	8678
927.95	8549
928.056	8686
928.162	8640
928.267	8731
928.373	9241
928.479	8766
928.585	8518
928.69	8663
928.796	8727
928.901	8541
929.007	8450
929.112	8579
929.218	8594
929.323	8530
929.428	8492
929.533	8644
929.638	8461
929.743	8427
929.848	8583
929.953	8465
930.058	8465
930.163	8199
930.267	8294
930.372	8484
930.477	8244
930.581	8503
930.685	8328
930.79	8180
930.894	8214
930.998	8161
931.103	8351
931.207	8035
931.311	8001
931.415	7849
931.519	7715
931.623	7727
