Data from test_V78500241_2802.txt Node
Date: Fri Mar 25 14:53:13 CST 2022
User: usil
Spectrometer: V785-0024
Trigger mode: 0
Integration Time (sec): 4.000000E-1
Scans to average: 1
Nonlinearity correction enabled: false
Boxcar width: 0
Storing dark spectrum: false
XAxis mode: Wavelengths
Number of Pixels in Spectrum: 1024
>>>>>Begin Spectral Data<<<<<
801.071	21960
801.214	21888
801.356	21747
801.499	21599
801.641	21496
801.783	21515
801.926	21405
802.068	21382
802.211	21325
802.353	21237
802.496	21047
802.638	20902
802.78	20902
802.923	20857
803.065	20693
803.208	20648
803.35	20785
803.492	20986
803.635	20708
803.777	20602
803.919	20796
804.061	21112
804.204	20785
804.346	20724
804.488	20682
804.63	20708
804.773	20568
804.915	20758
805.057	20743
805.199	20674
805.341	20754
805.483	20746
805.626	20834
805.768	20625
805.91	20773
806.052	20834
806.194	20594
806.336	20796
806.478	20693
806.62	20613
806.762	20686
806.904	20845
807.046	21066
807.188	21039
807.33	21154
807.472	21142
807.614	20963
807.756	20804
807.898	20849
808.04	20693
808.182	20739
808.324	20693
808.465	20781
808.607	20986
808.749	20960
808.891	21180
809.033	21218
809.174	21119
809.316	20979
809.458	21020
809.6	20986
809.741	21150
809.883	21222
810.025	21241
810.166	21294
810.308	21245
810.45	21135
810.591	20982
810.733	20933
810.875	20777
811.016	20765
811.158	20609
811.299	20872
811.441	20948
811.582	20830
811.724	20769
811.865	20773
812.007	20925
812.148	20746
812.29	20792
812.431	21077
812.573	21047
812.714	21237
812.855	21386
812.997	21428
813.138	21583
813.279	21355
813.421	21355
813.562	21154
813.703	20941
813.845	20944
813.986	20590
814.127	20488
814.268	20389
814.41	20400
814.551	20328
814.692	20412
814.833	20199
814.974	20339
815.115	20313
815.256	20107
815.397	20195
815.539	20218
815.68	20096
815.821	20012
815.962	20164
816.103	20161
816.244	19845
816.385	19921
816.526	19757
816.666	19738
816.807	19480
816.948	19571
817.089	19601
817.23	19586
817.371	19476
817.512	19540
817.653	19472
817.793	19430
817.934	19438
818.075	19434
818.216	19457
818.356	19343
818.497	19259
818.638	19175
818.778	19137
818.919	19251
819.06	19202
819.2	19274
819.341	19464
819.481	19331
819.622	19597
819.762	19651
819.903	19510
820.043	19544
820.184	19327
820.324	19506
820.465	19552
820.605	19419
820.746	19476
820.886	19350
821.026	19377
821.167	19415
821.307	19487
821.447	19327
821.588	19194
821.728	19194
821.868	19004
822.008	18776
822.149	18837
822.289	18795
822.429	18513
822.569	18589
822.709	18494
822.849	18437
822.99	18323
823.13	18308
823.27	18296
823.41	18266
823.55	18148
823.69	18194
823.83	18190
823.97	18110
824.11	17931
824.25	17790
824.389	17969
824.529	18022
824.669	17916
824.809	17996
824.949	17893
825.089	17965
825.228	17973
825.368	17722
825.508	17764
825.648	17756
825.787	17676
825.927	17703
826.067	17703
826.206	17767
826.346	17821
826.485	17779
826.625	17642
826.765	17809
826.904	17710
827.044	17532
827.183	17455
827.323	17341
827.462	17558
827.601	17501
827.741	17360
827.88	17345
828.02	17368
828.159	17360
828.298	17440
828.437	17387
828.577	17341
828.716	17615
828.855	17433
828.994	17147
829.134	17109
829.273	17239
829.412	17151
829.551	17121
829.69	17121
829.829	17132
829.968	17193
830.107	17368
830.246	17151
830.385	17170
830.524	17060
830.663	17045
830.802	16778
830.941	16675
831.08	16763
831.219	16812
831.357	16790
831.496	17045
831.635	16713
831.774	16622
831.913	16656
832.051	16668
832.19	16706
832.329	16660
832.467	16516
832.606	16295
832.744	16489
832.883	16634
833.022	16409
833.16	16542
833.299	16409
833.437	16596
833.576	16584
833.714	16424
833.852	16485
833.991	16565
834.129	16512
834.267	16656
834.406	16592
834.544	16535
834.682	16550
834.821	16500
834.959	16592
835.097	16424
835.235	16611
835.373	16573
835.511	16592
835.65	16481
835.788	16428
835.926	16318
836.064	16257
836.202	16261
836.34	16409
836.478	16546
836.615	16443
836.753	16379
836.891	16474
837.029	16538
837.167	16451
837.305	16363
837.443	16257
837.58	16325
837.718	16382
837.856	16390
837.993	16192
838.131	16223
838.269	16139
838.406	16207
838.544	16128
838.681	16093
838.819	15960
838.956	15888
839.094	15766
839.231	15873
839.369	16059
839.506	16200
839.643	16109
839.781	15899
839.918	15781
840.055	15850
840.193	15797
840.33	15797
840.467	15812
840.604	15880
840.742	16097
840.879	15671
841.016	15690
841.153	15781
841.29	16006
841.427	15838
841.564	15895
841.701	15876
841.838	15842
841.975	15759
842.112	15789
842.249	15698
842.385	15473
842.522	15869
842.659	15622
842.796	15675
842.933	15648
843.069	15485
843.206	15572
843.343	15690
843.479	15580
843.616	15622
843.752	15462
843.889	15359
844.025	15534
844.162	15401
844.298	15496
844.435	15443
844.571	15332
844.708	15420
844.844	15622
844.98	15629
845.117	15481
845.253	15401
845.389	15279
845.525	15329
845.661	15313
845.798	15157
845.934	15306
846.07	15325
846.206	15203
846.342	15272
846.478	15131
846.614	15066
846.75	14918
846.886	15047
847.022	15020
847.158	15009
847.294	14933
847.429	15074
847.565	14967
847.701	15230
847.837	14785
847.972	14800
848.108	14758
848.244	14769
848.379	14674
848.515	14552
848.65	14648
848.786	14552
848.921	14629
849.057	14621
849.192	14651
849.328	14632
849.463	14575
849.598	14552
849.734	14469
849.869	14457
850.004	14358
850.14	14324
850.275	14305
850.41	14278
850.545	14244
850.68	14339
850.815	14396
850.95	14343
851.085	14530
851.22	14518
851.355	14328
851.49	14294
851.625	14290
851.76	14332
851.895	14278
852.03	14191
852.165	14358
852.299	14385
852.434	14427
852.569	14465
852.703	14412
852.838	14408
852.973	14488
853.107	14541
853.242	14343
853.376	14187
853.511	14100
853.645	14237
853.78	14366
853.914	14103
854.048	14176
854.183	14149
854.317	14240
854.451	14389
854.585	14176
854.72	14298
854.854	14256
854.988	14161
855.122	14149
855.256	14096
855.39	14221
855.524	14271
855.658	14275
855.792	14328
855.926	14263
856.06	14309
856.194	14294
856.327	14206
856.461	14237
856.595	14138
856.729	14183
856.862	14313
856.996	14252
857.13	14240
857.263	14282
857.397	14282
857.53	14267
857.664	14358
857.797	14298
857.931	14381
858.064	14343
858.197	14290
858.331	14206
858.464	14240
858.597	14096
858.731	14176
858.864	14301
858.997	14195
859.13	14221
859.263	14259
859.396	14301
859.529	14153
859.662	14161
859.795	14142
859.928	14210
860.061	14438
860.194	14450
860.327	14252
860.46	14233
860.592	14336
860.725	14336
860.858	14301
860.99	14172
861.123	14077
861.256	14157
861.388	14123
861.521	14891
861.653	14092
861.786	14035
861.918	14111
862.05	14111
862.183	14180
862.315	14164
862.447	14267
862.58	14161
862.712	13936
862.844	14046
862.976	14008
863.108	14050
863.24	14469
863.372	13944
863.504	13997
863.636	13944
863.768	13974
863.9	13936
864.032	13898
864.164	13970
864.296	14035
864.428	14077
864.559	14111
864.691	14111
864.823	14092
864.954	14005
865.086	14081
865.217	14039
865.349	13883
865.48	13974
865.612	14031
865.743	14031
865.875	13947
866.006	13944
866.137	13982
866.269	13970
866.4	14008
866.531	13902
866.662	13902
866.793	13928
866.924	13898
867.055	14027
867.186	13955
867.317	13902
867.448	13909
867.579	13925
867.71	13875
867.841	13868
867.972	14046
868.103	14054
868.233	13967
868.364	13959
868.495	14138
868.625	14221
868.756	14347
868.886	14138
869.017	14221
869.147	14301
869.278	14419
869.408	14298
869.539	14237
869.669	14202
869.799	14271
869.929	14389
870.06	14408
870.19	14541
870.32	14526
870.45	14522
870.58	14655
870.71	14648
870.84	14636
870.97	14705
871.1	14667
871.23	14796
871.36	14819
871.489	14754
871.619	14819
871.749	14887
871.879	14807
872.008	15036
872.138	14925
872.267	14845
872.397	14724
872.526	14568
872.656	14644
872.785	14727
872.915	14815
873.044	14929
873.173	14872
873.303	14861
873.432	14868
873.561	14944
873.69	14887
873.819	14849
873.948	14967
874.077	14788
874.206	14804
874.335	14823
874.464	15066
874.593	15245
874.722	15154
874.851	15329
874.979	15173
875.108	15230
875.237	15123
875.365	15112
875.494	15184
875.623	15188
875.751	15150
875.88	15211
876.008	15310
876.136	15439
876.265	15682
876.393	15728
876.521	15755
876.65	15679
876.778	15641
876.906	15549
877.034	15576
877.162	15603
877.29	15557
877.418	15584
877.546	15557
877.674	15644
877.802	15720
877.93	15686
878.058	15538
878.185	15545
878.313	15648
878.441	15667
878.568	15534
878.696	15424
878.824	15641
878.951	15686
879.079	15793
879.206	15850
879.333	15797
879.461	15797
879.588	15812
879.715	15842
879.842	16021
879.97	15759
880.097	15466
880.224	15450
880.351	15545
880.478	15515
880.605	15412
880.732	15454
880.859	15690
880.986	15553
881.112	15519
881.239	15325
881.366	15268
881.493	15146
881.619	15123
881.746	15264
881.872	15077
881.999	15081
882.125	15119
882.252	15138
882.378	15241
882.505	15237
882.631	15112
882.757	14990
882.883	14975
883.01	15077
883.136	14826
883.262	14743
883.388	14716
883.514	14944
883.64	14941
883.766	14823
883.892	14705
884.018	14819
884.143	14933
884.269	15005
884.395	14670
884.52	14678
884.646	14648
884.772	14621
884.897	14571
885.023	14670
885.148	14655
885.274	14682
885.399	14731
885.524	14697
885.65	14556
885.775	14602
885.9	14663
886.025	14739
886.15	14750
886.275	14663
886.4	14537
886.525	14537
886.65	14526
886.775	14613
886.9	14739
887.025	14899
887.149	14640
887.274	14400
887.399	14476
887.523	14434
887.648	14332
887.773	14389
887.897	14629
888.021	14465
888.146	14431
888.27	14511
888.395	14648
888.519	14507
888.643	14518
888.767	14537
888.891	14408
889.015	14396
889.139	14484
889.263	14339
889.387	14427
889.511	14594
889.635	14385
889.759	14339
889.883	14400
890.006	14381
890.13	14552
890.254	14381
890.377	14229
890.501	14191
890.624	14126
890.748	14218
890.871	14107
890.995	14016
891.118	13989
891.241	14149
891.364	14084
891.488	14126
891.611	13993
891.734	14035
891.857	14115
891.98	14050
892.103	14142
892.226	14115
892.349	14092
892.471	13845
892.594	14115
892.717	14065
892.839	14016
892.962	14024
893.085	14142
893.207	14016
893.33	13944
893.452	14020
893.575	14073
893.697	14065
893.819	14157
893.941	14206
894.064	14180
894.186	14020
894.308	13944
894.43	14259
894.552	14317
894.674	14229
894.796	14069
894.918	14046
895.04	14161
895.161	14153
895.283	14138
895.405	14130
895.526	14214
895.648	14240
895.769	14172
895.891	14248
896.012	14229
896.134	14320
896.255	14202
896.376	14202
896.498	14183
896.619	14298
896.74	14263
896.861	14347
896.982	14617
897.103	14663
897.224	14495
897.345	14434
897.466	14434
897.587	14469
897.708	14613
897.828	14473
897.949	14492
898.07	14370
898.19	14434
898.311	14598
898.431	14488
898.552	14522
898.672	14663
898.792	14724
898.913	14571
899.033	14438
899.153	14431
899.273	14400
899.393	14374
899.513	14408
899.633	14389
899.753	14492
899.873	14476
899.993	14473
900.113	14362
900.232	14446
900.352	14339
900.472	14267
900.591	14248
900.711	14328
900.83	14233
900.95	14427
901.069	14446
901.189	14206
901.308	14092
901.427	13993
901.546	13879
901.665	13963
901.784	14084
901.904	13814
902.023	13856
902.141	13518
902.26	13552
902.379	13597
902.498	13586
902.617	13510
902.735	13529
902.854	13495
902.973	13460
903.091	13293
903.21	13327
903.328	13259
903.446	13225
903.565	13091
903.683	13122
903.801	12966
903.919	13027
904.038	13084
904.156	12840
904.274	12996
904.392	12939
904.51	12897
904.627	12901
904.745	12970
904.863	13019
904.981	12741
905.098	12612
905.216	12623
905.334	12688
905.451	12601
905.569	12555
905.686	12627
905.803	12620
905.921	12418
906.038	12601
906.155	12448
906.272	12388
906.389	12376
906.506	12201
906.623	12190
906.74	12209
906.857	12019
906.974	12076
907.091	12262
907.208	12391
907.324	12292
907.441	12098
907.557	12030
907.674	12019
907.79	11824
907.907	11923
908.023	11988
908.139	11988
908.256	11889
908.372	11866
908.488	11885
908.604	11714
908.72	11630
908.836	11771
908.952	11703
909.068	11688
909.184	11840
909.3	11691
909.415	11729
909.531	11710
909.647	11547
909.762	11425
909.878	11387
909.993	11474
910.108	11497
910.224	11505
910.339	11524
910.454	11376
910.57	11326
910.685	11258
910.8	11512
910.915	11505
911.03	11307
911.145	11170
911.259	11155
911.374	11181
911.489	11067
911.604	11041
911.718	10938
911.833	11037
911.947	10873
912.062	10744
912.176	10991
912.291	10873
912.405	11003
912.519	11140
912.633	11151
912.748	11056
912.862	10927
912.976	10881
913.09	10736
913.204	10767
913.318	10797
913.431	10927
913.545	10858
913.659	10946
913.772	10850
913.886	10660
914	10580
914.113	10797
914.226	10839
914.34	10793
914.453	10694
914.566	10771
914.68	10622
914.793	10653
914.906	10447
915.019	10497
915.132	10348
915.245	10386
915.358	10493
915.47	10459
915.583	10531
915.696	10558
915.809	10569
915.921	10630
916.034	10432
916.146	10367
916.259	10405
916.371	10504
916.483	10371
916.595	10306
916.708	10402
916.82	10386
916.932	10318
917.044	10375
917.156	10440
917.268	10287
917.38	10310
917.491	10207
917.603	10363
917.715	10287
917.826	10405
917.938	10284
918.049	10192
918.161	10257
918.272	10341
918.384	10447
918.495	10207
918.606	10169
918.717	10093
918.828	10227
918.939	10139
919.05	10109
919.161	10177
919.272	9983
919.383	10051
919.494	10162
919.604	10405
919.715	10162
919.826	10112
919.936	10158
920.047	10227
920.157	10124
920.267	10386
920.378	10162
920.488	10143
920.598	10398
920.708	10516
920.818	10337
920.928	10405
921.038	10573
921.148	10478
921.258	10238
921.368	10215
921.477	10166
921.587	10013
921.697	9903
921.806	10055
921.916	9903
922.025	9804
922.134	9667
922.244	9690
922.353	9713
922.462	9705
922.571	9584
922.68	9473
922.789	9435
922.898	9488
923.007	9313
923.116	9458
923.224	9420
923.333	9473
923.442	9287
923.55	9348
923.659	9370
923.767	9420
923.876	9344
923.984	9389
924.092	9279
924.201	9313
924.309	9306
924.417	9348
924.525	9207
924.633	9272
924.741	10040
924.849	9112
924.956	9272
925.064	9036
925.172	9085
925.279	9036
925.387	9116
925.494	9119
925.602	9188
925.709	9062
925.816	9028
925.924	9066
926.031	9112
926.138	9077
926.245	9135
926.352	9032
926.459	9237
926.566	9195
926.673	8998
926.779	8975
926.886	8979
926.993	8830
927.099	8845
927.206	8796
927.312	8724
927.419	8845
927.525	8826
927.631	8948
927.737	8766
927.843	8746
927.95	8606
928.056	8678
928.162	8712
928.267	8705
928.373	9268
928.479	8845
928.585	8579
928.69	8678
928.796	8769
928.901	8670
929.007	8473
929.112	8590
929.218	8598
929.323	8568
929.428	8526
929.533	8667
929.638	8423
929.743	8499
929.848	8526
929.953	8492
930.058	8385
930.163	8313
930.267	8332
930.372	8419
930.477	8271
930.581	8454
930.685	8408
930.79	8183
930.894	8282
930.998	8206
931.103	8343
931.207	8035
931.311	7974
931.415	7841
931.519	7811
931.623	7753
