Data from test_V78500241_1535.txt Node
Date: Fri Mar 25 14:44:24 CST 2022
User: usil
Spectrometer: V785-0024
Trigger mode: 0
Integration Time (sec): 4.000000E-1
Scans to average: 1
Nonlinearity correction enabled: false
Boxcar width: 0
Storing dark spectrum: false
XAxis mode: Wavelengths
Number of Pixels in Spectrum: 1024
>>>>>Begin Spectral Data<<<<<
801.071	22299
801.214	22390
801.356	21998
801.499	21983
801.641	21739
801.783	21739
801.926	21679
802.068	21732
802.211	21644
802.353	21633
802.496	21245
802.638	21287
802.78	21173
802.923	21043
803.065	21032
803.208	21146
803.35	21116
803.492	21298
803.635	21135
803.777	21146
803.919	21188
804.061	21534
804.204	21070
804.346	21123
804.488	20998
804.63	21070
804.773	20910
804.915	21081
805.057	21116
805.199	21096
805.341	20994
805.483	21039
805.626	21222
805.768	20979
805.91	21017
806.052	21047
806.194	20948
806.336	21150
806.478	21062
806.62	21051
806.762	21100
806.904	21336
807.046	21534
807.188	21469
807.33	21424
807.472	21416
807.614	21306
807.756	21443
807.898	21233
808.04	21287
808.182	21226
808.324	21173
808.465	21245
808.607	21450
808.749	21511
808.891	21778
809.033	21789
809.174	21686
809.316	21610
809.458	21466
809.6	21523
809.741	21447
809.883	21496
810.025	21660
810.166	21660
810.308	21671
810.45	21496
810.591	21504
810.733	21188
810.875	21230
811.016	21173
811.158	21226
811.299	21207
811.441	21313
811.582	21317
811.724	21104
811.865	21180
812.007	21245
812.148	21203
812.29	21131
812.431	21428
812.573	21614
812.714	21618
812.855	21732
812.997	21854
813.138	22006
813.279	21880
813.421	21701
813.562	21751
813.703	21526
813.845	21363
813.986	21051
814.127	20887
814.268	20887
814.41	20895
814.551	20853
814.692	20823
814.833	20568
814.974	20667
815.115	20800
815.256	20575
815.397	20651
815.539	20537
815.68	20499
815.821	20560
815.962	20377
816.103	20393
816.244	20347
816.385	20233
816.526	20275
816.666	20012
816.807	19951
816.948	19906
817.089	19982
817.23	19963
817.371	19860
817.512	19837
817.653	19852
817.793	19830
817.934	19963
818.075	19913
818.216	19982
818.356	19841
818.497	19674
818.638	19658
818.778	19571
818.919	19571
819.06	19662
819.2	19784
819.341	19727
819.481	19799
819.622	19883
819.762	20069
819.903	20096
820.043	20005
820.184	19746
820.324	19932
820.465	19978
820.605	19803
820.746	19963
820.886	19807
821.026	19811
821.167	19784
821.307	19902
821.447	19765
821.588	19723
821.728	19616
821.868	19369
822.008	19244
822.149	19232
822.289	19282
822.429	19034
822.569	19027
822.709	19042
822.849	18798
822.99	18821
823.13	18692
823.27	18734
823.41	18566
823.55	18532
823.69	18525
823.83	18547
823.97	18585
824.11	18292
824.25	18399
824.389	18273
824.529	18369
824.669	18395
824.809	18448
824.949	18395
825.089	18399
825.228	18441
825.368	18163
825.508	18152
825.648	18106
825.787	18087
825.927	18178
826.067	18041
826.206	18155
826.346	18133
826.485	18110
826.625	18174
826.765	18273
826.904	18159
827.044	17863
827.183	17836
827.323	17893
827.462	17946
827.601	17726
827.741	17775
827.88	17851
828.02	17642
828.159	17741
828.298	17821
828.437	17878
828.577	17813
828.716	17973
828.855	17889
828.994	17520
829.134	17585
829.273	17649
829.412	17486
829.551	17509
829.69	17524
829.829	17600
829.968	17680
830.107	17665
830.246	17554
830.385	17402
830.524	17356
830.663	17345
830.802	17292
830.941	17117
831.08	17200
831.219	17143
831.357	17284
831.496	17334
831.635	17185
831.774	17071
831.913	17185
832.051	16885
832.19	16991
832.329	16938
832.467	16820
832.606	16713
832.744	16869
832.883	16919
833.022	16881
833.16	16869
833.299	16843
833.437	16843
833.576	16900
833.714	16911
833.852	16976
833.991	16919
834.129	17029
834.267	16896
834.406	16866
834.544	16885
834.682	16934
834.821	16911
834.959	16987
835.097	16892
835.235	17003
835.373	16949
835.511	16946
835.65	16805
835.788	16805
835.926	16702
836.064	16546
836.202	16588
836.34	16786
836.478	16896
836.615	16835
836.753	16740
836.891	16904
837.029	16847
837.167	16812
837.305	16592
837.443	16767
837.58	16622
837.718	16634
837.856	16672
837.993	16554
838.131	16615
838.269	16698
838.406	16550
838.544	16550
838.681	16405
838.819	16318
838.956	16105
839.094	16204
839.231	16211
839.369	16329
839.506	16531
839.643	16455
839.781	16226
839.918	16204
840.055	16325
840.193	16131
840.33	16158
840.467	16207
840.604	16295
840.742	16546
840.879	16135
841.016	16078
841.153	16071
841.29	16219
841.427	16265
841.564	16196
841.701	16219
841.838	16192
841.975	16059
842.112	16265
842.249	16036
842.385	15968
842.522	16211
842.659	15991
842.796	15968
842.933	15956
843.069	15975
843.206	15937
843.343	15960
843.479	15926
843.616	16071
843.752	15679
843.889	15762
844.025	15865
844.162	15724
844.298	15892
844.435	15732
844.571	15774
844.708	15789
844.844	15922
844.98	15895
845.117	15865
845.253	15755
845.389	15686
845.525	15686
845.661	15671
845.798	15663
845.934	15705
846.07	15694
846.206	15728
846.342	15823
846.478	15751
846.614	15545
846.75	15344
846.886	15298
847.022	15462
847.158	15348
847.294	15389
847.429	15370
847.565	15332
847.701	15580
847.837	15024
847.972	14960
848.108	15070
848.244	15127
848.379	14952
848.515	14887
848.65	14963
848.786	14937
848.921	14918
849.057	15001
849.192	15055
849.328	14967
849.463	14975
849.598	14952
849.734	14823
849.869	14743
850.004	14777
850.14	14659
850.275	14701
850.41	14640
850.545	14651
850.68	14678
850.815	14735
850.95	14625
851.085	14925
851.22	14765
851.355	14758
851.49	14743
851.625	14617
851.76	14651
851.895	14606
852.03	14636
852.165	14613
852.299	14754
852.434	14811
852.569	14644
852.703	14762
852.838	14838
852.973	14906
853.107	14857
853.242	14701
853.376	14583
853.511	14427
853.645	14670
853.78	14659
853.914	14682
854.048	14617
854.183	14545
854.317	14640
854.451	14663
854.585	14594
854.72	14602
854.854	14640
854.988	14522
855.122	14537
855.256	14473
855.39	14625
855.524	14739
855.658	14663
855.792	14617
855.926	14629
856.06	14549
856.194	14693
856.327	14606
856.461	14499
856.595	14457
856.729	14556
856.862	14667
856.996	14602
857.13	14670
857.263	14716
857.397	14716
857.53	14610
857.664	14602
857.797	14701
857.931	14750
858.064	14640
858.197	14750
858.331	14651
858.464	14579
858.597	14495
858.731	14583
858.864	14545
858.997	14511
859.13	14674
859.263	14659
859.396	14743
859.529	14568
859.662	14575
859.795	14617
859.928	14526
860.061	14720
860.194	14720
860.327	14602
860.46	14621
860.592	14682
860.725	14773
860.858	14693
860.99	14632
861.123	14499
861.256	14575
861.388	14621
861.521	15230
861.653	14480
861.786	14419
861.918	14465
862.05	14408
862.183	14545
862.315	14648
862.447	14545
862.58	14613
862.712	14305
862.844	14328
862.976	14434
863.108	14404
863.24	14754
863.372	14298
863.504	14317
863.636	14370
863.768	14438
863.9	14324
864.032	14324
864.164	14286
864.296	14374
864.428	14461
864.559	14347
864.691	14427
864.823	14476
864.954	14431
865.086	14457
865.217	14343
865.349	14187
865.48	14320
865.612	14347
865.743	14495
865.875	14332
866.006	14290
866.137	14358
866.269	14313
866.4	14393
866.531	14381
866.662	14252
866.793	14248
866.924	14290
867.055	14355
867.186	14298
867.317	14298
867.448	14229
867.579	14275
867.71	14225
867.841	14275
867.972	14374
868.103	14282
868.233	14324
868.364	14404
868.495	14469
868.625	14560
868.756	14670
868.886	14404
869.017	14522
869.147	14640
869.278	14807
869.408	14560
869.539	14560
869.669	14598
869.799	14590
869.929	14746
870.06	14705
870.19	14921
870.32	14906
870.45	14944
870.58	14906
870.71	15097
870.84	14990
870.97	14971
871.1	15062
871.23	15066
871.36	15131
871.489	15116
871.619	15154
871.749	15207
871.879	15203
872.008	15252
872.138	15218
872.267	15157
872.397	15055
872.526	14967
872.656	14944
872.785	14994
872.915	15294
873.044	15302
873.173	15195
873.303	15222
873.432	15279
873.561	15344
873.69	15291
873.819	15332
873.948	15332
874.077	15230
874.206	15116
874.335	15230
874.464	15348
874.593	15428
874.722	15507
874.851	15656
874.979	15591
875.108	15542
875.237	15428
875.365	15561
875.494	15538
875.623	15656
875.751	15530
875.88	15511
876.008	15606
876.136	15774
876.265	15835
876.393	16097
876.521	16036
876.65	15915
876.778	15975
876.906	15869
877.034	15842
877.162	15979
877.29	15846
877.418	15857
877.546	15960
877.674	16006
877.802	15998
877.93	15873
878.058	15953
878.185	15934
878.313	15941
878.441	15975
878.568	15854
878.696	15941
878.824	16010
878.951	15968
879.079	16204
879.206	16322
879.333	16147
879.461	16124
879.588	16109
879.715	16344
879.842	16310
879.97	16067
880.097	15873
880.224	15835
880.351	15915
880.478	15850
880.605	15793
880.732	15675
880.859	16063
880.986	15873
881.112	15823
881.239	15732
881.366	15584
881.493	15412
881.619	15450
881.746	15564
881.872	15401
881.999	15469
882.125	15450
882.252	15488
882.378	15519
882.505	15686
882.631	15481
882.757	15287
882.883	15294
883.01	15245
883.136	15214
883.262	15161
883.388	15112
883.514	15222
883.64	15313
883.766	15332
883.892	15062
884.018	15089
884.143	15294
884.269	15367
884.395	15074
884.52	14960
884.646	14994
884.772	15005
884.897	14933
885.023	14979
885.148	15123
885.274	15306
885.399	15085
885.524	15032
885.65	15028
885.775	14883
885.9	14921
886.025	15131
886.15	15039
886.275	14857
886.4	14891
886.525	14929
886.65	14849
886.775	14937
886.9	15085
887.025	15283
887.149	14986
887.274	14773
887.399	14743
887.523	14777
887.648	14807
887.773	14701
887.897	14891
888.021	14804
888.146	14712
888.27	14887
888.395	14941
888.519	14857
888.643	14857
888.767	14811
888.891	14758
889.015	14629
889.139	14735
889.263	14724
889.387	14842
889.511	14876
889.635	14773
889.759	14697
889.883	14644
890.006	14659
890.13	14746
890.254	14533
890.377	14682
890.501	14332
890.624	14408
890.748	14503
890.871	14374
890.995	14278
891.118	14214
891.241	14351
891.364	14400
891.488	14442
891.611	14374
891.734	14351
891.857	14442
891.98	14351
892.103	14442
892.226	14381
892.349	14400
892.471	14275
892.594	14351
892.717	14305
892.839	14282
892.962	14374
893.085	14412
893.207	14366
893.33	14202
893.452	14313
893.575	14385
893.697	14271
893.819	14552
893.941	14526
894.064	14503
894.186	14259
894.308	14419
894.43	14564
894.552	14533
894.674	14499
894.796	14320
894.918	14393
895.04	14377
895.161	14469
895.283	14488
895.405	14336
895.526	14450
895.648	14412
895.769	14533
895.891	14541
896.012	14476
896.134	14522
896.255	14522
896.376	14450
896.498	14457
896.619	14484
896.74	14499
896.861	14659
896.982	14823
897.103	14956
897.224	14781
897.345	14785
897.466	14606
897.587	14796
897.708	14914
897.828	14830
897.949	14743
898.07	14682
898.19	14682
898.311	14899
898.431	14731
898.552	14769
898.672	14823
898.792	14887
898.913	14826
899.033	14758
899.153	14659
899.273	14606
899.393	14724
899.513	14720
899.633	14769
899.753	14720
899.873	14663
899.993	14754
900.113	14701
900.232	14663
900.352	14651
900.472	14629
900.591	14636
900.711	14552
900.83	14549
900.95	14686
901.069	14670
901.189	14568
901.308	14271
901.427	14294
901.546	14229
901.665	14199
901.784	14290
901.904	14153
902.023	14062
902.141	13951
902.26	13807
902.379	13883
902.498	13750
902.617	13784
902.735	13845
902.854	13753
902.973	13742
903.091	13670
903.21	13499
903.328	13563
903.446	13480
903.565	13419
903.683	13426
903.801	13320
903.919	13407
904.038	13255
904.156	13145
904.274	13251
904.392	13149
904.51	13046
904.627	13103
904.745	13236
904.863	13259
904.981	13050
905.098	12871
905.216	12935
905.334	12859
905.451	12913
905.569	12825
905.686	12977
905.803	12890
905.921	12700
906.038	12802
906.155	12738
906.272	12528
906.389	12642
906.506	12448
906.623	12448
906.74	12426
906.857	12334
906.974	12308
907.091	12544
907.208	12608
907.324	12486
907.441	12414
907.557	12247
907.674	12190
907.79	12171
907.907	12163
908.023	12327
908.139	12190
908.256	12182
908.372	12076
908.488	12110
908.604	12019
908.72	12026
908.836	12019
908.952	11904
909.068	11904
909.184	12022
909.3	12019
909.415	12038
909.531	11969
909.647	11737
909.762	11737
909.878	11676
909.993	11783
910.108	11646
910.224	11707
910.339	11691
910.454	11611
910.57	11573
910.685	11539
910.8	11817
910.915	11794
911.03	11493
911.145	11478
911.259	11372
911.374	11467
911.489	11322
911.604	11273
911.718	11162
911.833	11128
911.947	11048
912.062	10999
912.176	11147
912.291	11147
912.405	11128
912.519	11322
912.633	11311
912.748	11212
912.862	11151
912.976	11105
913.09	10885
913.204	11003
913.318	10999
913.431	11193
913.545	11147
913.659	11220
913.772	11090
913.886	10919
914	10900
914.113	11025
914.226	11079
914.34	10938
914.453	10797
914.566	10946
914.68	10858
914.793	10877
914.906	10679
915.019	10660
915.132	10565
915.245	10679
915.358	10596
915.47	10752
915.583	10714
915.696	10744
915.809	10831
915.921	10831
916.034	10634
916.146	10561
916.259	10634
916.371	10782
916.483	10687
916.595	10675
916.708	10527
916.82	10603
916.932	10611
917.044	10565
917.156	10558
917.268	10402
917.38	10538
917.491	10459
917.603	10641
917.715	10565
917.826	10573
917.938	10485
918.049	10367
918.161	10527
918.272	10645
918.384	10634
918.495	10550
918.606	10371
918.717	10375
918.828	10329
918.939	10402
919.05	10284
919.161	10413
919.272	10204
919.383	10238
919.494	10402
919.604	10645
919.715	10360
919.826	10379
919.936	10375
920.047	10440
920.157	10421
920.267	10622
920.378	10421
920.488	10379
920.598	10626
920.708	10786
920.818	10592
920.928	10611
921.038	10710
921.148	10672
921.258	10531
921.368	10356
921.477	10299
921.587	10246
921.697	10086
921.806	10265
921.916	10150
922.025	10101
922.134	9964
922.244	9918
922.353	9979
922.462	9873
922.571	9804
922.68	9698
922.789	9694
922.898	9614
923.007	9667
923.116	9724
923.224	9641
923.333	9671
923.442	9485
923.55	9507
923.659	9603
923.767	9705
923.876	9485
923.984	9561
924.092	9507
924.201	9523
924.309	9564
924.417	9523
924.525	9534
924.633	9473
924.741	10459
924.849	9294
924.956	9458
925.064	9302
925.172	9317
925.279	9291
925.387	9340
925.494	9317
925.602	9443
925.709	9416
925.816	9233
925.924	9348
926.031	9351
926.138	9348
926.245	9355
926.352	9253
926.459	9329
926.566	9405
926.673	9332
926.779	9135
926.886	9192
926.993	9020
927.099	9020
927.206	9017
927.312	8929
927.419	9066
927.525	8986
927.631	9055
927.737	8918
927.843	8861
927.95	8815
928.056	8845
928.162	8906
928.267	8952
928.373	9469
928.479	9001
928.585	8792
928.69	8868
928.796	8902
928.901	8857
929.007	8762
929.112	8819
929.218	8754
929.323	8785
929.428	8746
929.533	8891
929.638	8644
929.743	8678
929.848	8743
929.953	8754
930.058	8594
930.163	8457
930.267	8473
930.372	8621
930.477	8469
930.581	8686
930.685	8587
930.79	8450
930.894	8465
930.998	8393
931.103	8590
931.207	8263
931.311	8191
931.415	8126
931.519	7944
931.623	7970
