Data from test_V78500241_697.txt Node
Date: Fri Mar 25 14:38:34 CST 2022
User: usil
Spectrometer: V785-0024
Trigger mode: 0
Integration Time (sec): 4.000000E-1
Scans to average: 1
Nonlinearity correction enabled: false
Boxcar width: 0
Storing dark spectrum: false
XAxis mode: Wavelengths
Number of Pixels in Spectrum: 1024
>>>>>Begin Spectral Data<<<<<
801.071	27949
801.214	27762
801.356	27443
801.499	27420
801.641	27389
801.783	27192
801.926	27370
802.068	27256
802.211	26979
802.353	26975
802.496	26796
802.638	26823
802.78	26720
802.923	26788
803.065	26739
803.208	26750
803.35	26724
803.492	26853
803.635	26849
803.777	26819
803.919	27009
804.061	27397
804.204	27096
804.346	26815
804.488	26971
804.63	27142
804.773	26982
804.915	27180
805.057	27298
805.199	27207
805.341	27416
805.483	27583
805.626	27500
805.768	27599
805.91	27694
806.052	27819
806.194	27911
806.336	28242
806.478	28261
806.62	28508
806.762	28793
806.904	29121
807.046	29687
807.188	30072
807.33	30532
807.472	31034
807.614	31537
807.756	32579
807.898	33641
808.04	35235
808.182	37270
808.324	39770
808.465	42696
808.607	46238
808.749	49293
808.891	50880
809.033	51127
809.174	49491
809.316	46481
809.458	43095
809.6	39595
809.741	36886
809.883	34687
810.025	33336
810.166	32210
810.308	31206
810.45	30483
810.591	30011
810.733	29467
810.875	29090
811.016	28812
811.158	28634
811.299	28645
811.441	28474
811.582	28234
811.724	28029
811.865	27903
812.007	27819
812.148	27686
812.29	27747
812.431	27739
812.573	27869
812.714	27911
812.855	27949
812.997	27926
813.138	28063
813.279	27876
813.421	27797
813.562	27793
813.703	27587
813.845	27447
813.986	27077
814.127	26872
814.268	26701
814.41	26541
814.551	26560
814.692	26499
814.833	26431
814.974	26423
815.115	26393
815.256	26366
815.397	26328
815.539	26229
815.68	26168
815.821	26138
815.962	26176
816.103	26100
816.244	25879
816.385	25666
816.526	25852
816.666	25647
816.807	25369
816.948	25434
817.089	25384
817.23	25559
817.371	25388
817.512	25476
817.653	25301
817.793	25179
817.934	25263
818.075	25362
818.216	25308
818.356	25114
818.497	25160
818.638	24939
818.778	25012
818.919	24985
819.06	25065
819.2	25190
819.341	25148
819.481	25133
819.622	25327
819.762	25476
819.903	25400
820.043	25381
820.184	25343
820.324	25240
820.465	25133
820.605	25240
820.746	25137
820.886	25031
821.026	25050
821.167	25076
821.307	25103
821.447	25023
821.588	24947
821.728	24787
821.868	24681
822.008	24540
822.149	24490
822.289	24429
822.429	24064
822.569	23946
822.709	23965
822.849	23958
822.99	23832
823.13	23836
823.27	23745
823.41	23707
823.55	23585
823.69	23756
823.83	23573
823.97	23547
824.11	23379
824.25	23364
824.389	23341
824.529	23486
824.669	23349
824.809	23509
824.949	23398
825.089	23436
825.228	23356
825.368	23185
825.508	23189
825.648	23124
825.787	23102
825.927	23296
826.067	23204
826.206	23197
826.346	23185
826.485	23250
826.625	23056
826.765	23277
826.904	23155
827.044	22991
827.183	22942
827.323	22930
827.462	22839
827.601	22896
827.741	22767
827.88	22797
828.02	22793
828.159	22869
828.298	22725
828.437	22869
828.577	22733
828.716	22812
828.855	22729
828.994	22557
829.134	22622
829.273	22436
829.412	22421
829.551	22382
829.69	22508
829.829	22481
829.968	22523
830.107	22531
830.246	22546
830.385	22428
830.524	22436
830.663	22356
830.802	22204
830.941	22093
831.08	22147
831.219	22226
831.357	22177
831.496	22215
831.635	22253
831.774	22147
831.913	21956
832.051	22044
832.19	21835
832.329	21998
832.467	21956
832.606	21899
832.744	21884
832.883	22162
833.022	22063
833.16	22139
833.299	22303
833.437	22318
833.576	22691
833.714	22607
833.852	22942
833.991	22900
834.129	23086
834.267	23121
834.406	23178
834.544	23041
834.682	22892
834.821	22637
834.959	22755
835.097	22371
835.235	22470
835.373	22234
835.511	22188
835.65	22059
835.788	21998
835.926	21686
836.064	21701
836.202	21595
836.34	21781
836.478	21789
836.615	21652
836.753	21743
836.891	21743
837.029	21724
837.167	21500
837.305	21595
837.443	21458
837.58	21492
837.718	21477
837.856	21424
837.993	21431
838.131	21443
838.269	21279
838.406	21241
838.544	21237
838.681	21051
838.819	21001
838.956	20994
839.094	20902
839.231	20906
839.369	20994
839.506	21306
839.643	21058
839.781	20781
839.918	20842
840.055	20682
840.193	20952
840.33	20788
840.467	20712
840.604	20952
840.742	21112
840.879	20655
841.016	20785
841.153	20682
841.29	20895
841.427	20804
841.564	20819
841.701	20845
841.838	20804
841.975	20708
842.112	20701
842.249	20609
842.385	20571
842.522	20746
842.659	20693
842.796	20640
842.933	20587
843.069	20621
843.206	20613
843.343	20727
843.479	20807
843.616	20819
843.752	20663
843.889	20583
844.025	20834
844.162	20773
844.298	21036
844.435	21138
844.571	21268
844.708	21469
844.844	21956
844.98	22379
845.117	23006
845.253	23961
845.389	25769
845.525	29535
845.661	35608
845.798	42464
845.934	47642
846.07	49635
846.206	47996
846.342	43110
846.478	36121
846.614	30277
846.75	26404
846.886	24148
847.022	22908
847.158	21816
847.294	21374
847.429	21127
847.565	20701
847.701	20792
847.837	20214
847.972	19982
848.108	20062
848.244	19932
848.379	19818
848.515	19670
848.65	19643
848.786	19624
848.921	19651
849.057	19814
849.192	19552
849.328	19647
849.463	19521
849.598	19396
849.734	19476
849.869	19304
850.004	19259
850.14	19312
850.275	19419
850.41	19316
850.545	19244
850.68	19194
850.815	19209
850.95	19221
851.085	19403
851.22	19282
851.355	19160
851.49	19133
851.625	19164
851.76	19187
851.895	19156
852.03	19023
852.165	19148
852.299	19247
852.434	19415
852.569	19320
852.703	19362
852.838	19354
852.973	19464
853.107	19487
853.242	19263
853.376	19263
853.511	19308
853.645	19270
853.78	19400
853.914	19449
854.048	19373
854.183	19483
854.317	19472
854.451	19674
854.585	19369
854.72	19510
854.854	19460
854.988	19350
855.122	19350
855.256	19156
855.39	19285
855.524	19285
855.658	19236
855.792	19187
855.926	19213
856.06	19194
856.194	19198
856.327	19012
856.461	18943
856.595	19053
856.729	19004
856.862	19198
856.996	18973
857.13	19076
857.263	19004
857.397	19171
857.53	19046
857.664	19088
857.797	19004
857.931	19053
858.064	18943
858.197	19076
858.331	18996
858.464	18901
858.597	18844
858.731	18905
858.864	18890
858.997	18848
859.13	18852
859.263	18871
859.396	18970
859.529	18856
859.662	18829
859.795	18768
859.928	18882
860.061	18951
860.194	19034
860.327	18875
860.46	18894
860.592	18905
860.725	18973
860.858	18905
860.99	18943
861.123	18707
861.256	18734
861.388	18833
861.521	19533
861.653	18608
861.786	18627
861.918	18665
862.05	18730
862.183	18829
862.315	18764
862.447	18958
862.58	18745
862.712	18509
862.844	18509
862.976	18620
863.108	18566
863.24	18760
863.372	18525
863.504	18426
863.636	18441
863.768	18551
863.9	18509
864.032	18456
864.164	18517
864.296	18448
864.428	18570
864.559	18582
864.691	18521
864.823	18502
864.954	18426
865.086	18479
865.217	18346
865.349	18369
865.48	18357
865.612	18513
865.743	18578
865.875	18418
866.006	18426
866.137	18452
866.269	18361
866.4	18452
866.531	18338
866.662	18353
866.793	18410
866.924	18490
867.055	18338
867.186	18338
867.317	18311
867.448	18197
867.579	18395
867.71	18182
867.841	18247
867.972	18342
868.103	18380
868.233	18414
868.364	18471
868.495	18365
868.625	18502
868.756	18692
868.886	18547
869.017	18559
869.147	18768
869.278	18787
869.408	18574
869.539	18642
869.669	18810
869.799	18726
869.929	18772
870.06	18734
870.19	18958
870.32	19004
870.45	19031
870.58	19015
870.71	19103
870.84	19156
870.97	19072
871.1	19156
871.23	19312
871.36	19312
871.489	19206
871.619	19274
871.749	19324
871.879	19392
872.008	19518
872.138	19438
872.267	19324
872.397	19198
872.526	19270
872.656	19240
872.785	19331
872.915	19457
873.044	19537
873.173	19514
873.303	19635
873.432	19674
873.561	19700
873.69	19616
873.819	19624
873.948	19677
874.077	19708
874.206	19559
874.335	19658
874.464	19833
874.593	20172
874.722	19993
874.851	20115
874.979	20206
875.108	20259
875.237	20259
875.365	20164
875.494	20256
875.623	20465
875.751	20347
875.88	20396
876.008	20674
876.136	20598
876.265	20883
876.393	21138
876.521	21074
876.65	21249
876.778	21173
876.906	21264
877.034	21237
877.162	21443
877.29	21313
877.418	21450
877.546	21599
877.674	21667
877.802	21842
877.93	21899
878.058	22166
878.185	22101
878.313	22538
878.441	22885
878.568	23102
878.696	23832
878.824	24673
878.951	25727
879.079	27279
879.206	29509
879.333	31449
879.461	33173
879.588	34310
879.715	34436
879.842	33572
879.97	31506
880.097	29261
880.224	27785
880.351	26495
880.478	25715
880.605	24985
880.732	24608
880.859	24810
880.986	24220
881.112	24140
881.239	23927
881.366	23870
881.493	23817
881.619	23676
881.746	23748
881.872	23813
881.999	23752
882.125	23714
882.252	23969
882.378	23980
882.505	24030
882.631	23923
882.757	23912
882.883	24030
883.01	23809
883.136	23824
883.262	23657
883.388	23657
883.514	23695
883.64	23764
883.766	23608
883.892	23490
884.018	23524
884.143	23703
884.269	23813
884.395	23414
884.52	23372
884.646	23490
884.772	23543
884.897	23482
885.023	23554
885.148	23448
885.274	23577
885.399	23463
885.524	23109
885.65	23136
885.775	23071
885.9	22953
886.025	22786
886.15	22592
886.275	22287
886.4	22223
886.525	22116
886.65	21907
886.775	21934
886.9	21884
887.025	21873
887.149	21511
887.274	21283
887.399	21188
887.523	21058
887.648	20895
887.773	20910
887.897	20982
888.021	20883
888.146	20617
888.27	20712
888.395	20823
888.519	20644
888.643	20648
888.767	20457
888.891	20446
889.015	20164
889.139	20294
889.263	20122
889.387	20161
889.511	20301
889.635	20138
889.759	20027
889.883	19898
890.006	19967
890.13	20024
890.254	19769
890.377	19780
890.501	19594
890.624	19510
890.748	19495
890.871	19438
890.995	19346
891.118	19266
891.241	19194
891.364	19244
891.488	19320
891.611	19263
891.734	19213
891.857	19255
891.98	19148
892.103	19065
892.226	19088
892.349	19080
892.471	18814
892.594	18935
892.717	18905
892.839	18890
892.962	18954
893.085	18844
893.207	18772
893.33	18646
893.452	18620
893.575	18776
893.697	18555
893.819	18856
893.941	18882
894.064	18719
894.186	18563
894.308	18486
894.43	18669
894.552	18650
894.674	18620
894.796	18429
894.918	18369
895.04	18399
895.161	18532
895.283	18490
895.405	18380
895.526	18372
895.648	18399
895.769	18395
895.891	18395
896.012	18365
896.134	18376
896.255	18334
896.376	18441
896.498	18277
896.619	18350
896.74	18296
896.861	18391
896.982	18566
897.103	18757
897.224	18650
897.345	18479
897.466	18418
897.587	18426
897.708	18528
897.828	18506
897.949	18342
898.07	18323
898.19	18441
898.311	18593
898.431	18407
898.552	18441
898.672	18475
898.792	18509
898.913	18414
899.033	18384
899.153	18258
899.273	18133
899.393	18163
899.513	18205
899.633	18296
899.753	18224
899.873	18140
899.993	18178
900.113	18213
900.232	18258
900.352	18072
900.472	18045
900.591	18083
900.711	18053
900.83	17939
900.95	18026
901.069	18022
901.189	17859
901.308	17680
901.427	17505
901.546	17691
901.665	17509
901.784	17535
901.904	17433
902.023	17364
902.141	17212
902.26	17029
902.379	17037
902.498	17071
902.617	17052
902.735	16999
902.854	16930
902.973	16908
903.091	16702
903.21	16653
903.328	16618
903.446	16588
903.565	16481
903.683	16603
903.801	16455
903.919	16451
904.038	16417
904.156	16246
904.274	16390
904.392	16181
904.51	16166
904.627	16147
904.745	16207
904.863	16185
904.981	15975
905.098	15953
905.216	15865
905.334	15895
905.451	15895
905.569	15770
905.686	15873
905.803	15842
905.921	15724
906.038	15781
906.155	15625
906.272	15557
906.389	15466
906.506	15435
906.623	15450
906.74	15367
906.857	15230
906.974	15294
907.091	15389
907.208	15359
907.324	15397
907.441	15192
907.557	15173
907.674	15123
907.79	15036
907.907	15013
908.023	15131
908.139	15009
908.256	14975
908.372	14956
908.488	14872
908.604	14845
908.72	14743
908.836	14758
908.952	14727
909.068	14739
909.184	14849
909.3	14758
909.415	14819
909.531	14697
909.647	14541
909.762	14606
909.878	14511
909.993	14511
910.108	14377
910.224	14400
910.339	14518
910.454	14415
910.57	14309
910.685	14339
910.8	14552
910.915	14408
911.03	14324
911.145	14130
911.259	14149
911.374	14123
911.489	14138
911.604	14043
911.718	13788
911.833	13928
911.947	13742
912.062	13601
912.176	13666
912.291	13871
912.405	13902
912.519	14046
912.633	14050
912.748	13894
912.862	13830
912.976	13723
913.09	13537
913.204	13628
913.318	13700
913.431	13811
913.545	13795
913.659	13879
913.772	13723
913.886	13605
914	13487
914.113	13662
914.226	13639
914.34	13620
914.453	13445
914.566	13632
914.68	13514
914.793	13499
914.906	13308
915.019	13221
915.132	13225
915.245	13270
915.358	13244
915.47	13316
915.583	13240
915.696	13221
915.809	13362
915.921	13343
916.034	13278
916.146	13149
916.259	13202
916.371	13354
916.483	13274
916.595	13168
916.708	13198
916.82	13213
916.932	13190
917.044	13179
917.156	13187
917.268	13031
917.38	12985
917.491	13023
917.603	13046
917.715	12989
917.826	13137
917.938	13004
918.049	12817
918.161	12939
918.272	13038
918.384	13004
918.495	12840
918.606	12753
918.717	12776
918.828	12802
918.939	12814
919.05	12570
919.161	12646
919.272	12509
919.383	12631
919.494	12688
919.604	12909
919.715	12715
919.826	12601
919.936	12650
920.047	12760
920.157	12703
920.267	12897
920.378	12776
920.488	12677
920.598	12837
920.708	13000
920.818	12844
920.928	12802
921.038	12901
921.148	12932
921.258	12715
921.368	12578
921.477	12456
921.587	12441
921.697	12372
921.806	12380
921.916	12399
922.025	12190
922.134	12175
922.244	12068
922.353	12117
922.462	11954
922.571	12007
922.68	11863
922.789	11771
922.898	11760
923.007	11764
923.116	11771
923.224	11764
923.333	11771
923.442	11589
923.55	11688
923.659	11714
923.767	11680
923.876	11532
923.984	11699
924.092	11501
924.201	11596
924.309	11577
924.417	11512
924.525	11497
924.633	11577
924.741	12460
924.849	11280
924.956	11417
925.064	11349
925.172	11254
925.279	11288
925.387	11387
925.494	11349
925.602	11455
925.709	11288
925.816	11239
925.924	11318
926.031	11455
926.138	11265
926.245	11258
926.352	11288
926.459	11337
926.566	11330
926.673	11193
926.779	11090
926.886	11170
926.993	10972
927.099	10915
927.206	10877
927.312	10930
927.419	10923
927.525	10889
927.631	10908
927.737	10809
927.843	10759
927.95	10744
928.056	10801
928.162	10847
928.267	10801
928.373	11337
928.479	10885
928.585	10577
928.69	10824
928.796	10816
928.901	10714
929.007	10554
929.112	10637
929.218	10565
929.323	10664
929.428	10611
929.533	10702
929.638	10538
929.743	10516
929.848	10542
929.953	10550
930.058	10478
930.163	10257
930.267	10329
930.372	10390
930.477	10211
930.581	10580
930.685	10360
930.79	10200
930.894	10268
930.998	10173
931.103	10329
931.207	9956
931.311	9941
931.415	9759
931.519	9603
931.623	9641
