Data from test_V78500241_245.txt Node
Date: Fri Mar 25 14:35:25 CST 2022
User: usil
Spectrometer: V785-0024
Trigger mode: 0
Integration Time (sec): 4.000000E-1
Scans to average: 1
Nonlinearity correction enabled: false
Boxcar width: 0
Storing dark spectrum: false
XAxis mode: Wavelengths
Number of Pixels in Spectrum: 1024
>>>>>Begin Spectral Data<<<<<
801.071	27583
801.214	27553
801.356	27135
801.499	27226
801.641	26944
801.783	26933
801.926	27017
802.068	26811
802.211	26796
802.353	26746
802.496	26743
802.638	26549
802.78	26545
802.923	26438
803.065	26412
803.208	26438
803.35	26457
803.492	26571
803.635	26716
803.777	26514
803.919	26644
804.061	26845
804.204	26590
804.346	26484
804.488	26549
804.63	26389
804.773	26332
804.915	26377
805.057	26609
805.199	26507
805.341	26530
805.483	26408
805.626	26514
805.768	26427
805.91	26533
806.052	26602
806.194	26423
806.336	26697
806.478	26659
806.62	26404
806.762	26754
806.904	26712
807.046	26769
807.188	26956
807.33	26948
807.472	26880
807.614	26830
807.756	26796
807.898	26727
808.04	26705
808.182	26754
808.324	26769
808.465	26952
808.607	26967
808.749	27211
808.891	27291
809.033	27275
809.174	27306
809.316	27313
809.458	27336
809.6	27020
809.741	27169
809.883	27100
810.025	27173
810.166	27207
810.308	27268
810.45	27222
810.591	27180
810.733	27028
810.875	27043
811.016	26735
811.158	26842
811.299	26834
811.441	27020
811.582	26807
811.724	26872
811.865	26861
812.007	26838
812.148	26933
812.29	26864
812.431	27055
812.573	27291
812.714	27222
812.855	27344
812.997	27306
813.138	27443
813.279	27374
813.421	27367
813.562	27279
813.703	27214
813.845	26979
813.986	26777
814.127	26705
814.268	26423
814.41	26503
814.551	26408
814.692	26552
814.833	26457
814.974	26301
815.115	26511
815.256	26267
815.397	26370
815.539	26290
815.68	26153
815.821	26122
815.962	26130
816.103	26062
816.244	25902
816.385	25921
816.526	25856
816.666	25734
816.807	25597
816.948	25662
817.089	25670
817.23	25506
817.371	25712
817.512	25582
817.653	25533
817.793	25457
817.934	25559
818.075	25628
818.216	25616
818.356	25491
818.497	25476
818.638	25251
818.778	25278
818.919	25289
819.06	25232
819.2	25266
819.341	25381
819.481	25563
819.622	25529
819.762	25811
819.903	25647
820.043	25700
820.184	25578
820.324	25472
820.465	25552
820.605	25460
820.746	25575
820.886	25388
821.026	25457
821.167	25415
821.307	25590
821.447	25499
821.588	25278
821.728	25247
821.868	25031
822.008	24901
822.149	24825
822.289	24798
822.429	24639
822.569	24467
822.709	24551
822.849	24330
822.99	24327
823.13	24285
823.27	24243
823.41	24091
823.55	24064
823.69	24190
823.83	24144
823.97	24106
824.11	24018
824.25	23764
824.389	23824
824.529	23878
824.669	23802
824.809	23912
824.949	24022
825.089	23824
825.228	23817
825.368	23589
825.508	23737
825.648	23718
825.787	23836
825.927	23615
826.067	23661
826.206	23707
826.346	23642
826.485	23859
826.625	23722
826.765	23699
826.904	23729
827.044	23539
827.183	23448
827.323	23341
827.462	23387
827.601	23414
827.741	23391
827.88	23250
828.02	23174
828.159	23235
828.298	23425
828.437	23376
828.577	23223
828.716	23455
828.855	23288
828.994	23113
829.134	23094
829.273	23132
829.412	23105
829.551	22911
829.69	22900
829.829	23083
829.968	23174
830.107	23014
830.246	23022
830.385	22885
830.524	22923
830.663	22946
830.802	22805
830.941	22603
831.08	22599
831.219	22679
831.357	22611
831.496	22691
831.635	22588
831.774	22634
831.913	22402
832.051	22325
832.19	22314
832.329	22375
832.467	22268
832.606	22318
832.744	22261
832.883	22257
833.022	22303
833.16	22299
833.299	22284
833.437	22295
833.576	22341
833.714	22246
833.852	22371
833.991	22268
834.129	22386
834.267	22318
834.406	22257
834.544	22284
834.682	22284
834.821	22318
834.959	22436
835.097	22310
835.235	22265
835.373	22230
835.511	22348
835.65	22101
835.788	22139
835.926	22055
836.064	21892
836.202	21991
836.34	22128
836.478	22173
836.615	21991
836.753	22173
836.891	22078
837.029	22131
837.167	22013
837.305	22044
837.443	21907
837.58	21884
837.718	21915
837.856	21918
837.993	21838
838.131	21956
838.269	21812
838.406	21728
838.544	21720
838.681	21545
838.819	21526
838.956	21272
839.094	21359
839.231	21496
839.369	21576
839.506	21762
839.643	21538
839.781	21310
839.918	21294
840.055	21378
840.193	21218
840.33	21222
840.467	21332
840.604	21291
840.742	21549
840.879	21112
841.016	21096
841.153	21127
841.29	21275
841.427	21173
841.564	21313
841.701	21195
841.838	21207
841.975	21226
842.112	21138
842.249	20941
842.385	20986
842.522	21226
842.659	20918
842.796	21005
842.933	20895
843.069	20982
843.206	20880
843.343	21058
843.479	21043
843.616	20941
843.752	20765
843.889	20724
844.025	20887
844.162	20708
844.298	20811
844.435	20697
844.571	20663
844.708	20731
844.844	20899
844.98	20857
845.117	20838
845.253	20644
845.389	20625
845.525	20716
845.661	20674
845.798	20731
845.934	20667
846.07	20765
846.206	20842
846.342	20918
846.478	20625
846.614	20351
846.75	20240
846.886	20229
847.022	20275
847.158	20282
847.294	20111
847.429	20195
847.565	20138
847.701	20400
847.837	19864
847.972	19841
848.108	19940
848.244	19932
848.379	19753
848.515	19685
848.65	19620
848.786	19738
848.921	19723
849.057	19875
849.192	19750
849.328	19731
849.463	19738
849.598	19590
849.734	19632
849.869	19613
850.004	19548
850.14	19613
850.275	19480
850.41	19400
850.545	19464
850.68	19480
850.815	19388
850.95	19369
851.085	19616
851.22	19655
851.355	19453
851.49	19373
851.625	19339
851.76	19335
851.895	19255
852.03	19293
852.165	19453
852.299	19464
852.434	19540
852.569	19537
852.703	19441
852.838	19426
852.973	19556
853.107	19563
853.242	19415
853.376	19331
853.511	19171
853.645	19209
853.78	19381
853.914	19266
854.048	19209
854.183	19129
854.317	19251
854.451	19301
854.585	19297
854.72	19198
854.854	19297
854.988	19228
855.122	19168
855.256	19148
855.39	19244
855.524	19293
855.658	19232
855.792	19327
855.926	19304
856.06	19335
856.194	19339
856.327	19152
856.461	19263
856.595	19152
856.729	19206
856.862	19278
856.996	19202
857.13	19251
857.263	19285
857.397	19396
857.53	19213
857.664	19168
857.797	19129
857.931	19407
858.064	19187
858.197	19266
858.331	19133
858.464	19278
858.597	19061
858.731	19126
858.864	19274
858.997	19171
859.13	19141
859.263	19137
859.396	19274
859.529	19190
859.662	19126
859.795	19137
859.928	19050
860.061	19365
860.194	19422
860.327	19168
860.46	19198
860.592	19320
860.725	19308
860.858	19164
860.99	19103
861.123	19141
861.256	19209
861.388	19183
861.521	19864
861.653	19061
861.786	19008
861.918	19107
862.05	19171
862.183	19133
862.315	19304
862.447	19434
862.58	19145
862.712	19034
862.844	18909
862.976	19042
863.108	18909
863.24	19251
863.372	18829
863.504	18939
863.636	18905
863.768	18920
863.9	18886
864.032	18810
864.164	18970
864.296	18977
864.428	18932
864.559	18875
864.691	18977
864.823	19012
864.954	18878
865.086	18909
865.217	18764
865.349	18726
865.48	18859
865.612	18833
865.743	18886
865.875	18715
866.006	18684
866.137	18837
866.269	18760
866.4	18798
866.531	18783
866.662	18646
866.793	18802
866.924	18882
867.055	18795
867.186	18650
867.317	18658
867.448	18616
867.579	18726
867.71	18722
867.841	18707
867.972	18757
868.103	18776
868.233	18776
868.364	18722
868.495	18825
868.625	19015
868.756	19031
868.886	18871
869.017	18943
869.147	19126
869.278	19110
869.408	19012
869.539	18935
869.669	19050
869.799	18985
869.929	19080
870.06	19080
870.19	19278
870.32	19274
870.45	19255
870.58	19392
870.71	19499
870.84	19441
870.97	19400
871.1	19266
871.23	19510
871.36	19590
871.489	19506
871.619	19487
871.749	19578
871.879	19575
872.008	19734
872.138	19548
872.267	19601
872.397	19422
872.526	19438
872.656	19350
872.785	19464
872.915	19548
873.044	19567
873.173	19578
873.303	19594
873.432	19658
873.561	19685
873.69	19632
873.819	19590
873.948	19677
874.077	19563
874.206	19525
874.335	19590
874.464	19704
874.593	19791
874.722	19769
874.851	19913
874.979	19875
875.108	19989
875.237	19883
875.365	19772
875.494	19826
875.623	19917
875.751	19860
875.88	19940
876.008	19871
876.136	20100
876.265	20275
876.393	20290
876.521	20263
876.65	20294
876.778	20202
876.906	20290
877.034	20210
877.162	20107
877.29	20259
877.418	20244
877.546	20290
877.674	20278
877.802	20263
877.93	20214
878.058	20267
878.185	20073
878.313	20339
878.441	20343
878.568	20115
878.696	20206
878.824	20229
878.951	20336
879.079	20552
879.206	20617
879.333	20454
879.461	20374
879.588	20533
879.715	20568
879.842	20667
879.97	20438
880.097	20324
880.224	20168
880.351	20172
880.478	20092
880.605	20020
880.732	20054
880.859	20415
880.986	20172
881.112	20103
881.239	20149
881.366	19852
881.493	19727
881.619	19746
881.746	19738
881.872	19708
881.999	19708
882.125	19677
882.252	19613
882.378	19666
882.505	19902
882.631	19700
882.757	19491
882.883	19571
883.01	19495
883.136	19510
883.262	19354
883.388	19324
883.514	19495
883.64	19495
883.766	19403
883.892	19236
884.018	19392
884.143	19594
884.269	19510
884.395	19335
884.52	19141
884.646	19179
884.772	19118
884.897	19129
885.023	19282
885.148	19206
885.274	19206
885.399	19240
885.524	19038
885.65	19152
885.775	19259
885.9	19084
886.025	19164
886.15	19084
886.275	19107
886.4	18916
886.525	19023
886.65	19080
886.775	19053
886.9	19312
887.025	19206
887.149	19171
887.274	18962
887.399	18848
887.523	18894
887.648	18837
887.773	18829
887.897	18943
888.021	18867
888.146	18764
888.27	18863
888.395	18996
888.519	18875
888.643	18920
888.767	18848
888.891	18795
889.015	18745
889.139	18707
889.263	18707
889.387	18688
889.511	18840
889.635	18844
889.759	18669
889.883	18578
890.006	18726
890.13	18681
890.254	18574
890.377	18597
890.501	18433
890.624	18372
890.748	18494
890.871	18483
890.995	18205
891.118	18190
891.241	18216
891.364	18266
891.488	18372
891.611	18273
891.734	18285
891.857	18289
891.98	18338
892.103	18350
892.226	18311
892.349	18258
892.471	18121
892.594	18258
892.717	18197
892.839	18098
892.962	18201
893.085	18228
893.207	18167
893.33	18053
893.452	18049
893.575	18228
893.697	18171
893.819	18357
893.941	18361
894.064	18361
894.186	18140
894.308	18140
894.43	18342
894.552	18456
894.674	18327
894.796	18102
894.918	18190
895.04	18270
895.161	18357
895.283	18365
895.405	18152
895.526	18136
895.648	18095
895.769	18235
895.891	18292
896.012	18334
896.134	18323
896.255	18300
896.376	18205
896.498	18361
896.619	18350
896.74	18304
896.861	18399
896.982	18669
897.103	18764
897.224	18589
897.345	18483
897.466	18437
897.587	18559
897.708	18582
897.828	18574
897.949	18517
898.07	18426
898.19	18498
898.311	18555
898.431	18547
898.552	18509
898.672	18525
898.792	18559
898.913	18429
899.033	18445
899.153	18376
899.273	18273
899.393	18334
899.513	18277
899.633	18228
899.753	18350
899.873	18197
899.993	18194
900.113	18220
900.232	18281
900.352	18163
900.472	18171
900.591	18049
900.711	18053
900.83	18034
900.95	18087
901.069	18129
901.189	18011
901.308	17843
901.427	17672
901.546	17828
901.665	17832
901.784	17775
901.904	17703
902.023	17474
902.141	17227
902.26	17155
902.379	17288
902.498	17250
902.617	17121
902.735	17261
902.854	17189
902.973	17174
903.091	16953
903.21	16995
903.328	16919
903.446	16812
903.565	16679
903.683	16706
903.801	16645
903.919	16668
904.038	16687
904.156	16462
904.274	16554
904.392	16603
904.51	16459
904.627	16535
904.745	16588
904.863	16508
904.981	16318
905.098	16158
905.216	16154
905.334	16169
905.451	16173
905.569	16032
905.686	16204
905.803	16116
905.921	15850
906.038	16048
906.155	16032
906.272	15892
906.389	15895
906.506	15709
906.623	15694
906.74	15576
906.857	15553
906.974	15648
907.091	15713
907.208	15751
907.324	15705
907.441	15557
907.557	15500
907.674	15412
907.79	15321
907.907	15363
908.023	15408
908.139	15389
908.256	15298
908.372	15291
908.488	15241
908.604	15043
908.72	15039
908.836	15146
908.952	15032
909.068	14986
909.184	15135
909.3	15077
909.415	15157
909.531	15085
909.647	14883
909.762	14861
909.878	14708
909.993	14872
910.108	14853
910.224	14792
910.339	14731
910.454	14739
910.57	14644
910.685	14602
910.8	14868
910.915	14727
911.03	14640
911.145	14499
911.259	14336
911.374	14408
911.489	14377
911.604	14214
911.718	14168
911.833	14180
911.947	14077
912.062	14027
912.176	14183
912.291	14214
912.405	14115
912.519	14267
912.633	14309
912.748	14142
912.862	14115
912.976	13925
913.09	13887
913.204	13947
913.318	13997
913.431	14062
913.545	14130
913.659	14134
913.772	13967
913.886	13811
914	13845
914.113	13917
914.226	13959
914.34	13803
914.453	13738
914.566	13944
914.68	13879
914.793	13807
914.906	13430
915.019	13487
915.132	13350
915.245	13464
915.358	13438
915.47	13460
915.583	13495
915.696	13529
915.809	13571
915.921	13578
916.034	13445
916.146	13445
916.259	13362
916.371	13403
916.483	13480
916.595	13335
916.708	13324
916.82	13278
916.932	13411
917.044	13335
917.156	13255
917.268	13225
917.38	13228
917.491	13129
917.603	13118
917.715	13297
917.826	13255
917.938	13133
918.049	13012
918.161	13175
918.272	13145
918.384	13335
918.495	13110
918.606	13027
918.717	12939
918.828	13046
918.939	13046
919.05	12829
919.161	12924
919.272	12730
919.383	12806
919.494	13019
919.604	13110
919.715	12928
919.826	12939
919.936	12878
920.047	13084
920.157	12935
920.267	13209
920.378	13008
920.488	12867
920.598	13057
920.708	13194
920.818	13080
920.928	12928
921.038	13225
921.148	13145
921.258	12833
921.368	12783
921.477	12696
921.587	12734
921.697	12684
921.806	12711
921.916	12566
922.025	12388
922.134	12422
922.244	12270
922.353	12403
922.462	12232
922.571	12243
922.68	12110
922.789	12022
922.898	12057
923.007	11920
923.116	12019
923.224	12007
923.333	11863
923.442	11851
923.55	11805
923.659	11802
923.767	11923
923.876	11733
923.984	11878
924.092	11779
924.201	11840
924.309	11805
924.417	11764
924.525	11783
924.633	11760
924.741	12662
924.849	11551
924.956	11600
925.064	11512
925.172	11421
925.279	11474
925.387	11505
925.494	11455
925.602	11592
925.709	11642
925.816	11391
925.924	11516
926.031	11600
926.138	11402
926.245	11535
926.352	11341
926.459	11554
926.566	11493
926.673	11452
926.779	11303
926.886	11307
926.993	11128
927.099	11025
927.206	11075
927.312	11094
927.419	11147
927.525	11132
927.631	11117
927.737	10934
927.843	10942
927.95	10919
928.056	10919
928.162	10995
928.267	11018
928.373	11592
928.479	11075
928.585	10805
928.69	10995
928.796	10892
928.901	10828
929.007	10698
929.112	10900
929.218	10740
929.323	10820
929.428	10729
929.533	10828
929.638	10752
929.743	10664
929.848	10698
929.953	10634
930.058	10603
930.163	10462
930.267	10432
930.372	10656
930.477	10432
930.581	10725
930.685	10489
930.79	10295
930.894	10348
930.998	10333
931.103	10478
931.207	10116
931.311	10044
931.415	9956
931.519	9766
931.623	9740
