Data from test_V78500241_2774.txt Node
Date: Fri Mar 25 14:53:01 CST 2022
User: usil
Spectrometer: V785-0024
Trigger mode: 0
Integration Time (sec): 4.000000E-1
Scans to average: 1
Nonlinearity correction enabled: false
Boxcar width: 0
Storing dark spectrum: false
XAxis mode: Wavelengths
Number of Pixels in Spectrum: 1024
>>>>>Begin Spectral Data<<<<<
801.071	22124
801.214	21907
801.356	21739
801.499	21580
801.641	21466
801.783	21443
801.926	21405
802.068	21454
802.211	21237
802.353	21184
802.496	21024
802.638	20876
802.78	20895
802.923	20746
803.065	20678
803.208	20621
803.35	20720
803.492	20788
803.635	20826
803.777	20697
803.919	20823
804.061	21116
804.204	20705
804.346	20773
804.488	20606
804.63	20785
804.773	20644
804.915	20602
805.057	20773
805.199	20674
805.341	20750
805.483	20849
805.626	20629
805.768	20568
805.91	20648
806.052	20746
806.194	20454
806.336	20739
806.478	20682
806.62	20602
806.762	20739
806.904	20963
807.046	21039
807.188	20906
807.33	20933
807.472	21017
807.614	20887
807.756	20838
807.898	20891
808.04	20674
808.182	20689
808.324	20765
808.465	20735
808.607	20952
808.749	20914
808.891	21043
809.033	21218
809.174	20982
809.316	20979
809.458	20990
809.6	20883
809.741	21043
809.883	21058
810.025	21119
810.166	21131
810.308	21142
810.45	21154
810.591	21001
810.733	20811
810.875	20788
811.016	20560
811.158	20724
811.299	20872
811.441	21093
811.582	20906
811.724	20727
811.865	20682
812.007	20769
812.148	20678
812.29	20826
812.431	20902
812.573	21043
812.714	21024
812.855	21249
812.997	21272
813.138	21568
813.279	21355
813.421	21264
813.562	21252
813.703	21089
813.845	20845
813.986	20594
814.127	20617
814.268	20358
814.41	20366
814.551	20389
814.692	20423
814.833	20122
814.974	20248
815.115	20355
815.256	20172
815.397	20206
815.539	20088
815.68	20142
815.821	20005
815.962	20073
816.103	20069
816.244	19978
816.385	19845
816.526	19712
816.666	19586
816.807	19457
816.948	19419
817.089	19537
817.23	19487
817.371	19457
817.512	19384
817.653	19419
817.793	19415
817.934	19388
818.075	19537
818.216	19441
818.356	19464
818.497	19236
818.638	19156
818.778	19171
818.919	19145
819.06	19179
819.2	19400
819.341	19285
819.481	19464
819.622	19396
819.762	19590
819.903	19556
820.043	19624
820.184	19449
820.324	19327
820.465	19449
820.605	19457
820.746	19468
820.886	19247
821.026	19392
821.167	19365
821.307	19506
821.447	19274
821.588	19346
821.728	19183
821.868	19008
822.008	18798
822.149	18993
822.289	18878
822.429	18650
822.569	18532
822.709	18460
822.849	18369
822.99	18304
823.13	18228
823.27	18281
823.41	18144
823.55	18003
823.69	18167
823.83	18148
823.97	18057
824.11	17912
824.25	17893
824.389	17809
824.529	17977
824.669	17912
824.809	18060
824.949	17950
825.089	17927
825.228	17840
825.368	17737
825.508	17562
825.648	17668
825.787	17745
825.927	17779
826.067	17680
826.206	17482
826.346	17627
826.485	17676
826.625	17661
826.765	17805
826.904	17718
827.044	17543
827.183	17395
827.323	17356
827.462	17505
827.601	17467
827.741	17288
827.88	17482
828.02	17303
828.159	17269
828.298	17402
828.437	17376
828.577	17269
828.716	17505
828.855	17341
828.994	17159
829.134	17064
829.273	17132
829.412	17052
829.551	17151
829.69	17098
829.829	17227
829.968	17147
830.107	17166
830.246	17045
830.385	17033
830.524	16987
830.663	16949
830.802	16915
830.941	16740
831.08	16687
831.219	16843
831.357	16740
831.496	16908
831.635	16698
831.774	16599
831.913	16626
832.051	16588
832.19	16538
832.329	16535
832.467	16497
832.606	16447
832.744	16440
832.883	16405
833.022	16398
833.16	16493
833.299	16421
833.437	16390
833.576	16413
833.714	16447
833.852	16523
833.991	16538
834.129	16645
834.267	16565
834.406	16550
834.544	16546
834.682	16428
834.821	16466
834.959	16603
835.097	16417
835.235	16573
835.373	16500
835.511	16580
835.65	16398
835.788	16322
835.926	16185
836.064	16226
836.202	16188
836.34	16451
836.478	16500
836.615	16310
836.753	16500
836.891	16470
837.029	16516
837.167	16314
837.305	16295
837.443	16215
837.58	16253
837.718	16287
837.856	16272
837.993	16261
838.131	16249
838.269	16246
838.406	16188
838.544	16162
838.681	15960
838.819	16074
838.956	15762
839.094	15842
839.231	15789
839.369	15987
839.506	16249
839.643	16124
839.781	15736
839.918	15827
840.055	15895
840.193	15854
840.33	15781
840.467	15854
840.604	15831
840.742	16097
840.879	15766
841.016	15720
841.153	15736
841.29	15930
841.427	15926
841.564	15861
841.701	15797
841.838	15812
841.975	15713
842.112	15698
842.249	15667
842.385	15660
842.522	15800
842.659	15671
842.796	15545
842.933	15686
843.069	15568
843.206	15454
843.343	15800
843.479	15736
843.616	15637
843.752	15378
843.889	15443
844.025	15572
844.162	15370
844.298	15458
844.435	15420
844.571	15283
844.708	15439
844.844	15553
844.98	15576
845.117	15523
845.253	15405
845.389	15283
845.525	15389
845.661	15367
845.798	15279
845.934	15249
846.07	15169
846.206	15306
846.342	15359
846.478	15230
846.614	15089
846.75	14899
846.886	15051
847.022	15066
847.158	14990
847.294	14986
847.429	15028
847.565	14925
847.701	15203
847.837	14773
847.972	14625
848.108	14838
848.244	14762
848.379	14602
848.515	14549
848.65	14602
848.786	14454
848.921	14537
849.057	14762
849.192	14644
849.328	14667
849.463	14648
849.598	14590
849.734	14495
849.869	14473
850.004	14450
850.14	14355
850.275	14317
850.41	14282
850.545	14294
850.68	14381
850.815	14271
850.95	14396
851.085	14526
851.22	14457
851.355	14412
851.49	14336
851.625	14309
851.76	14328
851.895	14271
852.03	14187
852.165	14263
852.299	14385
852.434	14370
852.569	14374
852.703	14313
852.838	14408
852.973	14473
853.107	14537
853.242	14275
853.376	14092
853.511	14119
853.645	14180
853.78	14259
853.914	14286
854.048	14134
854.183	14149
854.317	14214
854.451	14358
854.585	14199
854.72	14149
854.854	14214
854.988	14176
855.122	14267
855.256	13997
855.39	14214
855.524	14351
855.658	14294
855.792	14286
855.926	14271
856.06	14271
856.194	14317
856.327	14278
856.461	14138
856.595	14202
856.729	14153
856.862	14298
856.996	14320
857.13	14237
857.263	14278
857.397	14309
857.53	14240
857.664	14206
857.797	14278
857.931	14252
858.064	14161
858.197	14336
858.331	14172
858.464	14130
858.597	14058
858.731	14229
858.864	14180
858.997	14172
859.13	14305
859.263	14286
859.396	14309
859.529	14176
859.662	14153
859.795	14225
859.928	14142
860.061	14374
860.194	14317
860.327	14309
860.46	14168
860.592	14324
860.725	14271
860.858	14339
860.99	14221
861.123	14081
861.256	14111
861.388	14259
861.521	14864
861.653	14183
861.786	14065
861.918	14069
862.05	14001
862.183	14176
862.315	14164
862.447	14252
862.58	14168
862.712	13993
862.844	13871
862.976	14031
863.108	14054
863.24	14457
863.372	13932
863.504	13974
863.636	13849
863.768	13989
863.9	14050
864.032	13894
864.164	14016
864.296	14050
864.428	14119
864.559	14081
864.691	14081
864.823	14039
864.954	13944
865.086	13970
865.217	14027
865.349	13921
865.48	13932
865.612	14031
865.743	14050
865.875	13959
866.006	13841
866.137	13909
866.269	13887
866.4	13955
866.531	13894
866.662	14016
866.793	13940
866.924	13986
867.055	14039
867.186	13913
867.317	13989
867.448	13932
867.579	13925
867.71	13955
867.841	13986
867.972	14016
868.103	13913
868.233	13982
868.364	14005
868.495	14035
868.625	14233
868.756	14336
868.886	14123
869.017	14164
869.147	14309
869.278	14286
869.408	14191
869.539	14088
869.669	14233
869.799	14199
869.929	14400
870.06	14374
870.19	14537
870.32	14530
870.45	14545
870.58	14697
870.71	14636
870.84	14773
870.97	14564
871.1	14636
871.23	14826
871.36	14876
871.489	14693
871.619	14781
871.749	14933
871.879	14830
872.008	14933
872.138	14948
872.267	14743
872.397	14693
872.526	14663
872.656	14708
872.785	14743
872.915	14826
873.044	14895
873.173	14994
873.303	14830
873.432	14861
873.561	14849
873.69	14788
873.819	14880
873.948	15036
874.077	14857
874.206	14811
874.335	14800
874.464	15032
874.593	15146
874.722	15085
874.851	15230
874.979	15218
875.108	15283
875.237	15070
875.365	15108
875.494	15256
875.623	15222
875.751	15146
875.88	15188
876.008	15237
876.136	15450
876.265	15538
876.393	15663
876.521	15614
876.65	15648
876.778	15584
876.906	15595
877.034	15530
877.162	15553
877.29	15477
877.418	15618
877.546	15564
877.674	15675
877.802	15530
877.93	15622
878.058	15603
878.185	15450
878.313	15625
878.441	15625
878.568	15496
878.696	15538
878.824	15694
878.951	15690
879.079	15774
879.206	15895
879.333	15770
879.461	15656
879.588	15644
879.715	15808
879.842	15956
879.97	15629
880.097	15428
880.224	15397
880.351	15561
880.478	15488
880.605	15389
880.732	15401
880.859	15660
880.986	15580
881.112	15492
881.239	15450
881.366	15180
881.493	15116
881.619	15058
881.746	15085
881.872	15093
881.999	15077
882.125	15047
882.252	15241
882.378	15085
882.505	15268
882.631	15085
882.757	14826
882.883	14994
883.01	14948
883.136	14967
883.262	14716
883.388	14811
883.514	14925
883.64	15013
883.766	14864
883.892	14762
884.018	14701
884.143	14876
884.269	14914
884.395	14701
884.52	14560
884.646	14682
884.772	14522
884.897	14617
885.023	14670
885.148	14693
885.274	14735
885.399	14689
885.524	14674
885.65	14674
885.775	14712
885.9	14606
886.025	14735
886.15	14667
886.275	14629
886.4	14522
886.525	14655
886.65	14564
886.775	14579
886.9	14712
887.025	14845
887.149	14682
887.274	14545
887.399	14442
887.523	14450
887.648	14370
887.773	14362
887.897	14556
888.021	14564
888.146	14336
888.27	14598
888.395	14545
888.519	14457
888.643	14556
888.767	14648
888.891	14457
889.015	14275
889.139	14355
889.263	14263
889.387	14465
889.511	14499
889.635	14492
889.759	14381
889.883	14313
890.006	14347
890.13	14454
890.254	14218
890.377	14298
890.501	14138
890.624	14062
890.748	14191
890.871	14111
890.995	13993
891.118	13890
891.241	14008
891.364	13967
891.488	14168
891.611	14001
891.734	14062
891.857	14157
891.98	14058
892.103	14130
892.226	14115
892.349	14005
892.471	13890
892.594	13963
892.717	14107
892.839	14050
892.962	13978
893.085	14043
893.207	14043
893.33	13811
893.452	13978
893.575	14039
893.697	13997
893.819	14233
893.941	14233
894.064	14176
894.186	13967
894.308	14046
894.43	14123
894.552	14225
894.674	14233
894.796	14035
894.918	14161
895.04	14046
895.161	14062
895.283	14142
895.405	14062
895.526	14126
895.648	14100
895.769	14218
895.891	14237
896.012	14267
896.134	14301
896.255	14218
896.376	14100
896.498	14176
896.619	14252
896.74	14259
896.861	14294
896.982	14579
897.103	14625
897.224	14488
897.345	14427
897.466	14374
897.587	14488
897.708	14492
897.828	14457
897.949	14495
898.07	14389
898.19	14389
898.311	14564
898.431	14514
898.552	14602
898.672	14625
898.792	14705
898.913	14526
899.033	14537
899.153	14381
899.273	14385
899.393	14465
899.513	14408
899.633	14457
899.753	14404
899.873	14400
899.993	14484
900.113	14419
900.232	14385
900.352	14347
900.472	14324
900.591	14259
900.711	14237
900.83	14210
900.95	14290
901.069	14465
901.189	14149
901.308	14031
901.427	13875
901.546	14043
901.665	14008
901.784	13833
901.904	13845
902.023	13761
902.141	13544
902.26	13567
902.379	13712
902.498	13567
902.617	13460
902.735	13578
902.854	13438
902.973	13430
903.091	13289
903.21	13171
903.328	13312
903.446	13202
903.565	13061
903.683	13141
903.801	13057
903.919	13031
904.038	13114
904.156	12958
904.274	12970
904.392	12935
904.51	12833
904.627	12810
904.745	12894
904.863	12973
904.981	12662
905.098	12642
905.216	12719
905.334	12654
905.451	12642
905.569	12593
905.686	12589
905.803	12604
905.921	12437
906.038	12464
906.155	12372
906.272	12384
906.389	12273
906.506	12133
906.623	12220
906.74	12209
906.857	12125
906.974	12064
907.091	12186
907.208	12372
907.324	12205
907.441	12136
907.557	11923
907.674	11996
907.79	11923
907.907	11992
908.023	11942
908.139	11908
908.256	11980
908.372	11817
908.488	11859
908.604	11741
908.72	11649
908.836	11634
908.952	11688
909.068	11707
909.184	11794
909.3	11851
909.415	11802
909.531	11718
909.647	11532
909.762	11493
909.878	11406
909.993	11493
910.108	11387
910.224	11421
910.339	11490
910.454	11387
910.57	11334
910.685	11261
910.8	11573
910.915	11528
911.03	11364
911.145	11155
911.259	11170
911.374	11140
911.489	11037
911.604	11071
911.718	10946
911.833	10934
911.947	10904
912.062	10748
912.176	11025
912.291	10873
912.405	10889
912.519	11136
912.633	11151
912.748	10968
912.862	10908
912.976	10839
913.09	10733
913.204	10763
913.318	10831
913.431	10919
913.545	10919
913.659	10957
913.772	10820
913.886	10717
914	10679
914.113	10679
914.226	10782
914.34	10812
914.453	10687
914.566	10752
914.68	10641
914.793	10672
914.906	10394
915.019	10428
915.132	10310
915.245	10413
915.358	10424
915.47	10421
915.583	10455
915.696	10443
915.809	10596
915.921	10561
916.034	10386
916.146	10417
916.259	10386
916.371	10466
916.483	10470
916.595	10432
916.708	10398
916.82	10489
916.932	10363
917.044	10371
917.156	10325
917.268	10238
917.38	10295
917.491	10299
917.603	10352
917.715	10398
917.826	10352
917.938	10272
918.049	10131
918.161	10284
918.272	10314
918.384	10413
918.495	10314
918.606	10177
918.717	10059
918.828	10181
918.939	10128
919.05	10173
919.161	10109
919.272	9915
919.383	9994
919.494	10249
919.604	10409
919.715	10109
919.826	10078
919.936	10013
920.047	10303
920.157	10181
920.267	10394
920.378	10219
920.488	10154
920.598	10371
920.708	10500
920.818	10375
920.928	10356
921.038	10481
921.148	10481
921.258	10242
921.368	10150
921.477	10032
921.587	10006
921.697	9915
921.806	10025
921.916	9918
922.025	9747
922.134	9698
922.244	9633
922.353	9812
922.462	9629
922.571	9564
922.68	9466
922.789	9408
922.898	9469
923.007	9412
923.116	9485
923.224	9412
923.333	9416
923.442	9313
923.55	9294
923.659	9340
923.767	9393
923.876	9272
923.984	9355
924.092	9211
924.201	9359
924.309	9382
924.417	9222
924.525	9214
924.633	9272
924.741	10059
924.849	9043
924.956	9283
925.064	9070
925.172	8979
925.279	8994
925.387	9089
925.494	9074
925.602	9245
925.709	9176
925.816	9013
925.924	9043
926.031	9165
926.138	9089
926.245	9093
926.352	8975
926.459	9112
926.566	9226
926.673	9047
926.779	8952
926.886	8982
926.993	8830
927.099	8743
927.206	8823
927.312	8769
927.419	8807
927.525	8868
927.631	8823
927.737	8716
927.843	8731
927.95	8571
928.056	8705
928.162	8712
928.267	8838
928.373	9348
928.479	8769
928.585	8530
928.69	8640
928.796	8712
928.901	8587
929.007	8549
929.112	8670
929.218	8583
929.323	8579
929.428	8590
929.533	8636
929.638	8434
929.743	8511
929.848	8610
929.953	8526
930.058	8412
930.163	8252
930.267	8317
930.372	8434
930.477	8244
930.581	8530
930.685	8389
930.79	8195
930.894	8298
930.998	8240
931.103	8366
931.207	8062
931.311	7928
931.415	7978
931.519	7719
931.623	7792
