Data from test_V78500241_389.txt Node
Date: Fri Mar 25 14:36:25 CST 2022
User: usil
Spectrometer: V785-0024
Trigger mode: 0
Integration Time (sec): 4.000000E-1
Scans to average: 1
Nonlinearity correction enabled: false
Boxcar width: 0
Storing dark spectrum: false
XAxis mode: Wavelengths
Number of Pixels in Spectrum: 1024
>>>>>Begin Spectral Data<<<<<
801.071	26712
801.214	26549
801.356	26351
801.499	26374
801.641	26195
801.783	26100
801.926	26298
802.068	26122
802.211	26088
802.353	25864
802.496	25887
802.638	25811
802.78	25723
802.923	25738
803.065	25647
803.208	25586
803.35	25632
803.492	25826
803.635	25784
803.777	25753
803.919	25776
804.061	25947
804.204	25772
804.346	25632
804.488	25582
804.63	25677
804.773	25613
804.915	25635
805.057	25833
805.199	25548
805.341	25708
805.483	25704
805.626	25738
805.768	25537
805.91	25700
806.052	25613
806.194	25613
806.336	25871
806.478	25753
806.62	25708
806.762	25784
806.904	25970
807.046	26191
807.188	26077
807.33	26027
807.472	26046
807.614	25974
807.756	26035
807.898	25997
808.04	25860
808.182	25841
808.324	25970
808.465	25860
808.607	26119
808.749	26111
808.891	26507
809.033	26351
809.174	26362
809.316	26290
809.458	26176
809.6	25963
809.741	26187
809.883	26225
810.025	26492
810.166	26492
810.308	26320
810.45	26206
810.591	26343
810.733	26054
810.875	25955
811.016	25925
811.158	25879
811.299	26008
811.441	26202
811.582	26206
811.724	26168
811.865	26126
812.007	26065
812.148	26043
812.29	26024
812.431	26183
812.573	26358
812.714	26434
812.855	26381
812.997	26644
813.138	26750
813.279	26629
813.421	26537
813.562	26355
813.703	26355
813.845	26290
813.986	25959
814.127	25811
814.268	25757
814.41	25643
814.551	25628
814.692	25677
814.833	25502
814.974	25594
815.115	25632
815.256	25453
815.397	25324
815.539	25407
815.68	25377
815.821	25274
815.962	25426
816.103	25362
816.244	25171
816.385	25099
816.526	25019
816.666	24844
816.807	24753
816.948	24768
817.089	24897
817.23	24821
817.371	24692
817.512	24852
817.653	24661
817.793	24711
817.934	24749
818.075	24745
818.216	24688
818.356	24692
818.497	24536
818.638	24277
818.778	24441
818.919	24494
819.06	24433
819.2	24593
819.341	24623
819.481	24578
819.622	24795
819.762	25103
819.903	24954
820.043	24772
820.184	24700
820.324	24764
820.465	24871
820.605	24684
820.746	24544
820.886	24464
821.026	24730
821.167	24661
821.307	24726
821.447	24639
821.588	24486
821.728	24327
821.868	24117
822.008	23931
822.149	24038
822.289	23999
822.429	23832
822.569	23695
822.709	23703
822.849	23718
822.99	23543
823.13	23478
823.27	23516
823.41	23326
823.55	23204
823.69	23368
823.83	23318
823.97	23041
824.11	23044
824.25	23121
824.389	22961
824.529	23147
824.669	23052
824.809	23155
824.949	23117
825.089	23018
825.228	23105
825.368	22869
825.508	22919
825.648	22877
825.787	22934
825.927	22923
826.067	22687
826.206	22805
826.346	22866
826.485	22957
826.625	22892
826.765	22858
826.904	22774
827.044	22649
827.183	22538
827.323	22474
827.462	22561
827.601	22546
827.741	22455
827.88	22481
828.02	22428
828.159	22516
828.298	22523
828.437	22637
828.577	22405
828.716	22615
828.855	22478
828.994	22249
829.134	22230
829.273	22375
829.412	22223
829.551	22154
829.69	22238
829.829	22135
829.968	22246
830.107	22459
830.246	22181
830.385	22192
830.524	22101
830.663	22086
830.802	21915
830.941	21915
831.08	21709
831.219	21888
831.357	21785
831.496	22185
831.635	21770
831.774	21587
831.913	21656
832.051	21637
832.19	21629
832.329	21519
832.467	21633
832.606	21374
832.744	21397
832.883	21526
833.022	21283
833.16	21367
833.299	21469
833.437	21439
833.576	21431
833.714	21511
833.852	21477
833.991	21523
834.129	21439
834.267	21485
834.406	21519
834.544	21420
834.682	21515
834.821	21443
834.959	21526
835.097	21393
835.235	21416
835.373	21393
835.511	21397
835.65	21447
835.788	21214
835.926	21169
836.064	21131
836.202	21203
836.34	21439
836.478	21351
836.615	21283
836.753	21275
836.891	21298
837.029	21310
837.167	21222
837.305	21313
837.443	21157
837.58	21176
837.718	21211
837.856	21146
837.993	21013
838.131	21233
838.269	20861
838.406	21104
838.544	21036
838.681	20826
838.819	20815
838.956	20670
839.094	20632
839.231	20621
839.369	20800
839.506	21039
839.643	20792
839.781	20484
839.918	20476
840.055	20549
840.193	20617
840.33	20457
840.467	20518
840.604	20571
840.742	20705
840.879	20381
841.016	20381
841.153	20427
841.29	20556
841.427	20442
841.564	20541
841.701	20434
841.838	20385
841.975	20431
842.112	20476
842.249	20355
842.385	20233
842.522	20518
842.659	20290
842.796	20237
842.933	20145
843.069	20145
843.206	20244
843.343	20301
843.479	20187
843.616	20214
843.752	20016
843.889	20073
844.025	20130
844.162	20031
844.298	20157
844.435	19963
844.571	19936
844.708	19955
844.844	20103
844.98	20062
845.117	20088
845.253	19887
845.389	19913
845.525	19894
845.661	19849
845.798	19803
845.934	19795
846.07	19712
846.206	19871
846.342	19826
846.478	19696
846.614	19609
846.75	19426
846.886	19491
847.022	19529
847.158	19468
847.294	19510
847.429	19559
847.565	19487
847.701	19632
847.837	19190
847.972	19168
848.108	19282
848.244	19304
848.379	19015
848.515	19076
848.65	18996
848.786	19027
848.921	19069
849.057	19008
849.192	19152
849.328	19126
849.463	19000
849.598	18856
849.734	19015
849.869	18871
850.004	18806
850.14	18795
850.275	18856
850.41	18738
850.545	18829
850.68	18658
850.815	18692
850.95	18802
851.085	18863
851.22	18901
851.355	18753
851.49	18768
851.625	18673
851.76	18681
851.895	18570
852.03	18612
852.165	18798
852.299	18749
852.434	18825
852.569	18722
852.703	18783
852.838	18829
852.973	18852
853.107	18787
853.242	18730
853.376	18604
853.511	18513
853.645	18620
853.78	18604
853.914	18620
854.048	18555
854.183	18460
854.317	18604
854.451	18684
854.585	18517
854.72	18513
854.854	18528
854.988	18490
855.122	18445
855.256	18445
855.39	18471
855.524	18536
855.658	18684
855.792	18566
855.926	18490
856.06	18597
856.194	18700
856.327	18494
856.461	18509
856.595	18608
856.729	18494
856.862	18654
856.996	18589
857.13	18494
857.263	18696
857.397	18627
857.53	18608
857.664	18616
857.797	18639
857.931	18612
858.064	18646
858.197	18601
858.331	18372
858.464	18407
858.597	18350
858.731	18521
858.864	18498
858.997	18502
859.13	18540
859.263	18582
859.396	18608
859.529	18555
859.662	18414
859.795	18437
859.928	18479
860.061	18654
860.194	18684
860.327	18585
860.46	18490
860.592	18532
860.725	18642
860.858	18620
860.99	18498
861.123	18471
861.256	18445
861.388	18391
861.521	19263
861.653	18353
861.786	18296
861.918	18292
862.05	18475
862.183	18460
862.315	18517
862.447	18639
862.58	18384
862.712	18289
862.844	18228
862.976	18281
863.108	18346
863.24	18597
863.372	18213
863.504	18338
863.636	18235
863.768	18216
863.9	18152
864.032	18186
864.164	18228
864.296	18213
864.428	18308
864.559	18308
864.691	18239
864.823	18369
864.954	18155
865.086	18114
865.217	18121
865.349	18133
865.48	18121
865.612	18281
865.743	18178
865.875	18235
866.006	17992
866.137	18163
866.269	18155
866.4	18079
866.531	18007
866.662	18064
866.793	18087
866.924	17961
867.055	18114
867.186	18049
867.317	18038
867.448	18053
867.579	18079
867.71	17999
867.841	17969
867.972	18129
868.103	18083
868.233	18060
868.364	18068
868.495	18171
868.625	18372
868.756	18475
868.886	18300
869.017	18319
869.147	18471
869.278	18513
869.408	18342
869.539	18220
869.669	18338
869.799	18273
869.929	18437
870.06	18365
870.19	18627
870.32	18566
870.45	18597
870.58	18715
870.71	18817
870.84	18802
870.97	18753
871.1	18658
871.23	18833
871.36	18814
871.489	18779
871.619	18817
871.749	18871
871.879	19050
872.008	18970
872.138	18924
872.267	18939
872.397	18681
872.526	18840
872.656	18707
872.785	18753
872.915	18989
873.044	18966
873.173	18973
873.303	18909
873.432	19000
873.561	19042
873.69	19038
873.819	18859
873.948	19027
874.077	18943
874.206	18996
874.335	18958
874.464	19069
874.593	19187
874.722	19187
874.851	19171
874.979	19259
875.108	19304
875.237	19168
875.365	19148
875.494	19129
875.623	19358
875.751	19095
875.88	19232
876.008	19362
876.136	19430
876.265	19487
876.393	19757
876.521	19658
876.65	19727
876.778	19719
876.906	19609
877.034	19594
877.162	19685
877.29	19571
877.418	19651
877.546	19575
877.674	19655
877.802	19674
877.93	19525
878.058	19594
878.185	19597
878.313	19666
878.441	19552
878.568	19407
878.696	19487
878.824	19590
878.951	19712
879.079	19738
879.206	19902
879.333	19822
879.461	19757
879.588	19807
879.715	19887
879.842	19833
879.97	19674
880.097	19457
880.224	19419
880.351	19529
880.478	19472
880.605	19392
880.732	19476
880.859	19708
880.986	19430
881.112	19510
881.239	19362
881.366	19213
881.493	19168
881.619	19095
881.746	19171
881.872	19076
881.999	19012
882.125	19034
882.252	19137
882.378	19164
882.505	19206
882.631	18977
882.757	18859
882.883	18939
883.01	18833
883.136	18894
883.262	18768
883.388	18620
883.514	18878
883.64	18798
883.766	18688
883.892	18612
884.018	18776
884.143	18821
884.269	18821
884.395	18574
884.52	18528
884.646	18525
884.772	18384
884.897	18448
885.023	18498
885.148	18574
885.274	18631
885.399	18547
885.524	18582
885.65	18551
885.775	18623
885.9	18593
886.025	18631
886.15	18578
886.275	18407
886.4	18319
886.525	18414
886.65	18384
886.775	18372
886.9	18563
887.025	18593
887.149	18544
887.274	18323
887.399	18342
887.523	18372
887.648	18190
887.773	18194
887.897	18258
888.021	18315
888.146	18114
888.27	18380
888.395	18433
888.519	18258
888.643	18235
888.767	18289
888.891	18163
889.015	18003
889.139	18136
889.263	18087
889.387	18174
889.511	18319
889.635	18174
889.759	17969
889.883	17961
890.006	18129
890.13	18171
890.254	18011
890.377	17980
890.501	17775
890.624	17916
890.748	17946
890.871	17798
890.995	17718
891.118	17630
891.241	17726
891.364	17646
891.488	17809
891.611	17653
891.734	17718
891.857	17718
891.98	17687
892.103	17767
892.226	17676
892.349	17672
892.471	17459
892.594	17619
892.717	17573
892.839	17619
892.962	17657
893.085	17608
893.207	17672
893.33	17573
893.452	17516
893.575	17703
893.697	17532
893.819	17836
893.941	17802
894.064	17813
894.186	17573
894.308	17554
894.43	17585
894.552	17809
894.674	17771
894.796	17577
894.918	17642
895.04	17691
895.161	17783
895.283	17596
895.405	17627
895.526	17665
895.648	17668
895.769	17809
895.891	17680
896.012	17767
896.134	17741
896.255	17805
896.376	17707
896.498	17737
896.619	17882
896.74	17824
896.861	17859
896.982	18060
897.103	18258
897.224	17954
897.345	17988
897.466	17897
897.587	17916
897.708	18102
897.828	17977
897.949	17863
898.07	17859
898.19	17805
898.311	18102
898.431	17828
898.552	18114
898.672	17939
898.792	17988
898.913	17996
899.033	17764
899.153	17790
899.273	17634
899.393	17767
899.513	17767
899.633	17638
899.753	17756
899.873	17649
899.993	17737
900.113	17627
900.232	17707
900.352	17665
900.472	17653
900.591	17516
900.711	17554
900.83	17497
900.95	17547
901.069	17649
901.189	17436
901.308	17227
901.427	17265
901.546	17258
901.665	17269
901.784	17166
901.904	17060
902.023	16923
902.141	16793
902.26	16763
902.379	16793
902.498	16717
902.617	16630
902.735	16645
902.854	16683
902.973	16565
903.091	16436
903.21	16272
903.328	16421
903.446	16287
903.565	16169
903.683	16295
903.801	16249
903.919	16268
904.038	16230
904.156	16017
904.274	16071
904.392	15987
904.51	15975
904.627	15945
904.745	16025
904.863	15975
904.981	15835
905.098	15591
905.216	15732
905.334	15622
905.451	15675
905.569	15641
905.686	15701
905.803	15625
905.921	15504
906.038	15561
906.155	15526
906.272	15416
906.389	15450
906.506	15287
906.623	15298
906.74	15203
906.857	15024
906.974	15058
907.091	15237
907.208	15218
907.324	15291
907.441	15169
907.557	14963
907.674	14921
907.79	14792
907.907	14899
908.023	14902
908.139	14872
908.256	14819
908.372	14864
908.488	14815
908.604	14667
908.72	14571
908.836	14651
908.952	14518
909.068	14625
909.184	14762
909.3	14659
909.415	14705
909.531	14518
909.647	14374
909.762	14343
909.878	14294
909.993	14374
910.108	14275
910.224	14206
910.339	14374
910.454	14199
910.57	14149
910.685	14157
910.8	14366
910.915	14320
911.03	14084
911.145	14005
911.259	14039
911.374	13871
911.489	13845
911.604	13883
911.718	13769
911.833	13727
911.947	13578
912.062	13521
912.176	13677
912.291	13647
912.405	13685
912.519	13826
912.633	13902
912.748	13746
912.862	13658
912.976	13540
913.09	13422
913.204	13483
913.318	13476
913.431	13662
913.545	13540
913.659	13597
913.772	13529
913.886	13434
914	13384
914.113	13449
914.226	13472
914.34	13438
914.453	13240
914.566	13499
914.68	13251
914.793	13373
914.906	13171
915.019	13057
915.132	12947
915.245	13057
915.358	13023
915.47	13046
915.583	13034
915.696	13076
915.809	13259
915.921	13152
916.034	13019
916.146	12905
916.259	12901
916.371	12989
916.483	13031
916.595	12932
916.708	12951
916.82	12928
916.932	12825
917.044	12958
917.156	12901
917.268	12798
917.38	12764
917.491	12776
917.603	12798
917.715	12882
917.826	12848
917.938	12715
918.049	12620
918.161	12692
918.272	12913
918.384	12814
918.495	12760
918.606	12574
918.717	12627
918.828	12631
918.939	12555
919.05	12498
919.161	12486
919.272	12384
919.383	12410
919.494	12555
919.604	12787
919.715	12604
919.826	12467
919.936	12452
920.047	12665
920.157	12479
920.267	12730
920.378	12563
920.488	12604
920.598	12707
920.708	12863
920.818	12658
920.928	12715
921.038	12776
921.148	12859
921.258	12585
921.368	12509
921.477	12327
921.587	12346
921.697	12289
921.806	12353
921.916	12163
922.025	12106
922.134	12030
922.244	11927
922.353	12060
922.462	11863
922.571	11882
922.68	11665
922.789	11630
922.898	11653
923.007	11551
923.116	11752
923.224	11630
923.333	11684
923.442	11452
923.55	11497
923.659	11570
923.767	11634
923.876	11532
923.984	11577
924.092	11406
924.201	11497
924.309	11444
924.417	11535
924.525	11353
924.633	11414
924.741	12281
924.849	11193
924.956	11341
925.064	11223
925.172	11185
925.279	11155
925.387	11258
925.494	11269
925.602	11349
925.709	11261
925.816	11159
925.924	11227
926.031	11250
926.138	11178
926.245	11269
926.352	11086
926.459	11318
926.566	11216
926.673	11090
926.779	11029
926.886	11037
926.993	10831
927.099	10850
927.206	10805
927.312	10706
927.419	10923
927.525	10828
927.631	10885
927.737	10793
927.843	10767
927.95	10626
928.056	10687
928.162	10725
928.267	10736
928.373	11341
928.479	10706
928.585	10550
928.69	10729
928.796	10618
928.901	10580
929.007	10348
929.112	10538
929.218	10459
929.323	10398
929.428	10413
929.533	10641
929.638	10314
929.743	10421
929.848	10466
929.953	10440
930.058	10303
930.163	10181
930.267	10196
930.372	10325
930.477	10147
930.581	10424
930.685	10242
930.79	10082
930.894	10139
930.998	10032
931.103	10238
931.207	9892
931.311	9751
931.415	9686
931.519	9443
931.623	9481
