Data from test_V78500241_2199.txt Node
Date: Fri Mar 25 14:49:01 CST 2022
User: usil
Spectrometer: V785-0024
Trigger mode: 0
Integration Time (sec): 4.000000E-1
Scans to average: 1
Nonlinearity correction enabled: false
Boxcar width: 0
Storing dark spectrum: false
XAxis mode: Wavelengths
Number of Pixels in Spectrum: 1024
>>>>>Begin Spectral Data<<<<<
801.071	22093
801.214	21987
801.356	21785
801.499	21781
801.641	21572
801.783	21473
801.926	21408
802.068	21462
802.211	21496
802.353	21306
802.496	21131
802.638	21024
802.78	20937
802.923	20891
803.065	20807
803.208	20754
803.35	20804
803.492	20963
803.635	20880
803.777	20880
803.919	20986
804.061	21150
804.204	20952
804.346	20800
804.488	20781
804.63	20883
804.773	20674
804.915	20853
805.057	20952
805.199	20842
805.341	20830
805.483	20880
805.626	20918
805.768	20807
805.91	20788
806.052	20701
806.194	20659
806.336	20944
806.478	20788
806.62	20689
806.762	20944
806.904	21123
807.046	21112
807.188	21211
807.33	21081
807.472	21142
807.614	21142
807.756	21081
807.898	20910
808.04	20815
808.182	20811
808.324	20887
808.465	20918
808.607	20967
808.749	21264
808.891	21252
809.033	21389
809.174	21245
809.316	21157
809.458	21195
809.6	21138
809.741	21252
809.883	21283
810.025	21420
810.166	21317
810.308	21272
810.45	21378
810.591	21291
810.733	21180
810.875	21001
811.016	20830
811.158	20796
811.299	20982
811.441	20948
811.582	20944
811.724	20906
811.865	20902
812.007	20914
812.148	20891
812.29	20895
812.431	21123
812.573	21135
812.714	21279
812.855	21393
812.997	21606
813.138	21545
813.279	21545
813.421	21523
813.562	21329
813.703	21161
813.845	21062
813.986	20807
814.127	20720
814.268	20552
814.41	20564
814.551	20503
814.692	20598
814.833	20362
814.974	20317
815.115	20549
815.256	20446
815.397	20328
815.539	20263
815.68	20301
815.821	20149
815.962	20229
816.103	20202
816.244	20020
816.385	19928
816.526	19974
816.666	19799
816.807	19533
816.948	19651
817.089	19742
817.23	19704
817.371	19750
817.512	19575
817.653	19628
817.793	19495
817.934	19601
818.075	19620
818.216	19559
818.356	19594
818.497	19472
818.638	19247
818.778	19266
818.919	19304
819.06	19274
819.2	19324
819.341	19430
819.481	19563
819.622	19655
819.762	19784
819.903	19788
820.043	19658
820.184	19681
820.324	19533
820.465	19658
820.605	19594
820.746	19582
820.886	19384
821.026	19540
821.167	19586
821.307	19651
821.447	19533
821.588	19381
821.728	19304
821.868	19179
822.008	19069
822.149	19076
822.289	18939
822.429	18722
822.569	18616
822.709	18658
822.849	18483
822.99	18426
823.13	18517
823.27	18452
823.41	18232
823.55	18281
823.69	18315
823.83	18308
823.97	18258
824.11	18076
824.25	17980
824.389	18079
824.529	18125
824.669	18007
824.809	18152
824.949	18091
825.089	18110
825.228	18041
825.368	17912
825.508	17828
825.648	17893
825.787	17920
825.927	17958
826.067	17817
826.206	17798
826.346	17790
826.485	17840
826.625	17710
826.765	17832
826.904	17863
827.044	17611
827.183	17543
827.323	17577
827.462	17665
827.601	17543
827.741	17657
827.88	17532
828.02	17337
828.159	17471
828.298	17562
828.437	17501
828.577	17547
828.716	17638
828.855	17493
828.994	17254
829.134	17318
829.273	17368
829.412	17155
829.551	17109
829.69	17254
829.829	17311
829.968	17368
830.107	17345
830.246	17315
830.385	17258
830.524	17239
830.663	17155
830.802	17094
830.941	16885
831.08	16949
831.219	16892
831.357	16987
831.496	17113
831.635	16889
831.774	16869
831.913	16774
832.051	16694
832.19	16694
832.329	16752
832.467	16618
832.606	16535
832.744	16577
832.883	16504
833.022	16577
833.16	16584
833.299	16698
833.437	16512
833.576	16698
833.714	16565
833.852	16588
833.991	16683
834.129	16774
834.267	16656
834.406	16649
834.544	16641
834.682	16577
834.821	16599
834.959	16820
835.097	16485
835.235	16694
835.373	16645
835.511	16706
835.65	16554
835.788	16516
835.926	16344
836.064	16360
836.202	16363
836.34	16558
836.478	16679
836.615	16432
836.753	16569
836.891	16630
837.029	16626
837.167	16398
837.305	16386
837.443	16348
837.58	16371
837.718	16470
837.856	16398
837.993	16341
838.131	16390
838.269	16352
838.406	16424
838.544	16325
838.681	16036
838.819	16067
838.956	15873
839.094	15972
839.231	16032
839.369	15994
839.506	16497
839.643	16234
839.781	15930
839.918	15911
840.055	16002
840.193	15960
840.33	15934
840.467	15937
840.604	15953
840.742	16219
840.879	15835
841.016	15774
841.153	15797
841.29	16082
841.427	15892
841.564	16013
841.701	15975
841.838	15941
841.975	15762
842.112	15770
842.249	15720
842.385	15720
842.522	15861
842.659	15732
842.796	15686
842.933	15698
843.069	15644
843.206	15660
843.343	15789
843.479	15766
843.616	15641
843.752	15530
843.889	15469
844.025	15660
844.162	15526
844.298	15660
844.435	15595
844.571	15412
844.708	15534
844.844	15614
844.98	15736
845.117	15538
845.253	15397
845.389	15351
845.525	15351
845.661	15492
845.798	15268
845.934	15359
846.07	15374
846.206	15363
846.342	15382
846.478	15184
846.614	15089
846.75	14975
846.886	15017
847.022	15146
847.158	15024
847.294	15138
847.429	15119
847.565	15116
847.701	15195
847.837	14819
847.972	14777
848.108	14941
848.244	14842
848.379	14640
848.515	14701
848.65	14689
848.786	14743
848.921	14659
849.057	14830
849.192	14800
849.328	14629
849.463	14648
849.598	14663
849.734	14583
849.869	14610
850.004	14549
850.14	14579
850.275	14518
850.41	14393
850.545	14343
850.68	14438
850.815	14450
850.95	14442
851.085	14621
851.22	14598
851.355	14454
851.49	14476
851.625	14381
851.76	14427
851.895	14347
852.03	14370
852.165	14423
852.299	14537
852.434	14511
852.569	14488
852.703	14385
852.838	14518
852.973	14663
853.107	14556
853.242	14423
853.376	14298
853.511	14225
853.645	14275
853.78	14427
853.914	14393
854.048	14267
854.183	14199
854.317	14305
854.451	14473
854.585	14214
854.72	14294
854.854	14309
854.988	14130
855.122	14282
855.256	14096
855.39	14339
855.524	14419
855.658	14336
855.792	14374
855.926	14358
856.06	14419
856.194	14415
856.327	14450
856.461	14339
856.595	14286
856.729	14339
856.862	14358
856.996	14309
857.13	14465
857.263	14393
857.397	14320
857.53	14237
857.664	14320
857.797	14351
857.931	14511
858.064	14385
858.197	14442
858.331	14324
858.464	14168
858.597	14138
858.731	14309
858.864	14301
858.997	14278
859.13	14233
859.263	14355
859.396	14400
859.529	14320
859.662	14210
859.795	14282
859.928	14263
860.061	14454
860.194	14560
860.327	14351
860.46	14294
860.592	14450
860.725	14465
860.858	14518
860.99	14328
861.123	14214
861.256	14195
861.388	14351
861.521	14872
861.653	14130
861.786	14145
861.918	14115
862.05	14275
862.183	14214
862.315	14339
862.447	14313
862.58	14237
862.712	14069
862.844	14069
862.976	14199
863.108	14088
863.24	14385
863.372	14035
863.504	13959
863.636	14103
863.768	14164
863.9	14153
864.032	13997
864.164	14058
864.296	14107
864.428	14161
864.559	14164
864.691	14187
864.823	14225
864.954	14130
865.086	14286
865.217	14103
865.349	14001
865.48	14145
865.612	14035
865.743	14202
865.875	14005
866.006	14031
866.137	14035
866.269	14092
866.4	14020
866.531	14100
866.662	14005
866.793	13970
866.924	14050
867.055	14065
867.186	14130
867.317	13982
867.448	13936
867.579	13982
867.71	14062
867.841	14107
867.972	14035
868.103	14016
868.233	13970
868.364	14081
868.495	14123
868.625	14199
868.756	14381
868.886	14271
869.017	14419
869.147	14358
869.278	14419
869.408	14278
869.539	14377
869.669	14484
869.799	14355
869.929	14438
870.06	14492
870.19	14716
870.32	14552
870.45	14686
870.58	14682
870.71	14788
870.84	14849
870.97	14724
871.1	14758
871.23	14899
871.36	14842
871.489	14804
871.619	14750
871.749	14906
871.879	14975
872.008	15081
872.138	15013
872.267	14906
872.397	14811
872.526	14769
872.656	14754
872.785	14686
872.915	14906
873.044	15104
873.173	15036
873.303	14906
873.432	14994
873.561	15123
873.69	15036
873.819	15036
873.948	15039
874.077	14845
874.206	14979
874.335	15039
874.464	15066
874.593	15272
874.722	15279
874.851	15393
874.979	15252
875.108	15287
875.237	15169
875.365	15298
875.494	15252
875.623	15386
875.751	15245
875.88	15336
876.008	15435
876.136	15473
876.265	15644
876.393	15804
876.521	15778
876.65	15751
876.778	15660
876.906	15660
877.034	15656
877.162	15652
877.29	15629
877.418	15747
877.546	15785
877.674	15709
877.802	15751
877.93	15610
878.058	15584
878.185	15580
878.313	15576
878.441	15728
878.568	15454
878.696	15500
878.824	15652
878.951	15770
879.079	15823
879.206	15899
879.333	15770
879.461	15755
879.588	15747
879.715	15854
879.842	15987
879.97	15766
880.097	15652
880.224	15431
880.351	15530
880.478	15511
880.605	15492
880.732	15435
880.859	15766
880.986	15610
881.112	15614
881.239	15393
881.366	15313
881.493	15332
881.619	15199
881.746	15230
881.872	15226
881.999	15180
882.125	15157
882.252	15268
882.378	15351
882.505	15435
882.631	15211
882.757	15005
882.883	15077
883.01	15055
883.136	14948
883.262	14906
883.388	14838
883.514	15055
883.64	15032
883.766	15032
883.892	14720
884.018	14857
884.143	15070
884.269	15062
884.395	14727
884.52	14644
884.646	14724
884.772	14693
884.897	14621
885.023	14762
885.148	14785
885.274	14944
885.399	14750
885.524	14735
885.65	14701
885.775	14724
885.9	14765
886.025	14864
886.15	14769
886.275	14659
886.4	14621
886.525	14625
886.65	14682
886.775	14689
886.9	14800
887.025	14883
887.149	14765
887.274	14476
887.399	14530
887.523	14522
887.648	14473
887.773	14476
887.897	14632
888.021	14610
888.146	14651
888.27	14610
888.395	14568
888.519	14644
888.643	14579
888.767	14655
888.891	14530
889.015	14305
889.139	14366
889.263	14495
889.387	14556
889.511	14640
889.635	14571
889.759	14347
889.883	14404
890.006	14412
890.13	14484
890.254	14450
890.377	14419
890.501	14282
890.624	14153
890.748	14332
890.871	14195
890.995	14008
891.118	14024
891.241	14191
891.364	14107
891.488	14259
891.611	14058
891.734	14088
891.857	14229
891.98	14161
892.103	14191
892.226	14164
892.349	14123
892.471	13936
892.594	14058
892.717	14107
892.839	14161
892.962	14073
893.085	14199
893.207	14123
893.33	14050
893.452	14020
893.575	14084
893.697	14153
893.819	14294
893.941	14218
894.064	14286
894.186	14119
894.308	14012
894.43	14244
894.552	14332
894.674	14187
894.796	14161
894.918	14210
895.04	14191
895.161	14191
895.283	14218
895.405	14164
895.526	14191
895.648	14206
895.769	14252
895.891	14290
896.012	14275
896.134	14389
896.255	14218
896.376	14244
896.498	14229
896.619	14317
896.74	14275
896.861	14347
896.982	14579
897.103	14674
897.224	14587
897.345	14552
897.466	14476
897.587	14514
897.708	14705
897.828	14594
897.949	14457
898.07	14423
898.19	14473
898.311	14629
898.431	14533
898.552	14617
898.672	14758
898.792	14727
898.913	14621
899.033	14590
899.153	14499
899.273	14526
899.393	14560
899.513	14503
899.633	14495
899.753	14526
899.873	14511
899.993	14564
900.113	14476
900.232	14571
900.352	14438
900.472	14336
900.591	14294
900.711	14336
900.83	14320
900.95	14438
901.069	14450
901.189	14347
901.308	14157
901.427	14020
901.546	14020
901.665	13993
901.784	14062
901.904	13989
902.023	13856
902.141	13613
902.26	13628
902.379	13677
902.498	13578
902.617	13559
902.735	13597
902.854	13639
902.973	13529
903.091	13381
903.21	13403
903.328	13285
903.446	13293
903.565	13122
903.683	13103
903.801	13118
903.919	13266
904.038	13289
904.156	13023
904.274	13107
904.392	12981
904.51	13012
904.627	12935
904.745	13126
904.863	13042
904.981	12772
905.098	12665
905.216	12700
905.334	12681
905.451	12707
905.569	12616
905.686	12726
905.803	12662
905.921	12532
906.038	12597
906.155	12460
906.272	12391
906.389	12334
906.506	12330
906.623	12311
906.74	12262
906.857	12106
906.974	12266
907.091	12315
907.208	12467
907.324	12308
907.441	12232
907.557	12022
907.674	11977
907.79	11988
907.907	11923
908.023	12072
908.139	11984
908.256	12072
908.372	11863
908.488	11927
908.604	11779
908.72	11794
908.836	11714
908.952	11878
909.068	11828
909.184	11942
909.3	11756
909.415	11836
909.531	11726
909.647	11608
909.762	11516
909.878	11566
909.993	11611
910.108	11482
910.224	11463
910.339	11539
910.454	11429
910.57	11364
910.685	11387
910.8	11604
910.915	11562
911.03	11417
911.145	11181
911.259	11143
911.374	11254
911.489	11140
911.604	11204
911.718	10938
911.833	10995
911.947	10904
912.062	10824
912.176	10968
912.291	11056
912.405	10991
912.519	11189
912.633	11231
912.748	11162
912.862	11022
912.976	10896
913.09	10824
913.204	10858
913.318	10839
913.431	11022
913.545	10896
913.659	11010
913.772	10904
913.886	10790
914	10691
914.113	10896
914.226	10919
914.34	10843
914.453	10637
914.566	10854
914.68	10763
914.793	10679
914.906	10611
915.019	10455
915.132	10459
915.245	10481
915.358	10531
915.47	10554
915.583	10474
915.696	10626
915.809	10664
915.921	10698
916.034	10424
916.146	10535
916.259	10455
916.371	10558
916.483	10478
916.595	10375
916.708	10375
916.82	10470
916.932	10508
917.044	10409
917.156	10371
917.268	10344
917.38	10344
917.491	10246
917.603	10314
917.715	10436
917.826	10428
917.938	10356
918.049	10185
918.161	10310
918.272	10508
918.384	10417
918.495	10424
918.606	10109
918.717	10223
918.828	10188
918.939	10246
919.05	10078
919.161	10196
919.272	10048
919.383	10090
919.494	10325
919.604	10451
919.715	10287
919.826	10139
919.936	10188
920.047	10318
920.157	10230
920.267	10519
920.378	10223
920.488	10211
920.598	10424
920.708	10531
920.818	10360
920.928	10405
921.038	10584
921.148	10504
921.258	10242
921.368	10185
921.477	10074
921.587	10090
921.697	9960
921.806	10147
921.916	10025
922.025	9770
922.134	9865
922.244	9701
922.353	9838
922.462	9709
922.571	9629
922.68	9428
922.789	9473
922.898	9473
923.007	9405
923.116	9526
923.224	9450
923.333	9504
923.442	9317
923.55	9306
923.659	9264
923.767	9492
923.876	9348
923.984	9412
924.092	9340
924.201	9393
924.309	9298
924.417	9317
924.525	9306
924.633	9367
924.741	10344
924.849	9127
924.956	9272
925.064	9146
925.172	9013
925.279	9131
925.387	9169
925.494	9173
925.602	9291
925.709	9268
925.816	9089
925.924	9074
926.031	9203
926.138	9203
926.245	9207
926.352	9066
926.459	9211
926.566	9245
926.673	9138
926.779	9024
926.886	9024
926.993	8899
927.099	8830
927.206	8842
927.312	8777
927.419	8876
927.525	8823
927.631	8872
927.737	8708
927.843	8644
927.95	8644
928.056	8682
928.162	8762
928.267	8804
928.373	9496
928.479	8864
928.585	8583
928.69	8651
928.796	8788
928.901	8651
929.007	8495
929.112	8594
929.218	8587
929.323	8602
929.428	8583
929.533	8727
929.638	8507
929.743	8575
929.848	8625
929.953	8571
930.058	8431
930.163	8400
930.267	8355
930.372	8446
930.477	8332
930.581	8556
930.685	8358
930.79	8377
930.894	8377
930.998	8282
931.103	8412
931.207	8088
931.311	8046
931.415	8008
931.519	7765
931.623	7742
