Data from test_V78500241_1989.txt Node
Date: Fri Mar 25 14:47:33 CST 2022
User: usil
Spectrometer: V785-0024
Trigger mode: 0
Integration Time (sec): 4.000000E-1
Scans to average: 1
Nonlinearity correction enabled: false
Boxcar width: 0
Storing dark spectrum: false
XAxis mode: Wavelengths
Number of Pixels in Spectrum: 1024
>>>>>Begin Spectral Data<<<<<
801.071	22067
801.214	21956
801.356	21739
801.499	21652
801.641	21553
801.783	21340
801.926	21519
802.068	21344
802.211	21355
802.353	21313
802.496	21138
802.638	21001
802.78	20887
802.923	20845
803.065	20792
803.208	20758
803.35	20735
803.492	20807
803.635	20975
803.777	20815
803.919	20910
804.061	21237
804.204	20842
804.346	20773
804.488	20724
804.63	20735
804.773	20644
804.915	20716
805.057	20887
805.199	20602
805.341	20842
805.483	20804
805.626	20902
805.768	20651
805.91	20716
806.052	20743
806.194	20762
806.336	20883
806.478	20678
806.62	20644
806.762	20754
806.904	21009
807.046	21154
807.188	21093
807.33	20979
807.472	21093
807.614	20902
807.756	20971
807.898	20929
808.04	20655
808.182	20823
808.324	20746
808.465	20819
808.607	20998
808.749	21036
808.891	21135
809.033	21313
809.174	21009
809.316	21024
809.458	21039
809.6	21001
809.741	21138
809.883	21104
810.025	21211
810.166	21287
810.308	21256
810.45	21249
810.591	21062
810.733	20910
810.875	20895
811.016	20834
811.158	20743
811.299	20811
811.441	21119
811.582	21017
811.724	20914
811.865	20883
812.007	20937
812.148	20754
812.29	20925
812.431	20986
812.573	21249
812.714	21233
812.855	21313
812.997	21408
813.138	21599
813.279	21530
813.421	21408
813.562	21306
813.703	21047
813.845	20933
813.986	20826
814.127	20568
814.268	20438
814.41	20454
814.551	20275
814.692	20484
814.833	20351
814.974	20286
815.115	20419
815.256	20370
815.397	20278
815.539	20225
815.68	20157
815.821	20050
815.962	20161
816.103	20111
816.244	19970
816.385	19803
816.526	19890
816.666	19818
816.807	19563
816.948	19681
817.089	19601
817.23	19502
817.371	19575
817.512	19533
817.653	19529
817.793	19426
817.934	19548
818.075	19616
818.216	19521
818.356	19514
818.497	19343
818.638	19209
818.778	19187
818.919	19301
819.06	19327
819.2	19301
819.341	19415
819.481	19495
819.622	19472
819.762	19647
819.903	19666
820.043	19559
820.184	19556
820.324	19571
820.465	19594
820.605	19590
820.746	19422
820.886	19369
821.026	19464
821.167	19453
821.307	19597
821.447	19499
821.588	19346
821.728	19225
821.868	19187
822.008	18909
822.149	18977
822.289	18913
822.429	18722
822.569	18582
822.709	18650
822.849	18399
822.99	18460
823.13	18376
823.27	18353
823.41	18266
823.55	18144
823.69	18167
823.83	18213
823.97	18194
824.11	18034
824.25	17996
824.389	18079
824.529	18007
824.669	18041
824.809	18174
824.949	18106
825.089	18007
825.228	17942
825.368	17821
825.508	17760
825.648	17813
825.787	17821
825.927	17729
826.067	17794
826.206	17661
826.346	17798
826.485	17775
826.625	17665
826.765	17828
826.904	17756
827.044	17554
827.183	17600
827.323	17360
827.462	17493
827.601	17558
827.741	17490
827.88	17512
828.02	17349
828.159	17429
828.298	17543
828.437	17589
828.577	17524
828.716	17516
828.855	17512
828.994	17242
829.134	17258
829.273	17277
829.412	17170
829.551	17254
829.69	17181
829.829	17216
829.968	17288
830.107	17277
830.246	17292
830.385	17170
830.524	17083
830.663	17147
830.802	16972
830.941	16778
831.08	16755
831.219	16927
831.357	16911
831.496	17075
831.635	16771
831.774	16729
831.913	16675
832.051	16626
832.19	16664
832.329	16596
832.467	16580
832.606	16497
832.744	16660
832.883	16573
833.022	16554
833.16	16569
833.299	16653
833.437	16558
833.576	16531
833.714	16626
833.852	16656
833.991	16626
834.129	16660
834.267	16634
834.406	16569
834.544	16679
834.682	16607
834.821	16603
834.959	16641
835.097	16489
835.235	16691
835.373	16588
835.511	16584
835.65	16565
835.788	16538
835.926	16371
836.064	16318
836.202	16295
836.34	16531
836.478	16672
836.615	16535
836.753	16577
836.891	16580
837.029	16455
837.167	16493
837.305	16470
837.443	16417
837.58	16409
837.718	16390
837.856	16485
837.993	16352
838.131	16367
838.269	16314
838.406	16382
838.544	16287
838.681	16173
838.819	16044
838.956	15987
839.094	15968
839.231	15998
839.369	16139
839.506	16367
839.643	16238
839.781	15945
839.918	15880
840.055	15987
840.193	15949
840.33	15915
840.467	16040
840.604	15937
840.742	16204
840.879	15861
841.016	15793
841.153	15793
841.29	15994
841.427	16044
841.564	15975
841.701	15994
841.838	15926
841.975	15804
842.112	15846
842.249	15797
842.385	15713
842.522	15918
842.659	15785
842.796	15717
842.933	15732
843.069	15660
843.206	15656
843.343	15728
843.479	15793
843.616	15724
843.752	15401
843.889	15458
844.025	15694
844.162	15519
844.298	15625
844.435	15542
844.571	15447
844.708	15584
844.844	15622
844.98	15663
845.117	15663
845.253	15443
845.389	15420
845.525	15477
845.661	15477
845.798	15313
845.934	15325
846.07	15279
846.206	15386
846.342	15534
846.478	15351
846.614	15097
846.75	15070
846.886	15043
847.022	15195
847.158	15108
847.294	15070
847.429	15142
847.565	15154
847.701	15359
847.837	14861
847.972	14842
848.108	14918
848.244	14849
848.379	14739
848.515	14708
848.65	14686
848.786	14705
848.921	14644
849.057	14731
849.192	14777
849.328	14750
849.463	14701
849.598	14667
849.734	14678
849.869	14590
850.004	14461
850.14	14503
850.275	14400
850.41	14370
850.545	14366
850.68	14450
850.815	14419
850.95	14377
851.085	14625
851.22	14648
851.355	14427
851.49	14522
851.625	14374
851.76	14492
851.895	14351
852.03	14309
852.165	14396
852.299	14423
852.434	14564
852.569	14552
852.703	14377
852.838	14469
852.973	14594
853.107	14518
853.242	14431
853.376	14377
853.511	14229
853.645	14317
853.78	14415
853.914	14434
854.048	14187
854.183	14275
854.317	14309
854.451	14446
854.585	14313
854.72	14328
854.854	14415
854.988	14256
855.122	14324
855.256	14252
855.39	14339
855.524	14229
855.658	14427
855.792	14294
855.926	14415
856.06	14400
856.194	14492
856.327	14301
856.461	14263
856.595	14362
856.729	14332
856.862	14400
856.996	14305
857.13	14332
857.263	14434
857.397	14415
857.53	14320
857.664	14339
857.797	14415
857.931	14381
858.064	14286
858.197	14385
858.331	14358
858.464	14218
858.597	14195
858.731	14339
858.864	14282
858.997	14374
859.13	14332
859.263	14309
859.396	14503
859.529	14336
859.662	14275
859.795	14233
859.928	14362
860.061	14457
860.194	14480
860.327	14328
860.46	14248
860.592	14393
860.725	14396
860.858	14427
860.99	14252
861.123	14263
861.256	14290
861.388	14328
861.521	15032
861.653	14237
861.786	14202
861.918	14244
862.05	14145
862.183	14320
862.315	14355
862.447	14336
862.58	14286
862.712	14123
862.844	14031
862.976	14153
863.108	14233
863.24	14423
863.372	13967
863.504	14107
863.636	14111
863.768	14126
863.9	14005
864.032	13967
864.164	14065
864.296	14180
864.428	14199
864.559	14149
864.691	14256
864.823	14119
864.954	14134
865.086	14077
865.217	14142
865.349	14008
865.48	14130
865.612	14081
865.743	14187
865.875	14069
866.006	14024
866.137	14092
866.269	14123
866.4	14031
866.531	14073
866.662	14073
866.793	14107
866.924	14081
867.055	14088
867.186	14081
867.317	14111
867.448	13993
867.579	14088
867.71	13986
867.841	14020
867.972	14119
868.103	13955
868.233	14088
868.364	14119
868.495	14164
868.625	14324
868.756	14396
868.886	14305
869.017	14355
869.147	14442
869.278	14370
869.408	14370
869.539	14263
869.669	14454
869.799	14461
869.929	14560
870.06	14301
870.19	14587
870.32	14636
870.45	14720
870.58	14746
870.71	14857
870.84	14857
870.97	14712
871.1	14716
871.23	14876
871.36	14796
871.489	14906
871.619	14838
871.749	14902
871.879	14925
872.008	15028
872.138	14910
872.267	14914
872.397	14883
872.526	14773
872.656	14746
872.785	14743
872.915	14830
873.044	15024
873.173	14925
873.303	14982
873.432	15039
873.561	15062
873.69	15036
873.819	14971
873.948	15066
874.077	15062
874.206	14982
874.335	15051
874.464	15070
874.593	15180
874.722	15226
874.851	15386
874.979	15279
875.108	15287
875.237	15237
875.365	15169
875.494	15195
875.623	15336
875.751	15256
875.88	15275
876.008	15515
876.136	15454
876.265	15705
876.393	15789
876.521	15774
876.65	15816
876.778	15751
876.906	15690
877.034	15690
877.162	15622
877.29	15614
877.418	15785
877.546	15648
877.674	15679
877.802	15694
877.93	15759
878.058	15618
878.185	15576
878.313	15667
878.441	15663
878.568	15492
878.696	15732
878.824	15766
878.951	15854
879.079	15907
879.206	15975
879.333	15766
879.461	15682
879.588	15793
879.715	15842
879.842	15994
879.97	15842
880.097	15519
880.224	15545
880.351	15591
880.478	15568
880.605	15515
880.732	15568
880.859	15778
880.986	15587
881.112	15553
881.239	15507
881.366	15355
881.493	15199
881.619	15199
881.746	15214
881.872	15241
881.999	15233
882.125	15222
882.252	15408
882.378	15252
882.505	15389
882.631	15211
882.757	15020
882.883	15165
883.01	15028
883.136	15020
883.262	14891
883.388	14857
883.514	15032
883.64	15116
883.766	14975
883.892	14826
884.018	14883
884.143	14994
884.269	15100
884.395	14815
884.52	14667
884.646	14697
884.772	14686
884.897	14602
885.023	14788
885.148	14800
885.274	14971
885.399	14792
885.524	14701
885.65	14804
885.775	14674
885.9	14708
886.025	14849
886.15	14777
886.275	14720
886.4	14674
886.525	14651
886.65	14785
886.775	14731
886.9	14868
887.025	15017
887.149	14792
887.274	14602
887.399	14606
887.523	14571
887.648	14404
887.773	14419
887.897	14651
888.021	14689
888.146	14549
888.27	14659
888.395	14739
888.519	14670
888.643	14549
888.767	14632
888.891	14560
889.015	14473
889.139	14518
889.263	14404
889.387	14507
889.511	14712
889.635	14651
889.759	14415
889.883	14396
890.006	14473
890.13	14511
890.254	14259
890.377	14400
890.501	14271
890.624	14180
890.748	14286
890.871	14107
890.995	14119
891.118	14058
891.241	14115
891.364	14138
891.488	14286
891.611	14123
891.734	14054
891.857	14202
891.98	14229
892.103	14202
892.226	14123
892.349	14008
892.471	13974
892.594	14062
892.717	14046
892.839	14084
892.962	14123
893.085	14229
893.207	14073
893.33	13970
893.452	14062
893.575	14115
893.697	14130
893.819	14366
893.941	14332
894.064	14191
894.186	14073
894.308	14084
894.43	14301
894.552	14332
894.674	14237
894.796	14164
894.918	14214
895.04	14271
895.161	14328
895.283	14317
895.405	14142
895.526	14275
895.648	14267
895.769	14282
895.891	14343
896.012	14324
896.134	14290
896.255	14290
896.376	14286
896.498	14275
896.619	14374
896.74	14309
896.861	14389
896.982	14571
897.103	14796
897.224	14644
897.345	14492
897.466	14568
897.587	14575
897.708	14754
897.828	14522
897.949	14423
898.07	14469
898.19	14556
898.311	14777
898.431	14533
898.552	14602
898.672	14754
898.792	14777
898.913	14689
899.033	14537
899.153	14533
899.273	14328
899.393	14431
899.513	14473
899.633	14514
899.753	14530
899.873	14469
899.993	14587
900.113	14484
900.232	14503
900.352	14530
900.472	14377
900.591	14275
900.711	14450
900.83	14278
900.95	14377
901.069	14556
901.189	14248
901.308	14119
901.427	13951
901.546	14043
901.665	14077
901.784	14043
901.904	13944
902.023	13845
902.141	13594
902.26	13662
902.379	13666
902.498	13468
902.617	13552
902.735	13510
902.854	13506
902.973	13476
903.091	13434
903.21	13396
903.328	13247
903.446	13247
903.565	13194
903.683	13206
903.801	13042
903.919	13171
904.038	13198
904.156	13050
904.274	13000
904.392	13008
904.51	12947
904.627	13019
904.745	13019
904.863	13042
904.981	12882
905.098	12722
905.216	12715
905.334	12696
905.451	12677
905.569	12665
905.686	12726
905.803	12734
905.921	12559
906.038	12517
906.155	12486
906.272	12410
906.389	12372
906.506	12311
906.623	12266
906.74	12254
906.857	12190
906.974	12239
907.091	12399
907.208	12464
907.324	12357
907.441	12270
907.557	12057
907.674	11980
907.79	11996
907.907	11965
908.023	12057
908.139	12041
908.256	11935
908.372	11885
908.488	11935
908.604	11847
908.72	11760
908.836	11840
908.952	11790
909.068	11760
909.184	11908
909.3	11760
909.415	11843
909.531	11798
909.647	11459
909.762	11520
909.878	11570
909.993	11528
910.108	11539
910.224	11558
910.339	11566
910.454	11501
910.57	11493
910.685	11326
910.8	11665
910.915	11497
911.03	11486
911.145	11204
911.259	11201
911.374	11265
911.489	11212
911.604	11178
911.718	11052
911.833	11018
911.947	10915
912.062	10824
912.176	11022
912.291	11010
912.405	10976
912.519	11258
912.633	11220
912.748	11098
912.862	10999
912.976	10968
913.09	10774
913.204	10908
913.318	10835
913.431	11003
913.545	11022
913.659	11010
913.772	10911
913.886	10790
914	10687
914.113	10824
914.226	10854
914.34	10900
914.453	10714
914.566	10858
914.68	10729
914.793	10687
914.906	10630
915.019	10466
915.132	10455
915.245	10504
915.358	10512
915.47	10485
915.583	10573
915.696	10584
915.809	10637
915.921	10656
916.034	10489
916.146	10405
916.259	10455
916.371	10485
916.483	10493
916.595	10398
916.708	10478
916.82	10466
916.932	10436
917.044	10371
917.156	10424
917.268	10318
917.38	10284
917.491	10322
917.603	10417
917.715	10356
917.826	10428
917.938	10310
918.049	10207
918.161	10382
918.272	10504
918.384	10424
918.495	10356
918.606	10223
918.717	10169
918.828	10204
918.939	10325
919.05	10196
919.161	10181
919.272	10059
919.383	10109
919.494	10242
919.604	10440
919.715	10272
919.826	10074
919.936	10276
920.047	10257
920.157	10284
920.267	10535
920.378	10211
920.488	10215
920.598	10417
920.708	10558
920.818	10478
920.928	10382
921.038	10535
921.148	10531
921.258	10276
921.368	10139
921.477	10116
921.587	10128
921.697	9964
921.806	10097
921.916	9964
922.025	9816
922.134	9816
922.244	9736
922.353	9861
922.462	9660
922.571	9618
922.68	9428
922.789	9488
922.898	9507
923.007	9428
923.116	9496
923.224	9504
923.333	9504
923.442	9405
923.55	9382
923.659	9348
923.767	9405
923.876	9363
923.984	9488
924.092	9321
924.201	9420
924.309	9310
924.417	9393
924.525	9283
924.633	9378
924.741	10200
924.849	9154
924.956	9351
925.064	9135
925.172	9066
925.279	9150
925.387	9157
925.494	9131
925.602	9230
925.709	9211
925.816	9085
925.924	9123
926.031	9245
926.138	9146
926.245	9237
926.352	9104
926.459	9169
926.566	9188
926.673	9093
926.779	8971
926.886	9001
926.993	8960
927.099	8815
927.206	8830
927.312	8811
927.419	8876
927.525	8910
927.631	8830
927.737	8727
927.843	8788
927.95	8602
928.056	8724
928.162	8758
928.267	8731
928.373	9389
928.479	8823
928.585	8621
928.69	8746
928.796	8788
928.901	8663
929.007	8526
929.112	8678
929.218	8629
929.323	8564
929.428	8556
929.533	8674
929.638	8461
929.743	8583
929.848	8598
929.953	8594
930.058	8518
930.163	8358
930.267	8396
930.372	8461
930.477	8298
930.581	8537
930.685	8419
930.79	8237
930.894	8275
930.998	8294
931.103	8419
931.207	8081
931.311	8008
931.415	7982
931.519	7788
931.623	7780
