Data from test_V78500241_3578.txt Node
Date: Fri Mar 25 14:58:37 CST 2022
User: usil
Spectrometer: V785-0024
Trigger mode: 0
Integration Time (sec): 4.000000E-1
Scans to average: 1
Nonlinearity correction enabled: false
Boxcar width: 0
Storing dark spectrum: false
XAxis mode: Wavelengths
Number of Pixels in Spectrum: 1024
>>>>>Begin Spectral Data<<<<<
801.071	21892
801.214	21781
801.356	21523
801.499	21481
801.641	21370
801.783	21264
801.926	21310
802.068	21150
802.211	21207
802.353	21096
802.496	20899
802.638	20788
802.78	20686
802.923	20674
803.065	20629
803.208	20606
803.35	20621
803.492	20746
803.635	20731
803.777	20594
803.919	20697
804.061	20956
804.204	20689
804.346	20514
804.488	20434
804.63	20503
804.773	20415
804.915	20469
805.057	20575
805.199	20590
805.341	20560
805.483	20644
805.626	20617
805.768	20385
805.91	20560
806.052	20507
806.194	20381
806.336	20602
806.478	20499
806.62	20381
806.762	20522
806.904	20655
807.046	20975
807.188	20670
807.33	20781
807.472	20941
807.614	20785
807.756	20853
807.898	20533
808.04	20632
808.182	20499
808.324	20568
808.465	20571
808.607	20739
808.749	20899
808.891	20902
809.033	20998
809.174	20819
809.316	20750
809.458	20880
809.6	20830
809.741	20899
809.883	20910
810.025	21001
810.166	20895
810.308	21077
810.45	20960
810.591	20864
810.733	20773
810.875	20670
811.016	20507
811.158	20507
811.299	20682
811.441	20876
811.582	20796
811.724	20571
811.865	20636
812.007	20579
812.148	20609
812.29	20587
812.431	20727
812.573	20990
812.714	21024
812.855	21203
812.997	21218
813.138	21378
813.279	21252
813.421	21218
813.562	21051
813.703	20868
813.845	20792
813.986	20545
814.127	20317
814.268	20286
814.41	20214
814.551	20187
814.692	20130
814.833	20122
814.974	20092
815.115	20111
815.256	19989
815.397	20016
815.539	19974
815.68	19887
815.821	19875
815.962	19917
816.103	19776
816.244	19719
816.385	19571
816.526	19521
816.666	19483
816.807	19350
816.948	19320
817.089	19358
817.23	19365
817.371	19320
817.512	19301
817.653	19270
817.793	19247
817.934	19236
818.075	19320
818.216	19206
818.356	19202
818.497	19107
818.638	18951
818.778	18989
818.919	19038
819.06	18935
819.2	19012
819.341	19209
819.481	19156
819.622	19228
819.762	19506
819.903	19468
820.043	19324
820.184	19266
820.324	19285
820.465	19213
820.605	19244
820.746	19118
820.886	19141
821.026	19209
821.167	19164
821.307	19266
821.447	19137
821.588	19088
821.728	18993
821.868	18688
822.008	18753
822.149	18791
822.289	18551
822.429	18486
822.569	18308
822.709	18388
822.849	18277
822.99	18235
823.13	18148
823.27	18174
823.41	18095
823.55	17988
823.69	18057
823.83	17996
823.97	17935
824.11	17767
824.25	17798
824.389	17813
824.529	17802
824.669	17756
824.809	17840
824.949	17878
825.089	17836
825.228	17927
825.368	17642
825.508	17573
825.648	17592
825.787	17490
825.927	17733
826.067	17577
826.206	17539
826.346	17604
826.485	17684
826.625	17505
826.765	17741
826.904	17615
827.044	17311
827.183	17307
827.323	17235
827.462	17349
827.601	17216
827.741	17239
827.88	17288
828.02	17018
828.159	17220
828.298	17288
828.437	17334
828.577	17254
828.716	17356
828.855	17128
828.994	17109
829.134	17014
829.273	17090
829.412	16957
829.551	16862
829.69	17041
829.829	17022
829.968	17121
830.107	17014
830.246	17067
830.385	16953
830.524	16858
830.663	16915
830.802	16843
830.941	16596
831.08	16626
831.219	16653
831.357	16740
831.496	16820
831.635	16664
831.774	16508
831.913	16672
832.051	16417
832.19	16375
832.329	16584
832.467	16379
832.606	16268
832.744	16402
832.883	16306
833.022	16341
833.16	16310
833.299	16409
833.437	16280
833.576	16424
833.714	16379
833.852	16291
833.991	16390
834.129	16440
834.267	16344
834.406	16413
834.544	16443
834.682	16421
834.821	16337
834.959	16607
835.097	16348
835.235	16542
835.373	16360
835.511	16470
835.65	16398
835.788	16390
835.926	16246
836.064	16166
836.202	16192
836.34	16306
836.478	16466
836.615	16253
836.753	16333
836.891	16493
837.029	16352
837.167	16322
837.305	16306
837.443	16169
837.58	16272
837.718	16211
837.856	16207
837.993	16143
838.131	16177
838.269	16059
838.406	16154
838.544	15994
838.681	15937
838.819	15857
838.956	15755
839.094	15785
839.231	15831
839.369	15926
839.506	16196
839.643	16086
839.781	15800
839.918	15705
840.055	15789
840.193	15720
840.33	15747
840.467	15743
840.604	15732
840.742	16006
840.879	15572
841.016	15717
841.153	15709
841.29	15842
841.427	15797
841.564	15846
841.701	15770
841.838	15717
841.975	15667
842.112	15671
842.249	15599
842.385	15462
842.522	15755
842.659	15618
842.796	15477
842.933	15656
843.069	15576
843.206	15504
843.343	15587
843.479	15599
843.616	15526
843.752	15329
843.889	15317
844.025	15534
844.162	15298
844.298	15462
844.435	15268
844.571	15313
844.708	15363
844.844	15367
844.98	15557
845.117	15447
845.253	15302
845.389	15142
845.525	15279
845.661	15192
845.798	15085
845.934	15119
846.07	15100
846.206	15184
846.342	15245
846.478	15142
846.614	14918
846.75	14792
846.886	14880
847.022	14979
847.158	14823
847.294	14918
847.429	14929
847.565	14845
847.701	15154
847.837	14667
847.972	14594
848.108	14804
848.244	14663
848.379	14575
848.515	14457
848.65	14450
848.786	14381
848.921	14564
849.057	14587
849.192	14598
849.328	14590
849.463	14545
849.598	14415
849.734	14419
849.869	14301
850.004	14332
850.14	14290
850.275	14206
850.41	14187
850.545	14153
850.68	14252
850.815	14214
850.95	14305
851.085	14438
851.22	14393
851.355	14157
851.49	14183
851.625	14256
851.76	14309
851.895	14172
852.03	14187
852.165	14259
852.299	14267
852.434	14450
852.569	14282
852.703	14305
852.838	14259
852.973	14290
853.107	14305
853.242	14256
853.376	14119
853.511	14054
853.645	14111
853.78	14275
853.914	14149
854.048	14062
854.183	14149
854.317	14183
854.451	14324
854.585	14138
854.72	14100
854.854	14237
854.988	14069
855.122	14115
855.256	14016
855.39	14046
855.524	14263
855.658	14221
855.792	14107
855.926	14210
856.06	14259
856.194	14240
856.327	14187
856.461	14100
856.595	14115
856.729	14020
856.862	14161
856.996	14077
857.13	14142
857.263	14256
857.397	14244
857.53	14176
857.664	14142
857.797	14187
857.931	14187
858.064	14187
858.197	14263
858.331	14214
858.464	14126
858.597	14050
858.731	14100
858.864	14176
858.997	14119
859.13	14214
859.263	14134
859.396	14271
859.529	13986
859.662	14062
859.795	14058
859.928	14096
860.061	14267
860.194	14374
860.327	14199
860.46	14111
860.592	14248
860.725	14256
860.858	14275
860.99	14168
861.123	14062
861.256	14062
861.388	14119
861.521	14990
861.653	13970
861.786	13940
861.918	14039
862.05	14096
862.183	14081
862.315	14138
862.447	14225
862.58	14065
862.712	13936
862.844	13864
862.976	14069
863.108	13967
863.24	14206
863.372	13894
863.504	13928
863.636	13909
863.768	14027
863.9	13951
864.032	13879
864.164	13974
864.296	13894
864.428	13978
864.559	14035
864.691	13921
864.823	13955
864.954	14016
865.086	13970
865.217	13887
865.349	13803
865.48	13951
865.612	13856
865.743	14046
865.875	13868
866.006	13849
866.137	13909
866.269	13940
866.4	13928
866.531	13856
866.662	13784
866.793	13814
866.924	13837
867.055	13909
867.186	13803
867.317	13906
867.448	13795
867.579	13849
867.71	13841
867.841	13849
867.972	13883
868.103	13921
868.233	13898
868.364	13959
868.495	13909
868.625	13997
868.756	14237
868.886	14001
869.017	14164
869.147	14191
869.278	14240
869.408	14107
869.539	14161
869.669	14202
869.799	14206
869.929	14202
870.06	14294
870.19	14488
870.32	14385
870.45	14503
870.58	14495
870.71	14594
870.84	14693
870.97	14590
871.1	14613
871.23	14686
871.36	14758
871.489	14568
871.619	14659
871.749	14697
871.879	14872
872.008	14804
872.138	14739
872.267	14796
872.397	14727
872.526	14545
872.656	14640
872.785	14602
872.915	14834
873.044	14762
873.173	14902
873.303	14845
873.432	14750
873.561	14906
873.69	14754
873.819	14857
873.948	14914
874.077	14838
874.206	14712
874.335	14880
874.464	14872
874.593	15051
874.722	15077
874.851	15195
874.979	15047
875.108	15192
875.237	15154
875.365	14998
875.494	15119
875.623	15233
875.751	15108
875.88	15116
876.008	15199
876.136	15374
876.265	15561
876.393	15747
876.521	15564
876.65	15667
876.778	15595
876.906	15530
877.034	15454
877.162	15477
877.29	15458
877.418	15591
877.546	15614
877.674	15462
877.802	15515
877.93	15511
878.058	15435
878.185	15401
878.313	15545
878.441	15542
878.568	15408
878.696	15488
878.824	15542
878.951	15591
879.079	15747
879.206	15861
879.333	15690
879.461	15580
879.588	15568
879.715	15713
879.842	15785
879.97	15648
880.097	15272
880.224	15408
880.351	15405
880.478	15367
880.605	15374
880.732	15408
880.859	15542
880.986	15389
881.112	15450
881.239	15321
881.366	15214
881.493	15097
881.619	15131
881.746	15108
881.872	15013
881.999	15112
882.125	14990
882.252	15161
882.378	15009
882.505	15207
882.631	14975
882.757	14807
882.883	14838
883.01	14918
883.136	14819
883.262	14739
883.388	14705
883.514	14872
883.64	14880
883.766	14834
883.892	14701
884.018	14697
884.143	14887
884.269	14910
884.395	14594
884.52	14571
884.646	14571
884.772	14415
884.897	14419
885.023	14560
885.148	14636
885.274	14720
885.399	14636
885.524	14579
885.65	14640
885.775	14533
885.9	14583
886.025	14640
886.15	14697
886.275	14469
886.4	14484
886.525	14549
886.65	14492
886.775	14396
886.9	14632
887.025	14777
887.149	14678
887.274	14484
887.399	14355
887.523	14336
887.648	14267
887.773	14415
887.897	14484
888.021	14370
888.146	14419
888.27	14473
888.395	14457
888.519	14484
888.643	14450
888.767	14522
888.891	14282
889.015	14278
889.139	14282
889.263	14381
889.387	14305
889.511	14412
889.635	14438
889.759	14218
889.883	14218
890.006	14351
890.13	14389
890.254	14172
890.377	14301
890.501	14107
890.624	14218
890.748	14126
890.871	14069
890.995	13898
891.118	13932
891.241	13936
891.364	13963
891.488	14046
891.611	13959
891.734	13963
891.857	14103
891.98	14001
892.103	14168
892.226	14043
892.349	14001
892.471	13814
892.594	13967
892.717	14001
892.839	13890
892.962	13902
893.085	13989
893.207	13989
893.33	13849
893.452	13898
893.575	14039
893.697	14005
893.819	14126
893.941	14172
894.064	14138
894.186	13883
894.308	13997
894.43	14119
894.552	14229
894.674	14062
894.796	13932
894.918	13997
895.04	13906
895.161	14081
895.283	14084
895.405	14008
895.526	14100
895.648	14084
895.769	14126
895.891	14138
896.012	14259
896.134	14240
896.255	14180
896.376	14069
896.498	14157
896.619	14271
896.74	14119
896.861	14210
896.982	14549
897.103	14678
897.224	14457
897.345	14366
897.466	14377
897.587	14461
897.708	14514
897.828	14434
897.949	14324
898.07	14290
898.19	14347
898.311	14499
898.431	14328
898.552	14579
898.672	14552
898.792	14583
898.913	14434
899.033	14450
899.153	14351
899.273	14183
899.393	14377
899.513	14336
899.633	14362
899.753	14218
899.873	14305
899.993	14423
900.113	14332
900.232	14336
900.352	14294
900.472	14240
900.591	14168
900.711	14237
900.83	14195
900.95	14259
901.069	14229
901.189	14100
901.308	13986
901.427	13856
901.546	13864
901.665	13982
901.784	13898
901.904	13830
902.023	13594
902.141	13441
902.26	13472
902.379	13419
902.498	13407
902.617	13430
902.735	13365
902.854	13365
902.973	13335
903.091	13209
903.21	13152
903.328	13232
903.446	13137
903.565	13023
903.683	13114
903.801	12981
903.919	12932
904.038	12996
904.156	12863
904.274	12909
904.392	12856
904.51	12726
904.627	12783
904.745	12894
904.863	12878
904.981	12677
905.098	12631
905.216	12467
905.334	12559
905.451	12559
905.569	12547
905.686	12578
905.803	12471
905.921	12350
906.038	12418
906.155	12395
906.272	12224
906.389	12175
906.506	12216
906.623	12152
906.74	12155
906.857	11999
906.974	12049
907.091	12106
907.208	12376
907.324	12178
907.441	12083
907.557	11893
907.674	11920
907.79	11824
907.907	11878
908.023	11973
908.139	11908
908.256	11851
908.372	11832
908.488	11737
908.604	11672
908.72	11733
908.836	11748
908.952	11596
909.068	11649
909.184	11756
909.3	11699
909.415	11710
909.531	11638
909.647	11410
909.762	11436
909.878	11372
909.993	11493
910.108	11402
910.224	11334
910.339	11341
910.454	11277
910.57	11227
910.685	11246
910.8	11425
910.915	11368
911.03	11292
911.145	11109
911.259	11121
911.374	11197
911.489	11029
911.604	11052
911.718	10847
911.833	10881
911.947	10835
912.062	10679
912.176	10809
912.291	10862
912.405	10953
912.519	11018
912.633	11048
912.748	10892
912.862	10900
912.976	10771
913.09	10637
913.204	10725
913.318	10847
913.431	10831
913.545	10801
913.659	10896
913.772	10809
913.886	10679
914	10618
914.113	10717
914.226	10763
914.34	10805
914.453	10573
914.566	10714
914.68	10561
914.793	10546
914.906	10371
915.019	10363
915.132	10284
915.245	10371
915.358	10398
915.47	10424
915.583	10470
915.696	10421
915.809	10474
915.921	10538
916.034	10371
916.146	10405
916.259	10318
916.371	10519
916.483	10356
916.595	10348
916.708	10295
916.82	10337
916.932	10322
917.044	10318
917.156	10325
917.268	10230
917.38	10215
917.491	10196
917.603	10215
917.715	10276
917.826	10371
917.938	10196
918.049	10143
918.161	10219
918.272	10379
918.384	10360
918.495	10242
918.606	10055
918.717	10029
918.828	10147
918.939	10150
919.05	10017
919.161	10124
919.272	9960
919.383	9884
919.494	10249
919.604	10341
919.715	10169
919.826	10059
919.936	10192
920.047	10173
920.157	10082
920.267	10314
920.378	10109
920.488	10067
920.598	10299
920.708	10512
920.818	10310
920.928	10341
921.038	10447
921.148	10440
921.258	10139
921.368	10029
921.477	10010
921.587	9903
921.697	9869
921.806	9979
921.916	9846
922.025	9743
922.134	9641
922.244	9641
922.353	9812
922.462	9523
922.571	9507
922.68	9348
922.789	9325
922.898	9389
923.007	9332
923.116	9439
923.224	9332
923.333	9397
923.442	9253
923.55	9279
923.659	9268
923.767	9298
923.876	9230
923.984	9359
924.092	9218
924.201	9310
924.309	9199
924.417	9268
924.525	9180
924.633	9203
924.741	10048
924.849	8975
924.956	9161
925.064	8994
925.172	9032
925.279	9009
925.387	9036
925.494	9062
925.602	9176
925.709	9043
925.816	9009
925.924	9020
926.031	9173
926.138	9039
926.245	9127
926.352	8960
926.459	9131
926.566	9100
926.673	8967
926.779	8937
926.886	8849
926.993	8830
927.099	8785
927.206	8708
927.312	8731
927.419	8857
927.525	8804
927.631	8811
927.737	8659
927.843	8663
927.95	8594
928.056	8674
928.162	8678
928.267	8648
928.373	9283
928.479	8796
928.585	8518
928.69	8659
928.796	8731
928.901	8568
929.007	8412
929.112	8621
929.218	8541
929.323	8495
929.428	8488
929.533	8594
929.638	8423
929.743	8454
929.848	8492
929.953	8427
930.058	8328
930.163	8214
930.267	8244
930.372	8374
930.477	8214
930.581	8507
930.685	8317
930.79	8138
930.894	8267
930.998	8221
931.103	8332
931.207	8001
931.311	7837
931.415	7852
931.519	7677
931.623	7685
