Data from test_V78500241_3535.txt Node
Date: Fri Mar 25 14:58:19 CST 2022
User: usil
Spectrometer: V785-0024
Trigger mode: 0
Integration Time (sec): 4.000000E-1
Scans to average: 1
Nonlinearity correction enabled: false
Boxcar width: 0
Storing dark spectrum: false
XAxis mode: Wavelengths
Number of Pixels in Spectrum: 1024
>>>>>Begin Spectral Data<<<<<
801.071	21823
801.214	21793
801.356	21587
801.499	21412
801.641	21313
801.783	21192
801.926	21294
802.068	21161
802.211	21207
802.353	21009
802.496	20781
802.638	20785
802.78	20750
802.923	20598
803.065	20552
803.208	20541
803.35	20663
803.492	20663
803.635	20686
803.777	20629
803.919	20674
804.061	20895
804.204	20621
804.346	20488
804.488	20465
804.63	20545
804.773	20370
804.915	20320
805.057	20530
805.199	20419
805.341	20526
805.483	20587
805.626	20476
805.768	20503
805.91	20560
806.052	20427
806.194	20358
806.336	20606
806.478	20469
806.62	20503
806.762	20514
806.904	20594
807.046	20933
807.188	20701
807.33	20815
807.472	20769
807.614	20705
807.756	20693
807.898	20796
808.04	20579
808.182	20511
808.324	20575
808.465	20621
808.607	20708
808.749	20788
808.891	20853
809.033	21157
809.174	20960
809.316	20834
809.458	20758
809.6	20800
809.741	20883
809.883	20914
810.025	21001
810.166	20990
810.308	21013
810.45	20864
810.591	20819
810.733	20762
810.875	20625
811.016	20549
811.158	20549
811.299	20625
811.441	20811
811.582	20644
811.724	20545
811.865	20522
812.007	20503
812.148	20594
812.29	20648
812.431	20674
812.573	20842
812.714	21013
812.855	21085
812.997	21142
813.138	21272
813.279	21211
813.421	21146
813.562	20998
813.703	20857
813.845	20674
813.986	20503
814.127	20309
814.268	20145
814.41	20191
814.551	20180
814.692	20111
814.833	20130
814.974	20043
815.115	20016
815.256	20031
815.397	19932
815.539	19997
815.68	19928
815.821	19814
815.962	19769
816.103	19788
816.244	19727
816.385	19693
816.526	19529
816.666	19472
816.807	19324
816.948	19419
817.089	19369
817.23	19403
817.371	19232
817.512	19289
817.653	19266
817.793	19255
817.934	19236
818.075	19255
818.216	19217
818.356	19263
818.497	19122
818.638	18878
818.778	18916
818.919	18920
819.06	19031
819.2	19042
819.341	19152
819.481	19171
819.622	19362
819.762	19521
819.903	19381
820.043	19282
820.184	19187
820.324	19324
820.465	19354
820.605	19327
820.746	19244
820.886	19122
821.026	19282
821.167	19266
821.307	19266
821.447	19213
821.588	19126
821.728	18867
821.868	18772
822.008	18620
822.149	18669
822.289	18722
822.429	18399
822.569	18353
822.709	18395
822.849	18232
822.99	18136
823.13	18171
823.27	18060
823.41	17980
823.55	17897
823.69	18049
823.83	18053
823.97	17977
824.11	17699
824.25	17707
824.389	17760
824.529	17729
824.669	17802
824.809	17855
824.949	17878
825.089	17771
825.228	17691
825.368	17497
825.508	17482
825.648	17562
825.787	17528
825.927	17554
826.067	17448
826.206	17532
826.346	17516
826.485	17543
826.625	17554
826.765	17638
826.904	17600
827.044	17296
827.183	17417
827.323	17155
827.462	17258
827.601	17155
827.741	17151
827.88	17273
828.02	17037
828.159	17235
828.298	17273
828.437	17277
828.577	17159
828.716	17303
828.855	17174
828.994	17010
829.134	16987
829.273	17060
829.412	16957
829.551	16835
829.69	16896
829.829	16968
829.968	17216
830.107	17029
830.246	17056
830.385	16972
830.524	16812
830.663	16835
830.802	16694
830.941	16554
831.08	16641
831.219	16653
831.357	16592
831.496	16793
831.635	16584
831.774	16558
831.913	16447
832.051	16367
832.19	16462
832.329	16329
832.467	16215
832.606	16207
832.744	16242
832.883	16363
833.022	16207
833.16	16333
833.299	16268
833.437	16291
833.576	16413
833.714	16352
833.852	16432
833.991	16405
834.129	16379
834.267	16546
834.406	16405
834.544	16474
834.682	16428
834.821	16386
834.959	16516
835.097	16428
835.235	16436
835.373	16390
835.511	16485
835.65	16344
835.788	16242
835.926	16181
836.064	16029
836.202	16036
836.34	16333
836.478	16257
836.615	16192
836.753	16314
836.891	16451
837.029	16337
837.167	16253
837.305	16257
837.443	16246
837.58	16139
837.718	16131
837.856	16071
837.993	16234
838.131	16169
838.269	16147
838.406	16150
838.544	16071
838.681	15800
838.819	15907
838.956	15698
839.094	15720
839.231	15842
839.369	15903
839.506	16063
839.643	15892
839.781	15679
839.918	15663
840.055	15755
840.193	15717
840.33	15739
840.467	15667
840.604	15720
840.742	15895
840.879	15564
841.016	15644
841.153	15667
841.29	15770
841.427	15759
841.564	15766
841.701	15728
841.838	15591
841.975	15511
842.112	15637
842.249	15473
842.385	15534
842.522	15713
842.659	15515
842.796	15572
842.933	15492
843.069	15439
843.206	15485
843.343	15603
843.479	15519
843.616	15542
843.752	15298
843.889	15233
844.025	15428
844.162	15306
844.298	15458
844.435	15169
844.571	15195
844.708	15367
844.844	15458
844.98	15424
845.117	15424
845.253	15211
845.389	15195
845.525	15249
845.661	15222
845.798	15005
845.934	15066
846.07	15081
846.206	15169
846.342	15207
846.478	15138
846.614	14876
846.75	14792
846.886	14914
847.022	14956
847.158	14918
847.294	14826
847.429	14921
847.565	14872
847.701	15108
847.837	14545
847.972	14503
848.108	14655
848.244	14667
848.379	14465
848.515	14484
848.65	14503
848.786	14457
848.921	14415
849.057	14568
849.192	14667
849.328	14507
849.463	14446
849.598	14507
849.734	14286
849.869	14294
850.004	14271
850.14	14301
850.275	14206
850.41	14187
850.545	14187
850.68	14134
850.815	14237
850.95	14183
851.085	14267
851.22	14347
851.355	14187
851.49	14195
851.625	14195
851.76	14202
851.895	14073
852.03	14027
852.165	14149
852.299	14286
852.434	14214
852.569	14206
852.703	14237
852.838	14415
852.973	14351
853.107	14362
853.242	14172
853.376	14043
853.511	13982
853.645	14031
853.78	14218
853.914	14073
854.048	14069
854.183	14001
854.317	14172
854.451	14233
854.585	14126
854.72	14058
854.854	14081
854.988	14149
855.122	14157
855.256	14050
855.39	14031
855.524	14096
855.658	14187
855.792	14092
855.926	14183
856.06	14157
856.194	14210
856.327	14088
856.461	14111
856.595	14138
856.729	14092
856.862	14180
856.996	14161
857.13	14157
857.263	14180
857.397	14180
857.53	14119
857.664	14214
857.797	14123
857.931	14134
858.064	14123
858.197	14138
858.331	14100
858.464	14012
858.597	13925
858.731	14103
858.864	14024
858.997	14115
859.13	14058
859.263	14119
859.396	14172
859.529	14103
859.662	13955
859.795	14027
859.928	14088
860.061	14259
860.194	14301
860.327	14016
860.46	14107
860.592	14282
860.725	14252
860.858	14237
860.99	14161
861.123	13986
861.256	14062
861.388	14119
861.521	14941
861.653	13925
861.786	13951
861.918	13928
862.05	14077
862.183	14024
862.315	14024
862.447	14103
862.58	13986
862.712	13928
862.844	13890
862.976	13925
863.108	13887
863.24	14229
863.372	13849
863.504	13795
863.636	13978
863.768	13841
863.9	13871
864.032	13772
864.164	13894
864.296	13890
864.428	14012
864.559	13906
864.691	13940
864.823	13986
864.954	13928
865.086	13928
865.217	13940
865.349	13780
865.48	13822
865.612	13864
865.743	14008
865.875	13795
866.006	13833
866.137	13841
866.269	13868
866.4	13879
866.531	13894
866.662	13811
866.793	13860
866.924	13734
867.055	13955
867.186	13879
867.317	13742
867.448	13822
867.579	13818
867.71	13830
867.841	13734
867.972	13928
868.103	13955
868.233	13887
868.364	13921
868.495	13921
868.625	14119
868.756	14202
868.886	13959
869.017	14073
869.147	14214
869.278	14229
869.408	14138
869.539	14119
869.669	14259
869.799	14199
869.929	14259
870.06	14267
870.19	14412
870.32	14412
870.45	14446
870.58	14495
870.71	14537
870.84	14667
870.97	14526
871.1	14469
871.23	14746
871.36	14708
871.489	14613
871.619	14693
871.749	14667
871.879	14750
872.008	14750
872.138	14708
872.267	14636
872.397	14575
872.526	14598
872.656	14476
872.785	14587
872.915	14746
873.044	14845
873.173	14743
873.303	14872
873.432	14796
873.561	14857
873.69	14826
873.819	14796
873.948	14887
874.077	14872
874.206	14754
874.335	14876
874.464	14861
874.593	15036
874.722	15100
874.851	15138
874.979	15123
875.108	15123
875.237	15039
875.365	15058
875.494	15138
875.623	15222
875.751	15138
875.88	15123
876.008	15203
876.136	15294
876.265	15488
876.393	15705
876.521	15595
876.65	15610
876.778	15633
876.906	15572
877.034	15435
877.162	15545
877.29	15439
877.418	15412
877.546	15534
877.674	15526
877.802	15519
877.93	15561
878.058	15492
878.185	15439
878.313	15481
878.441	15542
878.568	15386
878.696	15485
878.824	15603
878.951	15561
879.079	15660
879.206	15842
879.333	15717
879.461	15572
879.588	15625
879.715	15610
879.842	15854
879.97	15610
880.097	15291
880.224	15310
880.351	15279
880.478	15306
880.605	15272
880.732	15424
880.859	15599
880.986	15443
881.112	15348
881.239	15363
881.366	15135
881.493	15036
881.619	15058
881.746	15112
881.872	14986
881.999	14986
882.125	15005
882.252	14975
882.378	15062
882.505	15169
882.631	15036
882.757	14914
882.883	14971
883.01	14845
883.136	14781
883.262	14849
883.388	14682
883.514	14906
883.64	14960
883.766	14739
883.892	14705
884.018	14746
884.143	14921
884.269	14967
884.395	14667
884.52	14533
884.646	14617
884.772	14488
884.897	14415
885.023	14533
885.148	14606
885.274	14819
885.399	14659
885.524	14629
885.65	14571
885.775	14556
885.9	14575
886.025	14689
886.15	14590
886.275	14511
886.4	14507
886.525	14457
886.65	14450
886.775	14499
886.9	14670
887.025	14758
887.149	14610
887.274	14419
887.399	14309
887.523	14317
887.648	14282
887.773	14244
887.897	14431
888.021	14370
888.146	14263
888.27	14457
888.395	14450
888.519	14419
888.643	14480
888.767	14339
888.891	14271
889.015	14240
889.139	14290
889.263	14183
889.387	14347
889.511	14366
889.635	14484
889.759	14305
889.883	14286
890.006	14248
890.13	14385
890.254	14271
890.377	14126
890.501	14103
890.624	14107
890.748	14130
890.871	13970
890.995	13951
891.118	13890
891.241	13921
891.364	13982
891.488	14123
891.611	13997
891.734	14005
891.857	14046
891.98	13959
892.103	14035
892.226	14001
892.349	13841
892.471	13803
892.594	13917
892.717	14008
892.839	13913
892.962	13883
893.085	14046
893.207	13928
893.33	13837
893.452	13894
893.575	14020
893.697	13902
893.819	14134
893.941	14202
894.064	14134
894.186	13902
894.308	13974
894.43	14043
894.552	14168
894.674	14119
894.796	13959
894.918	13959
895.04	14050
895.161	14081
895.283	14180
895.405	14107
895.526	14046
895.648	14062
895.769	14092
895.891	14237
896.012	14199
896.134	14157
896.255	14183
896.376	14027
896.498	14187
896.619	14145
896.74	14145
896.861	14233
896.982	14431
897.103	14674
897.224	14480
897.345	14347
897.466	14218
897.587	14248
897.708	14549
897.828	14423
897.949	14370
898.07	14225
898.19	14427
898.311	14495
898.431	14328
898.552	14476
898.672	14530
898.792	14568
898.913	14526
899.033	14347
899.153	14290
899.273	14183
899.393	14336
899.513	14389
899.633	14366
899.753	14351
899.873	14229
899.993	14408
900.113	14320
900.232	14393
900.352	14347
900.472	14221
900.591	14187
900.711	14221
900.83	14172
900.95	14256
901.069	14244
901.189	14046
901.308	13845
901.427	13856
901.546	13818
901.665	13868
901.784	13860
901.904	13742
902.023	13651
902.141	13434
902.26	13457
902.379	13548
902.498	13449
902.617	13316
902.735	13445
902.854	13392
902.973	13377
903.091	13228
903.21	13175
903.328	13168
903.446	13107
903.565	12970
903.683	13141
903.801	13000
903.919	13027
904.038	12981
904.156	12768
904.274	12859
904.392	12703
904.51	12856
904.627	12795
904.745	12985
904.863	12916
904.981	12627
905.098	12521
905.216	12604
905.334	12669
905.451	12528
905.569	12513
905.686	12650
905.803	12471
905.921	12315
906.038	12467
906.155	12399
906.272	12243
906.389	12289
906.506	12182
906.623	12114
906.74	12049
906.857	11999
906.974	12057
907.091	12190
907.208	12285
907.324	12220
907.441	12030
907.557	11832
907.674	11893
907.79	11851
907.907	11874
908.023	11897
908.139	11946
908.256	11840
908.372	11908
908.488	11809
908.604	11741
908.72	11630
908.836	11589
908.952	11558
909.068	11577
909.184	11748
909.3	11691
909.415	11657
909.531	11676
909.647	11433
909.762	11497
909.878	11349
909.993	11414
910.108	11452
910.224	11299
910.339	11410
910.454	11376
910.57	11337
910.685	11288
910.8	11554
910.915	11433
911.03	11326
911.145	11155
911.259	11090
911.374	11098
911.489	11018
911.604	10972
911.718	10869
911.833	10877
911.947	10733
912.062	10687
912.176	10854
912.291	10873
912.405	10854
912.519	11181
912.633	11121
912.748	10991
912.862	10911
912.976	10801
913.09	10588
913.204	10698
913.318	10725
913.431	10866
913.545	10805
913.659	10847
913.772	10843
913.886	10641
914	10637
914.113	10706
914.226	10736
914.34	10725
914.453	10569
914.566	10664
914.68	10588
914.793	10569
914.906	10413
915.019	10322
915.132	10337
915.245	10363
915.358	10451
915.47	10367
915.583	10493
915.696	10375
915.809	10489
915.921	10512
916.034	10382
916.146	10405
916.259	10329
916.371	10504
916.483	10386
916.595	10363
916.708	10322
916.82	10261
916.932	10280
917.044	10207
917.156	10303
917.268	10200
917.38	10211
917.491	10223
917.603	10166
917.715	10344
917.826	10299
917.938	10238
918.049	10116
918.161	10238
918.272	10287
918.384	10371
918.495	10215
918.606	10162
918.717	10090
918.828	10063
918.939	10101
919.05	10071
919.161	10021
919.272	9915
919.383	9934
919.494	10181
919.604	10382
919.715	10128
919.826	9991
919.936	10044
920.047	10188
920.157	10124
920.267	10394
920.378	10078
920.488	10105
920.598	10287
920.708	10398
920.818	10299
920.928	10265
921.038	10493
921.148	10474
921.258	10181
921.368	10063
921.477	9975
921.587	9892
921.697	9838
921.806	10048
921.916	9838
922.025	9671
922.134	9686
922.244	9660
922.353	9679
922.462	9572
922.571	9523
922.68	9359
922.789	9329
922.898	9386
923.007	9313
923.116	9351
923.224	9370
923.333	9382
923.442	9260
923.55	9256
923.659	9291
923.767	9336
923.876	9291
923.984	9363
924.092	9169
924.201	9230
924.309	9253
924.417	9291
924.525	9138
924.633	9211
924.741	9922
924.849	9043
924.956	9157
925.064	9066
925.172	8876
925.279	8948
925.387	9047
925.494	9077
925.602	9195
925.709	9146
925.816	8979
925.924	9058
926.031	9112
926.138	9058
926.245	9036
926.352	8963
926.459	9077
926.566	9176
926.673	8979
926.779	8895
926.886	8937
926.993	8746
927.099	8727
927.206	8674
927.312	8697
927.419	8819
927.525	8743
927.631	8826
927.737	8670
927.843	8678
927.95	8587
928.056	8606
928.162	8689
928.267	8686
928.373	9317
928.479	8731
928.585	8503
928.69	8648
928.796	8682
928.901	8537
929.007	8484
929.112	8594
929.218	8552
929.323	8514
929.428	8469
929.533	8636
929.638	8457
929.743	8469
929.848	8526
929.953	8484
930.058	8427
930.163	8275
930.267	8172
930.372	8393
930.477	8221
930.581	8423
930.685	8320
930.79	8145
930.894	8248
930.998	8172
931.103	8309
931.207	7947
931.311	7906
931.415	7883
931.519	7738
931.623	7639
