Data from test_V78500241_1166.txt Node
Date: Fri Mar 25 14:41:50 CST 2022
User: usil
Spectrometer: V785-0024
Trigger mode: 0
Integration Time (sec): 4.000000E-1
Scans to average: 1
Nonlinearity correction enabled: false
Boxcar width: 0
Storing dark spectrum: false
XAxis mode: Wavelengths
Number of Pixels in Spectrum: 1024
>>>>>Begin Spectral Data<<<<<
801.071	22470
801.214	22447
801.356	22185
801.499	22112
801.641	21960
801.783	21827
801.926	21808
802.068	21747
802.211	21838
802.353	21629
802.496	21466
802.638	21389
802.78	21321
802.923	21272
803.065	21154
803.208	21108
803.35	21226
803.492	21116
803.635	21245
803.777	21192
803.919	21214
804.061	21587
804.204	21207
804.346	21096
804.488	21062
804.63	21085
804.773	20975
804.915	21066
805.057	21329
805.199	21043
805.341	21100
805.483	21272
805.626	21161
805.768	20921
805.91	21085
806.052	21157
806.194	20998
806.336	21256
806.478	21062
806.62	21024
806.762	21169
806.904	21195
807.046	21618
807.188	21466
807.33	21443
807.472	21473
807.614	21310
807.756	21481
807.898	21374
808.04	21306
808.182	21226
808.324	21344
808.465	21313
808.607	21469
808.749	21625
808.891	21823
809.033	21850
809.174	21732
809.316	21580
809.458	21686
809.6	21564
809.741	21545
809.883	21564
810.025	21709
810.166	21873
810.308	21743
810.45	21603
810.591	21599
810.733	21275
810.875	21439
811.016	21279
811.158	21085
811.299	21382
811.441	21473
811.582	21420
811.724	21348
811.865	21154
812.007	21355
812.148	21233
812.29	21348
812.431	21477
812.573	21545
812.714	21701
812.855	21789
812.997	21876
813.138	21994
813.279	21861
813.421	21736
813.562	21690
813.703	21572
813.845	21534
813.986	21138
814.127	20986
814.268	20845
814.41	20925
814.551	20788
814.692	20872
814.833	20834
814.974	20743
815.115	20819
815.256	20735
815.397	20807
815.539	20575
815.68	20602
815.821	20522
815.962	20663
816.103	20575
816.244	20469
816.385	20366
816.526	20370
816.666	20168
816.807	19928
816.948	20142
817.089	20157
817.23	20054
817.371	19989
817.512	20111
817.653	19993
817.793	20031
817.934	19970
818.075	20058
818.216	20069
818.356	20039
818.497	19784
818.638	19685
818.778	19700
818.919	19677
819.06	19772
819.2	19826
819.341	19871
819.481	19879
819.622	19963
819.762	20142
819.903	20134
820.043	20092
820.184	20126
820.324	20001
820.465	19959
820.605	20043
820.746	19963
820.886	19845
821.026	19963
821.167	19936
821.307	20054
821.447	19906
821.588	19776
821.728	19628
821.868	19658
822.008	19320
822.149	19392
822.289	19381
822.429	19126
822.569	19164
822.709	19069
822.849	18993
822.99	18806
823.13	18920
823.27	18886
823.41	18730
823.55	18635
823.69	18639
823.83	18646
823.97	18631
824.11	18483
824.25	18445
824.389	18486
824.529	18566
824.669	18395
824.809	18601
824.949	18623
825.089	18601
825.228	18441
825.368	18289
825.508	18266
825.648	18251
825.787	18285
825.927	18296
826.067	18266
826.206	18159
826.346	18167
826.485	18273
826.625	18190
826.765	18350
826.904	18129
827.044	17988
827.183	18064
827.323	17980
827.462	18022
827.601	17916
827.741	17908
827.88	17988
828.02	17798
828.159	17935
828.298	17885
828.437	18022
828.577	17878
828.716	18095
828.855	17840
828.994	17752
829.134	17684
829.273	17843
829.412	17539
829.551	17600
829.69	17771
829.829	17699
829.968	17794
830.107	17836
830.246	17714
830.385	17699
830.524	17649
830.663	17493
830.802	17246
830.941	17421
831.08	17322
831.219	17326
831.357	17463
831.496	17524
831.635	17345
831.774	17200
831.913	17178
832.051	17155
832.19	17147
832.329	17147
832.467	17064
832.606	16949
832.744	16987
832.883	17006
833.022	16995
833.16	17143
833.299	17041
833.437	17109
833.576	17151
833.714	17124
833.852	17048
833.991	17143
834.129	17071
834.267	17216
834.406	17140
834.544	17121
834.682	17132
834.821	17056
834.959	17280
835.097	16987
835.235	17147
835.373	17113
835.511	17147
835.65	16995
835.788	16923
835.926	16862
836.064	16801
836.202	16797
836.34	17045
836.478	17121
836.615	16881
836.753	16984
836.891	17079
837.029	17067
837.167	17006
837.305	16930
837.443	16835
837.58	16820
837.718	16942
837.856	16881
837.993	16809
838.131	16797
838.269	16778
838.406	16839
838.544	16687
838.681	16497
838.819	16626
838.956	16360
839.094	16424
839.231	16421
839.369	16523
839.506	16793
839.643	16637
839.781	16462
839.918	16371
840.055	16390
840.193	16344
840.33	16356
840.467	16348
840.604	16424
840.742	16679
840.879	16249
841.016	16360
841.153	16360
841.29	16481
841.427	16363
841.564	16291
841.701	16432
841.838	16371
841.975	16356
842.112	16329
842.249	16261
842.385	16185
842.522	16291
842.659	16143
842.796	16048
842.933	16219
843.069	16097
843.206	16173
843.343	16249
843.479	16211
843.616	16185
843.752	16002
843.889	15972
844.025	16059
844.162	15918
844.298	16124
844.435	16021
844.571	15892
844.708	16048
844.844	16219
844.98	16101
845.117	16055
845.253	15998
845.389	15930
845.525	16017
845.661	16017
845.798	15884
845.934	16036
846.07	16002
846.206	16017
846.342	16063
846.478	15846
846.614	15736
846.75	15625
846.886	15500
847.022	15606
847.158	15568
847.294	15568
847.429	15576
847.565	15599
847.701	15759
847.837	15294
847.972	15283
848.108	15462
848.244	15408
848.379	15150
848.515	15203
848.65	15138
848.786	15226
848.921	15207
849.057	15355
849.192	15184
849.328	15256
849.463	15169
849.598	15066
849.734	15043
849.869	14979
850.004	14868
850.14	14925
850.275	14929
850.41	14899
850.545	14937
850.68	14929
850.815	14941
850.95	14986
851.085	15097
851.22	15146
851.355	14963
851.49	14895
851.625	14902
851.76	14899
851.895	14781
852.03	14861
852.165	14918
852.299	15051
852.434	15043
852.569	14998
852.703	14830
852.838	14967
852.973	14975
853.107	15085
853.242	14891
853.376	14849
853.511	14777
853.645	14842
853.78	14914
853.914	14785
854.048	14769
854.183	14762
854.317	14902
854.451	14990
854.585	14758
854.72	14743
854.854	14811
854.988	14735
855.122	14800
855.256	14750
855.39	14800
855.524	14883
855.658	14883
855.792	14838
855.926	14823
856.06	14815
856.194	14906
856.327	14785
856.461	14674
856.595	14697
856.729	14796
856.862	14830
856.996	14788
857.13	14826
857.263	14864
857.397	14960
857.53	14861
857.664	14823
857.797	14887
857.931	14929
858.064	14887
858.197	14895
858.331	14792
858.464	14731
858.597	14697
858.731	14750
858.864	14769
858.997	14792
859.13	14868
859.263	14781
859.396	14895
859.529	14750
859.662	14731
859.795	14708
859.928	14727
860.061	14971
860.194	14998
860.327	14842
860.46	14811
860.592	14823
860.725	14948
860.858	14918
860.99	14800
861.123	14750
861.256	14705
861.388	14712
861.521	15622
861.653	14686
861.786	14686
861.918	14621
862.05	14663
862.183	14743
862.315	14834
862.447	14845
862.58	14682
862.712	14648
862.844	14556
862.976	14613
863.108	14651
863.24	15009
863.372	14492
863.504	14495
863.636	14533
863.768	14602
863.9	14606
864.032	14507
864.164	14594
864.296	14621
864.428	14693
864.559	14560
864.691	14670
864.823	14560
864.954	14568
865.086	14659
865.217	14583
865.349	14514
865.48	14499
865.612	14640
865.743	14663
865.875	14552
866.006	14499
866.137	14526
866.269	14503
866.4	14476
866.531	14507
866.662	14473
866.793	14537
866.924	14583
867.055	14556
867.186	14518
867.317	14492
867.448	14343
867.579	14556
867.71	14377
867.841	14488
867.972	14571
868.103	14564
868.233	14511
868.364	14503
868.495	14594
868.625	14743
868.756	14914
868.886	14781
869.017	14781
869.147	14902
869.278	14994
869.408	14861
869.539	14762
869.669	14800
869.799	14811
869.929	14895
870.06	14872
870.19	15131
870.32	15051
870.45	15108
870.58	15157
870.71	15218
870.84	15249
870.97	15165
871.1	15116
871.23	15264
871.36	15462
871.489	15233
871.619	15294
871.749	15359
871.879	15370
872.008	15496
872.138	15374
872.267	15386
872.397	15226
872.526	15146
872.656	15214
872.785	15184
872.915	15408
873.044	15477
873.173	15424
873.303	15507
873.432	15405
873.561	15572
873.69	15462
873.819	15389
873.948	15462
874.077	15428
874.206	15458
874.335	15420
874.464	15694
874.593	15686
874.722	15610
874.851	15755
874.979	15766
875.108	15766
875.237	15644
875.365	15576
875.494	15603
875.623	15800
875.751	15831
875.88	15751
876.008	15804
876.136	15979
876.265	16143
876.393	16226
876.521	16287
876.65	16234
876.778	16162
876.906	16029
877.034	16154
877.162	16135
877.29	16143
877.418	16128
877.546	16211
877.674	16204
877.802	16128
877.93	16211
878.058	16097
878.185	16048
878.313	16120
878.441	16185
878.568	16131
878.696	16101
878.824	16284
878.951	16299
879.079	16432
879.206	16497
879.333	16379
879.461	16303
879.588	16379
879.715	16413
879.842	16535
879.97	16409
880.097	16082
880.224	16029
880.351	16101
880.478	16036
880.605	15960
880.732	16063
880.859	16257
880.986	16067
881.112	16177
881.239	15907
881.366	15823
881.493	15675
881.619	15728
881.746	15671
881.872	15690
881.999	15637
882.125	15656
882.252	15781
882.378	15625
882.505	15766
882.631	15572
882.757	15454
882.883	15519
883.01	15481
883.136	15447
883.262	15370
883.388	15340
883.514	15473
883.64	15557
883.766	15435
883.892	15313
884.018	15344
884.143	15595
884.269	15519
884.395	15199
884.52	15195
884.646	15272
884.772	15161
884.897	15108
885.023	15245
885.148	15264
885.274	15408
885.399	15291
885.524	15157
885.65	15127
885.775	15245
885.9	15100
886.025	15237
886.15	15123
886.275	15188
886.4	15058
886.525	15097
886.65	15093
886.775	15009
886.9	15348
887.025	15428
887.149	15203
887.274	14975
887.399	14998
887.523	14929
887.648	14937
887.773	14823
887.897	15097
888.021	15032
888.146	14952
888.27	15062
888.395	15199
888.519	15020
888.643	15116
888.767	15043
888.891	14842
889.015	14845
889.139	14899
889.263	14819
889.387	15070
889.511	15116
889.635	15017
889.759	14880
889.883	14792
890.006	14899
890.13	14921
890.254	14880
890.377	14716
890.501	14678
890.624	14659
890.748	14735
890.871	14598
890.995	14545
891.118	14408
891.241	14533
891.364	14473
891.488	14632
891.611	14590
891.734	14606
891.857	14598
891.98	14568
892.103	14564
892.226	14625
892.349	14442
892.471	14461
892.594	14575
892.717	14507
892.839	14541
892.962	14514
893.085	14640
893.207	14549
893.33	14503
893.452	14461
893.575	14579
893.697	14610
893.819	14697
893.941	14697
894.064	14629
894.186	14461
894.308	14454
894.43	14678
894.552	14727
894.674	14655
894.796	14522
894.918	14598
895.04	14560
895.161	14636
895.283	14693
895.405	14629
895.526	14617
895.648	14640
895.769	14762
895.891	14701
896.012	14712
896.134	14800
896.255	14693
896.376	14617
896.498	14731
896.619	14693
896.74	14716
896.861	14785
896.982	15036
897.103	15066
897.224	15028
897.345	14979
897.466	14868
897.587	14906
897.708	15066
897.828	15013
897.949	14887
898.07	14845
898.19	14902
898.311	15058
898.431	14960
898.552	15154
898.672	15077
898.792	15119
898.913	15055
899.033	14967
899.153	14853
899.273	14811
899.393	14830
899.513	14891
899.633	14807
899.753	14773
899.873	14880
899.993	14880
900.113	14876
900.232	14811
900.352	14838
900.472	14823
900.591	14716
900.711	14777
900.83	14610
900.95	14773
901.069	14823
901.189	14697
901.308	14347
901.427	14362
901.546	14404
901.665	14442
901.784	14377
901.904	14294
902.023	14111
902.141	13989
902.26	13982
902.379	14050
902.498	13944
902.617	13967
902.735	13917
902.854	13879
902.973	13925
903.091	13731
903.21	13719
903.328	13693
903.446	13582
903.565	13476
903.683	13457
903.801	13491
903.919	13476
904.038	13422
904.156	13266
904.274	13441
904.392	13270
904.51	13358
904.627	13285
904.745	13343
904.863	13392
904.981	13164
905.098	12905
905.216	13061
905.334	13057
905.451	13149
905.569	12916
905.686	13084
905.803	13034
905.921	12894
906.038	12916
906.155	12856
906.272	12776
906.389	12688
906.506	12627
906.623	12639
906.74	12707
906.857	12445
906.974	12532
907.091	12684
907.208	12817
907.324	12722
907.441	12521
907.557	12445
907.674	12388
907.79	12292
907.907	12380
908.023	12296
908.139	12319
908.256	12361
908.372	12243
908.488	12289
908.604	12095
908.72	12087
908.836	12144
908.952	12064
909.068	12083
909.184	12152
909.3	12041
909.415	12220
909.531	12114
909.647	11901
909.762	11920
909.878	11832
909.993	11821
910.108	11897
910.224	11855
910.339	11935
910.454	11745
910.57	11646
910.685	11657
910.8	11961
910.915	11920
911.03	11726
911.145	11592
911.259	11661
911.374	11547
911.489	11512
911.604	11421
911.718	11277
911.833	11292
911.947	11178
912.062	11178
912.176	11341
912.291	11250
912.405	11311
912.519	11516
912.633	11520
912.748	11318
912.862	11250
912.976	11235
913.09	11094
913.204	11140
913.318	11178
913.431	11299
913.545	11258
913.659	11341
913.772	11258
913.886	11143
914	11102
914.113	11204
914.226	11216
914.34	11189
914.453	11067
914.566	11166
914.68	11025
914.793	11025
914.906	10782
915.019	10771
915.132	10740
915.245	10820
915.358	10858
915.47	10752
915.583	10927
915.696	10858
915.809	10953
915.921	10987
916.034	10828
916.146	10672
916.259	10778
916.371	10900
916.483	10911
916.595	10710
916.708	10736
916.82	10733
916.932	10774
917.044	10702
917.156	10725
917.268	10645
917.38	10607
917.491	10599
917.603	10721
917.715	10717
917.826	10771
917.938	10683
918.049	10565
918.161	10771
918.272	10862
918.384	10752
918.495	10607
918.606	10523
918.717	10466
918.828	10462
918.939	10618
919.05	10500
919.161	10561
919.272	10402
919.383	10341
919.494	10588
919.604	10752
919.715	10546
919.826	10489
919.936	10516
920.047	10611
920.157	10558
920.267	10759
920.378	10577
920.488	10618
920.598	10691
920.708	10847
920.818	10790
920.928	10717
921.038	10942
921.148	10869
921.258	10531
921.368	10470
921.477	10344
921.587	10405
921.697	10257
921.806	10447
921.916	10280
922.025	10215
922.134	10078
922.244	10048
922.353	10150
922.462	10067
922.571	9915
922.68	9812
922.789	9740
922.898	9800
923.007	9690
923.116	9846
923.224	9774
923.333	9747
923.442	9614
923.55	9728
923.659	9644
923.767	9823
923.876	9603
923.984	9785
924.092	9603
924.201	9717
924.309	9652
924.417	9633
924.525	9572
924.633	9595
924.741	10379
924.849	9443
924.956	9660
925.064	9447
925.172	9386
925.279	9321
925.387	9462
925.494	9473
925.602	9549
925.709	9504
925.816	9329
925.924	9473
926.031	9428
926.138	9420
926.245	9469
926.352	9416
926.459	9469
926.566	9534
926.673	9344
926.779	9321
926.886	9287
926.993	9123
927.099	9135
927.206	9017
927.312	9085
927.419	9176
927.525	9150
927.631	9211
927.737	9020
927.843	8998
927.95	8941
928.056	9001
928.162	8998
928.267	9100
928.373	9682
928.479	9135
928.585	8868
928.69	8994
928.796	9089
928.901	8967
929.007	8754
929.112	8994
929.218	8845
929.323	8777
929.428	8792
929.533	8952
929.638	8864
929.743	8743
929.848	8773
929.953	8819
930.058	8743
930.163	8556
930.267	8629
930.372	8762
930.477	8495
930.581	8842
930.685	8659
930.79	8484
930.894	8552
930.998	8545
931.103	8590
931.207	8351
931.311	8317
931.415	8195
931.519	8103
931.623	8046
