Data from test_V78500241_1965.txt Node
Date: Fri Mar 25 14:47:23 CST 2022
User: usil
Spectrometer: V785-0024
Trigger mode: 0
Integration Time (sec): 4.000000E-1
Scans to average: 1
Nonlinearity correction enabled: false
Boxcar width: 0
Storing dark spectrum: false
XAxis mode: Wavelengths
Number of Pixels in Spectrum: 1024
>>>>>Begin Spectral Data<<<<<
801.071	22166
801.214	21873
801.356	21644
801.499	21679
801.641	21443
801.783	21450
801.926	21420
802.068	21393
802.211	21386
802.353	21116
802.496	21055
802.638	20971
802.78	20826
802.923	20845
803.065	20773
803.208	20819
803.35	20785
803.492	20872
803.635	20796
803.777	20731
803.919	20975
804.061	21119
804.204	20807
804.346	20804
804.488	20663
804.63	20743
804.773	20655
804.915	20746
805.057	20811
805.199	20693
805.341	20762
805.483	20838
805.626	20785
805.768	20686
805.91	20811
806.052	20712
806.194	20571
806.336	20868
806.478	20708
806.62	20609
806.762	20701
806.904	20872
807.046	21081
807.188	20952
807.33	20944
807.472	21024
807.614	20937
807.756	21020
807.898	20864
808.04	20724
808.182	20739
808.324	20826
808.465	20788
808.607	21058
808.749	21055
808.891	21096
809.033	21241
809.174	21233
809.316	21013
809.458	21112
809.6	20960
809.741	21024
809.883	21081
810.025	21245
810.166	21298
810.308	21112
810.45	21275
810.591	21085
810.733	20944
810.875	20796
811.016	20667
811.158	20777
811.299	20796
811.441	20941
811.582	21043
811.724	20914
811.865	20838
812.007	20800
812.148	20819
812.29	20845
812.431	20906
812.573	21138
812.714	21207
812.855	21294
812.997	21435
813.138	21549
813.279	21412
813.421	21325
813.562	21237
813.703	21062
813.845	20956
813.986	20670
814.127	20511
814.268	20488
814.41	20339
814.551	20366
814.692	20541
814.833	20172
814.974	20252
815.115	20374
815.256	20244
815.397	20218
815.539	20252
815.68	20161
815.821	20050
815.962	20134
816.103	20027
816.244	19936
816.385	19917
816.526	19776
816.666	19681
816.807	19495
816.948	19658
817.089	19586
817.23	19552
817.371	19540
817.512	19441
817.653	19556
817.793	19525
817.934	19548
818.075	19575
818.216	19586
818.356	19419
818.497	19430
818.638	19118
818.778	19282
818.919	19244
819.06	19247
819.2	19301
819.341	19343
819.481	19407
819.622	19567
819.762	19693
819.903	19605
820.043	19609
820.184	19499
820.324	19457
820.465	19628
820.605	19582
820.746	19487
820.886	19434
821.026	19533
821.167	19521
821.307	19422
821.447	19476
821.588	19369
821.728	19187
821.868	19129
822.008	18973
822.149	18795
822.289	18840
822.429	18688
822.569	18555
822.709	18623
822.849	18509
822.99	18452
823.13	18429
823.27	18471
823.41	18174
823.55	18171
823.69	18182
823.83	18224
823.97	18091
824.11	18049
824.25	17931
824.389	18030
824.529	18155
824.669	18011
824.809	18041
824.949	18026
825.089	18148
825.228	18064
825.368	17855
825.508	17809
825.648	17756
825.787	17931
825.927	17832
826.067	17687
826.206	17748
826.346	17828
826.485	17805
826.625	17771
826.765	17939
826.904	17798
827.044	17482
827.183	17562
827.323	17497
827.462	17551
827.601	17474
827.741	17459
827.88	17436
828.02	17261
828.159	17337
828.298	17512
828.437	17573
828.577	17376
828.716	17482
828.855	17455
828.994	17254
829.134	17083
829.273	17299
829.412	17197
829.551	17170
829.69	17273
829.829	17254
829.968	17296
830.107	17261
830.246	17242
830.385	17067
830.524	17060
830.663	17094
830.802	16965
830.941	16786
831.08	16835
831.219	16957
831.357	16892
831.496	17022
831.635	16885
831.774	16744
831.913	16748
832.051	16596
832.19	16607
832.329	16706
832.467	16538
832.606	16512
832.744	16565
832.883	16542
833.022	16466
833.16	16580
833.299	16497
833.437	16561
833.576	16603
833.714	16573
833.852	16615
833.991	16592
834.129	16679
834.267	16778
834.406	16641
834.544	16622
834.682	16592
834.821	16569
834.959	16820
835.097	16565
835.235	16634
835.373	16729
835.511	16702
835.65	16558
835.788	16470
835.926	16291
836.064	16295
836.202	16398
836.34	16531
836.478	16611
836.615	16508
836.753	16580
836.891	16550
837.029	16588
837.167	16485
837.305	16417
837.443	16379
837.58	16325
837.718	16386
837.856	16493
837.993	16348
838.131	16447
838.269	16333
838.406	16287
838.544	16268
838.681	16124
838.819	16078
838.956	15835
839.094	15960
839.231	15949
839.369	16109
839.506	16348
839.643	16173
839.781	15953
839.918	15899
840.055	16025
840.193	15949
840.33	15953
840.467	16006
840.604	15861
840.742	16188
840.879	15816
841.016	15831
841.153	15854
841.29	16051
841.427	15930
841.564	15960
841.701	16078
841.838	15895
841.975	15774
842.112	15732
842.249	15705
842.385	15762
842.522	15915
842.659	15762
842.796	15709
842.933	15694
843.069	15622
843.206	15629
843.343	15739
843.479	15736
843.616	15785
843.752	15591
843.889	15542
844.025	15682
844.162	15378
844.298	15648
844.435	15454
844.571	15428
844.708	15526
844.844	15679
844.98	15682
845.117	15656
845.253	15492
845.389	15401
845.525	15443
845.661	15416
845.798	15332
845.934	15336
846.07	15218
846.206	15313
846.342	15485
846.478	15226
846.614	15077
846.75	14986
846.886	15024
847.022	15131
847.158	15081
847.294	15039
847.429	15108
847.565	15089
847.701	15306
847.837	14834
847.972	14857
848.108	14933
848.244	14960
848.379	14788
848.515	14705
848.65	14663
848.786	14621
848.921	14689
849.057	14716
849.192	14838
849.328	14735
849.463	14727
849.598	14564
849.734	14670
849.869	14549
850.004	14488
850.14	14495
850.275	14522
850.41	14419
850.545	14381
850.68	14412
850.815	14404
850.95	14404
851.085	14617
851.22	14480
851.355	14484
851.49	14476
851.625	14431
851.76	14450
851.895	14389
852.03	14328
852.165	14507
852.299	14511
852.434	14484
852.569	14503
852.703	14389
852.838	14594
852.973	14632
853.107	14670
853.242	14404
853.376	14320
853.511	14256
853.645	14305
853.78	14381
853.914	14252
854.048	14221
854.183	14290
854.317	14393
854.451	14514
854.585	14294
854.72	14282
854.854	14339
854.988	14278
855.122	14233
855.256	14271
855.39	14324
855.524	14431
855.658	14408
855.792	14328
855.926	14343
856.06	14366
856.194	14495
856.327	14374
856.461	14275
856.595	14301
856.729	14263
856.862	14450
856.996	14309
857.13	14442
857.263	14480
857.397	14480
857.53	14332
857.664	14374
857.797	14343
857.931	14450
858.064	14415
858.197	14389
858.331	14317
858.464	14172
858.597	14339
858.731	14275
858.864	14218
858.997	14248
859.13	14377
859.263	14355
859.396	14370
859.529	14252
859.662	14240
859.795	14275
859.928	14259
860.061	14522
860.194	14594
860.327	14362
860.46	14434
860.592	14454
860.725	14454
860.858	14381
860.99	14294
861.123	14221
861.256	14377
861.388	14358
861.521	14979
861.653	14259
861.786	14180
861.918	14221
862.05	14267
862.183	14237
862.315	14286
862.447	14332
862.58	14149
862.712	14084
862.844	14039
862.976	14187
863.108	14100
863.24	14412
863.372	14024
863.504	14077
863.636	14111
863.768	14176
863.9	14153
864.032	14103
864.164	14039
864.296	14126
864.428	14191
864.559	14225
864.691	14062
864.823	14187
864.954	14157
865.086	14164
865.217	14054
865.349	13970
865.48	14092
865.612	14027
865.743	14244
865.875	14126
866.006	14088
866.137	14088
866.269	14100
866.4	14058
866.531	14069
866.662	13947
866.793	14001
866.924	14005
867.055	14069
867.186	14153
867.317	14092
867.448	13894
867.579	13993
867.71	13997
867.841	13989
867.972	14138
868.103	14088
868.233	14081
868.364	14073
868.495	14062
868.625	14377
868.756	14393
868.886	14252
869.017	14252
869.147	14442
869.278	14488
869.408	14339
869.539	14393
869.669	14438
869.799	14317
869.929	14438
870.06	14541
870.19	14621
870.32	14587
870.45	14537
870.58	14830
870.71	14823
870.84	14876
870.97	14750
871.1	14693
871.23	14864
871.36	14941
871.489	14807
871.619	14880
871.749	14849
871.879	14982
872.008	15047
872.138	14883
872.267	14944
872.397	14804
872.526	14731
872.656	14701
872.785	14785
872.915	14948
873.044	15070
873.173	14921
873.303	14990
873.432	15089
873.561	15009
873.69	14956
873.819	14986
873.948	15051
874.077	15028
874.206	14918
874.335	14982
874.464	15104
874.593	15264
874.722	15325
874.851	15355
874.979	15370
875.108	15370
875.237	15294
875.365	15207
875.494	15256
875.623	15336
875.751	15310
875.88	15279
876.008	15447
876.136	15572
876.265	15816
876.393	15880
876.521	15755
876.65	15869
876.778	15709
876.906	15675
877.034	15648
877.162	15656
877.29	15698
877.418	15739
877.546	15694
877.674	15720
877.802	15774
877.93	15698
878.058	15739
878.185	15572
878.313	15694
878.441	15717
878.568	15576
878.696	15606
878.824	15732
878.951	15774
879.079	15922
879.206	16048
879.333	15876
879.461	15743
879.588	15797
879.715	15918
879.842	16032
879.97	15720
880.097	15561
880.224	15523
880.351	15557
880.478	15564
880.605	15679
880.732	15606
880.859	15778
880.986	15572
881.112	15523
881.239	15447
881.366	15313
881.493	15294
881.619	15188
881.746	15207
881.872	15279
881.999	15161
882.125	15173
882.252	15268
882.378	15252
882.505	15401
882.631	15173
882.757	15020
882.883	15077
883.01	14960
883.136	14967
883.262	14948
883.388	14899
883.514	15127
883.64	15077
883.766	14986
883.892	14834
884.018	14937
884.143	14990
884.269	15138
884.395	14868
884.52	14663
884.646	14762
884.772	14727
884.897	14552
885.023	14800
885.148	14857
885.274	14834
885.399	14815
885.524	14781
885.65	14773
885.775	14777
885.9	14777
886.025	14834
886.15	14826
886.275	14667
886.4	14648
886.525	14727
886.65	14644
886.775	14632
886.9	14765
887.025	14944
887.149	14735
887.274	14712
887.399	14476
887.523	14522
887.648	14575
887.773	14511
887.897	14606
888.021	14556
888.146	14549
888.27	14632
888.395	14758
888.519	14537
888.643	14667
888.767	14621
888.891	14522
889.015	14374
889.139	14526
889.263	14408
889.387	14617
889.511	14629
889.635	14583
889.759	14454
889.883	14396
890.006	14484
890.13	14488
890.254	14271
890.377	14358
890.501	14210
890.624	14259
890.748	14256
890.871	14180
890.995	14081
891.118	14012
891.241	14153
891.364	14130
891.488	14195
891.611	14157
891.734	14145
891.857	14191
891.98	14161
892.103	14256
892.226	14062
892.349	14225
892.471	13986
892.594	14103
892.717	14065
892.839	14088
892.962	14191
893.085	14073
893.207	14115
893.33	14081
893.452	14054
893.575	14138
893.697	14130
893.819	14267
893.941	14282
894.064	14275
894.186	14084
894.308	14096
894.43	14244
894.552	14294
894.674	14282
894.796	14043
894.918	14138
895.04	14149
895.161	14301
895.283	14248
895.405	14191
895.526	14275
895.648	14229
895.769	14290
895.891	14259
896.012	14396
896.134	14362
896.255	14256
896.376	14294
896.498	14225
896.619	14324
896.74	14271
896.861	14377
896.982	14629
897.103	14902
897.224	14560
897.345	14594
897.466	14511
897.587	14556
897.708	14708
897.828	14587
897.949	14575
898.07	14492
898.19	14537
898.311	14632
898.431	14488
898.552	14610
898.672	14758
898.792	14651
898.913	14735
899.033	14552
899.153	14499
899.273	14446
899.393	14503
899.513	14625
899.633	14450
899.753	14579
899.873	14427
899.993	14408
900.113	14393
900.232	14469
900.352	14530
900.472	14434
900.591	14389
900.711	14267
900.83	14332
900.95	14434
901.069	14503
901.189	14290
901.308	14062
901.427	13970
901.546	14050
901.665	14012
901.784	14031
901.904	13932
902.023	13833
902.141	13643
902.26	13533
902.379	13704
902.498	13575
902.617	13483
902.735	13689
902.854	13487
902.973	13506
903.091	13308
903.21	13346
903.328	13331
903.446	13228
903.565	13164
903.683	13190
903.801	13122
903.919	13076
904.038	13160
904.156	13053
904.274	13053
904.392	12920
904.51	12973
904.627	13072
904.745	13012
904.863	13038
904.981	12867
905.098	12791
905.216	12700
905.334	12662
905.451	12821
905.569	12715
905.686	12665
905.803	12696
905.921	12494
906.038	12566
906.155	12620
906.272	12414
906.389	12391
906.506	12311
906.623	12281
906.74	12273
906.857	12087
906.974	12190
907.091	12361
907.208	12441
907.324	12281
907.441	12224
907.557	12045
907.674	11946
907.79	11950
907.907	11984
908.023	11992
908.139	12022
908.256	11920
908.372	11946
908.488	11920
908.604	11817
908.72	11798
908.836	11790
908.952	11764
909.068	11851
909.184	11878
909.3	11798
909.415	11824
909.531	11813
909.647	11573
909.762	11493
909.878	11551
909.993	11547
910.108	11551
910.224	11554
910.339	11646
910.454	11532
910.57	11337
910.685	11410
910.8	11627
910.915	11524
911.03	11436
911.145	11277
911.259	11220
911.374	11235
911.489	11239
911.604	11162
911.718	10976
911.833	11010
911.947	10873
912.062	10828
912.176	11025
912.291	11029
912.405	11018
912.519	11204
912.633	11227
912.748	11071
912.862	10984
912.976	10911
913.09	10763
913.204	10790
913.318	10923
913.431	10885
913.545	10972
913.659	11052
913.772	10877
913.886	10755
914	10675
914.113	10847
914.226	10892
914.34	10828
914.453	10687
914.566	10793
914.68	10717
914.793	10577
914.906	10580
915.019	10565
915.132	10421
915.245	10470
915.358	10577
915.47	10580
915.583	10516
915.696	10523
915.809	10706
915.921	10694
916.034	10535
916.146	10424
916.259	10409
916.371	10538
916.483	10588
916.595	10447
916.708	10485
916.82	10436
916.932	10386
917.044	10409
917.156	10382
917.268	10352
917.38	10299
917.491	10413
917.603	10462
917.715	10443
917.826	10398
917.938	10337
918.049	10291
918.161	10314
918.272	10493
918.384	10478
918.495	10379
918.606	10238
918.717	10120
918.828	10238
918.939	10280
919.05	10059
919.161	10177
919.272	9945
919.383	10101
919.494	10249
919.604	10447
919.715	10223
919.826	10280
919.936	10177
920.047	10276
920.157	10207
920.267	10489
920.378	10284
920.488	10185
920.598	10386
920.708	10603
920.818	10455
920.928	10405
921.038	10649
921.148	10611
921.258	10295
921.368	10215
921.477	10051
921.587	10071
921.697	9991
921.806	10067
921.916	9991
922.025	9850
922.134	9728
922.244	9793
922.353	9812
922.462	9743
922.571	9663
922.68	9481
922.789	9454
922.898	9481
923.007	9439
923.116	9454
923.224	9523
923.333	9416
923.442	9351
923.55	9412
923.659	9332
923.767	9443
923.876	9355
923.984	9450
924.092	9298
924.201	9351
924.309	9325
924.417	9325
924.525	9268
924.633	9348
924.741	10265
924.849	9199
924.956	9317
925.064	9131
925.172	9066
925.279	9131
925.387	9119
925.494	9104
925.602	9321
925.709	9218
925.816	9005
925.924	9123
926.031	9195
926.138	9173
926.245	9154
926.352	9097
926.459	9195
926.566	9233
926.673	9074
926.779	9013
926.886	9039
926.993	8872
927.099	8880
927.206	8788
927.312	8883
927.419	8971
927.525	8906
927.631	8921
927.737	8807
927.843	8781
927.95	8689
928.056	8754
928.162	8815
928.267	8853
928.373	9485
928.479	8948
928.585	8663
928.69	8785
928.796	8845
928.901	8701
929.007	8587
929.112	8705
929.218	8682
929.323	8598
929.428	8587
929.533	8735
929.638	8575
929.743	8575
929.848	8686
929.953	8564
930.058	8507
930.163	8450
930.267	8393
930.372	8537
930.477	8366
930.581	8625
930.685	8431
930.79	8313
930.894	8336
930.998	8317
931.103	8431
931.207	8107
931.311	8035
931.415	8024
931.519	7765
931.623	7830
