Data from test_V78500241_3151.txt Node
Date: Fri Mar 25 14:55:39 CST 2022
User: usil
Spectrometer: V785-0024
Trigger mode: 0
Integration Time (sec): 4.000000E-1
Scans to average: 1
Nonlinearity correction enabled: false
Boxcar width: 0
Storing dark spectrum: false
XAxis mode: Wavelengths
Number of Pixels in Spectrum: 1024
>>>>>Begin Spectral Data<<<<<
801.071	22223
801.214	22048
801.356	21705
801.499	21580
801.641	21545
801.783	21469
801.926	21496
802.068	21378
802.211	21256
802.353	21214
802.496	21020
802.638	20895
802.78	20876
802.923	20762
803.065	20682
803.208	20712
803.35	20880
803.492	20880
803.635	20925
803.777	20769
803.919	20906
804.061	21169
804.204	20743
804.346	20708
804.488	20670
804.63	20739
804.773	20765
804.915	20659
805.057	20758
805.199	20621
805.341	20629
805.483	20849
805.626	20762
805.768	20689
805.91	20613
806.052	20701
806.194	20484
806.336	20781
806.478	20720
806.62	20590
806.762	20762
806.904	20910
807.046	21154
807.188	21013
807.33	21005
807.472	21039
807.614	20830
807.756	21024
807.898	20876
808.04	20746
808.182	20777
808.324	20773
808.465	20754
808.607	20975
808.749	20986
808.891	21104
809.033	21245
809.174	21154
809.316	21081
809.458	21096
809.6	21131
809.741	21036
809.883	21093
810.025	21287
810.166	21180
810.308	21169
810.45	21047
810.591	21199
810.733	20910
810.875	20815
811.016	20640
811.158	20621
811.299	20880
811.441	20998
811.582	21020
811.724	20735
811.865	20800
812.007	20651
812.148	20640
812.29	20891
812.431	20929
812.573	21062
812.714	21157
812.855	21230
812.997	21325
813.138	21603
813.279	21351
813.421	21306
813.562	21135
813.703	21024
813.845	20944
813.986	20518
814.127	20518
814.268	20461
814.41	20389
814.551	20282
814.692	20278
814.833	20267
814.974	20244
815.115	20286
815.256	20199
815.397	20172
815.539	20145
815.68	20138
815.821	20191
815.962	20096
816.103	20054
816.244	19921
816.385	19765
816.526	19921
816.666	19655
816.807	19468
816.948	19586
817.089	19681
817.23	19533
817.371	19597
817.512	19521
817.653	19396
817.793	19468
817.934	19472
818.075	19510
818.216	19419
818.356	19384
818.497	19232
818.638	19126
818.778	19266
818.919	19282
819.06	19209
819.2	19297
819.341	19335
819.481	19365
819.622	19480
819.762	19719
819.903	19483
820.043	19552
820.184	19483
820.324	19343
820.465	19525
820.605	19388
820.746	19346
820.886	19213
821.026	19403
821.167	19445
821.307	19430
821.447	19403
821.588	19160
821.728	19225
821.868	18954
822.008	18859
822.149	18901
822.289	18757
822.429	18612
822.569	18479
822.709	18555
822.849	18361
822.99	18384
823.13	18384
823.27	18330
823.41	18235
823.55	18114
823.69	18205
823.83	18186
823.97	18072
824.11	17874
824.25	18019
824.389	17878
824.529	18053
824.669	17961
824.809	18038
824.949	18140
825.089	17969
825.228	17912
825.368	17767
825.508	17836
825.648	17752
825.787	17710
825.927	17798
826.067	17695
826.206	17638
826.346	17783
826.485	17779
826.625	17653
826.765	17775
826.904	17809
827.044	17474
827.183	17414
827.323	17395
827.462	17463
827.601	17410
827.741	17414
827.88	17486
828.02	17387
828.159	17360
828.298	17448
828.437	17429
828.577	17261
828.716	17619
828.855	17433
828.994	17261
829.134	17204
829.273	17147
829.412	17159
829.551	17102
829.69	17223
829.829	17216
829.968	17269
830.107	17143
830.246	17174
830.385	17113
830.524	17071
830.663	17018
830.802	16843
830.941	16736
831.08	16733
831.219	16774
831.357	16812
831.496	16999
831.635	16805
831.774	16687
831.913	16710
832.051	16618
832.19	16527
832.329	16558
832.467	16527
832.606	16462
832.744	16394
832.883	16413
833.022	16386
833.16	16474
833.299	16375
833.437	16413
833.576	16436
833.714	16569
833.852	16474
833.991	16554
834.129	16603
834.267	16664
834.406	16428
834.544	16558
834.682	16554
834.821	16504
834.959	16767
835.097	16516
835.235	16573
835.373	16459
835.511	16478
835.65	16436
835.788	16417
835.926	16284
836.064	16204
836.202	16325
836.34	16409
836.478	16531
836.615	16402
836.753	16333
836.891	16535
837.029	16409
837.167	16447
837.305	16341
837.443	16367
837.58	16211
837.718	16314
837.856	16314
837.993	16181
838.131	16306
838.269	16188
838.406	16154
838.544	16150
838.681	15972
838.819	15930
838.956	15793
839.094	15827
839.231	15884
839.369	16025
839.506	16166
839.643	16097
839.781	15876
839.918	15865
840.055	15857
840.193	15812
840.33	15816
840.467	15762
840.604	15857
840.742	16120
840.879	15633
841.016	15679
841.153	15781
841.29	15945
841.427	15778
841.564	15857
841.701	15915
841.838	15728
841.975	15819
842.112	15663
842.249	15686
842.385	15633
842.522	15743
842.659	15606
842.796	15622
842.933	15641
843.069	15477
843.206	15644
843.343	15663
843.479	15557
843.616	15667
843.752	15500
843.889	15488
844.025	15568
844.162	15207
844.298	15485
844.435	15344
844.571	15397
844.708	15473
844.844	15542
844.98	15553
845.117	15416
845.253	15264
845.389	15272
845.525	15370
845.661	15325
845.798	15180
845.934	15306
846.07	15104
846.206	15203
846.342	15332
846.478	15154
846.614	14952
846.75	14921
846.886	14918
847.022	15028
847.158	14929
847.294	14963
847.429	14960
847.565	14929
847.701	15260
847.837	14670
847.972	14651
848.108	14769
848.244	14804
848.379	14587
848.515	14575
848.65	14522
848.786	14530
848.921	14549
849.057	14640
849.192	14682
849.328	14689
849.463	14617
849.598	14564
849.734	14484
849.869	14408
850.004	14351
850.14	14454
850.275	14366
850.41	14237
850.545	14332
850.68	14313
850.815	14393
850.95	14412
851.085	14518
851.22	14434
851.355	14400
851.49	14221
851.625	14275
851.76	14248
851.895	14286
852.03	14183
852.165	14298
852.299	14355
852.434	14377
852.569	14301
852.703	14427
852.838	14434
852.973	14499
853.107	14457
853.242	14305
853.376	14210
853.511	14088
853.645	14180
853.78	14317
853.914	14229
854.048	14233
854.183	14164
854.317	14206
854.451	14355
854.585	14111
854.72	14126
854.854	14282
854.988	14164
855.122	14134
855.256	13974
855.39	14195
855.524	14339
855.658	14259
855.792	14210
855.926	14271
856.06	14252
856.194	14317
856.327	14218
856.461	14164
856.595	14130
856.729	14103
856.862	14298
856.996	14183
857.13	14286
857.263	14301
857.397	14317
857.53	14176
857.664	14377
857.797	14328
857.931	14336
858.064	14218
858.197	14320
858.331	14263
858.464	14134
858.597	14020
858.731	14172
858.864	14172
858.997	14134
859.13	14309
859.263	14157
859.396	14301
859.529	14161
859.662	14229
859.795	14187
859.928	14100
860.061	14457
860.194	14332
860.327	14164
860.46	14187
860.592	14309
860.725	14301
860.858	14362
860.99	14214
861.123	14046
861.256	14115
861.388	14107
861.521	14849
861.653	14016
861.786	14058
861.918	14119
862.05	14153
862.183	14100
862.315	14142
862.447	14229
862.58	14126
862.712	13970
862.844	13837
862.976	14084
863.108	14039
863.24	14442
863.372	13906
863.504	14005
863.636	13925
863.768	13940
863.9	13963
864.032	13898
864.164	13898
864.296	13978
864.428	14043
864.559	14046
864.691	14054
864.823	14043
864.954	14012
865.086	14134
865.217	14081
865.349	13951
865.48	13951
865.612	14008
865.743	14157
865.875	13959
866.006	13921
866.137	14031
866.269	13993
866.4	14016
866.531	13890
866.662	13913
866.793	13921
866.924	13902
867.055	13940
867.186	13982
867.317	13811
867.448	13852
867.579	13860
867.71	13921
867.841	13925
867.972	13974
868.103	14073
868.233	14024
868.364	13974
868.495	14084
868.625	14278
868.756	14271
868.886	14084
869.017	14202
869.147	14256
869.278	14446
869.408	14275
869.539	14271
869.669	14298
869.799	14221
869.929	14347
870.06	14343
870.19	14583
870.32	14514
870.45	14541
870.58	14526
870.71	14792
870.84	14743
870.97	14568
871.1	14587
871.23	14750
871.36	14765
871.489	14731
871.619	14758
871.749	14842
871.879	14883
872.008	14891
872.138	14804
872.267	14845
872.397	14693
872.526	14663
872.656	14549
872.785	14606
872.915	14838
873.044	14925
873.173	14861
873.303	14960
873.432	14823
873.561	14963
873.69	14842
873.819	14819
873.948	14891
874.077	14902
874.206	14872
874.335	14868
874.464	15074
874.593	15195
874.722	15230
874.851	15180
874.979	15329
875.108	15207
875.237	15192
875.365	15062
875.494	15192
875.623	15188
875.751	15135
875.88	15135
876.008	15249
876.136	15310
876.265	15603
876.393	15739
876.521	15629
876.65	15641
876.778	15606
876.906	15557
877.034	15587
877.162	15557
877.29	15542
877.418	15785
877.546	15656
877.674	15686
877.802	15625
877.93	15637
878.058	15530
878.185	15519
878.313	15526
878.441	15542
878.568	15405
878.696	15526
878.824	15625
878.951	15637
879.079	15705
879.206	15926
879.333	15812
879.461	15625
879.588	15774
879.715	15713
879.842	15835
879.97	15747
880.097	15424
880.224	15488
880.351	15386
880.478	15462
880.605	15500
880.732	15393
880.859	15709
880.986	15545
881.112	15469
881.239	15389
881.366	15195
881.493	15036
881.619	15116
881.746	15123
881.872	15032
881.999	15066
882.125	15028
882.252	15108
882.378	15062
882.505	15169
882.631	15154
882.757	14876
882.883	14941
883.01	14902
883.136	14842
883.262	14823
883.388	14758
883.514	14948
883.64	14944
883.766	14895
883.892	14746
884.018	14769
884.143	14838
884.269	15013
884.395	14693
884.52	14549
884.646	14598
884.772	14560
884.897	14598
885.023	14575
885.148	14830
885.274	14826
885.399	14701
885.524	14625
885.65	14590
885.775	14663
885.9	14701
886.025	14613
886.15	14739
886.275	14590
886.4	14537
886.525	14514
886.65	14613
886.775	14415
886.9	14819
887.025	14815
887.149	14522
887.274	14446
887.399	14446
887.523	14377
887.648	14347
887.773	14263
887.897	14522
888.021	14545
888.146	14419
888.27	14492
888.395	14587
888.519	14560
888.643	14480
888.767	14503
888.891	14374
889.015	14286
889.139	14313
889.263	14317
889.387	14473
889.511	14480
889.635	14347
889.759	14286
889.883	14324
890.006	14336
890.13	14389
890.254	14218
890.377	14271
890.501	14126
890.624	14130
890.748	14240
890.871	14008
890.995	13928
891.118	13936
891.241	14176
891.364	14043
891.488	14176
891.611	14031
891.734	14073
891.857	14100
891.98	13944
892.103	14054
892.226	14081
892.349	14069
892.471	13898
892.594	14020
892.717	14172
892.839	14050
892.962	14077
893.085	14092
893.207	14031
893.33	13913
893.452	13940
893.575	14081
893.697	14001
893.819	14233
893.941	14225
894.064	14157
894.186	14069
894.308	14092
894.43	14199
894.552	14294
894.674	14145
894.796	14050
894.918	14016
895.04	14092
895.161	14103
895.283	13982
895.405	14084
895.526	14084
895.648	14123
895.769	14199
895.891	14275
896.012	14221
896.134	14168
896.255	14244
896.376	14180
896.498	14157
896.619	14328
896.74	14168
896.861	14195
896.982	14526
897.103	14613
897.224	14610
897.345	14442
897.466	14358
897.587	14446
897.708	14533
897.828	14495
897.949	14511
898.07	14374
898.19	14377
898.311	14590
898.431	14404
898.552	14583
898.672	14651
898.792	14617
898.913	14598
899.033	14450
899.153	14385
899.273	14347
899.393	14431
899.513	14446
899.633	14434
899.753	14400
899.873	14347
899.993	14541
900.113	14389
900.232	14446
900.352	14362
900.472	14187
900.591	14237
900.711	14290
900.83	14263
900.95	14294
901.069	14336
901.189	14176
901.308	14027
901.427	13925
901.546	13959
901.665	14012
901.784	13989
901.904	13765
902.023	13738
902.141	13552
902.26	13480
902.379	13582
902.498	13514
902.617	13529
902.735	13472
902.854	13620
902.973	13377
903.091	13213
903.21	13274
903.328	13175
903.446	13209
903.565	13069
903.683	13145
903.801	13042
903.919	13061
904.038	13072
904.156	12924
904.274	13004
904.392	12947
904.51	12859
904.627	12954
904.745	12951
904.863	12947
904.981	12650
905.098	12551
905.216	12677
905.334	12559
905.451	12555
905.569	12536
905.686	12620
905.803	12665
905.921	12448
906.038	12551
906.155	12410
906.272	12353
906.389	12281
906.506	12224
906.623	12205
906.74	12178
906.857	12038
906.974	12076
907.091	12186
907.208	12365
907.324	12213
907.441	12171
907.557	11961
907.674	11935
907.79	11885
907.907	11942
908.023	11893
908.139	11855
908.256	11927
908.372	11901
908.488	11843
908.604	11798
908.72	11688
908.836	11665
908.952	11710
909.068	11600
909.184	11741
909.3	11783
909.415	11745
909.531	11672
909.647	11471
909.762	11490
909.878	11395
909.993	11414
910.108	11452
910.224	11452
910.339	11516
910.454	11341
910.57	11261
910.685	11208
910.8	11573
910.915	11452
911.03	11246
911.145	11201
911.259	11151
911.374	11128
911.489	11174
911.604	10999
911.718	10831
911.833	11006
911.947	10793
912.062	10714
912.176	10908
912.291	10911
912.405	10881
912.519	11124
912.633	11083
912.748	10908
912.862	10820
912.976	10805
913.09	10683
913.204	10778
913.318	10828
913.431	10957
913.545	10885
913.659	10923
913.772	10797
913.886	10618
914	10626
914.113	10786
914.226	10721
914.34	10771
914.453	10523
914.566	10740
914.68	10569
914.793	10592
914.906	10474
915.019	10398
915.132	10413
915.245	10310
915.358	10432
915.47	10367
915.583	10504
915.696	10462
915.809	10615
915.921	10588
916.034	10367
916.146	10375
916.259	10314
916.371	10504
916.483	10394
916.595	10310
916.708	10352
916.82	10360
916.932	10306
917.044	10322
917.156	10230
917.268	10154
917.38	10310
917.491	10223
917.603	10287
917.715	10386
917.826	10379
917.938	10242
918.049	10200
918.161	10249
918.272	10299
918.384	10356
918.495	10303
918.606	10169
918.717	10105
918.828	10131
918.939	10162
919.05	10044
919.161	10055
919.272	9964
919.383	10006
919.494	10211
919.604	10352
919.715	10154
919.826	10067
919.936	10048
920.047	10219
920.157	10192
920.267	10352
920.378	10139
920.488	10154
920.598	10329
920.708	10512
920.818	10333
920.928	10382
921.038	10542
921.148	10474
921.258	10109
921.368	10086
921.477	10067
921.587	10025
921.697	9854
921.806	10063
921.916	9903
922.025	9732
922.134	9747
922.244	9656
922.353	9732
922.462	9618
922.571	9530
922.68	9420
922.789	9378
922.898	9443
923.007	9420
923.116	9428
923.224	9477
923.333	9401
923.442	9351
923.55	9249
923.659	9313
923.767	9329
923.876	9264
923.984	9310
924.092	9207
924.201	9184
924.309	9310
924.417	9176
924.525	9173
924.633	9298
924.741	10181
924.849	9036
924.956	9256
925.064	9058
925.172	8956
925.279	9009
925.387	9058
925.494	9108
925.602	9199
925.709	9131
925.816	9032
925.924	9058
926.031	9268
926.138	9074
926.245	9146
926.352	8963
926.459	9146
926.566	9116
926.673	8998
926.779	8979
926.886	8941
926.993	8769
927.099	8739
927.206	8792
927.312	8758
927.419	8868
927.525	8750
927.631	8838
927.737	8651
927.843	8670
927.95	8552
928.056	8655
928.162	8705
928.267	8651
928.373	9195
928.479	8750
928.585	8549
928.69	8667
928.796	8655
928.901	8640
929.007	8469
929.112	8632
929.218	8503
929.323	8568
929.428	8473
929.533	8632
929.638	8488
929.743	8450
929.848	8575
929.953	8499
930.058	8381
930.163	8313
930.267	8339
930.372	8476
930.477	8275
930.581	8552
930.685	8347
930.79	8187
930.894	8279
930.998	8157
931.103	8370
931.207	8062
931.311	7970
931.415	7894
931.519	7769
931.623	7727
