Data from test_V78500241_1466.txt Node
Date: Fri Mar 25 14:43:55 CST 2022
User: usil
Spectrometer: V785-0024
Trigger mode: 0
Integration Time (sec): 4.000000E-1
Scans to average: 1
Nonlinearity correction enabled: false
Boxcar width: 0
Storing dark spectrum: false
XAxis mode: Wavelengths
Number of Pixels in Spectrum: 1024
>>>>>Begin Spectral Data<<<<<
801.071	22424
801.214	22314
801.356	22128
801.499	21983
801.641	21846
801.783	21937
801.926	21755
802.068	21728
802.211	21751
802.353	21462
802.496	21214
802.638	21374
802.78	21329
802.923	21154
803.065	20994
803.208	21116
803.35	21199
803.492	21241
803.635	21252
803.777	21074
803.919	21199
804.061	21553
804.204	21138
804.346	21032
804.488	20956
804.63	21135
804.773	21039
804.915	21074
805.057	21161
805.199	21032
805.341	21161
805.483	21180
805.626	21214
805.768	21058
805.91	21028
806.052	21062
806.194	21104
806.336	21165
806.478	21081
806.62	20853
806.762	21116
806.904	21348
807.046	21447
807.188	21393
807.33	21443
807.472	21458
807.614	21370
807.756	21332
807.898	21199
808.04	21207
808.182	21241
808.324	21367
808.465	21298
808.607	21583
808.749	21656
808.891	21724
809.033	21854
809.174	21785
809.316	21568
809.458	21622
809.6	21496
809.741	21610
809.883	21530
810.025	21690
810.166	21747
810.308	21656
810.45	21553
810.591	21523
810.733	21424
810.875	21188
811.016	21222
811.158	21051
811.299	21279
811.441	21420
811.582	21302
811.724	21279
811.865	21150
812.007	21150
812.148	21256
812.29	21275
812.431	21412
812.573	21473
812.714	21572
812.855	21747
812.997	21869
813.138	21865
813.279	21903
813.421	21671
813.562	21606
813.703	21564
813.845	21397
813.986	21100
814.127	20899
814.268	20864
814.41	20925
814.551	20708
814.692	20823
814.833	20651
814.974	20807
815.115	20811
815.256	20632
815.397	20674
815.539	20590
815.68	20514
815.821	20457
815.962	20518
816.103	20545
816.244	20282
816.385	20290
816.526	20229
816.666	20058
816.807	19856
816.948	20050
817.089	20092
817.23	20012
817.371	19940
817.512	19967
817.653	19913
817.793	19822
817.934	19856
818.075	19928
818.216	19902
818.356	19909
818.497	19700
818.638	19628
818.778	19616
818.919	19765
819.06	19704
819.2	19875
819.341	19750
819.481	19765
819.622	19860
819.762	20138
819.903	20096
820.043	19940
820.184	19947
820.324	19871
820.465	20001
820.605	19925
820.746	19890
820.886	19795
821.026	19788
821.167	19818
821.307	19951
821.447	19761
821.588	19689
821.728	19586
821.868	19506
822.008	19255
822.149	19304
822.289	19179
822.429	18981
822.569	18981
822.709	18848
822.849	18760
822.99	18867
823.13	18867
823.27	18745
823.41	18547
823.55	18509
823.69	18555
823.83	18612
823.97	18555
824.11	18365
824.25	18414
824.389	18467
824.529	18486
824.669	18422
824.809	18369
824.949	18467
825.089	18391
825.228	18395
825.368	18197
825.508	18186
825.648	18228
825.787	18102
825.927	18251
826.067	18083
826.206	18117
826.346	18194
826.485	18194
826.625	18247
826.765	18216
826.904	18220
827.044	18022
827.183	17893
827.323	17798
827.462	17863
827.601	17878
827.741	17805
827.88	17824
828.02	17707
828.159	17779
828.298	17824
828.437	17893
828.577	17859
828.716	17863
828.855	17756
828.994	17551
829.134	17589
829.273	17615
829.412	17528
829.551	17512
829.69	17577
829.829	17680
829.968	17566
830.107	17657
830.246	17524
830.385	17524
830.524	17638
830.663	17505
830.802	17326
830.941	17212
831.08	17326
831.219	17364
831.357	17231
831.496	17440
831.635	17277
831.774	17223
831.913	17113
832.051	17022
832.19	17033
832.329	17109
832.467	16881
832.606	16816
832.744	16957
832.883	16923
833.022	16858
833.16	17029
833.299	16965
833.437	17006
833.576	16961
833.714	17003
833.852	16984
833.991	17010
834.129	17071
834.267	17022
834.406	17022
834.544	17079
834.682	16930
834.821	17052
834.959	17143
835.097	17003
835.235	16980
835.373	16968
835.511	17025
835.65	16904
835.788	16839
835.926	16752
836.064	16755
836.202	16694
836.34	16942
836.478	16957
836.615	16915
836.753	16869
836.891	16976
837.029	16877
837.167	16900
837.305	16850
837.443	16740
837.58	16698
837.718	16793
837.856	16679
837.993	16736
838.131	16702
838.269	16558
838.406	16588
838.544	16573
838.681	16413
838.819	16379
838.956	16257
839.094	16295
839.231	16291
839.369	16394
839.506	16706
839.643	16550
839.781	16428
839.918	16223
840.055	16322
840.193	16329
840.33	16215
840.467	16257
840.604	16272
840.742	16504
840.879	16143
841.016	16219
841.153	16143
841.29	16333
841.427	16318
841.564	16356
841.701	16207
841.838	16150
841.975	16238
842.112	16200
842.249	16010
842.385	16036
842.522	16215
842.659	16128
842.796	16120
842.933	16093
843.069	16002
843.206	15960
843.343	16055
843.479	16029
843.616	16120
843.752	15869
843.889	15869
844.025	15956
844.162	15869
844.298	15888
844.435	15846
844.571	15869
844.708	15888
844.844	16055
844.98	15979
845.117	15827
845.253	15804
845.389	15793
845.525	15861
845.661	15945
845.798	15880
845.934	15918
846.07	15861
846.206	15956
846.342	15964
846.478	15823
846.614	15656
846.75	15462
846.886	15287
847.022	15542
847.158	15469
847.294	15416
847.429	15416
847.565	15359
847.701	15591
847.837	15222
847.972	15176
848.108	15195
848.244	15157
848.379	14933
848.515	15032
848.65	15058
848.786	14941
848.921	14956
849.057	15089
849.192	15070
849.328	15169
849.463	14963
849.598	14857
849.734	14986
849.869	14868
850.004	14724
850.14	14834
850.275	14731
850.41	14644
850.545	14731
850.68	14781
850.815	14781
850.95	14792
851.085	14834
851.22	14777
851.355	14887
851.49	14632
851.625	14796
851.76	14682
851.895	14762
852.03	14697
852.165	14765
852.299	14804
852.434	14842
852.569	14762
852.703	14864
852.838	14876
852.973	14857
853.107	14876
853.242	14686
853.376	14674
853.511	14617
853.645	14571
853.78	14731
853.914	14640
854.048	14571
854.183	14560
854.317	14689
854.451	14937
854.585	14571
854.72	14697
854.854	14708
854.988	14606
855.122	14644
855.256	14507
855.39	14674
855.524	14800
855.658	14686
855.792	14674
855.926	14644
856.06	14644
856.194	14754
856.327	14598
856.461	14533
856.595	14545
856.729	14575
856.862	14750
856.996	14693
857.13	14674
857.263	14701
857.397	14773
857.53	14724
857.664	14682
857.797	14712
857.931	14796
858.064	14613
858.197	14800
858.331	14674
858.464	14594
858.597	14488
858.731	14610
858.864	14621
858.997	14648
859.13	14678
859.263	14708
859.396	14743
859.529	14655
859.662	14659
859.795	14568
859.928	14655
860.061	14739
860.194	14815
860.327	14625
860.46	14568
860.592	14743
860.725	14735
860.858	14568
860.99	14625
861.123	14541
861.256	14606
861.388	14530
861.521	15222
861.653	14530
861.786	14454
861.918	14488
862.05	14560
862.183	14533
862.315	14705
862.447	14594
862.58	14575
862.712	14389
862.844	14256
862.976	14488
863.108	14404
863.24	14887
863.372	14309
863.504	14450
863.636	14412
863.768	14408
863.9	14408
864.032	14377
864.164	14374
864.296	14408
864.428	14476
864.559	14461
864.691	14556
864.823	14522
864.954	14507
865.086	14408
865.217	14404
865.349	14332
865.48	14343
865.612	14339
865.743	14438
865.875	14377
866.006	14419
866.137	14404
866.269	14469
866.4	14423
866.531	14252
866.662	14278
866.793	14355
866.924	14332
867.055	14313
867.186	14305
867.317	14339
867.448	14256
867.579	14419
867.71	14256
867.841	14454
867.972	14317
868.103	14370
868.233	14419
868.364	14400
868.495	14442
868.625	14537
868.756	14678
868.886	14648
869.017	14644
869.147	14689
869.278	14670
869.408	14621
869.539	14708
869.669	14735
869.799	14625
869.929	14735
870.06	14727
870.19	14975
870.32	14883
870.45	14921
870.58	15051
870.71	15146
870.84	15135
870.97	14990
871.1	14998
871.23	15104
871.36	15211
871.489	15180
871.619	15173
871.749	15123
871.879	15256
872.008	15306
872.138	15241
872.267	15207
872.397	15062
872.526	15020
872.656	15020
872.785	15055
872.915	15230
873.044	15344
873.173	15268
873.303	15249
873.432	15302
873.561	15374
873.69	15386
873.819	15313
873.948	15424
874.077	15302
874.206	15317
874.335	15313
874.464	15386
874.593	15504
874.722	15500
874.851	15568
874.979	15606
875.108	15587
875.237	15534
875.365	15412
875.494	15439
875.623	15686
875.751	15477
875.88	15530
876.008	15713
876.136	15808
876.265	16048
876.393	16196
876.521	16101
876.65	16055
876.778	16002
876.906	15926
877.034	15918
877.162	15979
877.29	15895
877.418	16025
877.546	15926
877.674	15949
877.802	15964
877.93	15994
878.058	15949
878.185	15953
878.313	16040
878.441	16051
878.568	15838
878.696	15934
878.824	16017
878.951	16044
879.079	16211
879.206	16405
879.333	16234
879.461	16143
879.588	16188
879.715	16276
879.842	16447
879.97	16150
880.097	15922
880.224	15778
880.351	15915
880.478	15876
880.605	15861
880.732	15911
880.859	16116
880.986	15934
881.112	15903
881.239	15846
881.366	15686
881.493	15523
881.619	15549
881.746	15557
881.872	15473
881.999	15519
882.125	15408
882.252	15587
882.378	15538
882.505	15698
882.631	15454
882.757	15386
882.883	15348
883.01	15359
883.136	15264
883.262	15173
883.388	15146
883.514	15420
883.64	15443
883.766	15374
883.892	15085
884.018	15264
884.143	15298
884.269	15389
884.395	15195
884.52	15097
884.646	15146
884.772	14944
884.897	14933
885.023	15001
885.148	15108
885.274	15127
885.399	15058
885.524	15020
885.65	14998
885.775	15112
885.9	14967
886.025	15165
886.15	15165
886.275	14963
886.4	15005
886.525	15043
886.65	15013
886.775	14971
886.9	15108
887.025	15260
887.149	14986
887.274	14826
887.399	14861
887.523	14785
887.648	14842
887.773	14735
887.897	14830
888.021	14910
888.146	14838
888.27	14918
888.395	14975
888.519	14910
888.643	14948
888.767	14823
888.891	14765
889.015	14640
889.139	14720
889.263	14670
889.387	14861
889.511	14804
889.635	14804
889.759	14682
889.883	14636
890.006	14636
890.13	14815
890.254	14632
890.377	14644
890.501	14457
890.624	14396
890.748	14571
890.871	14457
890.995	14377
891.118	14286
891.241	14415
891.364	14381
891.488	14507
891.611	14324
891.734	14358
891.857	14473
891.98	14461
892.103	14438
892.226	14396
892.349	14324
892.471	14252
892.594	14385
892.717	14415
892.839	14286
892.962	14370
893.085	14370
893.207	14339
893.33	14233
893.452	14286
893.575	14480
893.697	14324
893.819	14476
893.941	14606
894.064	14526
894.186	14374
894.308	14324
894.43	14438
894.552	14583
894.674	14514
894.796	14351
894.918	14339
895.04	14374
895.161	14564
895.283	14503
895.405	14476
895.526	14469
895.648	14514
895.769	14514
895.891	14503
896.012	14598
896.134	14571
896.255	14560
896.376	14556
896.498	14564
896.619	14590
896.74	14522
896.861	14644
896.982	14910
897.103	14960
897.224	14830
897.345	14739
897.466	14754
897.587	14838
897.708	14906
897.828	14864
897.949	14769
898.07	14758
898.19	14815
898.311	14925
898.431	14849
898.552	14785
898.672	14986
898.792	14994
898.913	14963
899.033	14830
899.153	14651
899.273	14621
899.393	14731
899.513	14758
899.633	14777
899.753	14735
899.873	14716
899.993	14762
900.113	14697
900.232	14743
900.352	14682
900.472	14693
900.591	14602
900.711	14640
900.83	14598
900.95	14663
901.069	14674
901.189	14545
901.308	14324
901.427	14256
901.546	14339
901.665	14278
901.784	14332
901.904	14130
902.023	14077
902.141	13974
902.26	13814
902.379	13887
902.498	13833
902.617	13753
902.735	13826
902.854	13833
902.973	13822
903.091	13514
903.21	13460
903.328	13525
903.446	13495
903.565	13381
903.683	13403
903.801	13289
903.919	13324
904.038	13304
904.156	13228
904.274	13244
904.392	13198
904.51	13225
904.627	13110
904.745	13221
904.863	13247
904.981	12996
905.098	12897
905.216	12943
905.334	12973
905.451	12943
905.569	12909
905.686	12954
905.803	12897
905.921	12719
906.038	12814
906.155	12722
906.272	12654
906.389	12669
906.506	12448
906.623	12551
906.74	12452
906.857	12388
906.974	12372
907.091	12589
907.208	12616
907.324	12506
907.441	12437
907.557	12220
907.674	12232
907.79	12163
907.907	12258
908.023	12285
908.139	12319
908.256	12125
908.372	12201
908.488	12129
908.604	11992
908.72	11992
908.836	11958
908.952	11942
909.068	12057
909.184	12057
909.3	11969
909.415	11980
909.531	11954
909.647	11817
909.762	11703
909.878	11718
909.993	11729
910.108	11718
910.224	11737
910.339	11722
910.454	11627
910.57	11672
910.685	11608
910.8	11828
910.915	11741
911.03	11627
911.145	11486
911.259	11440
911.374	11417
911.489	11406
911.604	11334
911.718	11162
911.833	11288
911.947	11064
912.062	11025
912.176	11223
912.291	11197
912.405	11208
912.519	11326
912.633	11395
912.748	11269
912.862	11318
912.976	11067
913.09	10965
913.204	11022
913.318	11094
913.431	11181
913.545	11109
913.659	11151
913.772	11071
913.886	10984
914	10904
914.113	11033
914.226	11086
914.34	11067
914.453	10831
914.566	11067
914.68	10911
914.793	10881
914.906	10736
915.019	10645
915.132	10672
915.245	10748
915.358	10691
915.47	10706
915.583	10767
915.696	10763
915.809	10755
915.921	10873
916.034	10710
916.146	10596
916.259	10641
916.371	10767
916.483	10740
916.595	10611
916.708	10668
916.82	10611
916.932	10565
917.044	10618
917.156	10599
917.268	10466
917.38	10565
917.491	10561
917.603	10512
917.715	10577
917.826	10611
917.938	10573
918.049	10447
918.161	10527
918.272	10656
918.384	10733
918.495	10588
918.606	10379
918.717	10421
918.828	10371
918.939	10417
919.05	10394
919.161	10344
919.272	10200
919.383	10238
919.494	10413
919.604	10599
919.715	10447
919.826	10284
919.936	10413
920.047	10508
920.157	10405
920.267	10599
920.378	10417
920.488	10371
920.598	10599
920.708	10683
920.818	10550
920.928	10577
921.038	10767
921.148	10748
921.258	10417
921.368	10360
921.477	10238
921.587	10166
921.697	10177
921.806	10280
921.916	10059
922.025	9949
922.134	9903
922.244	9911
922.353	10036
922.462	9842
922.571	9774
922.68	9667
922.789	9686
922.898	9686
923.007	9606
923.116	9606
923.224	9622
923.333	9637
923.442	9538
923.55	9504
923.659	9572
923.767	9595
923.876	9542
923.984	9538
924.092	9458
924.201	9481
924.309	9515
924.417	9519
924.525	9466
924.633	9473
924.741	10344
924.849	9211
924.956	9435
925.064	9294
925.172	9154
925.279	9207
925.387	9401
925.494	9253
925.602	9428
925.709	9348
925.816	9233
925.924	9264
926.031	9412
926.138	9275
926.245	9264
926.352	9199
926.459	9344
926.566	9435
926.673	9249
926.779	9173
926.886	9176
926.993	9108
927.099	8937
927.206	9001
927.312	9017
927.419	9024
927.525	9066
927.631	8963
927.737	8891
927.843	8902
927.95	8834
928.056	8819
928.162	8887
928.267	8971
928.373	9500
928.479	9009
928.585	8724
928.69	8880
928.796	8944
928.901	8800
929.007	8667
929.112	8830
929.218	8731
929.323	8724
929.428	8667
929.533	8769
929.638	8682
929.743	8697
929.848	8746
929.953	8724
930.058	8689
930.163	8514
930.267	8526
930.372	8625
930.477	8499
930.581	8625
930.685	8552
930.79	8381
930.894	8393
930.998	8419
931.103	8579
931.207	8218
931.311	8206
931.415	8100
931.519	7921
931.623	7925
