Data from test_V78500241_3362.txt Node
Date: Fri Mar 25 14:57:07 CST 2022
User: usil
Spectrometer: V785-0024
Trigger mode: 0
Integration Time (sec): 4.000000E-1
Scans to average: 1
Nonlinearity correction enabled: false
Boxcar width: 0
Storing dark spectrum: false
XAxis mode: Wavelengths
Number of Pixels in Spectrum: 1024
>>>>>Begin Spectral Data<<<<<
801.071	22059
801.214	21869
801.356	21618
801.499	21488
801.641	21249
801.783	21279
801.926	21291
802.068	21336
802.211	21157
802.353	21100
802.496	20845
802.638	20899
802.78	20743
802.923	20644
803.065	20575
803.208	20560
803.35	20568
803.492	20708
803.635	20861
803.777	20648
803.919	20762
804.061	21020
804.204	20667
804.346	20564
804.488	20492
804.63	20549
804.773	20476
804.915	20575
805.057	20598
805.199	20552
805.341	20549
805.483	20648
805.626	20625
805.768	20400
805.91	20492
806.052	20575
806.194	20454
806.336	20655
806.478	20450
806.62	20404
806.762	20518
806.904	20796
807.046	20948
807.188	20796
807.33	20921
807.472	20815
807.614	20804
807.756	20686
807.898	20705
808.04	20537
808.182	20480
808.324	20659
808.465	20667
808.607	20693
808.749	21001
808.891	20910
809.033	21108
809.174	20929
809.316	20864
809.458	20845
809.6	20792
809.741	20895
809.883	20921
810.025	21085
810.166	21081
810.308	21161
810.45	20986
810.591	20963
810.733	20727
810.875	20697
811.016	20530
811.158	20636
811.299	20762
811.441	20864
811.582	20811
811.724	20541
811.865	20655
812.007	20556
812.148	20636
812.29	20651
812.431	20815
812.573	20963
812.714	21005
812.855	21241
812.997	21211
813.138	21439
813.279	21252
813.421	21119
813.562	21127
813.703	20952
813.845	20876
813.986	20442
814.127	20332
814.268	20111
814.41	20278
814.551	20180
814.692	20278
814.833	20157
814.974	20145
815.115	20202
815.256	19982
815.397	20096
815.539	20005
815.68	19868
815.821	19826
815.962	19917
816.103	19883
816.244	19670
816.385	19647
816.526	19609
816.666	19540
816.807	19339
816.948	19476
817.089	19544
817.23	19358
817.371	19415
817.512	19236
817.653	19255
817.793	19179
817.934	19388
818.075	19270
818.216	19304
818.356	19301
818.497	19221
818.638	18916
818.778	19034
818.919	19099
819.06	19168
819.2	19141
819.341	19327
819.481	19251
819.622	19324
819.762	19544
819.903	19567
820.043	19304
820.184	19350
820.324	19324
820.465	19270
820.605	19232
820.746	19206
820.886	19225
821.026	19244
821.167	19145
821.307	19312
821.447	19259
821.588	19107
821.728	19038
821.868	18810
822.008	18722
822.149	18635
822.289	18623
822.429	18429
822.569	18327
822.709	18403
822.849	18277
822.99	18091
823.13	18220
823.27	18251
823.41	18064
823.55	17996
823.69	18129
823.83	18064
823.97	17984
824.11	17764
824.25	17699
824.389	17775
824.529	17859
824.669	17821
824.809	17931
824.949	17805
825.089	17847
825.228	17764
825.368	17615
825.508	17440
825.648	17604
825.787	17615
825.927	17558
826.067	17611
826.206	17585
826.346	17543
826.485	17532
826.625	17554
826.765	17619
826.904	17619
827.044	17292
827.183	17284
827.323	17212
827.462	17208
827.601	17330
827.741	17174
827.88	17208
828.02	17083
828.159	17223
828.298	17261
828.437	17356
828.577	17239
828.716	17318
828.855	17140
828.994	17079
829.134	16984
829.273	17075
829.412	17064
829.551	16949
829.69	16919
829.829	16972
829.968	17162
830.107	17037
830.246	17075
830.385	16972
830.524	16949
830.663	16854
830.802	16698
830.941	16706
831.08	16470
831.219	16797
831.357	16771
831.496	16782
831.635	16618
831.774	16542
831.913	16592
832.051	16402
832.19	16428
832.329	16512
832.467	16329
832.606	16341
832.744	16398
832.883	16226
833.022	16204
833.16	16310
833.299	16375
833.437	16371
833.576	16322
833.714	16462
833.852	16337
833.991	16428
834.129	16485
834.267	16398
834.406	16382
834.544	16413
834.682	16417
834.821	16371
834.959	16512
835.097	16333
835.235	16481
835.373	16367
835.511	16287
835.65	16371
835.788	16306
835.926	16124
836.064	15937
836.202	16147
836.34	16333
836.478	16493
836.615	16322
836.753	16318
836.891	16474
837.029	16341
837.167	16257
837.305	16253
837.443	16211
837.58	16166
837.718	16238
837.856	16192
837.993	16105
838.131	16310
838.269	16097
838.406	16082
838.544	16101
838.681	15895
838.819	15907
838.956	15720
839.094	15785
839.231	15865
839.369	15926
839.506	16093
839.643	15945
839.781	15751
839.918	15698
840.055	15728
840.193	15778
840.33	15713
840.467	15663
840.604	15800
840.742	15983
840.879	15652
841.016	15584
841.153	15648
841.29	15915
841.427	15633
841.564	15663
841.701	15739
841.838	15641
841.975	15717
842.112	15660
842.249	15595
842.385	15485
842.522	15713
842.659	15610
842.796	15580
842.933	15606
843.069	15447
843.206	15393
843.343	15584
843.479	15568
843.616	15523
843.752	15435
843.889	15298
844.025	15549
844.162	15275
844.298	15374
844.435	15294
844.571	15195
844.708	15291
844.844	15412
844.98	15485
845.117	15420
845.253	15287
845.389	15176
845.525	15195
845.661	15142
845.798	15055
845.934	15176
846.07	15020
846.206	15127
846.342	15256
846.478	15104
846.614	14941
846.75	14811
846.886	14880
847.022	14967
847.158	14971
847.294	14849
847.429	14963
847.565	14857
847.701	15131
847.837	14689
847.972	14602
848.108	14697
848.244	14708
848.379	14648
848.515	14492
848.65	14457
848.786	14484
848.921	14499
849.057	14549
849.192	14594
849.328	14488
849.463	14511
849.598	14434
849.734	14408
849.869	14370
850.004	14400
850.14	14355
850.275	14298
850.41	14214
850.545	14180
850.68	14161
850.815	14301
850.95	14263
851.085	14393
851.22	14366
851.355	14278
851.49	14244
851.625	14149
851.76	14218
851.895	14191
852.03	14123
852.165	14233
852.299	14267
852.434	14358
852.569	14320
852.703	14256
852.838	14400
852.973	14450
853.107	14450
853.242	14199
853.376	14145
853.511	14081
853.645	14229
853.78	14218
853.914	14161
854.048	14050
854.183	14077
854.317	14153
854.451	14324
854.585	14073
854.72	14164
854.854	14172
854.988	14027
855.122	14081
855.256	14043
855.39	14081
855.524	14286
855.658	14142
855.792	14138
855.926	14176
856.06	14218
856.194	14176
856.327	14084
856.461	14046
856.595	14084
856.729	14168
856.862	14225
856.996	14221
857.13	14145
857.263	14202
857.397	14256
857.53	14126
857.664	14199
857.797	14195
857.931	14237
858.064	14180
858.197	14286
858.331	14214
858.464	14138
858.597	13997
858.731	14119
858.864	14214
858.997	14164
859.13	14191
859.263	14210
859.396	14187
859.529	14115
859.662	14126
859.795	14005
859.928	14142
860.061	14347
860.194	14298
860.327	14237
860.46	14065
860.592	14191
860.725	14206
860.858	14336
860.99	14069
861.123	14115
861.256	14119
861.388	14073
861.521	14887
861.653	13970
861.786	13993
861.918	14008
862.05	14088
862.183	14084
862.315	14183
862.447	14100
862.58	14149
862.712	13959
862.844	13746
862.976	13982
863.108	13944
863.24	14358
863.372	13852
863.504	13940
863.636	14035
863.768	14050
863.9	13932
864.032	13944
864.164	13974
864.296	13982
864.428	14020
864.559	14065
864.691	14142
864.823	14001
864.954	13963
865.086	13967
865.217	13917
865.349	13814
865.48	13879
865.612	13963
865.743	14084
865.875	13887
866.006	13856
866.137	13879
866.269	13921
866.4	13894
866.531	13928
866.662	13932
866.793	13860
866.924	13818
867.055	13944
867.186	13822
867.317	13909
867.448	13864
867.579	13871
867.71	13833
867.841	13811
867.972	13883
868.103	13906
868.233	13917
868.364	13909
868.495	13970
868.625	14183
868.756	14275
868.886	14058
869.017	14157
869.147	14195
869.278	14290
869.408	14134
869.539	14206
869.669	14183
869.799	14088
869.929	14343
870.06	14263
870.19	14438
870.32	14461
870.45	14507
870.58	14598
870.71	14632
870.84	14701
870.97	14522
871.1	14579
871.23	14762
871.36	14727
871.489	14667
871.619	14705
871.749	14807
871.879	14864
872.008	14876
872.138	14739
872.267	14724
872.397	14655
872.526	14632
872.656	14598
872.785	14644
872.915	14834
873.044	14883
873.173	14842
873.303	14937
873.432	14864
873.561	14861
873.69	14796
873.819	14743
873.948	14857
874.077	14941
874.206	14845
874.335	14876
874.464	14883
874.593	15123
874.722	15070
874.851	15195
874.979	15108
875.108	15131
875.237	15085
875.365	15192
875.494	15131
875.623	15199
875.751	15131
875.88	15173
876.008	15283
876.136	15226
876.265	15542
876.393	15660
876.521	15713
876.65	15641
876.778	15622
876.906	15584
877.034	15469
877.162	15561
877.29	15500
877.418	15572
877.546	15431
877.674	15549
877.802	15557
877.93	15507
878.058	15492
878.185	15378
878.313	15504
878.441	15584
878.568	15405
878.696	15424
878.824	15641
878.951	15561
879.079	15656
879.206	15785
879.333	15622
879.461	15698
879.588	15587
879.715	15739
879.842	15869
879.97	15572
880.097	15397
880.224	15344
880.351	15412
880.478	15428
880.605	15351
880.732	15382
880.859	15625
880.986	15454
881.112	15439
881.239	15317
881.366	15131
881.493	15116
881.619	15005
881.746	15047
881.872	15039
881.999	14998
882.125	14944
882.252	15116
882.378	15127
882.505	15188
882.631	15089
882.757	14906
882.883	14883
883.01	14895
883.136	14834
883.262	14807
883.388	14655
883.514	14883
883.64	14941
883.766	14785
883.892	14625
884.018	14739
884.143	14918
884.269	14864
884.395	14754
884.52	14552
884.646	14575
884.772	14575
884.897	14526
885.023	14590
885.148	14636
885.274	14727
885.399	14655
885.524	14530
885.65	14674
885.775	14651
885.9	14579
886.025	14678
886.15	14705
886.275	14606
886.4	14484
886.525	14632
886.65	14492
886.775	14503
886.9	14705
887.025	14769
887.149	14495
887.274	14423
887.399	14301
887.523	14393
887.648	14347
887.773	14290
887.897	14385
888.021	14465
888.146	14427
888.27	14583
888.395	14583
888.519	14526
888.643	14473
888.767	14522
888.891	14396
889.015	14332
889.139	14408
889.263	14202
889.387	14381
889.511	14347
889.635	14400
889.759	14259
889.883	14248
890.006	14267
890.13	14495
890.254	14168
890.377	14195
890.501	14103
890.624	14062
890.748	14237
890.871	14012
890.995	14020
891.118	13887
891.241	14027
891.364	13963
891.488	14062
891.611	14054
891.734	14005
891.857	14062
891.98	14001
892.103	14027
892.226	14035
892.349	14020
892.471	13803
892.594	13970
892.717	13982
892.839	13894
892.962	13982
893.085	14065
893.207	14020
893.33	13947
893.452	13879
893.575	14081
893.697	13959
893.819	14126
893.941	14176
894.064	14195
894.186	13887
894.308	13978
894.43	14206
894.552	14267
894.674	14195
894.796	13906
894.918	14073
895.04	13970
895.161	14191
895.283	14115
895.405	13951
895.526	14164
895.648	14035
895.769	14191
895.891	14187
896.012	14229
896.134	14142
896.255	14100
896.376	14092
896.498	14161
896.619	14126
896.74	14088
896.861	14210
896.982	14499
897.103	14678
897.224	14431
897.345	14366
897.466	14271
897.587	14423
897.708	14560
897.828	14461
897.949	14343
898.07	14248
898.19	14385
898.311	14522
898.431	14434
898.552	14522
898.672	14613
898.792	14575
898.913	14552
899.033	14396
899.153	14396
899.273	14202
899.393	14362
899.513	14431
899.633	14362
899.753	14324
899.873	14362
899.993	14389
900.113	14271
900.232	14465
900.352	14370
900.472	14225
900.591	14195
900.711	14328
900.83	14176
900.95	14294
901.069	14385
901.189	14172
901.308	13936
901.427	13845
901.546	13906
901.665	13894
901.784	14027
901.904	13772
902.023	13685
902.141	13525
902.26	13350
902.379	13567
902.498	13483
902.617	13449
902.735	13510
902.854	13407
902.973	13396
903.091	13236
903.21	13156
903.328	13168
903.446	13171
903.565	13050
903.683	13076
903.801	12977
903.919	12981
904.038	13042
904.156	12867
904.274	12973
904.392	12779
904.51	12882
904.627	12852
904.745	12920
904.863	12913
904.981	12642
905.098	12544
905.216	12502
905.334	12601
905.451	12532
905.569	12544
905.686	12669
905.803	12555
905.921	12353
906.038	12429
906.155	12494
906.272	12308
906.389	12277
906.506	12098
906.623	12102
906.74	12034
906.857	12076
906.974	12026
907.091	12167
907.208	12289
907.324	12224
907.441	12079
907.557	11908
907.674	11878
907.79	11771
907.907	11912
908.023	11950
908.139	11855
908.256	11893
908.372	11851
908.488	11771
908.604	11653
908.72	11604
908.836	11611
908.952	11661
909.068	11691
909.184	11764
909.3	11737
909.415	11707
909.531	11688
909.647	11520
909.762	11467
909.878	11425
909.993	11474
910.108	11474
910.224	11391
910.339	11391
910.454	11337
910.57	11235
910.685	11265
910.8	11524
910.915	11372
911.03	11387
911.145	11204
911.259	11083
911.374	11140
911.489	11064
911.604	10987
911.718	10889
911.833	10927
911.947	10752
912.062	10687
912.176	10896
912.291	10927
912.405	10862
912.519	11117
912.633	11079
912.748	10923
912.862	10984
912.976	10710
913.09	10691
913.204	10714
913.318	10843
913.431	10938
913.545	10831
913.659	10862
913.772	10759
913.886	10634
914	10588
914.113	10706
914.226	10786
914.34	10694
914.453	10519
914.566	10675
914.68	10527
914.793	10641
914.906	10459
915.019	10337
915.132	10310
915.245	10405
915.358	10402
915.47	10386
915.583	10538
915.696	10462
915.809	10523
915.921	10550
916.034	10382
916.146	10390
916.259	10329
916.371	10421
916.483	10436
916.595	10291
916.708	10318
916.82	10428
916.932	10299
917.044	10318
917.156	10325
917.268	10177
917.38	10246
917.491	10223
917.603	10265
917.715	10280
917.826	10379
917.938	10207
918.049	10166
918.161	10219
918.272	10360
918.384	10337
918.495	10223
918.606	10116
918.717	10021
918.828	10093
918.939	10200
919.05	10059
919.161	10074
919.272	9941
919.383	9941
919.494	10211
919.604	10284
919.715	10150
919.826	10032
919.936	9979
920.047	10173
920.157	10185
920.267	10375
920.378	10120
920.488	10116
920.598	10363
920.708	10497
920.818	10348
920.928	10299
921.038	10428
921.148	10493
921.258	10188
921.368	10120
921.477	9991
921.587	9934
921.697	9899
921.806	10006
921.916	9895
922.025	9622
922.134	9747
922.244	9740
922.353	9732
922.462	9561
922.571	9496
922.68	9355
922.789	9408
922.898	9469
923.007	9370
923.116	9481
923.224	9443
923.333	9313
923.442	9355
923.55	9192
923.659	9359
923.767	9340
923.876	9184
923.984	9405
924.092	9146
924.201	9226
924.309	9230
924.417	9222
924.525	9203
924.633	9199
924.741	10135
924.849	8994
924.956	9176
925.064	9112
925.172	8960
925.279	9017
925.387	9024
925.494	9036
925.602	9214
925.709	9138
925.816	8986
925.924	9055
926.031	9138
926.138	9039
926.245	9097
926.352	8986
926.459	9085
926.566	9142
926.673	8994
926.779	8895
926.886	8899
926.993	8758
927.099	8826
927.206	8720
927.312	8693
927.419	8811
927.525	8804
927.631	8819
927.737	8667
927.843	8720
927.95	8541
928.056	8610
928.162	8727
928.267	8678
928.373	9256
928.479	8697
928.585	8530
928.69	8575
928.796	8781
928.901	8571
929.007	8442
929.112	8617
929.218	8575
929.323	8541
929.428	8465
929.533	8667
929.638	8419
929.743	8385
929.848	8495
929.953	8499
930.058	8389
930.163	8259
930.267	8244
930.372	8400
930.477	8309
930.581	8396
930.685	8343
930.79	8180
930.894	8263
930.998	8168
931.103	8290
931.207	8020
931.311	7993
931.415	7879
931.519	7704
931.623	7738
