Data from test_V78500241_2932.txt Node
Date: Fri Mar 25 14:54:07 CST 2022
User: usil
Spectrometer: V785-0024
Trigger mode: 0
Integration Time (sec): 4.000000E-1
Scans to average: 1
Nonlinearity correction enabled: false
Boxcar width: 0
Storing dark spectrum: false
XAxis mode: Wavelengths
Number of Pixels in Spectrum: 1024
>>>>>Begin Spectral Data<<<<<
801.071	22124
801.214	21953
801.356	21557
801.499	21618
801.641	21462
801.783	21454
801.926	21408
802.068	21374
802.211	21313
802.353	21226
802.496	20963
802.638	21077
802.78	20925
802.923	20872
803.065	20689
803.208	20765
803.35	20876
803.492	20902
803.635	20990
803.777	20750
803.919	20746
804.061	21195
804.204	20743
804.346	20693
804.488	20644
804.63	20796
804.773	20625
804.915	20792
805.057	20849
805.199	20689
805.341	20746
805.483	20765
805.626	20788
805.768	20777
805.91	20804
806.052	20670
806.194	20735
806.336	20838
806.478	20682
806.62	20651
806.762	20819
806.904	20804
807.046	21203
807.188	21047
807.33	21024
807.472	21066
807.614	20796
807.756	20975
807.898	20762
808.04	20743
808.182	20838
808.324	20872
808.465	20804
808.607	21066
808.749	21058
808.891	21184
809.033	21157
809.174	21032
809.316	21036
809.458	21085
809.6	21001
809.741	21173
809.883	21218
810.025	21249
810.166	21230
810.308	21313
810.45	21184
810.591	21077
810.733	21028
810.875	20853
811.016	20826
811.158	20701
811.299	20857
811.441	20982
811.582	20929
811.724	20746
811.865	20663
812.007	20750
812.148	20823
812.29	20883
812.431	21150
812.573	21123
812.714	21249
812.855	21359
812.997	21439
813.138	21530
813.279	21450
813.421	21294
813.562	21222
813.703	21093
813.845	20876
813.986	20800
814.127	20473
814.268	20495
814.41	20381
814.551	20377
814.692	20495
814.833	20511
814.974	20271
815.115	20419
815.256	20267
815.397	20339
815.539	20210
815.68	20077
815.821	20100
815.962	20008
816.103	20240
816.244	19852
816.385	19982
816.526	19845
816.666	19616
816.807	19453
816.948	19597
817.089	19643
817.23	19537
817.371	19476
817.512	19464
817.653	19567
817.793	19365
817.934	19594
818.075	19499
818.216	19430
818.356	19567
818.497	19384
818.638	19236
818.778	19228
818.919	19175
819.06	19365
819.2	19274
819.341	19506
819.481	19388
819.622	19480
819.762	19613
819.903	19696
820.043	19594
820.184	19518
820.324	19495
820.465	19495
820.605	19506
820.746	19457
820.886	19327
821.026	19647
821.167	19358
821.307	19529
821.447	19384
821.588	19278
821.728	19145
821.868	18989
822.008	18852
822.149	18859
822.289	18867
822.429	18673
822.569	18650
822.709	18578
822.849	18426
822.99	18338
823.13	18388
823.27	18308
823.41	18144
823.55	18167
823.69	18220
823.83	18243
823.97	18034
824.11	17931
824.25	17859
824.389	17939
824.529	17927
824.669	17965
824.809	18060
824.949	17984
825.089	18030
825.228	18011
825.368	17794
825.508	17828
825.648	17783
825.787	17824
825.927	17722
826.067	17726
826.206	17695
826.346	17687
826.485	17764
826.625	17752
826.765	17843
826.904	17703
827.044	17589
827.183	17497
827.323	17417
827.462	17577
827.601	17391
827.741	17478
827.88	17376
828.02	17273
828.159	17353
828.298	17490
828.437	17486
828.577	17482
828.716	17410
828.855	17299
828.994	17174
829.134	17151
829.273	17170
829.412	17098
829.551	17079
829.69	17170
829.829	17197
829.968	17242
830.107	17197
830.246	17162
830.385	17117
830.524	17037
830.663	17045
830.802	16847
830.941	16702
831.08	16683
831.219	16786
831.357	16774
831.496	16934
831.635	16873
831.774	16679
831.913	16675
832.051	16440
832.19	16519
832.329	16558
832.467	16428
832.606	16558
832.744	16428
832.883	16436
833.022	16531
833.16	16440
833.299	16478
833.437	16546
833.576	16379
833.714	16535
833.852	16474
833.991	16527
834.129	16634
834.267	16596
834.406	16504
834.544	16546
834.682	16584
834.821	16508
834.959	16542
835.097	16516
835.235	16588
835.373	16664
835.511	16474
835.65	16394
835.788	16394
835.926	16295
836.064	16086
836.202	16280
836.34	16356
836.478	16474
836.615	16409
836.753	16459
836.891	16527
837.029	16462
837.167	16428
837.305	16295
837.443	16204
837.58	16322
837.718	16299
837.856	16386
837.993	16341
838.131	16356
838.269	16188
838.406	16219
838.544	16207
838.681	16044
838.819	15934
838.956	15778
839.094	15911
839.231	15873
839.369	15922
839.506	16382
839.643	16067
839.781	15854
839.918	15743
840.055	15816
840.193	15892
840.33	15766
840.467	15747
840.604	15823
840.742	16074
840.879	15686
841.016	15759
841.153	15728
841.29	15842
841.427	15823
841.564	15842
841.701	15888
841.838	15671
841.975	15663
842.112	15720
842.249	15584
842.385	15526
842.522	15842
842.659	15648
842.796	15629
842.933	15686
843.069	15603
843.206	15561
843.343	15610
843.479	15523
843.616	15618
843.752	15329
843.889	15348
844.025	15584
844.162	15310
844.298	15424
844.435	15492
844.571	15310
844.708	15454
844.844	15515
844.98	15485
845.117	15473
845.253	15325
845.389	15218
845.525	15298
845.661	15275
845.798	15161
845.934	15329
846.07	15184
846.206	15173
846.342	15279
846.478	15203
846.614	15043
846.75	14891
846.886	14838
847.022	15138
847.158	14914
847.294	14986
847.429	15017
847.565	15036
847.701	15119
847.837	14583
847.972	14712
848.108	14811
848.244	14781
848.379	14648
848.515	14552
848.65	14522
848.786	14636
848.921	14571
849.057	14644
849.192	14617
849.328	14537
849.463	14632
849.598	14579
849.734	14518
849.869	14415
850.004	14400
850.14	14419
850.275	14267
850.41	14172
850.545	14275
850.68	14362
850.815	14381
850.95	14278
851.085	14499
851.22	14514
851.355	14434
851.49	14237
851.625	14332
851.76	14381
851.895	14206
852.03	14218
852.165	14362
852.299	14404
852.434	14480
852.569	14343
852.703	14339
852.838	14415
852.973	14408
853.107	14427
853.242	14180
853.376	14161
853.511	14168
853.645	14183
853.78	14324
853.914	14218
854.048	14240
854.183	14183
854.317	14172
854.451	14400
854.585	14199
854.72	14096
854.854	14233
854.988	14123
855.122	14225
855.256	14084
855.39	14233
855.524	14294
855.658	14252
855.792	14256
855.926	14218
856.06	14244
856.194	14259
856.327	14237
856.461	14176
856.595	14149
856.729	14054
856.862	14313
856.996	14256
857.13	14305
857.263	14294
857.397	14332
857.53	14275
857.664	14278
857.797	14244
857.931	14324
858.064	14271
858.197	14187
858.331	14149
858.464	14252
858.597	14119
858.731	14225
858.864	14130
858.997	14149
859.13	14218
859.263	14187
859.396	14248
859.529	14145
859.662	14111
859.795	14153
859.928	14123
860.061	14343
860.194	14396
860.327	14157
860.46	14210
860.592	14324
860.725	14324
860.858	14206
860.99	14039
861.123	14077
861.256	14092
861.388	14233
861.521	14876
861.653	14065
861.786	14012
861.918	14103
862.05	14195
862.183	14164
862.315	14153
862.447	14233
862.58	14077
862.712	13959
862.844	13830
862.976	14016
863.108	14046
863.24	14362
863.372	13868
863.504	13993
863.636	13974
863.768	13982
863.9	14043
864.032	13909
864.164	13932
864.296	14046
864.428	14142
864.559	14111
864.691	14039
864.823	14027
864.954	13982
865.086	13989
865.217	14005
865.349	13822
865.48	13925
865.612	13986
865.743	14050
865.875	14012
866.006	13860
866.137	13978
866.269	13997
866.4	13978
866.531	13997
866.662	13898
866.793	13959
866.924	13894
867.055	13978
867.186	13864
867.317	13947
867.448	13845
867.579	13906
867.71	13887
867.841	13868
867.972	13913
868.103	14016
868.233	13909
868.364	13921
868.495	13993
868.625	14119
868.756	14187
868.886	14130
869.017	14233
869.147	14339
869.278	14252
869.408	14267
869.539	14240
869.669	14256
869.799	14214
869.929	14233
870.06	14301
870.19	14518
870.32	14419
870.45	14636
870.58	14571
870.71	14686
870.84	14682
870.97	14533
871.1	14575
871.23	14746
871.36	14762
871.489	14720
871.619	14765
871.749	14800
871.879	14807
872.008	14902
872.138	14785
872.267	14823
872.397	14602
872.526	14663
872.656	14583
872.785	14640
872.915	14857
873.044	14880
873.173	14777
873.303	15001
873.432	15005
873.561	14872
873.69	14777
873.819	14887
873.948	14872
874.077	14777
874.206	14906
874.335	14979
874.464	15089
874.593	15116
874.722	15058
874.851	15173
874.979	15142
875.108	15123
875.237	15119
875.365	14994
875.494	15119
875.623	15203
875.751	15154
875.88	15184
876.008	15336
876.136	15424
876.265	15641
876.393	15656
876.521	15675
876.65	15625
876.778	15663
876.906	15606
877.034	15549
877.162	15545
877.29	15492
877.418	15504
877.546	15523
877.674	15603
877.802	15523
877.93	15515
878.058	15504
878.185	15485
878.313	15595
878.441	15625
878.568	15435
878.696	15515
878.824	15580
878.951	15610
879.079	15705
879.206	15892
879.333	15709
879.461	15564
879.588	15633
879.715	15797
879.842	15869
879.97	15637
880.097	15519
880.224	15405
880.351	15530
880.478	15408
880.605	15382
880.732	15363
880.859	15675
880.986	15443
881.112	15424
881.239	15401
881.366	15199
881.493	15146
881.619	15112
881.746	15097
881.872	15009
881.999	15009
882.125	14963
882.252	15081
882.378	15089
882.505	15226
882.631	15020
882.757	14921
882.883	14895
883.01	14891
883.136	14762
883.262	14834
883.388	14693
883.514	14899
883.64	14933
883.766	14826
883.892	14693
884.018	14769
884.143	14944
884.269	14933
884.395	14716
884.52	14590
884.646	14594
884.772	14533
884.897	14431
885.023	14693
885.148	14560
885.274	14727
885.399	14682
885.524	14617
885.65	14670
885.775	14659
885.9	14705
886.025	14659
886.15	14667
886.275	14575
886.4	14480
886.525	14522
886.65	14415
886.775	14537
886.9	14708
887.025	14838
887.149	14541
887.274	14377
887.399	14503
887.523	14419
887.648	14385
887.773	14377
887.897	14404
888.021	14419
888.146	14450
888.27	14495
888.395	14571
888.519	14552
888.643	14400
888.767	14454
888.891	14347
889.015	14244
889.139	14275
889.263	14252
889.387	14377
889.511	14492
889.635	14419
889.759	14278
889.883	14301
890.006	14286
890.13	14484
890.254	14115
890.377	14271
890.501	14123
890.624	14111
890.748	14229
890.871	14069
890.995	13936
891.118	13894
891.241	14050
891.364	14005
891.488	14130
891.611	13963
891.734	13955
891.857	14084
891.98	13909
892.103	14084
892.226	14119
892.349	14016
892.471	13841
892.594	13993
892.717	13925
892.839	13955
892.962	14073
893.085	14073
893.207	13993
893.33	13909
893.452	13959
893.575	14081
893.697	13944
893.819	14191
893.941	14202
894.064	14145
894.186	14016
894.308	13925
894.43	14153
894.552	14282
894.674	14199
894.796	14005
894.918	14210
895.04	14039
895.161	14153
895.283	14191
895.405	14107
895.526	14161
895.648	14096
895.769	14031
895.891	14142
896.012	14195
896.134	14263
896.255	14157
896.376	14088
896.498	14218
896.619	14221
896.74	14115
896.861	14332
896.982	14583
897.103	14674
897.224	14446
897.345	14404
897.466	14393
897.587	14431
897.708	14488
897.828	14503
897.949	14431
898.07	14374
898.19	14366
898.311	14602
898.431	14518
898.552	14522
898.672	14636
898.792	14625
898.913	14507
899.033	14454
899.153	14396
899.273	14275
899.393	14457
899.513	14427
899.633	14412
899.753	14461
899.873	14396
899.993	14450
900.113	14305
900.232	14366
900.352	14362
900.472	14374
900.591	14278
900.711	14282
900.83	14275
900.95	14358
901.069	14370
901.189	14119
901.308	14027
901.427	13864
901.546	13940
901.665	13887
901.784	14046
901.904	13807
902.023	13750
902.141	13620
902.26	13521
902.379	13639
902.498	13491
902.617	13441
902.735	13514
902.854	13483
902.973	13457
903.091	13206
903.21	13236
903.328	13152
903.446	13156
903.565	13088
903.683	13137
903.801	12996
903.919	13072
904.038	13015
904.156	12890
904.274	12954
904.392	12886
904.51	12837
904.627	12928
904.745	12916
904.863	13015
904.981	12753
905.098	12563
905.216	12570
905.334	12589
905.451	12646
905.569	12639
905.686	12589
905.803	12677
905.921	12445
906.038	12506
906.155	12395
906.272	12270
906.389	12338
906.506	12186
906.623	12209
906.74	12167
906.857	12038
906.974	12064
907.091	12220
907.208	12232
907.324	12121
907.441	12068
907.557	11942
907.674	11920
907.79	11851
907.907	11836
908.023	11920
908.139	11843
908.256	11817
908.372	11805
908.488	11832
908.604	11710
908.72	11638
908.836	11668
908.952	11634
909.068	11672
909.184	11756
909.3	11726
909.415	11771
909.531	11676
909.647	11532
909.762	11463
909.878	11455
909.993	11471
910.108	11379
910.224	11337
910.339	11486
910.454	11311
910.57	11356
910.685	11098
910.8	11497
910.915	11467
911.03	11265
911.145	11246
911.259	11273
911.374	11136
911.489	11098
911.604	11006
911.718	10869
911.833	10885
911.947	10801
912.062	10679
912.176	10900
912.291	10923
912.405	10927
912.519	11121
912.633	11037
912.748	10908
912.862	10930
912.976	10801
913.09	10622
913.204	10771
913.318	10774
913.431	10877
913.545	10892
913.659	10843
913.772	10729
913.886	10717
914	10653
914.113	10771
914.226	10778
914.34	10824
914.453	10558
914.566	10679
914.68	10634
914.793	10592
914.906	10432
915.019	10375
915.132	10379
915.245	10405
915.358	10466
915.47	10402
915.583	10497
915.696	10459
915.809	10573
915.921	10554
916.034	10398
916.146	10386
916.259	10421
916.371	10451
916.483	10478
916.595	10333
916.708	10344
916.82	10341
916.932	10367
917.044	10306
917.156	10375
917.268	10246
917.38	10215
917.491	10261
917.603	10246
917.715	10310
917.826	10375
917.938	10299
918.049	10181
918.161	10196
918.272	10344
918.384	10367
918.495	10287
918.606	10238
918.717	10036
918.828	10162
918.939	10158
919.05	9994
919.161	10074
919.272	9884
919.383	10029
919.494	10147
919.604	10299
919.715	10128
919.826	10071
919.936	10074
920.047	10265
920.157	10147
920.267	10322
920.378	10116
920.488	10139
920.598	10337
920.708	10588
920.818	10261
920.928	10352
921.038	10550
921.148	10440
921.258	10135
921.368	10116
921.477	10006
921.587	10013
921.697	9895
921.806	10029
921.916	9953
922.025	9797
922.134	9774
922.244	9705
922.353	9793
922.462	9652
922.571	9538
922.68	9450
922.789	9443
922.898	9428
923.007	9329
923.116	9477
923.224	9386
923.333	9416
923.442	9325
923.55	9302
923.659	9260
923.767	9374
923.876	9245
923.984	9408
924.092	9199
924.201	9291
924.309	9329
924.417	9317
924.525	9241
924.633	9188
924.741	10230
924.849	9009
924.956	9173
925.064	9123
925.172	8956
925.279	9085
925.387	9062
925.494	9093
925.602	9245
925.709	9161
925.816	8979
925.924	9043
926.031	9123
926.138	9062
926.245	9154
926.352	8994
926.459	9138
926.566	9142
926.673	8994
926.779	8914
926.886	8925
926.993	8883
927.099	8807
927.206	8705
927.312	8792
927.419	8861
927.525	8781
927.631	8842
927.737	8701
927.843	8731
927.95	8522
928.056	8648
928.162	8701
928.267	8705
928.373	9310
928.479	8769
928.585	8640
928.69	8693
928.796	8705
928.901	8575
929.007	8385
929.112	8632
929.218	8602
929.323	8587
929.428	8431
929.533	8667
929.638	8457
929.743	8473
929.848	8625
929.953	8461
930.058	8427
930.163	8244
930.267	8267
930.372	8434
930.477	8225
930.581	8465
930.685	8374
930.79	8244
930.894	8301
930.998	8176
931.103	8377
931.207	7997
931.311	7986
931.415	7860
931.519	7723
931.623	7746
