Data from test_V78500241_3604.txt Node
Date: Fri Mar 25 14:58:48 CST 2022
User: usil
Spectrometer: V785-0024
Trigger mode: 0
Integration Time (sec): 4.000000E-1
Scans to average: 1
Nonlinearity correction enabled: false
Boxcar width: 0
Storing dark spectrum: false
XAxis mode: Wavelengths
Number of Pixels in Spectrum: 1024
>>>>>Begin Spectral Data<<<<<
801.071	21850
801.214	21861
801.356	21587
801.499	21374
801.641	21408
801.783	21252
801.926	21351
802.068	21192
802.211	21233
802.353	21058
802.496	20887
802.638	20716
802.78	20811
802.923	20750
803.065	20606
803.208	20636
803.35	20689
803.492	20659
803.635	20693
803.777	20602
803.919	20697
804.061	20785
804.204	20857
804.346	20613
804.488	20351
804.63	20503
804.773	20404
804.915	20461
805.057	20663
805.199	20423
805.341	20651
805.483	20712
805.626	20640
805.768	20408
805.91	20492
806.052	20526
806.194	20442
806.336	20735
806.478	20434
806.62	20488
806.762	20499
806.904	20758
807.046	20944
807.188	20902
807.33	20811
807.472	20918
807.614	20667
807.756	20735
807.898	20590
808.04	20560
808.182	20549
808.324	20469
808.465	20651
808.607	20788
808.749	20925
808.891	20952
809.033	20979
809.174	20902
809.316	20659
809.458	20910
809.6	20906
809.741	20925
809.883	20880
810.025	20998
810.166	21077
810.308	21074
810.45	20963
810.591	20887
810.733	20731
810.875	20746
811.016	20636
811.158	20575
811.299	20807
811.441	20804
811.582	20746
811.724	20609
811.865	20583
812.007	20511
812.148	20674
812.29	20613
812.431	20800
812.573	21001
812.714	20982
812.855	21154
812.997	21222
813.138	21325
813.279	21245
813.421	21062
813.562	21036
813.703	20819
813.845	20754
813.986	20446
814.127	20317
814.268	20202
814.41	20107
814.551	20157
814.692	20183
814.833	20145
814.974	20069
815.115	20138
815.256	19989
815.397	20020
815.539	20008
815.68	19925
815.821	19845
815.962	19978
816.103	19947
816.244	19746
816.385	19616
816.526	19624
816.666	19365
816.807	19373
816.948	19419
817.089	19419
817.23	19236
817.371	19304
817.512	19251
817.653	19362
817.793	19266
817.934	19190
818.075	19285
818.216	19320
818.356	19171
818.497	19145
818.638	19031
818.778	18966
818.919	18970
819.06	19076
819.2	19099
819.341	19259
819.481	19251
819.622	19377
819.762	19415
819.903	19441
820.043	19350
820.184	19301
820.324	19285
820.465	19297
820.605	19152
820.746	19274
820.886	19110
821.026	19179
821.167	19122
821.307	19301
821.447	19259
821.588	19008
821.728	18954
821.868	18844
822.008	18795
822.149	18707
822.289	18669
822.429	18399
822.569	18369
822.709	18319
822.849	18254
822.99	18232
823.13	18201
823.27	18182
823.41	18049
823.55	17969
823.69	17996
823.83	17954
823.97	17908
824.11	17745
824.25	17729
824.389	17813
824.529	17836
824.669	17760
824.809	17828
824.949	17775
825.089	17813
825.228	17764
825.368	17608
825.508	17486
825.648	17676
825.787	17585
825.927	17562
826.067	17509
826.206	17509
826.346	17585
826.485	17429
826.625	17539
826.765	17661
826.904	17619
827.044	17349
827.183	17277
827.323	17223
827.462	17376
827.601	17280
827.741	17200
827.88	17246
828.02	17086
828.159	17231
828.298	17239
828.437	17258
828.577	17280
828.716	17402
828.855	17189
828.994	17098
829.134	17060
829.273	17052
829.412	16949
829.551	17064
829.69	16999
829.829	16900
829.968	17132
830.107	17113
830.246	16919
830.385	16938
830.524	16976
830.663	16809
830.802	16736
830.941	16478
831.08	16542
831.219	16687
831.357	16748
831.496	16862
831.635	16656
831.774	16390
831.913	16478
832.051	16493
832.19	16375
832.329	16306
832.467	16333
832.606	16318
832.744	16329
832.883	16284
833.022	16284
833.16	16333
833.299	16268
833.437	16287
833.576	16352
833.714	16398
833.852	16443
833.991	16402
834.129	16337
834.267	16478
834.406	16409
834.544	16344
834.682	16398
834.821	16344
834.959	16470
835.097	16348
835.235	16550
835.373	16375
835.511	16504
835.65	16356
835.788	16306
835.926	16147
836.064	16196
836.202	16120
836.34	16287
836.478	16291
836.615	16265
836.753	16280
836.891	16409
837.029	16382
837.167	16246
837.305	16276
837.443	16112
837.58	16074
837.718	16268
837.856	16177
837.993	16135
838.131	16234
838.269	16021
838.406	16063
838.544	16112
838.681	15770
838.819	15880
838.956	15717
839.094	15717
839.231	15762
839.369	15884
839.506	16211
839.643	15991
839.781	15804
839.918	15663
840.055	15751
840.193	15778
840.33	15728
840.467	15637
840.604	15755
840.742	15934
840.879	15694
841.016	15660
841.153	15625
841.29	15831
841.427	15736
841.564	15778
841.701	15736
841.838	15606
841.975	15614
842.112	15534
842.249	15447
842.385	15477
842.522	15789
842.659	15462
842.796	15397
842.933	15530
843.069	15408
843.206	15572
843.343	15595
843.479	15587
843.616	15610
843.752	15287
843.889	15405
844.025	15504
844.162	15287
844.298	15355
844.435	15237
844.571	15180
844.708	15454
844.844	15450
844.98	15416
845.117	15447
845.253	15233
845.389	15184
845.525	15161
845.661	15150
845.798	15119
845.934	15108
846.07	15032
846.206	15249
846.342	15317
846.478	15074
846.614	14864
846.75	14800
846.886	14842
847.022	14963
847.158	14891
847.294	14986
847.429	14861
847.565	14800
847.701	15028
847.837	14575
847.972	14579
848.108	14693
848.244	14708
848.379	14571
848.515	14431
848.65	14457
848.786	14457
848.921	14476
849.057	14518
849.192	14556
849.328	14480
849.463	14423
849.598	14454
849.734	14514
849.869	14301
850.004	14240
850.14	14358
850.275	14187
850.41	14153
850.545	14202
850.68	14199
850.815	14328
850.95	14233
851.085	14366
851.22	14313
851.355	14271
851.49	14107
851.625	14275
851.76	14149
851.895	14168
852.03	14115
852.165	14278
852.299	14294
852.434	14339
852.569	14191
852.703	14256
852.838	14221
852.973	14336
853.107	14278
853.242	14191
853.376	14115
853.511	13974
853.645	14024
853.78	14244
853.914	14084
854.048	14168
854.183	14153
854.317	14096
854.451	14199
854.585	14027
854.72	14046
854.854	14225
854.988	14008
855.122	14069
855.256	14027
855.39	14119
855.524	14081
855.658	14092
855.792	14123
855.926	14123
856.06	14229
856.194	14233
856.327	14153
856.461	14084
856.595	13967
856.729	13967
856.862	14149
856.996	14100
857.13	14161
857.263	14206
857.397	14111
857.53	14073
857.664	14176
857.797	14191
857.931	14328
858.064	14100
858.197	14244
858.331	14024
858.464	14088
858.597	14050
858.731	14084
858.864	14058
858.997	14138
859.13	14130
859.263	14065
859.396	14191
859.529	14100
859.662	14054
859.795	14088
859.928	14123
860.061	14282
860.194	14240
860.327	14142
860.46	14180
860.592	14191
860.725	14153
860.858	14218
860.99	14081
861.123	13982
861.256	14119
861.388	14020
861.521	14948
861.653	14088
861.786	13967
861.918	13963
862.05	13978
862.183	14069
862.315	14161
862.447	14138
862.58	14100
862.712	13894
862.844	13715
862.976	13898
863.108	13997
863.24	14252
863.372	13689
863.504	13909
863.636	13837
863.768	13860
863.9	13947
864.032	13906
864.164	13890
864.296	13993
864.428	14077
864.559	13898
864.691	13932
864.823	13879
864.954	13909
865.086	13940
865.217	13906
865.349	13814
865.48	13879
865.612	13833
865.743	14065
865.875	13955
866.006	13772
866.137	13784
866.269	13852
866.4	13887
866.531	13818
866.662	13731
866.793	13826
866.924	13826
867.055	13849
867.186	13944
867.317	13871
867.448	13795
867.579	13837
867.71	13852
867.841	13799
867.972	13906
868.103	13807
868.233	13833
868.364	13849
868.495	13963
868.625	14130
868.756	14244
868.886	14115
869.017	14027
869.147	14157
869.278	14290
869.408	14183
869.539	14145
869.669	14263
869.799	14176
869.929	14225
870.06	14214
870.19	14488
870.32	14431
870.45	14446
870.58	14564
870.71	14636
870.84	14648
870.97	14488
871.1	14450
871.23	14746
871.36	14716
871.489	14625
871.619	14610
871.749	14693
871.879	14800
872.008	14845
872.138	14861
872.267	14693
872.397	14632
872.526	14602
872.656	14629
872.785	14568
872.915	14716
873.044	14781
873.173	14823
873.303	14864
873.432	14857
873.561	14773
873.69	14834
873.819	14670
873.948	14727
874.077	14773
874.206	14773
874.335	14849
874.464	14902
874.593	15001
874.722	15036
874.851	15195
874.979	15169
875.108	15085
875.237	15123
875.365	14990
875.494	15047
875.623	15207
875.751	15077
875.88	15081
876.008	15317
876.136	15336
876.265	15526
876.393	15656
876.521	15644
876.65	15637
876.778	15603
876.906	15466
877.034	15542
877.162	15526
877.29	15435
877.418	15515
877.546	15424
877.674	15519
877.802	15595
877.93	15466
878.058	15435
878.185	15363
878.313	15542
878.441	15439
878.568	15424
878.696	15428
878.824	15625
878.951	15538
879.079	15663
879.206	15793
879.333	15717
879.461	15584
879.588	15652
879.715	15667
879.842	15778
879.97	15557
880.097	15382
880.224	15401
880.351	15344
880.478	15359
880.605	15397
880.732	15359
880.859	15557
880.986	15473
881.112	15321
881.239	15226
881.366	15173
881.493	15058
881.619	15028
881.746	15066
881.872	15036
881.999	14990
882.125	15047
882.252	15104
882.378	14998
882.505	15138
882.631	14948
882.757	14857
882.883	14849
883.01	14807
883.136	14838
883.262	14769
883.388	14716
883.514	14864
883.64	14857
883.766	14861
883.892	14727
884.018	14556
884.143	14815
884.269	14967
884.395	14667
884.52	14556
884.646	14571
884.772	14503
884.897	14484
885.023	14560
885.148	14682
885.274	14731
885.399	14716
885.524	14480
885.65	14583
885.775	14590
885.9	14663
886.025	14724
886.15	14602
886.275	14552
886.4	14400
886.525	14621
886.65	14541
886.775	14427
886.9	14625
887.025	14762
887.149	14568
887.274	14423
887.399	14298
887.523	14396
887.648	14362
887.773	14347
887.897	14427
888.021	14495
888.146	14404
888.27	14457
888.395	14503
888.519	14324
888.643	14450
888.767	14419
888.891	14396
889.015	14252
889.139	14282
889.263	14278
889.387	14355
889.511	14389
889.635	14438
889.759	14168
889.883	14206
890.006	14290
890.13	14385
890.254	14168
890.377	14214
890.501	14088
890.624	13989
890.748	14123
890.871	13955
890.995	13947
891.118	13936
891.241	13936
891.364	13997
891.488	14081
891.611	14027
891.734	14020
891.857	14062
891.98	13963
892.103	13993
892.226	13940
892.349	13951
892.471	13799
892.594	13925
892.717	13845
892.839	13902
892.962	13906
893.085	14050
893.207	13925
893.33	13928
893.452	13917
893.575	14020
893.697	13951
893.819	14149
893.941	14172
894.064	14107
894.186	13871
894.308	13967
894.43	14096
894.552	14130
894.674	14092
894.796	13974
894.918	13974
895.04	13959
895.161	14073
895.283	14111
895.405	13951
895.526	14069
895.648	13967
895.769	14145
895.891	14176
896.012	14024
896.134	14187
896.255	14180
896.376	14103
896.498	14096
896.619	14126
896.74	14031
896.861	14183
896.982	14541
897.103	14575
897.224	14526
897.345	14339
897.466	14259
897.587	14324
897.708	14503
897.828	14461
897.949	14317
898.07	14377
898.19	14404
898.311	14511
898.431	14469
898.552	14457
898.672	14484
898.792	14640
898.913	14560
899.033	14461
899.153	14351
899.273	14332
899.393	14374
899.513	14393
899.633	14343
899.753	14431
899.873	14267
899.993	14320
900.113	14408
900.232	14343
900.352	14271
900.472	14229
900.591	14134
900.711	14275
900.83	14214
900.95	14313
901.069	14355
901.189	14111
901.308	13921
901.427	13883
901.546	13822
901.665	13849
901.784	13887
901.904	13780
902.023	13597
902.141	13525
902.26	13453
902.379	13552
902.498	13419
902.617	13377
902.735	13472
902.854	13422
902.973	13365
903.091	13110
903.21	13156
903.328	13213
903.446	13046
903.565	13050
903.683	13057
903.801	12867
903.919	13015
904.038	12977
904.156	12814
904.274	12985
904.392	12814
904.51	12829
904.627	12829
904.745	12844
904.863	12890
904.981	12578
905.098	12464
905.216	12517
905.334	12490
905.451	12566
905.569	12532
905.686	12551
905.803	12456
905.921	12391
906.038	12452
906.155	12323
906.272	12232
906.389	12292
906.506	12171
906.623	12114
906.74	12117
906.857	12045
906.974	12041
907.091	12224
907.208	12216
907.324	12197
907.441	12011
907.557	11889
907.674	11786
907.79	11851
907.907	11805
908.023	11942
908.139	11958
908.256	11832
908.372	11935
908.488	11760
908.604	11657
908.72	11604
908.836	11634
908.952	11585
909.068	11665
909.184	11733
909.3	11729
909.415	11741
909.531	11668
909.647	11421
909.762	11414
909.878	11448
909.993	11452
910.108	11376
910.224	11337
910.339	11425
910.454	11296
910.57	11322
910.685	11193
910.8	11573
910.915	11417
911.03	11337
911.145	11143
911.259	11132
911.374	11178
911.489	11022
911.604	10976
911.718	10881
911.833	10957
911.947	10778
912.062	10714
912.176	10904
912.291	10824
912.405	10816
912.519	11045
912.633	11064
912.748	10991
912.862	10869
912.976	10782
913.09	10645
913.204	10782
913.318	10839
913.431	10847
913.545	10755
913.659	10824
913.772	10683
913.886	10668
914	10561
914.113	10706
914.226	10687
914.34	10759
914.453	10603
914.566	10683
914.68	10599
914.793	10565
914.906	10367
915.019	10356
915.132	10276
915.245	10360
915.358	10417
915.47	10466
915.583	10451
915.696	10436
915.809	10478
915.921	10493
916.034	10325
916.146	10272
916.259	10249
916.371	10413
916.483	10356
916.595	10249
916.708	10398
916.82	10360
916.932	10276
917.044	10379
917.156	10325
917.268	10272
917.38	10215
917.491	10192
917.603	10299
917.715	10299
917.826	10257
917.938	10223
918.049	10135
918.161	10154
918.272	10287
918.384	10348
918.495	10188
918.606	10109
918.717	9987
918.828	10105
918.939	10169
919.05	9975
919.161	10067
919.272	9934
919.383	9979
919.494	10131
919.604	10310
919.715	10112
919.826	10029
919.936	10158
920.047	10135
920.157	10150
920.267	10318
920.378	10185
920.488	10040
920.598	10348
920.708	10504
920.818	10436
920.928	10356
921.038	10478
921.148	10459
921.258	10116
921.368	10055
921.477	10006
921.587	9926
921.697	9865
921.806	9983
921.916	9888
922.025	9751
922.134	9717
922.244	9671
922.353	9732
922.462	9584
922.571	9534
922.68	9389
922.789	9378
922.898	9408
923.007	9279
923.116	9351
923.224	9443
923.333	9408
923.442	9317
923.55	9253
923.659	9317
923.767	9287
923.876	9192
923.984	9279
924.092	9249
924.201	9226
924.309	9176
924.417	9260
924.525	9089
924.633	9188
924.741	9960
924.849	9039
924.956	9161
925.064	8986
925.172	8910
925.279	9013
925.387	9039
925.494	8990
925.602	9142
925.709	9085
925.816	8937
925.924	9066
926.031	9131
926.138	8994
926.245	9135
926.352	8952
926.459	9150
926.566	9112
926.673	9009
926.779	8887
926.886	8838
926.993	8773
927.099	8826
927.206	8667
927.312	8712
927.419	8788
927.525	8785
927.631	8788
927.737	8743
927.843	8606
927.95	8575
928.056	8621
928.162	8678
928.267	8697
928.373	9195
928.479	8746
928.585	8454
928.69	8632
928.796	8617
928.901	8610
929.007	8503
929.112	8621
929.218	8564
929.323	8480
929.428	8457
929.533	8598
929.638	8389
929.743	8533
929.848	8488
929.953	8454
930.058	8400
930.163	8271
930.267	8275
930.372	8332
930.477	8206
930.581	8454
930.685	8343
930.79	8225
930.894	8271
930.998	8088
931.103	8309
931.207	8016
931.311	7921
931.415	7860
931.519	7708
931.623	7696
