Data from test_V78500241_2482.txt Node
Date: Fri Mar 25 14:50:59 CST 2022
User: usil
Spectrometer: V785-0024
Trigger mode: 0
Integration Time (sec): 4.000000E-1
Scans to average: 1
Nonlinearity correction enabled: false
Boxcar width: 0
Storing dark spectrum: false
XAxis mode: Wavelengths
Number of Pixels in Spectrum: 1024
>>>>>Begin Spectral Data<<<<<
801.071	22074
801.214	21835
801.356	21667
801.499	21622
801.641	21447
801.783	21389
801.926	21435
802.068	21393
802.211	21268
802.353	21203
802.496	20994
802.638	20998
802.78	20979
802.923	20819
803.065	20746
803.208	20667
803.35	20804
803.492	20876
803.635	20853
803.777	20842
803.919	20925
804.061	21013
804.204	20785
804.346	20693
804.488	20575
804.63	20670
804.773	20636
804.915	20720
805.057	20921
805.199	20667
805.341	20720
805.483	20792
805.626	20880
805.768	20609
805.91	20788
806.052	20750
806.194	20655
806.336	20830
806.478	20750
806.62	20667
806.762	20609
806.904	20838
807.046	20998
807.188	21074
807.33	21024
807.472	21074
807.614	20891
807.756	20914
807.898	20834
808.04	20743
808.182	20777
808.324	20834
808.465	20838
808.607	21066
808.749	20998
808.891	21116
809.033	21226
809.174	21081
809.316	21085
809.458	21062
809.6	20948
809.741	21260
809.883	21192
810.025	21249
810.166	21154
810.308	21116
810.45	21157
810.591	21028
810.733	20941
810.875	20811
811.016	20682
811.158	20674
811.299	20842
811.441	20872
811.582	20963
811.724	20720
811.865	20868
812.007	20689
812.148	20739
812.29	20902
812.431	21047
812.573	21108
812.714	21359
812.855	21294
812.997	21355
813.138	21542
813.279	21393
813.421	21294
813.562	21180
813.703	21100
813.845	20921
813.986	20674
814.127	20606
814.268	20427
814.41	20476
814.551	20381
814.692	20480
814.833	20328
814.974	20339
815.115	20454
815.256	20286
815.397	20134
815.539	20225
815.68	20084
815.821	20058
815.962	20077
816.103	20081
816.244	19955
816.385	19894
816.526	19738
816.666	19548
816.807	19514
816.948	19601
817.089	19571
817.23	19658
817.371	19502
817.512	19502
817.653	19415
817.793	19438
817.934	19502
818.075	19460
818.216	19540
818.356	19525
818.497	19381
818.638	19240
818.778	19095
818.919	19194
819.06	19221
819.2	19354
819.341	19324
819.481	19422
819.622	19556
819.762	19586
819.903	19647
820.043	19613
820.184	19495
820.324	19476
820.465	19502
820.605	19392
820.746	19491
820.886	19263
821.026	19525
821.167	19453
821.307	19445
821.447	19476
821.588	19335
821.728	19194
821.868	18977
822.008	18875
822.149	18970
822.289	18871
822.429	18711
822.569	18452
822.709	18585
822.849	18513
822.99	18429
823.13	18334
823.27	18342
823.41	18289
823.55	18224
823.69	18251
823.83	18159
823.97	18152
824.11	18026
824.25	17977
824.389	18053
824.529	17973
824.669	17942
824.809	18091
824.949	18068
825.089	18022
825.228	17942
825.368	17840
825.508	17817
825.648	17764
825.787	17821
825.927	17805
826.067	17729
826.206	17691
826.346	17783
826.485	17805
826.625	17851
826.765	17843
826.904	17794
827.044	17581
827.183	17596
827.323	17429
827.462	17474
827.601	17455
827.741	17433
827.88	17524
828.02	17307
828.159	17360
828.298	17421
828.437	17532
828.577	17421
828.716	17630
828.855	17482
828.994	17170
829.134	17258
829.273	17155
829.412	17193
829.551	17189
829.69	17166
829.829	17299
829.968	17368
830.107	17330
830.246	17220
830.385	17124
830.524	17124
830.663	17029
830.802	17018
830.941	16881
831.08	16831
831.219	16946
831.357	16961
831.496	17010
831.635	16816
831.774	16725
831.913	16778
832.051	16702
832.19	16565
832.329	16645
832.467	16462
832.606	16542
832.744	16500
832.883	16485
833.022	16523
833.16	16546
833.299	16596
833.437	16630
833.576	16584
833.714	16508
833.852	16527
833.991	16615
834.129	16683
834.267	16634
834.406	16558
834.544	16618
834.682	16615
834.821	16596
834.959	16793
835.097	16573
835.235	16725
835.373	16596
835.511	16630
835.65	16611
835.788	16542
835.926	16333
836.064	16325
836.202	16272
836.34	16474
836.478	16516
836.615	16421
836.753	16542
836.891	16561
837.029	16538
837.167	16314
837.305	16375
837.443	16516
837.58	16352
837.718	16329
837.856	16379
837.993	16299
838.131	16352
838.269	16185
838.406	16348
838.544	16204
838.681	16154
838.819	16048
838.956	15926
839.094	15979
839.231	15934
839.369	16112
839.506	16265
839.643	16154
839.781	16048
839.918	15895
840.055	15972
840.193	15831
840.33	15857
840.467	15941
840.604	15983
840.742	16169
840.879	15827
841.016	15869
841.153	15766
841.29	16032
841.427	15979
841.564	16002
841.701	15953
841.838	15918
841.975	15842
842.112	15789
842.249	15808
842.385	15629
842.522	15945
842.659	15774
842.796	15610
842.933	15713
843.069	15641
843.206	15747
843.343	15804
843.479	15759
843.616	15690
843.752	15603
843.889	15443
844.025	15637
844.162	15359
844.298	15606
844.435	15405
844.571	15428
844.708	15450
844.844	15618
844.98	15610
845.117	15576
845.253	15507
845.389	15382
845.525	15466
845.661	15370
845.798	15283
845.934	15310
846.07	15279
846.206	15256
846.342	15348
846.478	15272
846.614	15074
846.75	15043
846.886	14967
847.022	15157
847.158	14967
847.294	15077
847.429	15112
847.565	14986
847.701	15249
847.837	14811
847.972	14708
848.108	14933
848.244	14800
848.379	14648
848.515	14689
848.65	14648
848.786	14674
848.921	14667
849.057	14769
849.192	14849
849.328	14651
849.463	14674
849.598	14598
849.734	14621
849.869	14579
850.004	14495
850.14	14400
850.275	14434
850.41	14362
850.545	14415
850.68	14419
850.815	14450
850.95	14415
851.085	14495
851.22	14442
851.355	14423
851.49	14336
851.625	14294
851.76	14377
851.895	14305
852.03	14374
852.165	14404
852.299	14495
852.434	14503
852.569	14454
852.703	14434
852.838	14533
852.973	14568
853.107	14495
853.242	14358
853.376	14252
853.511	14176
853.645	14176
853.78	14370
853.914	14336
854.048	14309
854.183	14298
854.317	14275
854.451	14522
854.585	14271
854.72	14187
854.854	14381
854.988	14168
855.122	14214
855.256	14244
855.39	14278
855.524	14385
855.658	14370
855.792	14294
855.926	14324
856.06	14366
856.194	14320
856.327	14271
856.461	14221
856.595	14263
856.729	14183
856.862	14267
856.996	14282
857.13	14305
857.263	14438
857.397	14423
857.53	14267
857.664	14404
857.797	14431
857.931	14339
858.064	14332
858.197	14317
858.331	14358
858.464	14172
858.597	14183
858.731	14332
858.864	14309
858.997	14244
859.13	14282
859.263	14377
859.396	14320
859.529	14267
859.662	14278
859.795	14149
859.928	14298
860.061	14389
860.194	14507
860.327	14328
860.46	14240
860.592	14419
860.725	14469
860.858	14396
860.99	14301
861.123	14149
861.256	14221
861.388	14298
861.521	14902
861.653	14218
861.786	14081
861.918	14130
862.05	14275
862.183	14210
862.315	14298
862.447	14248
862.58	14202
862.712	14142
862.844	14008
862.976	14134
863.108	14050
863.24	14374
863.372	13974
863.504	13970
863.636	14035
863.768	14107
863.9	14126
864.032	13997
864.164	14065
864.296	14065
864.428	14229
864.559	14134
864.691	14157
864.823	14202
864.954	14126
865.086	14103
865.217	13993
865.349	14050
865.48	14035
865.612	14062
865.743	14180
865.875	13947
866.006	13993
866.137	14077
866.269	14016
866.4	14039
866.531	13986
866.662	13978
866.793	13959
866.924	13917
867.055	13993
867.186	14008
867.317	13989
867.448	14008
867.579	14107
867.71	13951
867.841	13917
867.972	13989
868.103	14130
868.233	14016
868.364	14031
868.495	14054
868.625	14126
868.756	14389
868.886	14199
869.017	14210
869.147	14408
869.278	14377
869.408	14328
869.539	14191
869.669	14343
869.799	14415
869.929	14381
870.06	14317
870.19	14663
870.32	14644
870.45	14705
870.58	14705
870.71	14807
870.84	14773
870.97	14632
871.1	14674
871.23	14899
871.36	14902
871.489	14811
871.619	14804
871.749	14773
871.879	14788
872.008	14944
872.138	14906
872.267	14910
872.397	14815
872.526	14765
872.656	14735
872.785	14716
872.915	14804
873.044	14960
873.173	14823
873.303	14918
873.432	14880
873.561	15009
873.69	14944
873.819	14876
873.948	15028
874.077	15020
874.206	14941
874.335	14921
874.464	15085
874.593	15180
874.722	15180
874.851	15279
874.979	15279
875.108	15268
875.237	15260
875.365	15100
875.494	15203
875.623	15386
875.751	15203
875.88	15298
876.008	15378
876.136	15454
876.265	15618
876.393	15774
876.521	15717
876.65	15709
876.778	15656
876.906	15545
877.034	15599
877.162	15686
877.29	15618
877.418	15660
877.546	15720
877.674	15667
877.802	15732
877.93	15648
878.058	15656
878.185	15557
878.313	15587
878.441	15831
878.568	15549
878.696	15675
878.824	15804
878.951	15732
879.079	15899
879.206	15960
879.333	15838
879.461	15781
879.588	15800
879.715	15895
879.842	15953
879.97	15739
880.097	15507
880.224	15504
880.351	15466
880.478	15553
880.605	15599
880.732	15511
880.859	15701
880.986	15530
881.112	15584
881.239	15408
881.366	15245
881.493	15252
881.619	15150
881.746	15146
881.872	15100
881.999	15207
882.125	15150
882.252	15283
882.378	15138
882.505	15325
882.631	15211
882.757	14990
882.883	15024
883.01	15062
883.136	14902
883.262	14811
883.388	14853
883.514	15081
883.64	15013
883.766	14826
883.892	14785
884.018	14944
884.143	14883
884.269	15020
884.395	14724
884.52	14705
884.646	14644
884.772	14655
884.897	14640
885.023	14682
885.148	14800
885.274	14830
885.399	14716
885.524	14644
885.65	14621
885.775	14686
885.9	14636
886.025	14838
886.15	14796
886.275	14682
886.4	14636
886.525	14632
886.65	14632
886.775	14678
886.9	14765
887.025	14845
887.149	14575
887.274	14545
887.399	14484
887.523	14400
887.648	14377
887.773	14457
887.897	14571
888.021	14552
888.146	14446
888.27	14587
888.395	14632
888.519	14499
888.643	14564
888.767	14556
888.891	14454
889.015	14374
889.139	14381
889.263	14385
889.387	14454
889.511	14617
889.635	14442
889.759	14412
889.883	14393
890.006	14480
890.13	14571
890.254	14404
890.377	14339
890.501	14130
890.624	14176
890.748	14275
890.871	14069
890.995	14062
891.118	14050
891.241	14103
891.364	14111
891.488	14248
891.611	14096
891.734	14134
891.857	14073
891.98	14123
892.103	14126
892.226	14111
892.349	14031
892.471	13970
892.594	14050
892.717	14111
892.839	14081
892.962	14157
893.085	14214
893.207	14229
893.33	13940
893.452	14001
893.575	14164
893.697	13997
893.819	14221
893.941	14282
894.064	14202
894.186	14020
894.308	14164
894.43	14191
894.552	14263
894.674	14267
894.796	14035
894.918	14103
895.04	14153
895.161	14153
895.283	14195
895.405	14134
895.526	14187
895.648	14164
895.769	14237
895.891	14282
896.012	14290
896.134	14267
896.255	14286
896.376	14195
896.498	14195
896.619	14278
896.74	14309
896.861	14374
896.982	14594
897.103	14823
897.224	14621
897.345	14514
897.466	14514
897.587	14530
897.708	14648
897.828	14587
897.949	14465
898.07	14427
898.19	14446
898.311	14667
898.431	14488
898.552	14613
898.672	14724
898.792	14712
898.913	14724
899.033	14541
899.153	14507
899.273	14412
899.393	14374
899.513	14492
899.633	14549
899.753	14438
899.873	14442
899.993	14514
900.113	14488
900.232	14518
900.352	14381
900.472	14317
900.591	14370
900.711	14450
900.83	14282
900.95	14381
901.069	14495
901.189	14225
901.308	14073
901.427	13974
901.546	14008
901.665	14043
901.784	14069
901.904	13902
902.023	13833
902.141	13544
902.26	13590
902.379	13685
902.498	13571
902.617	13506
902.735	13529
902.854	13578
902.973	13525
903.091	13213
903.21	13251
903.328	13236
903.446	13266
903.565	13236
903.683	13164
903.801	13008
903.919	13126
904.038	13080
904.156	12977
904.274	12985
904.392	12977
904.51	12928
904.627	12897
904.745	12985
904.863	12996
904.981	12783
905.098	12662
905.216	12711
905.334	12650
905.451	12692
905.569	12566
905.686	12692
905.803	12612
905.921	12441
906.038	12540
906.155	12525
906.272	12429
906.389	12445
906.506	12232
906.623	12251
906.74	12194
906.857	12148
906.974	12136
907.091	12304
907.208	12460
907.324	12292
907.441	12167
907.557	11988
907.674	11916
907.79	12003
907.907	11904
908.023	12011
908.139	11984
908.256	11923
908.372	11935
908.488	11897
908.604	11798
908.72	11752
908.836	11790
908.952	11726
909.068	11688
909.184	11813
909.3	11695
909.415	11748
909.531	11703
909.647	11554
909.762	11459
909.878	11547
909.993	11493
910.108	11543
910.224	11509
910.339	11528
910.454	11410
910.57	11334
910.685	11261
910.8	11596
910.915	11474
911.03	11398
911.145	11239
911.259	11231
911.374	11246
911.489	11052
911.604	11109
911.718	10987
911.833	11022
911.947	10866
912.062	10793
912.176	11006
912.291	10987
912.405	10984
912.519	11143
912.633	11227
912.748	11102
912.862	10972
912.976	10850
913.09	10706
913.204	10763
913.318	10816
913.431	10862
913.545	10965
913.659	10900
913.772	10839
913.886	10752
914	10687
914.113	10831
914.226	10850
914.34	10866
914.453	10649
914.566	10752
914.68	10679
914.793	10637
914.906	10413
915.019	10451
915.132	10443
915.245	10402
915.358	10531
915.47	10531
915.583	10523
915.696	10478
915.809	10569
915.921	10649
916.034	10470
916.146	10440
916.259	10352
916.371	10390
916.483	10546
916.595	10421
916.708	10474
916.82	10386
916.932	10443
917.044	10440
917.156	10390
917.268	10299
917.38	10287
917.491	10363
917.603	10318
917.715	10371
917.826	10398
917.938	10284
918.049	10211
918.161	10295
918.272	10455
918.384	10500
918.495	10375
918.606	10234
918.717	10154
918.828	10219
918.939	10181
919.05	10078
919.161	10249
919.272	9975
919.383	9998
919.494	10204
919.604	10428
919.715	10196
919.826	10067
919.936	10200
920.047	10318
920.157	10188
920.267	10386
920.378	10344
920.488	10135
920.598	10325
920.708	10497
920.818	10432
920.928	10352
921.038	10558
921.148	10542
921.258	10211
921.368	10139
921.477	10051
921.587	10013
921.697	9899
921.806	10150
921.916	9960
922.025	9808
922.134	9759
922.244	9759
922.353	9835
922.462	9648
922.571	9584
922.68	9408
922.789	9458
922.898	9477
923.007	9370
923.116	9454
923.224	9466
923.333	9412
923.442	9397
923.55	9279
923.659	9408
923.767	9439
923.876	9287
923.984	9313
924.092	9298
924.201	9348
924.309	9363
924.417	9378
924.525	9237
924.633	9294
924.741	10006
924.849	9093
924.956	9283
925.064	9085
925.172	9017
925.279	9055
925.387	9150
925.494	9138
925.602	9291
925.709	9233
925.816	9032
925.924	9116
926.031	9222
926.138	9066
926.245	9169
926.352	9085
926.459	9146
926.566	9199
926.673	9108
926.779	9028
926.886	8952
926.993	8876
927.099	8716
927.206	8777
927.312	8781
927.419	8838
927.525	8788
927.631	8857
927.737	8754
927.843	8739
927.95	8648
928.056	8720
928.162	8727
928.267	8823
928.373	9313
928.479	8861
928.585	8571
928.69	8655
928.796	8781
928.901	8629
929.007	8522
929.112	8674
929.218	8606
929.323	8587
929.428	8522
929.533	8648
929.638	8488
929.743	8480
929.848	8545
929.953	8518
930.058	8465
930.163	8317
930.267	8279
930.372	8488
930.477	8252
930.581	8571
930.685	8366
930.79	8294
930.894	8233
930.998	8214
931.103	8389
931.207	8031
931.311	8016
931.415	7936
931.519	7757
931.623	7776
