Data from test_V78500241_259.txt Node
Date: Fri Mar 25 14:35:31 CST 2022
User: usil
Spectrometer: V785-0024
Trigger mode: 0
Integration Time (sec): 4.000000E-1
Scans to average: 1
Nonlinearity correction enabled: false
Boxcar width: 0
Storing dark spectrum: false
XAxis mode: Wavelengths
Number of Pixels in Spectrum: 1024
>>>>>Begin Spectral Data<<<<<
801.071	27408
801.214	27336
801.356	27237
801.499	27058
801.641	26830
801.783	26895
801.926	26891
802.068	26918
802.211	26773
802.353	26689
802.496	26537
802.638	26473
802.78	26499
802.923	26473
803.065	26408
803.208	26431
803.35	26389
803.492	26400
803.635	26587
803.777	26461
803.919	26473
804.061	26712
804.204	26594
804.346	26419
804.488	26362
804.63	26438
804.773	26294
804.915	26317
805.057	26507
805.199	26427
805.341	26419
805.483	26339
805.626	26526
805.768	26347
805.91	26530
806.052	26541
806.194	26404
806.336	26609
806.478	26488
806.62	26419
806.762	26545
806.904	26781
807.046	26853
807.188	26750
807.33	26785
807.472	26963
807.614	26781
807.756	26895
807.898	26575
808.04	26644
808.182	26705
808.324	26720
808.465	26750
808.607	26929
808.749	27123
808.891	27207
809.033	27275
809.174	26975
809.316	27157
809.458	27176
809.6	27081
809.741	27093
809.883	26906
810.025	27192
810.166	27226
810.308	27199
810.45	27017
810.591	27077
810.733	26986
810.875	26899
811.016	26754
811.158	26659
811.299	26807
811.441	26933
811.582	26975
811.724	26792
811.865	26769
812.007	26781
812.148	26731
812.29	26845
812.431	26979
812.573	27123
812.714	27233
812.855	27192
812.997	27294
813.138	27492
813.279	27523
813.421	27351
813.562	27211
813.703	27127
813.845	26990
813.986	26826
814.127	26533
814.268	26389
814.41	26355
814.551	26389
814.692	26469
814.833	26343
814.974	26275
815.115	26446
815.256	26206
815.397	26199
815.539	26126
815.68	26248
815.821	26100
815.962	25993
816.103	26062
816.244	25982
816.385	25974
816.526	25772
816.666	25586
816.807	25578
816.948	25487
817.089	25681
817.23	25559
817.371	25426
817.512	25525
817.653	25639
817.793	25335
817.934	25643
818.075	25396
818.216	25502
818.356	25297
818.497	25228
818.638	25027
818.778	25244
818.919	25183
819.06	25259
819.2	25247
819.341	25419
819.481	25518
819.622	25483
819.762	25666
819.903	25586
820.043	25616
820.184	25548
820.324	25403
820.465	25594
820.605	25381
820.746	25400
820.886	25251
821.026	25449
821.167	25453
821.307	25422
821.447	25259
821.588	25316
821.728	25099
821.868	25027
822.008	24791
822.149	24715
822.289	24734
822.429	24589
822.569	24574
822.709	24505
822.849	24254
822.99	24292
823.13	24258
823.27	24174
823.41	24079
823.55	24038
823.69	24098
823.83	24057
823.97	23977
824.11	23805
824.25	23908
824.389	23878
824.529	23950
824.669	23817
824.809	23889
824.949	23908
825.089	23920
825.228	23870
825.368	23710
825.508	23619
825.648	23684
825.787	23752
825.927	23642
826.067	23520
826.206	23463
826.346	23695
826.485	23577
826.625	23615
826.765	23737
826.904	23585
827.044	23330
827.183	23345
827.323	23204
827.462	23277
827.601	23299
827.741	23311
827.88	23334
828.02	23322
828.159	23231
828.298	23277
828.437	23322
828.577	23193
828.716	23254
828.855	23060
828.994	22949
829.134	23025
829.273	23193
829.412	23075
829.551	22923
829.69	22839
829.829	23067
829.968	23052
830.107	23003
830.246	23094
830.385	22850
830.524	22877
830.663	22668
830.802	22771
830.941	22531
831.08	22481
831.219	22649
831.357	22565
831.496	22854
831.635	22577
831.774	22459
831.913	22508
832.051	22356
832.19	22337
832.329	22428
832.467	22188
832.606	22124
832.744	22154
832.883	22230
833.022	22181
833.16	22223
833.299	22257
833.437	22078
833.576	22318
833.714	22185
833.852	22204
833.991	22306
834.129	22226
834.267	22147
834.406	22276
834.544	22093
834.682	22196
834.821	22048
834.959	22341
835.097	22116
835.235	22135
835.373	22051
835.511	22265
835.65	21972
835.788	22101
835.926	21861
836.064	21865
836.202	21960
836.34	21964
836.478	22021
836.615	22013
836.753	22070
836.891	22090
837.029	22032
837.167	21972
837.305	21915
837.443	21937
837.58	21857
837.718	21964
837.856	21956
837.993	21797
838.131	21857
838.269	21743
838.406	21701
838.544	21622
838.681	21515
838.819	21568
838.956	21374
839.094	21428
839.231	21367
839.369	21416
839.506	21682
839.643	21420
839.781	21351
839.918	21195
840.055	21332
840.193	21279
840.33	21169
840.467	21283
840.604	21207
840.742	21492
840.879	21089
841.016	21157
841.153	21017
841.29	21226
841.427	21256
841.564	21154
841.701	21192
841.838	21024
841.975	21032
842.112	20986
842.249	21100
842.385	20899
842.522	21009
842.659	20956
842.796	20819
842.933	20864
843.069	20773
843.206	20834
843.343	21013
843.479	20929
843.616	20952
843.752	20830
843.889	20667
844.025	20750
844.162	20609
844.298	20769
844.435	20533
844.571	20648
844.708	20727
844.844	20762
844.98	20724
845.117	20792
845.253	20625
845.389	20598
845.525	20651
845.661	20697
845.798	20492
845.934	20644
846.07	20602
846.206	20636
846.342	20659
846.478	20427
846.614	20362
846.75	20081
846.886	20183
847.022	20153
847.158	20195
847.294	20157
847.429	20214
847.565	20092
847.701	20282
847.837	19856
847.972	19883
848.108	19860
848.244	19963
848.379	19791
848.515	19635
848.65	19780
848.786	19670
848.921	19590
849.057	19704
849.192	19761
849.328	19704
849.463	19685
849.598	19594
849.734	19658
849.869	19506
850.004	19506
850.14	19445
850.275	19384
850.41	19472
850.545	19350
850.68	19430
850.815	19263
850.95	19320
851.085	19658
851.22	19521
851.355	19491
851.49	19312
851.625	19270
851.76	19312
851.895	19388
852.03	19217
852.165	19384
852.299	19350
852.434	19426
852.569	19384
852.703	19392
852.838	19502
852.973	19563
853.107	19384
853.242	19419
853.376	19213
853.511	19156
853.645	19289
853.78	19339
853.914	19343
854.048	19244
854.183	19236
854.317	19217
854.451	19426
854.585	19327
854.72	19179
854.854	19168
854.988	19164
855.122	19259
855.256	19012
855.39	19110
855.524	19251
855.658	19194
855.792	19099
855.926	19194
856.06	19217
856.194	19240
856.327	19164
856.461	19217
856.595	19034
856.729	19194
856.862	19324
856.996	19270
857.13	19232
857.263	19251
857.397	19129
857.53	19171
857.664	19152
857.797	19232
857.931	19236
858.064	19091
858.197	19270
858.331	19088
858.464	19057
858.597	19099
858.731	19209
858.864	19091
858.997	19171
859.13	19175
859.263	19202
859.396	19206
859.529	19091
859.662	19110
859.795	19114
859.928	19110
860.061	19194
860.194	19320
860.327	19168
860.46	19050
860.592	19137
860.725	19179
860.858	19228
860.99	19019
861.123	19160
861.256	18977
861.388	19129
861.521	19670
861.653	19004
861.786	18932
861.918	18996
862.05	19042
862.183	19084
862.315	19110
862.447	19274
862.58	19141
862.712	18856
862.844	18924
862.976	18951
863.108	18890
863.24	19194
863.372	18738
863.504	18852
863.636	18741
863.768	18859
863.9	18875
864.032	18783
864.164	18817
864.296	18916
864.428	18928
864.559	18924
864.691	18962
864.823	18939
864.954	18810
865.086	18791
865.217	18753
865.349	18665
865.48	18753
865.612	18772
865.743	18829
865.875	18787
866.006	18738
866.137	18779
866.269	18779
866.4	18661
866.531	18703
866.662	18646
866.793	18696
866.924	18738
867.055	18776
867.186	18677
867.317	18658
867.448	18665
867.579	18608
867.71	18559
867.841	18715
867.972	18692
868.103	18612
868.233	18741
868.364	18639
868.495	18764
868.625	18894
868.756	19038
868.886	18829
869.017	18894
869.147	18996
869.278	19008
869.408	18924
869.539	18875
869.669	18977
869.799	19057
869.929	19038
870.06	18958
870.19	19187
870.32	19126
870.45	19263
870.58	19263
870.71	19381
870.84	19476
870.97	19320
871.1	19232
871.23	19559
871.36	19521
871.489	19464
871.619	19365
871.749	19453
871.879	19537
872.008	19655
872.138	19502
872.267	19548
872.397	19422
872.526	19362
872.656	19304
872.785	19400
872.915	19548
873.044	19468
873.173	19518
873.303	19609
873.432	19548
873.561	19601
873.69	19529
873.819	19635
873.948	19620
874.077	19483
874.206	19613
874.335	19518
874.464	19594
874.593	19887
874.722	19761
874.851	19883
874.979	19803
875.108	19795
875.237	19700
875.365	19727
875.494	19784
875.623	19921
875.751	19845
875.88	19799
876.008	19833
876.136	19993
876.265	20328
876.393	20286
876.521	20351
876.65	20301
876.778	20138
876.906	20126
877.034	20195
877.162	20176
877.29	20065
877.418	20290
877.546	20233
877.674	20218
877.802	20172
877.93	20176
878.058	20161
878.185	20058
878.313	20130
878.441	20027
878.568	20081
878.696	20130
878.824	20244
878.951	20286
879.079	20393
879.206	20526
879.333	20362
879.461	20240
879.588	20419
879.715	20549
879.842	20545
879.97	20263
880.097	20065
880.224	20225
880.351	20084
880.478	20100
880.605	20058
880.732	20065
880.859	20286
880.986	20046
881.112	20065
881.239	19986
881.366	19803
881.493	19788
881.619	19715
881.746	19788
881.872	19681
881.999	19715
882.125	19685
882.252	19811
882.378	19704
882.505	19795
882.631	19594
882.757	19400
882.883	19495
883.01	19480
883.136	19350
883.262	19259
883.388	19327
883.514	19438
883.64	19373
883.766	19255
883.892	19232
884.018	19297
884.143	19301
884.269	19510
884.395	19126
884.52	19133
884.646	19103
884.772	18954
884.897	19000
885.023	18985
885.148	19095
885.274	19251
885.399	19221
885.524	19076
885.65	19034
885.775	19103
885.9	19057
886.025	19175
886.15	19156
886.275	19008
886.4	18954
886.525	18996
886.65	18909
886.775	19004
886.9	19179
887.025	19221
887.149	19103
887.274	18795
887.399	18760
887.523	18871
887.648	18749
887.773	18692
887.897	18856
888.021	18829
888.146	18719
888.27	18856
888.395	18844
888.519	18783
888.643	18871
888.767	18954
888.891	18757
889.015	18627
889.139	18734
889.263	18616
889.387	18722
889.511	18787
889.635	18711
889.759	18563
889.883	18551
890.006	18574
890.13	18681
890.254	18559
890.377	18551
890.501	18376
890.624	18342
890.748	18464
890.871	18273
890.995	18273
891.118	18091
891.241	18273
891.364	18243
891.488	18323
891.611	18228
891.734	18232
891.857	18209
891.98	18251
892.103	18239
892.226	18247
892.349	18129
892.471	18015
892.594	18197
892.717	18129
892.839	18159
892.962	18201
893.085	18239
893.207	18209
893.33	18045
893.452	18053
893.575	18186
893.697	18098
893.819	18372
893.941	18289
894.064	18346
894.186	18163
894.308	18041
894.43	18155
894.552	18285
894.674	18266
894.796	18171
894.918	18152
895.04	18133
895.161	18266
895.283	18232
895.405	18254
895.526	18125
895.648	18205
895.769	18251
895.891	18178
896.012	18289
896.134	18251
896.255	18171
896.376	18197
896.498	18384
896.619	18334
896.74	18140
896.861	18224
896.982	18665
897.103	18787
897.224	18559
897.345	18612
897.466	18422
897.587	18498
897.708	18585
897.828	18509
897.949	18467
898.07	18376
898.19	18338
898.311	18555
898.431	18334
898.552	18448
898.672	18536
898.792	18623
898.913	18502
899.033	18391
899.153	18281
899.273	18197
899.393	18190
899.513	18315
899.633	18201
899.753	18235
899.873	18102
899.993	18323
900.113	18095
900.232	18266
900.352	18254
900.472	18095
900.591	17996
900.711	18201
900.83	17965
900.95	18121
901.069	18034
901.189	17984
901.308	17707
901.427	17722
901.546	17585
901.665	17714
901.784	17733
901.904	17589
902.023	17611
902.141	17227
902.26	17151
902.379	17261
902.498	17311
902.617	17140
902.735	17250
902.854	17124
902.973	17079
903.091	16862
903.21	16778
903.328	16934
903.446	16831
903.565	16721
903.683	16664
903.801	16577
903.919	16592
904.038	16626
904.156	16512
904.274	16584
904.392	16402
904.51	16413
904.627	16470
904.745	16489
904.863	16421
904.981	16253
905.098	16067
905.216	16261
905.334	16223
905.451	16135
905.569	16112
905.686	16082
905.803	16101
905.921	15899
906.038	15903
906.155	15956
906.272	15797
906.389	15781
906.506	15671
906.623	15633
906.74	15606
906.857	15523
906.974	15561
907.091	15701
907.208	15781
907.324	15549
907.441	15610
907.557	15351
907.674	15367
907.79	15344
907.907	15283
908.023	15401
908.139	15264
908.256	15302
908.372	15256
908.488	15142
908.604	15089
908.72	15036
908.836	15165
908.952	15062
909.068	15074
909.184	15112
909.3	15070
909.415	15093
909.531	15001
909.647	14792
909.762	14769
909.878	14663
909.993	14830
910.108	14678
910.224	14750
910.339	14686
910.454	14606
910.57	14560
910.685	14495
910.8	14739
910.915	14659
911.03	14613
911.145	14431
911.259	14393
911.374	14393
911.489	14301
911.604	14233
911.718	14134
911.833	14119
911.947	13959
912.062	13925
912.176	14138
912.291	14180
912.405	14043
912.519	14309
912.633	14267
912.748	14195
912.862	14214
912.976	13887
913.09	13833
913.204	13894
913.318	13826
913.431	14157
913.545	14043
913.659	14096
913.772	13936
913.886	13799
914	13670
914.113	13887
914.226	13974
914.34	13894
914.453	13613
914.566	13890
914.68	13685
914.793	13632
914.906	13495
915.019	13499
915.132	13350
915.245	13369
915.358	13403
915.47	13430
915.583	13381
915.696	13445
915.809	13518
915.921	13624
916.034	13358
916.146	13343
916.259	13324
916.371	13369
916.483	13365
916.595	13304
916.708	13293
916.82	13221
916.932	13126
917.044	13232
917.156	13217
917.268	13160
917.38	13198
917.491	13053
917.603	13160
917.715	13149
917.826	13183
917.938	13088
918.049	13023
918.161	13095
918.272	13255
918.384	13190
918.495	13129
918.606	12958
918.717	12882
918.828	12916
918.939	12958
919.05	12840
919.161	12871
919.272	12673
919.383	12711
919.494	12958
919.604	13152
919.715	12890
919.826	12886
919.936	12871
920.047	12943
920.157	12875
920.267	13107
920.378	12909
920.488	12871
920.598	13072
920.708	13126
920.818	13061
920.928	13034
921.038	13110
921.148	13213
921.258	12791
921.368	12840
921.477	12703
921.587	12658
921.697	12551
921.806	12601
921.916	12585
922.025	12418
922.134	12323
922.244	12281
922.353	12357
922.462	12228
922.571	12064
922.68	12049
922.789	11920
922.898	11996
923.007	11969
923.116	11958
923.224	11942
923.333	12030
923.442	11824
923.55	11729
923.659	11813
923.767	11866
923.876	11798
923.984	11802
924.092	11752
924.201	11745
924.309	11863
924.417	11767
924.525	11741
924.633	11688
924.741	12536
924.849	11497
924.956	11600
925.064	11474
925.172	11429
925.279	11516
925.387	11520
925.494	11532
925.602	11657
925.709	11493
925.816	11368
925.924	11467
926.031	11501
926.138	11459
926.245	11425
926.352	11341
926.459	11463
926.566	11642
926.673	11410
926.779	11189
926.886	11246
926.993	11067
927.099	11113
927.206	11094
927.312	11041
927.419	11265
927.525	11147
927.631	11052
927.737	10949
927.843	10885
927.95	10839
928.056	10866
928.162	10934
928.267	10957
928.373	11387
928.479	10999
928.585	10767
928.69	10957
928.796	10984
928.901	10831
929.007	10656
929.112	10835
929.218	10729
929.323	10668
929.428	10702
929.533	10824
929.638	10668
929.743	10672
929.848	10603
929.953	10660
930.058	10523
930.163	10367
930.267	10344
930.372	10504
930.477	10375
930.581	10653
930.685	10470
930.79	10272
930.894	10382
930.998	10303
931.103	10371
931.207	10036
931.311	9956
931.415	9949
931.519	9774
931.623	9686
