Data from test_V78500241_2826.txt Node
Date: Fri Mar 25 14:53:23 CST 2022
User: usil
Spectrometer: V785-0024
Trigger mode: 0
Integration Time (sec): 4.000000E-1
Scans to average: 1
Nonlinearity correction enabled: false
Boxcar width: 0
Storing dark spectrum: false
XAxis mode: Wavelengths
Number of Pixels in Spectrum: 1024
>>>>>Begin Spectral Data<<<<<
801.071	22093
801.214	21949
801.356	21629
801.499	21644
801.641	21447
801.783	21332
801.926	21473
802.068	21374
802.211	21313
802.353	21256
802.496	20963
802.638	20914
802.78	20906
802.923	20754
803.065	20754
803.208	20644
803.35	20682
803.492	20842
803.635	20834
803.777	20689
803.919	20823
804.061	20986
804.204	20769
804.346	20609
804.488	20625
804.63	20697
804.773	20590
804.915	20609
805.057	20800
805.199	20594
805.341	20868
805.483	20769
805.626	20765
805.768	20598
805.91	20575
806.052	20640
806.194	20667
806.336	20724
806.478	20667
806.62	20594
806.762	20686
806.904	20937
807.046	21028
807.188	20918
807.33	20944
807.472	21032
807.614	20906
807.756	20819
807.898	20842
808.04	20701
808.182	20678
808.324	20739
808.465	20800
808.607	21039
808.749	21051
808.891	21043
809.033	21173
809.174	21123
809.316	21047
809.458	20994
809.6	20963
809.741	21051
809.883	21096
810.025	21112
810.166	21241
810.308	21218
810.45	21135
810.591	20921
810.733	20895
810.875	20659
811.016	20659
811.158	20613
811.299	20929
811.441	21039
811.582	20899
811.724	20880
811.865	20834
812.007	20735
812.148	20724
812.29	20720
812.431	20895
812.573	21116
812.714	21184
812.855	21264
812.997	21481
813.138	21633
813.279	21374
813.421	21222
813.562	21184
813.703	21024
813.845	20910
813.986	20640
814.127	20522
814.268	20457
814.41	20351
814.551	20366
814.692	20438
814.833	20259
814.974	20370
815.115	20225
815.256	20100
815.397	20225
815.539	20199
815.68	20092
815.821	19989
815.962	20046
816.103	20027
816.244	19875
816.385	19868
816.526	19776
816.666	19613
816.807	19464
816.948	19643
817.089	19613
817.23	19624
817.371	19480
817.512	19422
817.653	19468
817.793	19335
817.934	19457
818.075	19491
818.216	19476
818.356	19354
818.497	19343
818.638	19194
818.778	19076
818.919	19088
819.06	19183
819.2	19297
819.341	19369
819.481	19362
819.622	19518
819.762	19628
819.903	19632
820.043	19495
820.184	19430
820.324	19468
820.465	19514
820.605	19384
820.746	19426
820.886	19392
821.026	19362
821.167	19327
821.307	19472
821.447	19457
821.588	19327
821.728	19141
821.868	19008
822.008	18806
822.149	18924
822.289	18867
822.429	18620
822.569	18658
822.709	18532
822.849	18388
822.99	18330
823.13	18369
823.27	18338
823.41	18026
823.55	18117
823.69	18216
823.83	18285
823.97	18083
824.11	17980
824.25	17973
824.389	17866
824.529	17897
824.669	17939
824.809	17984
824.949	17958
825.089	18003
825.228	17904
825.368	17794
825.508	17767
825.648	17741
825.787	17737
825.927	17783
826.067	17554
826.206	17649
826.346	17642
826.485	17668
826.625	17596
826.765	17859
826.904	17771
827.044	17440
827.183	17436
827.323	17372
827.462	17463
827.601	17349
827.741	17444
827.88	17421
828.02	17318
828.159	17269
828.298	17376
828.437	17433
828.577	17334
828.716	17433
828.855	17345
828.994	17185
829.134	17086
829.273	17170
829.412	17170
829.551	17151
829.69	17079
829.829	17155
829.968	17235
830.107	17212
830.246	17086
830.385	16968
830.524	16991
830.663	16965
830.802	16866
830.941	16694
831.08	16725
831.219	16767
831.357	16862
831.496	16999
831.635	16725
831.774	16687
831.913	16611
832.051	16497
832.19	16459
832.329	16580
832.467	16523
832.606	16398
832.744	16474
832.883	16409
833.022	16424
833.16	16535
833.299	16489
833.437	16432
833.576	16398
833.714	16519
833.852	16561
833.991	16611
834.129	16611
834.267	16546
834.406	16596
834.544	16500
834.682	16542
834.821	16535
834.959	16584
835.097	16523
835.235	16645
835.373	16531
835.511	16558
835.65	16424
835.788	16344
835.926	16329
836.064	16265
836.202	16280
836.34	16470
836.478	16523
836.615	16333
836.753	16470
836.891	16592
837.029	16489
837.167	16371
837.305	16394
837.443	16329
837.58	16253
837.718	16280
837.856	16356
837.993	16299
838.131	16280
838.269	16215
838.406	16291
838.544	16051
838.681	15998
838.819	15987
838.956	15793
839.094	15770
839.231	15831
839.369	16040
839.506	16344
839.643	16173
839.781	15915
839.918	15762
840.055	15808
840.193	15846
840.33	15755
840.467	15918
840.604	15922
840.742	16109
840.879	15861
841.016	15663
841.153	15690
841.29	15899
841.427	15903
841.564	15949
841.701	15819
841.838	15751
841.975	15812
842.112	15663
842.249	15732
842.385	15614
842.522	15781
842.659	15663
842.796	15557
842.933	15675
843.069	15549
843.206	15568
843.343	15698
843.479	15660
843.616	15629
843.752	15321
843.889	15355
844.025	15538
844.162	15325
844.298	15454
844.435	15412
844.571	15412
844.708	15450
844.844	15435
844.98	15504
845.117	15443
845.253	15260
845.389	15275
845.525	15332
845.661	15302
845.798	15199
845.934	15310
846.07	15207
846.206	15256
846.342	15348
846.478	15176
846.614	15017
846.75	14899
846.886	15051
847.022	15104
847.158	14921
847.294	15032
847.429	14979
847.565	14944
847.701	15146
847.837	14712
847.972	14594
848.108	14781
848.244	14830
848.379	14617
848.515	14526
848.65	14537
848.786	14511
848.921	14545
849.057	14743
849.192	14629
849.328	14594
849.463	14606
849.598	14587
849.734	14492
849.869	14484
850.004	14381
850.14	14488
850.275	14317
850.41	14336
850.545	14305
850.68	14187
850.815	14298
850.95	14271
851.085	14423
851.22	14423
851.355	14415
851.49	14362
851.625	14229
851.76	14244
851.895	14263
852.03	14191
852.165	14278
852.299	14294
852.434	14457
852.569	14408
852.703	14393
852.838	14427
852.973	14450
853.107	14480
853.242	14256
853.376	14206
853.511	14119
853.645	14149
853.78	14423
853.914	14301
854.048	14183
854.183	14088
854.317	14180
854.451	14400
854.585	14195
854.72	14100
854.854	14252
854.988	14107
855.122	14149
855.256	14084
855.39	14199
855.524	14233
855.658	14240
855.792	14183
855.926	14225
856.06	14240
856.194	14301
856.327	14172
856.461	14123
856.595	14225
856.729	14248
856.862	14248
856.996	14267
857.13	14259
857.263	14298
857.397	14362
857.53	14237
857.664	14305
857.797	14362
857.931	14358
858.064	14301
858.197	14317
858.331	14183
858.464	14229
858.597	14119
858.731	14301
858.864	14168
858.997	14161
859.13	14229
859.263	14206
859.396	14324
859.529	14218
859.662	14183
859.795	14237
859.928	14229
860.061	14473
860.194	14328
860.327	14187
860.46	14263
860.592	14355
860.725	14320
860.858	14259
860.99	14100
861.123	14031
861.256	14103
861.388	14161
861.521	14944
861.653	14142
861.786	14043
861.918	14073
862.05	14225
862.183	14084
862.315	14244
862.447	14263
862.58	14065
862.712	13993
862.844	13913
862.976	14084
863.108	14084
863.24	14290
863.372	13898
863.504	13921
863.636	13940
863.768	14054
863.9	13947
864.032	13951
864.164	13974
864.296	13978
864.428	14176
864.559	14050
864.691	14058
864.823	14107
864.954	14027
865.086	14096
865.217	13989
865.349	13944
865.48	13993
865.612	13989
865.743	14016
865.875	13906
866.006	13974
866.137	14050
866.269	14100
866.4	14008
866.531	13830
866.662	13936
866.793	13826
866.924	13913
867.055	13951
867.186	13959
867.317	13890
867.448	13871
867.579	13826
867.71	13955
867.841	13928
867.972	13890
868.103	14012
868.233	14020
868.364	14069
868.495	14065
868.625	14172
868.756	14275
868.886	14187
869.017	14301
869.147	14244
869.278	14343
869.408	14282
869.539	14271
869.669	14225
869.799	14313
869.929	14286
870.06	14358
870.19	14461
870.32	14461
870.45	14575
870.58	14659
870.71	14739
870.84	14746
870.97	14640
871.1	14644
871.23	14842
871.36	14804
871.489	14758
871.619	14918
871.749	14883
871.879	14838
872.008	14845
872.138	14861
872.267	14811
872.397	14667
872.526	14648
872.656	14651
872.785	14651
872.915	14838
873.044	14937
873.173	14914
873.303	14842
873.432	14937
873.561	14952
873.69	14895
873.819	14849
873.948	14967
874.077	14891
874.206	14811
874.335	14948
874.464	14963
874.593	15203
874.722	14994
874.851	15192
874.979	15291
875.108	15173
875.237	15161
875.365	15123
875.494	15165
875.623	15180
875.751	15142
875.88	15119
876.008	15393
876.136	15359
876.265	15652
876.393	15823
876.521	15797
876.65	15732
876.778	15614
876.906	15606
877.034	15534
877.162	15553
877.29	15557
877.418	15584
877.546	15618
877.674	15599
877.802	15622
877.93	15587
878.058	15557
878.185	15473
878.313	15557
878.441	15637
878.568	15511
878.696	15526
878.824	15614
878.951	15675
879.079	15759
879.206	15941
879.333	15759
879.461	15705
879.588	15698
879.715	15747
879.842	15911
879.97	15625
880.097	15447
880.224	15466
880.351	15507
880.478	15435
880.605	15450
880.732	15515
880.859	15705
880.986	15515
881.112	15557
881.239	15329
881.366	15218
881.493	15192
881.619	15024
881.746	15157
881.872	15146
881.999	15112
882.125	15085
882.252	15157
882.378	15264
882.505	15260
882.631	15039
882.757	14986
882.883	14960
883.01	14887
883.136	14781
883.262	14815
883.388	14773
883.514	14910
883.64	15005
883.766	14880
883.892	14796
884.018	14758
884.143	14834
884.269	14960
884.395	14640
884.52	14556
884.646	14659
884.772	14549
884.897	14450
885.023	14617
885.148	14708
885.274	14925
885.399	14811
885.524	14636
885.65	14667
885.775	14686
885.9	14594
886.025	14674
886.15	14724
886.275	14602
886.4	14473
886.525	14606
886.65	14537
886.775	14606
886.9	14785
887.025	14811
887.149	14682
887.274	14499
887.399	14457
887.523	14488
887.648	14431
887.773	14446
887.897	14442
888.021	14492
888.146	14438
888.27	14514
888.395	14598
888.519	14583
888.643	14590
888.767	14526
888.891	14389
889.015	14301
889.139	14313
889.263	14339
889.387	14404
889.511	14450
889.635	14488
889.759	14332
889.883	14278
890.006	14412
890.13	14503
890.254	14336
890.377	14324
890.501	14183
890.624	14176
890.748	14282
890.871	14012
890.995	13993
891.118	13887
891.241	14073
891.364	13986
891.488	14077
891.611	14050
891.734	13955
891.857	14062
891.98	14062
892.103	14153
892.226	14039
892.349	14119
892.471	13928
892.594	13997
892.717	14084
892.839	14016
892.962	14024
893.085	14180
893.207	14065
893.33	13906
893.452	13993
893.575	14115
893.697	14035
893.819	14259
893.941	14237
894.064	14214
894.186	13978
894.308	13940
894.43	14153
894.552	14187
894.674	14210
894.796	13978
894.918	14046
895.04	14069
895.161	14138
895.283	14183
895.405	14039
895.526	14077
895.648	14233
895.769	14145
895.891	14206
896.012	14225
896.134	14252
896.255	14183
896.376	14206
896.498	14206
896.619	14290
896.74	14248
896.861	14233
896.982	14625
897.103	14629
897.224	14488
897.345	14488
897.466	14469
897.587	14484
897.708	14583
897.828	14503
897.949	14461
898.07	14404
898.19	14457
898.311	14587
898.431	14446
898.552	14499
898.672	14693
898.792	14610
898.913	14621
899.033	14541
899.153	14385
899.273	14339
899.393	14438
899.513	14533
899.633	14419
899.753	14545
899.873	14396
899.993	14484
900.113	14400
900.232	14480
900.352	14431
900.472	14183
900.591	14271
900.711	14240
900.83	14248
900.95	14366
901.069	14442
901.189	14164
901.308	14039
901.427	13928
901.546	14039
901.665	13932
901.784	14024
901.904	13917
902.023	13799
902.141	13647
902.26	13575
902.379	13594
902.498	13487
902.617	13506
902.735	13544
902.854	13487
902.973	13540
903.091	13244
903.21	13301
903.328	13255
903.446	13285
903.565	13057
903.683	13149
903.801	13038
903.919	13129
904.038	13069
904.156	12905
904.274	12985
904.392	12947
904.51	12871
904.627	12878
904.745	12924
904.863	12989
904.981	12700
905.098	12620
905.216	12544
905.334	12677
905.451	12578
905.569	12525
905.686	12574
905.803	12593
905.921	12380
906.038	12517
906.155	12403
906.272	12270
906.389	12388
906.506	12277
906.623	12190
906.74	12220
906.857	12045
906.974	12083
907.091	12292
907.208	12330
907.324	12178
907.441	12095
907.557	11965
907.674	11939
907.79	11927
907.907	11927
908.023	11984
908.139	12015
908.256	11882
908.372	11912
908.488	11802
908.604	11737
908.72	11570
908.836	11760
908.952	11649
909.068	11775
909.184	11832
909.3	11733
909.415	11760
909.531	11714
909.647	11520
909.762	11395
909.878	11455
909.993	11539
910.108	11520
910.224	11482
910.339	11474
910.454	11330
910.57	11353
910.685	11322
910.8	11535
910.915	11539
911.03	11315
911.145	11140
911.259	11220
911.374	11113
911.489	11136
911.604	11121
911.718	10908
911.833	10965
911.947	10805
912.062	10683
912.176	10949
912.291	10919
912.405	10904
912.519	11105
912.633	11250
912.748	11041
912.862	10889
912.976	10752
913.09	10710
913.204	10771
913.318	10862
913.431	10927
913.545	10889
913.659	10896
913.772	10850
913.886	10702
914	10672
914.113	10771
914.226	10721
914.34	10786
914.453	10527
914.566	10748
914.68	10740
914.793	10664
914.906	10451
915.019	10447
915.132	10375
915.245	10417
915.358	10390
915.47	10451
915.583	10542
915.696	10504
915.809	10675
915.921	10588
916.034	10443
916.146	10402
916.259	10394
916.371	10497
916.483	10459
916.595	10306
916.708	10356
916.82	10424
916.932	10379
917.044	10341
917.156	10287
917.268	10223
917.38	10265
917.491	10284
917.603	10261
917.715	10352
917.826	10417
917.938	10204
918.049	10143
918.161	10253
918.272	10390
918.384	10459
918.495	10341
918.606	10166
918.717	10105
918.828	10143
918.939	10238
919.05	10131
919.161	10112
919.272	9968
919.383	10021
919.494	10257
919.604	10371
919.715	10185
919.826	10097
919.936	10192
920.047	10242
920.157	10147
920.267	10344
920.378	10303
920.488	10196
920.598	10371
920.708	10573
920.818	10428
920.928	10322
921.038	10443
921.148	10451
921.258	10204
921.368	10116
921.477	10067
921.587	10017
921.697	9918
921.806	10063
921.916	9934
922.025	9770
922.134	9804
922.244	9641
922.353	9816
922.462	9584
922.571	9606
922.68	9439
922.789	9389
922.898	9504
923.007	9431
923.116	9443
923.224	9469
923.333	9443
923.442	9355
923.55	9306
923.659	9332
923.767	9370
923.876	9249
923.984	9382
924.092	9272
924.201	9294
924.309	9272
924.417	9275
924.525	9192
924.633	9298
924.741	9983
924.849	9051
924.956	9192
925.064	8998
925.172	8956
925.279	9089
925.387	9142
925.494	9173
925.602	9157
925.709	9207
925.816	8998
925.924	9116
926.031	9131
926.138	9100
926.245	9017
926.352	9051
926.459	9135
926.566	9195
926.673	9077
926.779	8967
926.886	8941
926.993	8750
927.099	8830
927.206	8746
927.312	8682
927.419	8864
927.525	8796
927.631	8906
927.737	8670
927.843	8682
927.95	8636
928.056	8731
928.162	8735
928.267	8754
928.373	9268
928.479	8842
928.585	8598
928.69	8651
928.796	8731
928.901	8629
929.007	8446
929.112	8629
929.218	8598
929.323	8533
929.428	8476
929.533	8659
929.638	8473
929.743	8446
929.848	8530
929.953	8533
930.058	8442
930.163	8248
930.267	8324
930.372	8423
930.477	8191
930.581	8495
930.685	8374
930.79	8210
930.894	8195
930.998	8221
931.103	8355
931.207	8081
931.311	7989
931.415	7917
931.519	7788
931.623	7738
