Data from test_V78500241_2469.txt Node
Date: Fri Mar 25 14:50:54 CST 2022
User: usil
Spectrometer: V785-0024
Trigger mode: 0
Integration Time (sec): 4.000000E-1
Scans to average: 1
Nonlinearity correction enabled: false
Boxcar width: 0
Storing dark spectrum: false
XAxis mode: Wavelengths
Number of Pixels in Spectrum: 1024
>>>>>Begin Spectral Data<<<<<
801.071	22192
801.214	22055
801.356	21724
801.499	21519
801.641	21488
801.783	21447
801.926	21405
802.068	21401
802.211	21355
802.353	21272
802.496	21020
802.638	20963
802.78	20891
802.923	20838
803.065	20731
803.208	20743
803.35	20823
803.492	20902
803.635	20887
803.777	20655
803.919	20899
804.061	21108
804.204	20918
804.346	20777
804.488	20693
804.63	20746
804.773	20594
804.915	20769
805.057	20868
805.199	20606
805.341	20705
805.483	20655
805.626	20598
805.768	20609
805.91	20670
806.052	20746
806.194	20678
806.336	20925
806.478	20655
806.62	20640
806.762	20819
806.904	20826
807.046	21058
807.188	21062
807.33	21017
807.472	21192
807.614	20899
807.756	20834
807.898	20792
808.04	20792
808.182	20838
808.324	20804
808.465	20758
808.607	20971
808.749	21070
808.891	21252
809.033	21302
809.174	21173
809.316	21028
809.458	20994
809.6	20975
809.741	21203
809.883	21093
810.025	21237
810.166	21287
810.308	21184
810.45	21192
810.591	21081
810.733	20948
810.875	20933
811.016	20800
811.158	20602
811.299	20876
811.441	20933
811.582	20971
811.724	20887
811.865	20735
812.007	20868
812.148	20800
812.29	20914
812.431	20982
812.573	21112
812.714	21351
812.855	21351
812.997	21431
813.138	21545
813.279	21401
813.421	21382
813.562	21325
813.703	21150
813.845	20929
813.986	20735
814.127	20583
814.268	20503
814.41	20419
814.551	20427
814.692	20404
814.833	20351
814.974	20271
815.115	20415
815.256	20210
815.397	20286
815.539	20286
815.68	20081
815.821	20092
815.962	20130
816.103	20161
816.244	20035
816.385	19765
816.526	19932
816.666	19791
816.807	19480
816.948	19647
817.089	19734
817.23	19518
817.371	19605
817.512	19575
817.653	19567
817.793	19476
817.934	19499
818.075	19582
818.216	19582
818.356	19449
818.497	19339
818.638	19171
818.778	19190
818.919	19202
819.06	19259
819.2	19293
819.341	19415
819.481	19499
819.622	19658
819.762	19811
819.903	19791
820.043	19590
820.184	19472
820.324	19480
820.465	19647
820.605	19499
820.746	19529
820.886	19350
821.026	19476
821.167	19514
821.307	19537
821.447	19354
821.588	19346
821.728	19148
821.868	18993
822.008	19027
822.149	18905
822.289	18901
822.429	18722
822.569	18620
822.709	18616
822.849	18486
822.99	18399
823.13	18334
823.27	18357
823.41	18239
823.55	18155
823.69	18285
823.83	18194
823.97	18049
824.11	18125
824.25	17882
824.389	18019
824.529	17973
824.669	18011
824.809	18125
824.949	18072
825.089	18011
825.228	18011
825.368	17840
825.508	17722
825.648	17790
825.787	17756
825.927	17790
826.067	17695
826.206	17707
826.346	17824
826.485	17680
826.625	17710
826.765	17878
826.904	17710
827.044	17486
827.183	17478
827.323	17356
827.462	17459
827.601	17318
827.741	17421
827.88	17471
828.02	17303
828.159	17387
828.298	17402
828.437	17535
828.577	17501
828.716	17509
828.855	17326
828.994	17227
829.134	17189
829.273	17178
829.412	17094
829.551	17143
829.69	17330
829.829	17185
829.968	17307
830.107	17250
830.246	17318
830.385	17098
830.524	17109
830.663	17071
830.802	16904
830.941	16854
831.08	16805
831.219	16919
831.357	16927
831.496	17056
831.635	16752
831.774	16733
831.913	16675
832.051	16599
832.19	16542
832.329	16725
832.467	16508
832.606	16504
832.744	16603
832.883	16626
833.022	16504
833.16	16531
833.299	16554
833.437	16645
833.576	16649
833.714	16592
833.852	16584
833.991	16706
834.129	16733
834.267	16698
834.406	16637
834.544	16565
834.682	16588
834.821	16523
834.959	16847
835.097	16611
835.235	16660
835.373	16607
835.511	16596
835.65	16481
835.788	16584
835.926	16348
836.064	16337
836.202	16287
836.34	16512
836.478	16649
836.615	16386
836.753	16493
836.891	16599
837.029	16561
837.167	16493
837.305	16462
837.443	16421
837.58	16234
837.718	16428
837.856	16443
837.993	16352
838.131	16329
838.269	16268
838.406	16356
838.544	16325
838.681	16116
838.819	15991
838.956	15953
839.094	15884
839.231	15998
839.369	16059
839.506	16284
839.643	16097
839.781	15899
839.918	15854
840.055	15907
840.193	15812
840.33	15930
840.467	15956
840.604	15915
840.742	16112
840.879	15804
841.016	15785
841.153	15774
841.29	15979
841.427	16006
841.564	15975
841.701	15857
841.838	15838
841.975	15846
842.112	15770
842.249	15705
842.385	15648
842.522	15827
842.659	15660
842.796	15679
842.933	15679
843.069	15660
843.206	15701
843.343	15793
843.479	15637
843.616	15728
843.752	15431
843.889	15534
844.025	15584
844.162	15435
844.298	15572
844.435	15389
844.571	15469
844.708	15572
844.844	15644
844.98	15564
845.117	15591
845.253	15370
845.389	15367
845.525	15389
845.661	15424
845.798	15264
845.934	15359
846.07	15241
846.206	15218
846.342	15389
846.478	15291
846.614	15066
846.75	14971
846.886	15051
847.022	15169
847.158	15043
847.294	15066
847.429	14967
847.565	15001
847.701	15237
847.837	14842
847.972	14823
848.108	14864
848.244	14910
848.379	14739
848.515	14625
848.65	14648
848.786	14659
848.921	14735
849.057	14724
849.192	14705
849.328	14731
849.463	14765
849.598	14697
849.734	14575
849.869	14571
850.004	14412
850.14	14374
850.275	14503
850.41	14336
850.545	14313
850.68	14393
850.815	14454
850.95	14446
851.085	14613
851.22	14488
851.355	14408
851.49	14366
851.625	14415
851.76	14248
851.895	14294
852.03	14221
852.165	14377
852.299	14320
852.434	14530
852.569	14419
852.703	14518
852.838	14419
852.973	14610
853.107	14606
853.242	14412
853.376	14320
853.511	14130
853.645	14161
853.78	14431
853.914	14298
854.048	14278
854.183	14180
854.317	14278
854.451	14431
854.585	14229
854.72	14259
854.854	14328
854.988	14221
855.122	14180
855.256	14191
855.39	14248
855.524	14271
855.658	14332
855.792	14233
855.926	14301
856.06	14290
856.194	14431
856.327	14233
856.461	14320
856.595	14187
856.729	14275
856.862	14358
856.996	14244
857.13	14362
857.263	14381
857.397	14404
857.53	14271
857.664	14278
857.797	14320
857.931	14492
858.064	14271
858.197	14457
858.331	14202
858.464	14176
858.597	14142
858.731	14252
858.864	14298
858.997	14233
859.13	14267
859.263	14347
859.396	14351
859.529	14237
859.662	14271
859.795	14320
859.928	14301
860.061	14404
860.194	14503
860.327	14282
860.46	14358
860.592	14419
860.725	14495
860.858	14332
860.99	14256
861.123	14248
861.256	14225
861.388	14309
861.521	14861
861.653	14191
861.786	14126
861.918	14176
862.05	14218
862.183	14191
862.315	14275
862.447	14423
862.58	14027
862.712	14065
862.844	13989
862.976	14176
863.108	14142
863.24	14480
863.372	13989
863.504	14043
863.636	13986
863.768	14069
863.9	14039
864.032	13967
864.164	14035
864.296	14046
864.428	14130
864.559	14100
864.691	14218
864.823	14111
864.954	14092
865.086	14084
865.217	14050
865.349	13944
865.48	14081
865.612	14123
865.743	14138
865.875	13959
866.006	13986
866.137	14012
866.269	13967
866.4	14054
866.531	13986
866.662	14001
866.793	13993
866.924	13955
867.055	14054
867.186	14012
867.317	13989
867.448	13830
867.579	13940
867.71	13902
867.841	13947
867.972	14031
868.103	14084
868.233	14069
868.364	14031
868.495	14176
868.625	14267
868.756	14313
868.886	14153
869.017	14282
869.147	14324
869.278	14362
869.408	14355
869.539	14214
869.669	14446
869.799	14309
869.929	14450
870.06	14366
870.19	14613
870.32	14571
870.45	14590
870.58	14785
870.71	14868
870.84	14853
870.97	14636
871.1	14651
871.23	14887
871.36	14864
871.489	14739
871.619	14883
871.749	14887
871.879	14941
872.008	14982
872.138	14914
872.267	14967
872.397	14693
872.526	14590
872.656	14716
872.785	14735
872.915	14963
873.044	15039
873.173	14963
873.303	14963
873.432	14971
873.561	14925
873.69	14883
873.819	14887
873.948	15074
874.077	14990
874.206	14834
874.335	15009
874.464	15062
874.593	15218
874.722	15222
874.851	15283
874.979	15233
875.108	15325
875.237	15218
875.365	15237
875.494	15207
875.623	15348
875.751	15218
875.88	15370
876.008	15344
876.136	15515
876.265	15633
876.393	15800
876.521	15781
876.65	15724
876.778	15686
876.906	15629
877.034	15667
877.162	15603
877.29	15564
877.418	15667
877.546	15663
877.674	15656
877.802	15644
877.93	15637
878.058	15614
878.185	15603
878.313	15652
878.441	15724
878.568	15568
878.696	15595
878.824	15755
878.951	15686
879.079	15850
879.206	15968
879.333	15842
879.461	15785
879.588	15823
879.715	15846
879.842	15991
879.97	15682
880.097	15591
880.224	15526
880.351	15488
880.478	15485
880.605	15405
880.732	15599
880.859	15751
880.986	15500
881.112	15595
881.239	15526
881.366	15340
881.493	15203
881.619	15199
881.746	15184
881.872	15165
881.999	15146
882.125	15157
882.252	15279
882.378	15119
882.505	15393
882.631	15032
882.757	14929
882.883	14971
883.01	14880
883.136	15097
883.262	14861
883.388	14823
883.514	15017
883.64	14963
883.766	15032
883.892	14823
884.018	14815
884.143	14941
884.269	15104
884.395	14773
884.52	14731
884.646	14648
884.772	14648
884.897	14621
885.023	14712
885.148	14788
885.274	14849
885.399	14899
885.524	14640
885.65	14659
885.775	14716
885.9	14693
886.025	14746
886.15	14705
886.275	14564
886.4	14590
886.525	14670
886.65	14602
886.775	14640
886.9	14819
887.025	14937
887.149	14594
887.274	14537
887.399	14488
887.523	14476
887.648	14393
887.773	14374
887.897	14655
888.021	14632
888.146	14503
888.27	14648
888.395	14610
888.519	14648
888.643	14511
888.767	14579
888.891	14473
889.015	14328
889.139	14461
889.263	14480
889.387	14579
889.511	14648
889.635	14549
889.759	14385
889.883	14408
890.006	14385
890.13	14438
890.254	14286
890.377	14427
890.501	14176
890.624	14138
890.748	14267
890.871	14164
890.995	14130
891.118	13951
891.241	14039
891.364	14115
891.488	14305
891.611	14100
891.734	14024
891.857	14126
891.98	14081
892.103	14183
892.226	14149
892.349	14012
892.471	13993
892.594	14130
892.717	14024
892.839	14005
892.962	14100
893.085	14180
893.207	14168
893.33	14001
893.452	14050
893.575	14176
893.697	14073
893.819	14282
893.941	14259
894.064	14282
894.186	14031
894.308	14054
894.43	14191
894.552	14256
894.674	14286
894.796	14191
894.918	14115
895.04	14039
895.161	14206
895.283	14153
895.405	14100
895.526	14107
895.648	14244
895.769	14202
895.891	14229
896.012	14282
896.134	14278
896.255	14358
896.376	14157
896.498	14240
896.619	14328
896.74	14332
896.861	14408
896.982	14735
897.103	14705
897.224	14507
897.345	14503
897.466	14473
897.587	14587
897.708	14598
897.828	14530
897.949	14556
898.07	14454
898.19	14450
898.311	14530
898.431	14545
898.552	14571
898.672	14644
898.792	14598
898.913	14640
899.033	14556
899.153	14480
899.273	14396
899.393	14366
899.513	14514
899.633	14431
899.753	14415
899.873	14396
899.993	14625
900.113	14393
900.232	14446
900.352	14454
900.472	14370
900.591	14294
900.711	14320
900.83	14282
900.95	14461
901.069	14488
901.189	14259
901.308	14077
901.427	13944
901.546	14065
901.665	14062
901.784	14119
901.904	13982
902.023	13826
902.141	13643
902.26	13540
902.379	13636
902.498	13666
902.617	13552
902.735	13601
902.854	13563
902.973	13571
903.091	13301
903.21	13217
903.328	13183
903.446	13263
903.565	13099
903.683	13187
903.801	13061
903.919	13149
904.038	13129
904.156	12970
904.274	13031
904.392	12954
904.51	12962
904.627	12935
904.745	12996
904.863	13004
904.981	12810
905.098	12627
905.216	12608
905.334	12650
905.451	12688
905.569	12589
905.686	12597
905.803	12696
905.921	12403
906.038	12490
906.155	12426
906.272	12403
906.389	12380
906.506	12296
906.623	12277
906.74	12243
906.857	12053
906.974	12178
907.091	12220
907.208	12380
907.324	12388
907.441	12148
907.557	12060
907.674	12019
907.79	11988
907.907	11950
908.023	11920
908.139	12045
908.256	11973
908.372	11961
908.488	11908
908.604	11813
908.72	11722
908.836	11737
908.952	11668
909.068	11767
909.184	11863
909.3	11783
909.415	11878
909.531	11824
909.647	11566
909.762	11566
909.878	11573
909.993	11562
910.108	11501
910.224	11543
910.339	11566
910.454	11436
910.57	11364
910.685	11284
910.8	11592
910.915	11577
911.03	11379
911.145	11318
911.259	11143
911.374	11261
911.489	11083
911.604	11056
911.718	10995
911.833	11060
911.947	10923
912.062	10797
912.176	10987
912.291	10965
912.405	10938
912.519	11155
912.633	11223
912.748	11075
912.862	10987
912.976	10908
913.09	10740
913.204	10824
913.318	10904
913.431	10995
913.545	10946
913.659	11071
913.772	10877
913.886	10725
914	10649
914.113	10812
914.226	10835
914.34	10927
914.453	10653
914.566	10801
914.68	10668
914.793	10615
914.906	10474
915.019	10481
915.132	10390
915.245	10470
915.358	10493
915.47	10405
915.583	10569
915.696	10512
915.809	10546
915.921	10584
916.034	10451
916.146	10424
916.259	10478
916.371	10478
916.483	10489
916.595	10443
916.708	10329
916.82	10363
916.932	10333
917.044	10394
917.156	10436
917.268	10306
917.38	10284
917.491	10333
917.603	10344
917.715	10402
917.826	10470
917.938	10272
918.049	10162
918.161	10261
918.272	10459
918.384	10466
918.495	10344
918.606	10188
918.717	10162
918.828	10177
918.939	10143
919.05	10074
919.161	10162
919.272	9941
919.383	10025
919.494	10287
919.604	10402
919.715	10238
919.826	10078
919.936	10234
920.047	10238
920.157	10246
920.267	10394
920.378	10207
920.488	10207
920.598	10451
920.708	10622
920.818	10428
920.928	10382
921.038	10538
921.148	10527
921.258	10265
921.368	10105
921.477	10112
921.587	10090
921.697	9876
921.806	10025
921.916	9991
922.025	9766
922.134	9766
922.244	9747
922.353	9842
922.462	9652
922.571	9580
922.68	9435
922.789	9405
922.898	9458
923.007	9351
923.116	9492
923.224	9416
923.333	9428
923.442	9348
923.55	9348
923.659	9344
923.767	9374
923.876	9355
923.984	9389
924.092	9222
924.201	9298
924.309	9363
924.417	9313
924.525	9294
924.633	9283
924.741	10074
924.849	9104
924.956	9302
925.064	9142
925.172	9017
925.279	9112
925.387	9097
925.494	9146
925.602	9214
925.709	9176
925.816	9066
925.924	9077
926.031	9188
926.138	9116
926.245	9135
926.352	9051
926.459	9192
926.566	9207
926.673	8986
926.779	8952
926.886	8914
926.993	8868
927.099	8823
927.206	8766
927.312	8815
927.419	8845
927.525	8849
927.631	8948
927.737	8785
927.843	8693
927.95	8636
928.056	8708
928.162	8766
928.267	8792
928.373	9382
928.479	8773
928.585	8552
928.69	8659
928.796	8781
928.901	8663
929.007	8541
929.112	8651
929.218	8644
929.323	8530
929.428	8522
929.533	8708
929.638	8461
929.743	8473
929.848	8625
929.953	8499
930.058	8492
930.163	8259
930.267	8237
930.372	8514
930.477	8244
930.581	8579
930.685	8400
930.79	8206
930.894	8248
930.998	8282
931.103	8454
931.207	8016
931.311	7951
931.415	7902
931.519	7795
931.623	7795
