Data from test_V78500241_807.txt Node
Date: Fri Mar 25 14:39:20 CST 2022
User: usil
Spectrometer: V785-0024
Trigger mode: 0
Integration Time (sec): 4.000000E-1
Scans to average: 1
Nonlinearity correction enabled: false
Boxcar width: 0
Storing dark spectrum: false
XAxis mode: Wavelengths
Number of Pixels in Spectrum: 1024
>>>>>Begin Spectral Data<<<<<
801.071	26252
801.214	26259
801.356	25978
801.499	25864
801.641	25712
801.783	25719
801.926	25658
802.068	25677
802.211	25575
802.353	25369
802.496	25293
802.638	25179
802.78	25354
802.923	25190
803.065	25019
803.208	25209
803.35	25206
803.492	25278
803.635	25445
803.777	25244
803.919	25335
804.061	25605
804.204	25411
804.346	25327
804.488	25194
804.63	25373
804.773	25327
804.915	25441
805.057	25571
805.199	25575
805.341	25628
805.483	25715
805.626	25799
805.768	25696
805.91	25860
806.052	25947
806.194	25955
806.336	26202
806.478	26240
806.62	26408
806.762	26606
806.904	27089
807.046	27424
807.188	27701
807.33	27937
807.472	28550
807.614	28972
807.756	29733
807.898	30467
808.04	31601
808.182	33252
808.324	35311
808.465	37403
808.607	40063
808.749	42296
808.891	43727
809.033	43738
809.174	42483
809.316	40188
809.458	37571
809.6	35071
809.741	32902
809.883	31323
810.025	30353
810.166	29265
810.308	28854
810.45	28230
810.591	27785
810.733	27329
810.875	26960
811.016	26796
811.158	26495
811.299	26514
811.441	26457
811.582	26355
811.724	26134
811.865	25940
812.007	25963
812.148	25917
812.29	25826
812.431	26092
812.573	26103
812.714	26252
812.855	26092
812.997	26210
813.138	26301
813.279	26122
813.421	26138
813.562	25974
813.703	25784
813.845	25712
813.986	25289
814.127	25194
814.268	25042
814.41	24924
814.551	24867
814.692	24989
814.833	24776
814.974	24776
815.115	24970
815.256	24658
815.397	24639
815.539	24696
815.68	24532
815.821	24540
815.962	24483
816.103	24502
816.244	24353
816.385	24201
816.526	24235
816.666	23980
816.807	23855
816.948	23882
817.089	23916
817.23	23939
817.371	23855
817.512	23813
817.653	23843
817.793	23657
817.934	23707
818.075	23821
818.216	23748
818.356	23737
818.497	23524
818.638	23471
818.778	23353
818.919	23516
819.06	23391
819.2	23524
819.341	23771
819.481	23672
819.622	23741
819.762	23977
819.903	23863
820.043	23718
820.184	23760
820.324	23627
820.465	23627
820.605	23661
820.746	23600
820.886	23463
821.026	23463
821.167	23490
821.307	23604
821.447	23452
821.588	23326
821.728	23242
821.868	23162
822.008	22908
822.149	22946
822.289	22835
822.429	22573
822.569	22538
822.709	22565
822.849	22325
822.99	22363
823.13	22352
823.27	22211
823.41	22135
823.55	22082
823.69	22051
823.83	22082
823.97	22101
824.11	22051
824.25	21949
824.389	21918
824.529	21987
824.669	21888
824.809	22093
824.949	22040
825.089	22013
825.228	21979
825.368	21797
825.508	21778
825.648	21713
825.787	21743
825.927	21857
826.067	21591
826.206	21629
826.346	21736
826.485	21785
826.625	21762
826.765	21762
826.904	21698
827.044	21439
827.183	21408
827.323	21435
827.462	21405
827.601	21386
827.741	21287
827.88	21397
828.02	21154
828.159	21226
828.298	21416
828.437	21291
828.577	21226
828.716	21500
828.855	21195
828.994	21039
829.134	21081
829.273	21009
829.412	21001
829.551	20986
829.69	21005
829.829	21081
829.968	21043
830.107	21020
830.246	20956
830.385	20956
830.524	20937
830.663	20819
830.802	20815
830.941	20613
831.08	20655
831.219	20648
831.357	20746
831.496	20910
831.635	20689
831.774	20530
831.913	20549
832.051	20419
832.19	20442
832.329	20552
832.467	20476
832.606	20328
832.744	20488
832.883	20469
833.022	20412
833.16	20556
833.299	20708
833.437	20743
833.576	21020
833.714	21062
833.852	21142
833.991	21233
834.129	21226
834.267	21260
834.406	21317
834.544	21287
834.682	21218
834.821	20979
834.959	21112
835.097	20849
835.235	20914
835.373	20697
835.511	20648
835.65	20514
835.788	20454
835.926	20252
836.064	20172
836.202	20172
836.34	20366
836.478	20294
836.615	20187
836.753	20195
836.891	20256
837.029	20263
837.167	20050
837.305	20111
837.443	20012
837.58	20103
837.718	20134
837.856	20050
837.993	19909
838.131	19959
838.269	19845
838.406	19837
838.544	19791
838.681	19712
838.819	19514
838.956	19510
839.094	19457
839.231	19552
839.369	19586
839.506	19799
839.643	19677
839.781	19521
839.918	19434
840.055	19571
840.193	19422
840.33	19324
840.467	19502
840.604	19472
840.742	19647
840.879	19403
841.016	19327
841.153	19327
841.29	19567
841.427	19445
841.564	19468
841.701	19369
841.838	19544
841.975	19282
842.112	19225
842.249	19206
842.385	19168
842.522	19396
842.659	19171
842.796	19137
842.933	19259
843.069	19308
843.206	19247
843.343	19289
843.479	19426
843.616	19232
843.752	19179
843.889	19266
844.025	19449
844.162	19285
844.298	19441
844.435	19441
844.571	19590
844.708	19830
844.844	20252
844.98	20518
845.117	20967
845.253	21587
845.389	23094
845.525	25609
845.661	30026
845.798	35227
845.934	39351
846.07	41025
846.206	39987
846.342	36665
846.478	31247
846.614	26724
846.75	23520
846.886	21842
847.022	20762
847.158	20065
847.294	19597
847.429	19438
847.565	19107
847.701	19194
847.837	18787
847.972	18597
848.108	18688
848.244	18589
848.379	18369
848.515	18247
848.65	18167
848.786	18205
848.921	18171
849.057	18273
849.192	18292
849.328	18266
849.463	18186
849.598	18095
849.734	18095
849.869	18072
850.004	17950
850.14	17802
850.275	17859
850.41	17836
850.545	17767
850.68	17790
850.815	17885
850.95	17729
851.085	17958
851.22	17961
851.355	17878
851.49	17863
851.625	17813
851.76	17901
851.895	17794
852.03	17840
852.165	17775
852.299	17855
852.434	17946
852.569	17950
852.703	17878
852.838	17969
852.973	18015
853.107	18117
853.242	17958
853.376	17832
853.511	17821
853.645	17771
853.78	18030
853.914	17935
854.048	17980
854.183	18026
854.317	17984
854.451	18292
854.585	17984
854.72	18026
854.854	17973
854.988	17901
855.122	17889
855.256	17695
855.39	17840
855.524	18026
855.658	17760
855.792	17790
855.926	17779
856.06	17882
856.194	17779
856.327	17680
856.461	17722
856.595	17783
856.729	17672
856.862	17786
856.996	17646
857.13	17798
857.263	17707
857.397	17756
857.53	17703
857.664	17661
857.797	17775
857.931	17779
858.064	17748
858.197	17726
858.331	17493
858.464	17532
858.597	17490
858.731	17657
858.864	17600
858.997	17562
859.13	17630
859.263	17581
859.396	17573
859.529	17551
859.662	17516
859.795	17573
859.928	17634
860.061	17676
860.194	17615
860.327	17604
860.46	17490
860.592	17649
860.725	17676
860.858	17703
860.99	17486
861.123	17532
861.256	17512
861.388	17573
861.521	18045
861.653	17372
861.786	17334
861.918	17356
862.05	17493
862.183	17463
862.315	17570
862.447	17592
862.58	17490
862.712	17220
862.844	17254
862.976	17326
863.108	17273
863.24	17733
863.372	17151
863.504	17174
863.636	17269
863.768	17216
863.9	17200
864.032	17299
864.164	17227
864.296	17258
864.428	17326
864.559	17360
864.691	17284
864.823	17227
864.954	17155
865.086	17197
865.217	17166
865.349	17189
865.48	17193
865.612	17284
865.743	17227
865.875	17227
866.006	17162
866.137	17185
866.269	17166
866.4	17189
866.531	17098
866.662	17102
866.793	16995
866.924	17162
867.055	17159
867.186	17067
867.317	17113
867.448	17140
867.579	17086
867.71	17056
867.841	17094
867.972	17067
868.103	17121
868.233	17254
868.364	17239
868.495	17136
868.625	17330
868.756	17604
868.886	17307
869.017	17356
869.147	17486
869.278	17554
869.408	17417
869.539	17478
869.669	17482
869.799	17463
869.929	17421
870.06	17459
870.19	17695
870.32	17745
870.45	17737
870.58	17703
870.71	17870
870.84	17901
870.97	17847
871.1	17737
871.23	18007
871.36	17988
871.489	17996
871.619	18019
871.749	18026
871.879	18057
872.008	18273
872.138	18114
872.267	18106
872.397	17980
872.526	17954
872.656	17908
872.785	17942
872.915	18243
873.044	18270
873.173	18330
873.303	18228
873.432	18342
873.561	18448
873.69	18270
873.819	18190
873.948	18429
874.077	18342
874.206	18319
874.335	18445
874.464	18528
874.593	18639
874.722	18616
874.851	18787
874.979	18905
875.108	18932
875.237	18711
875.365	18817
875.494	18757
875.623	19031
875.751	18939
875.88	19095
876.008	19107
876.136	19270
876.265	19434
876.393	19689
876.521	19616
876.65	19803
876.778	19689
876.906	19757
877.034	19609
877.162	19830
877.29	19799
877.418	20005
877.546	20024
877.674	19974
877.802	20043
877.93	20176
878.058	20218
878.185	20461
878.313	20617
878.441	20933
878.568	21108
878.696	21705
878.824	22348
878.951	23071
879.079	24407
879.206	26031
879.333	27762
879.461	28930
879.588	29802
879.715	29790
879.842	29147
879.97	27724
880.097	25864
880.224	24597
880.351	23726
880.478	23064
880.605	22493
880.732	22154
880.859	22413
880.986	22120
881.112	21888
881.239	21766
881.366	21694
881.493	21504
881.619	21523
881.746	21599
881.872	21526
881.999	21488
882.125	21443
882.252	21747
882.378	21648
882.505	21781
882.631	21576
882.757	21450
882.883	21557
883.01	21526
883.136	21477
883.262	21378
883.388	21313
883.514	21488
883.64	21500
883.766	21325
883.892	21188
884.018	21211
884.143	21310
884.269	21519
884.395	21260
884.52	21146
884.646	21287
884.772	21184
884.897	21093
885.023	21180
885.148	21279
885.274	21317
885.399	21169
885.524	20910
885.65	20872
885.775	20941
885.9	20602
886.025	20663
886.15	20442
886.275	20313
886.4	20122
886.525	20172
886.65	20115
886.775	19852
886.9	19925
887.025	20096
887.149	19784
887.274	19487
887.399	19491
887.523	19304
887.648	19362
887.773	19114
887.897	19228
888.021	19061
888.146	19004
888.27	19175
888.395	19076
888.519	19015
888.643	19038
888.767	18939
888.891	18810
889.015	18707
889.139	18692
889.263	18631
889.387	18658
889.511	18760
889.635	18703
889.759	18380
889.883	18452
890.006	18502
890.13	18475
890.254	18361
890.377	18342
890.501	18216
890.624	17996
890.748	18163
890.871	18003
890.995	17882
891.118	17836
891.241	17908
891.364	17737
891.488	17958
891.611	17798
891.734	17733
891.857	17771
891.98	17718
892.103	17828
892.226	17722
892.349	17676
892.471	17463
892.594	17554
892.717	17657
892.839	17573
892.962	17509
893.085	17558
893.207	17478
893.33	17421
893.452	17452
893.575	17528
893.697	17478
893.819	17615
893.941	17486
894.064	17493
894.186	17337
894.308	17242
894.43	17330
894.552	17520
894.674	17372
894.796	17200
894.918	17330
895.04	17159
895.161	17261
895.283	17273
895.405	17121
895.526	17189
895.648	17326
895.769	17242
895.891	17239
896.012	17315
896.134	17189
896.255	17311
896.376	17155
896.498	17227
896.619	17170
896.74	17277
896.861	17258
896.982	17547
897.103	17577
897.224	17402
897.345	17376
897.466	17391
897.587	17398
897.708	17528
897.828	17440
897.949	17364
898.07	17277
898.19	17402
898.311	17478
898.431	17299
898.552	17360
898.672	17337
898.792	17516
898.913	17440
899.033	17246
899.153	17166
899.273	17071
899.393	17197
899.513	17269
899.633	17159
899.753	17193
899.873	17155
899.993	17212
900.113	17258
900.232	17250
900.352	17045
900.472	17121
900.591	16957
900.711	16972
900.83	17006
900.95	17041
901.069	17071
901.189	16889
901.308	16702
901.427	16679
901.546	16687
901.665	16683
901.784	16675
901.904	16474
902.023	16360
902.141	16223
902.26	16101
902.379	16257
902.498	16032
902.617	16063
902.735	16090
902.854	16143
902.973	15972
903.091	15774
903.21	15770
903.328	15789
903.446	15694
903.565	15553
903.683	15629
903.801	15488
903.919	15507
904.038	15466
904.156	15325
904.274	15389
904.392	15302
904.51	15287
904.627	15332
904.745	15321
904.863	15336
904.981	15123
905.098	14921
905.216	14887
905.334	15047
905.451	15024
905.569	14979
905.686	14979
905.803	15024
905.921	14735
906.038	14872
906.155	14807
906.272	14659
906.389	14705
906.506	14434
906.623	14564
906.74	14514
906.857	14301
906.974	14446
907.091	14541
907.208	14678
907.324	14499
907.441	14450
907.557	14221
907.674	14107
907.79	14206
907.907	14176
908.023	14229
908.139	14248
908.256	14187
908.372	14065
908.488	14062
908.604	13963
908.72	13879
908.836	13986
908.952	13951
909.068	13875
909.184	14024
909.3	14008
909.415	13959
909.531	13974
909.647	13757
909.762	13685
909.878	13677
909.993	13685
910.108	13628
910.224	13651
910.339	13628
910.454	13556
910.57	13518
910.685	13445
910.8	13727
910.915	13666
911.03	13506
911.145	13362
911.259	13350
911.374	13320
911.489	13285
911.604	13266
911.718	13084
911.833	13069
911.947	12951
912.062	12958
912.176	13099
912.291	13114
912.405	13122
912.519	13251
912.633	13118
912.748	13114
912.862	13088
912.976	12882
913.09	12894
913.204	12844
913.318	12928
913.431	13088
913.545	13004
913.659	12962
913.772	12856
913.886	12798
914	12779
914.113	12878
914.226	12909
914.34	12798
914.453	12681
914.566	12871
914.68	12669
914.793	12696
914.906	12506
915.019	12483
915.132	12338
915.245	12441
915.358	12563
915.47	12551
915.583	12456
915.696	12452
915.809	12551
915.921	12703
916.034	12517
916.146	12429
916.259	12544
916.371	12521
916.483	12517
916.595	12388
916.708	12403
916.82	12391
916.932	12361
917.044	12437
917.156	12399
917.268	12350
917.38	12266
917.491	12232
917.603	12433
917.715	12323
917.826	12300
917.938	12247
918.049	12079
918.161	12190
918.272	12334
918.384	12308
918.495	12300
918.606	12030
918.717	11901
918.828	12072
918.939	11973
919.05	11954
919.161	12026
919.272	11821
919.383	11908
919.494	12053
919.604	12216
919.715	12045
919.826	11950
919.936	11939
920.047	12022
920.157	11992
920.267	12251
920.378	11961
920.488	11946
920.598	12144
920.708	12300
920.818	12239
920.928	12224
921.038	12315
921.148	12201
921.258	11965
921.368	11859
921.477	11908
921.587	11775
921.697	11676
921.806	11836
921.916	11745
922.025	11505
922.134	11501
922.244	11406
922.353	11547
922.462	11364
922.571	11345
922.68	11197
922.789	11140
922.898	11162
923.007	11052
923.116	11178
923.224	11140
923.333	11121
923.442	11094
923.55	11029
923.659	11067
923.767	11029
923.876	10934
923.984	11025
924.092	10900
924.201	10968
924.309	10915
924.417	10987
924.525	10915
924.633	10968
924.741	11935
924.849	10672
924.956	10824
925.064	10714
925.172	10630
925.279	10668
925.387	10729
925.494	10778
925.602	10744
925.709	10774
925.816	10668
925.924	10649
926.031	10748
926.138	10710
926.245	10721
926.352	10615
926.459	10729
926.566	10835
926.673	10618
926.779	10603
926.886	10485
926.993	10341
927.099	10405
927.206	10303
927.312	10291
927.419	10371
927.525	10329
927.631	10409
927.737	10318
927.843	10234
927.95	10055
928.056	10166
928.162	10230
928.267	10234
928.373	10839
928.479	10322
928.585	10067
928.69	10173
928.796	10207
928.901	10112
929.007	9907
929.112	10055
929.218	9991
929.323	9922
929.428	10048
929.533	10078
929.638	9983
929.743	9964
929.848	9991
929.953	9953
930.058	9911
930.163	9694
930.267	9694
930.372	9892
930.477	9656
930.581	9892
930.685	9797
930.79	9637
930.894	9648
930.998	9656
931.103	9846
931.207	9443
931.311	9370
931.415	9275
931.519	9169
931.623	9062
