Data from test_V78500241_2341.txt Node
Date: Fri Mar 25 14:50:00 CST 2022
User: usil
Spectrometer: V785-0024
Trigger mode: 0
Integration Time (sec): 4.000000E-1
Scans to average: 1
Nonlinearity correction enabled: false
Boxcar width: 0
Storing dark spectrum: false
XAxis mode: Wavelengths
Number of Pixels in Spectrum: 1024
>>>>>Begin Spectral Data<<<<<
801.071	22025
801.214	21960
801.356	21667
801.499	21690
801.641	21496
801.783	21317
801.926	21477
802.068	21405
802.211	21317
802.353	21252
802.496	21100
802.638	21043
802.78	20861
802.923	20910
803.065	20743
803.208	20613
803.35	20765
803.492	20918
803.635	20986
803.777	20880
803.919	20849
804.061	21214
804.204	20880
804.346	20682
804.488	20762
804.63	20902
804.773	20659
804.915	20697
805.057	20754
805.199	20682
805.341	20712
805.483	20796
805.626	20876
805.768	20769
805.91	20689
806.052	20670
806.194	20632
806.336	20807
806.478	20708
806.62	20701
806.762	20750
806.904	20971
807.046	21169
807.188	21077
807.33	21127
807.472	21116
807.614	21047
807.756	21093
807.898	20872
808.04	20781
808.182	20811
808.324	20921
808.465	20823
808.607	21051
808.749	21203
808.891	21233
809.033	21226
809.174	21291
809.316	21203
809.458	21062
809.6	21074
809.741	21222
809.883	21089
810.025	21378
810.166	21374
810.308	21294
810.45	21211
810.591	21123
810.733	21100
810.875	20918
811.016	20864
811.158	20746
811.299	20952
811.441	21108
811.582	21062
811.724	20975
811.865	20796
812.007	20845
812.148	20971
812.29	20921
812.431	20971
812.573	21180
812.714	21340
812.855	21386
812.997	21526
813.138	21679
813.279	21526
813.421	21420
813.562	21477
813.703	21116
813.845	21070
813.986	20804
814.127	20598
814.268	20526
814.41	20476
814.551	20400
814.692	20659
814.833	20317
814.974	20480
815.115	20503
815.256	20294
815.397	20286
815.539	20381
815.68	20221
815.821	20107
815.962	20180
816.103	20122
816.244	20001
816.385	20084
816.526	19944
816.666	19696
816.807	19605
816.948	19731
817.089	19696
817.23	19700
817.371	19620
817.512	19613
817.653	19639
817.793	19575
817.934	19525
818.075	19586
818.216	19647
818.356	19525
818.497	19464
818.638	19327
818.778	19263
818.919	19411
819.06	19270
819.2	19468
819.341	19514
819.481	19537
819.622	19632
819.762	19795
819.903	19708
820.043	19582
820.184	19567
820.324	19514
820.465	19582
820.605	19643
820.746	19510
820.886	19365
821.026	19548
821.167	19483
821.307	19575
821.447	19468
821.588	19441
821.728	19278
821.868	19152
822.008	18932
822.149	19069
822.289	18981
822.429	18650
822.569	18642
822.709	18700
822.849	18475
822.99	18490
823.13	18399
823.27	18513
823.41	18239
823.55	18220
823.69	18330
823.83	18376
823.97	18072
824.11	18163
824.25	17954
824.389	17999
824.529	18087
824.669	18076
824.809	18144
824.949	18133
825.089	18079
825.228	18045
825.368	17950
825.508	17847
825.648	17832
825.787	17916
825.927	17813
826.067	17786
826.206	17790
826.346	17817
826.485	17786
826.625	17821
826.765	17908
826.904	17764
827.044	17592
827.183	17581
827.323	17581
827.462	17528
827.601	17539
827.741	17532
827.88	17524
828.02	17379
828.159	17448
828.298	17596
828.437	17505
828.577	17356
828.716	17524
828.855	17543
828.994	17284
829.134	17204
829.273	17258
829.412	17121
829.551	17155
829.69	17284
829.829	17239
829.968	17334
830.107	17273
830.246	17379
830.385	17311
830.524	17105
830.663	17136
830.802	17018
830.941	16919
831.08	16885
831.219	16828
831.357	16961
831.496	17098
831.635	16889
831.774	16664
831.913	16812
832.051	16660
832.19	16645
832.329	16748
832.467	16577
832.606	16413
832.744	16565
832.883	16466
833.022	16516
833.16	16538
833.299	16554
833.437	16527
833.576	16546
833.714	16489
833.852	16577
833.991	16622
834.129	16691
834.267	16660
834.406	16615
834.544	16603
834.682	16542
834.821	16603
834.959	16717
835.097	16622
835.235	16622
835.373	16752
835.511	16546
835.65	16504
835.788	16443
835.926	16382
836.064	16234
836.202	16394
836.34	16550
836.478	16489
836.615	16516
836.753	16519
836.891	16565
837.029	16470
837.167	16500
837.305	16409
837.443	16390
837.58	16337
837.718	16360
837.856	16310
837.993	16322
838.131	16455
838.269	16295
838.406	16303
838.544	16230
838.681	16185
838.819	16135
838.956	15907
839.094	15934
839.231	15956
839.369	16013
839.506	16207
839.643	16200
839.781	15994
839.918	15838
840.055	15899
840.193	15968
840.33	15895
840.467	15911
840.604	15846
840.742	16185
840.879	15762
841.016	15827
841.153	15880
841.29	16048
841.427	16013
841.564	15918
841.701	15918
841.838	15823
841.975	15781
842.112	15709
842.249	15682
842.385	15686
842.522	15884
842.659	15705
842.796	15705
842.933	15652
843.069	15576
843.206	15542
843.343	15732
843.479	15751
843.616	15781
843.752	15428
843.889	15477
844.025	15637
844.162	15367
844.298	15568
844.435	15431
844.571	15443
844.708	15572
844.844	15648
844.98	15759
845.117	15564
845.253	15447
845.389	15424
845.525	15515
845.661	15329
845.798	15302
845.934	15306
846.07	15207
846.206	15321
846.342	15355
846.478	15275
846.614	15135
846.75	14998
846.886	15024
847.022	15119
847.158	15093
847.294	15127
847.429	15108
847.565	14998
847.701	15241
847.837	14788
847.972	14750
848.108	14891
848.244	14902
848.379	14636
848.515	14571
848.65	14571
848.786	14644
848.921	14625
849.057	14773
849.192	14705
849.328	14636
849.463	14746
849.598	14568
849.734	14541
849.869	14442
850.004	14423
850.14	14469
850.275	14412
850.41	14358
850.545	14400
850.68	14328
850.815	14511
850.95	14438
851.085	14473
851.22	14473
851.355	14415
851.49	14404
851.625	14320
851.76	14431
851.895	14256
852.03	14366
852.165	14362
852.299	14389
852.434	14526
852.569	14552
852.703	14404
852.838	14404
852.973	14522
853.107	14495
853.242	14423
853.376	14347
853.511	14172
853.645	14218
853.78	14362
853.914	14317
854.048	14278
854.183	14218
854.317	14229
854.451	14480
854.585	14263
854.72	14259
854.854	14313
854.988	14248
855.122	14282
855.256	14069
855.39	14271
855.524	14278
855.658	14358
855.792	14301
855.926	14298
856.06	14385
856.194	14400
856.327	14324
856.461	14240
856.595	14225
856.729	14244
856.862	14339
856.996	14290
857.13	14278
857.263	14480
857.397	14408
857.53	14339
857.664	14328
857.797	14332
857.931	14457
858.064	14282
858.197	14427
858.331	14256
858.464	14259
858.597	14164
858.731	14256
858.864	14259
858.997	14225
859.13	14199
859.263	14336
859.396	14347
859.529	14298
859.662	14301
859.795	14119
859.928	14343
860.061	14488
860.194	14377
860.327	14248
860.46	14225
860.592	14317
860.725	14400
860.858	14290
860.99	14248
861.123	14161
861.256	14149
861.388	14294
861.521	14887
861.653	14161
861.786	14107
861.918	14119
862.05	14168
862.183	14195
862.315	14244
862.447	14324
862.58	14153
862.712	14065
862.844	14073
862.976	14126
863.108	14046
863.24	14370
863.372	13970
863.504	13982
863.636	14035
863.768	14145
863.9	14100
864.032	14001
864.164	13932
864.296	14130
864.428	14092
864.559	14206
864.691	14123
864.823	14100
864.954	14092
865.086	14096
865.217	14092
865.349	13959
865.48	13986
865.612	13940
865.743	14100
865.875	14039
866.006	14012
866.137	14046
866.269	13970
866.4	14027
866.531	13940
866.662	14031
866.793	14008
866.924	13936
867.055	14054
867.186	13978
867.317	14024
867.448	13986
867.579	14008
867.71	13970
867.841	13993
867.972	14081
868.103	14073
868.233	13947
868.364	13974
868.495	14202
868.625	14317
868.756	14294
868.886	14221
869.017	14248
869.147	14328
869.278	14301
869.408	14259
869.539	14237
869.669	14336
869.799	14317
869.929	14385
870.06	14343
870.19	14632
870.32	14499
870.45	14575
870.58	14655
870.71	14746
870.84	14785
870.97	14674
871.1	14693
871.23	14811
871.36	14830
871.489	14868
871.619	14838
871.749	14781
871.879	14914
872.008	14941
872.138	14891
872.267	14914
872.397	14750
872.526	14689
872.656	14636
872.785	14705
872.915	14929
873.044	14986
873.173	14895
873.303	14956
873.432	14960
873.561	14990
873.69	14853
873.819	14963
873.948	14937
874.077	14902
874.206	14876
874.335	14933
874.464	15116
874.593	15169
874.722	15127
874.851	15184
874.979	15157
875.108	15306
875.237	15157
875.365	15123
875.494	15241
875.623	15218
875.751	15192
875.88	15264
876.008	15367
876.136	15439
876.265	15576
876.393	15835
876.521	15660
876.65	15835
876.778	15667
876.906	15660
877.034	15610
877.162	15564
877.29	15584
877.418	15751
877.546	15660
877.674	15606
877.802	15599
877.93	15728
878.058	15591
878.185	15591
878.313	15717
878.441	15732
878.568	15507
878.696	15633
878.824	15694
878.951	15686
879.079	15835
879.206	16017
879.333	15823
879.461	15781
879.588	15831
879.715	15876
879.842	16013
879.97	15759
880.097	15568
880.224	15462
880.351	15545
880.478	15549
880.605	15488
880.732	15507
880.859	15701
880.986	15553
881.112	15591
881.239	15428
881.366	15302
881.493	15329
881.619	15180
881.746	15055
881.872	15233
881.999	15089
882.125	15184
882.252	15310
882.378	15169
882.505	15367
882.631	15108
882.757	15051
882.883	15123
883.01	15051
883.136	14906
883.262	14918
883.388	14826
883.514	15024
883.64	15070
883.766	14933
883.892	14845
884.018	14842
884.143	15001
884.269	14994
884.395	14727
884.52	14705
884.646	14701
884.772	14644
884.897	14667
885.023	14712
885.148	14845
885.274	14929
885.399	14819
885.524	14701
885.65	14754
885.775	14781
885.9	14644
886.025	14906
886.15	14785
886.275	14693
886.4	14632
886.525	14674
886.65	14735
886.775	14655
886.9	14819
887.025	14982
887.149	14712
887.274	14617
887.399	14526
887.523	14499
887.648	14499
887.773	14541
887.897	14560
888.021	14480
888.146	14537
888.27	14590
888.395	14617
888.519	14617
888.643	14606
888.767	14621
888.891	14461
889.015	14362
889.139	14412
889.263	14442
889.387	14507
889.511	14590
889.635	14438
889.759	14370
889.883	14389
890.006	14374
890.13	14499
890.254	14351
890.377	14415
890.501	14233
890.624	14126
890.748	14229
890.871	14199
890.995	13978
891.118	14046
891.241	14195
891.364	14142
891.488	14191
891.611	14046
891.734	14100
891.857	14221
891.98	14221
892.103	14176
892.226	14210
892.349	14054
892.471	13864
892.594	14069
892.717	14088
892.839	14149
892.962	14081
893.085	14149
893.207	14161
893.33	13894
893.452	14001
893.575	14172
893.697	13970
893.819	14240
893.941	14214
894.064	14221
894.186	14084
894.308	14073
894.43	14191
894.552	14237
894.674	14275
894.796	14039
894.918	14096
895.04	14233
895.161	14240
895.283	14199
895.405	14153
895.526	14214
895.648	14195
895.769	14240
895.891	14309
896.012	14290
896.134	14180
896.255	14309
896.376	14161
896.498	14210
896.619	14286
896.74	14259
896.861	14278
896.982	14625
897.103	14792
897.224	14560
897.345	14423
897.466	14408
897.587	14514
897.708	14750
897.828	14590
897.949	14492
898.07	14385
898.19	14560
898.311	14636
898.431	14598
898.552	14537
898.672	14762
898.792	14769
898.913	14705
899.033	14564
899.153	14488
899.273	14427
899.393	14446
899.513	14537
899.633	14461
899.753	14564
899.873	14442
899.993	14480
900.113	14419
900.232	14556
900.352	14488
900.472	14362
900.591	14320
900.711	14271
900.83	14370
900.95	14454
901.069	14446
901.189	14313
901.308	14062
901.427	13921
901.546	13986
901.665	14107
901.784	14069
901.904	13917
902.023	13822
902.141	13597
902.26	13628
902.379	13681
902.498	13597
902.617	13495
902.735	13670
902.854	13510
902.973	13559
903.091	13365
903.21	13270
903.328	13411
903.446	13232
903.565	13091
903.683	13244
903.801	13091
903.919	13206
904.038	13114
904.156	12958
904.274	13103
904.392	12932
904.51	13008
904.627	12932
904.745	13042
904.863	13095
904.981	12734
905.098	12673
905.216	12700
905.334	12639
905.451	12707
905.569	12650
905.686	12719
905.803	12658
905.921	12460
906.038	12532
906.155	12456
906.272	12338
906.389	12456
906.506	12251
906.623	12281
906.74	12315
906.857	12076
906.974	12194
907.091	12311
907.208	12372
907.324	12205
907.441	12247
907.557	12087
907.674	11965
907.79	11935
907.907	11912
908.023	12011
908.139	12015
908.256	11980
908.372	11870
908.488	11977
908.604	11805
908.72	11802
908.836	11703
908.952	11638
909.068	11813
909.184	11851
909.3	11836
909.415	11863
909.531	11764
909.647	11581
909.762	11497
909.878	11505
909.993	11478
910.108	11532
910.224	11497
910.339	11516
910.454	11520
910.57	11398
910.685	11292
910.8	11646
910.915	11554
911.03	11414
911.145	11239
911.259	11227
911.374	11174
911.489	11193
911.604	11166
911.718	10946
911.833	11010
911.947	10889
912.062	10862
912.176	10957
912.291	10942
912.405	10908
912.519	11117
912.633	11246
912.748	11029
912.862	11003
912.976	10854
913.09	10675
913.204	10839
913.318	10862
913.431	10938
913.545	10942
913.659	11033
913.772	10850
913.886	10790
914	10778
914.113	10805
914.226	10801
914.34	10896
914.453	10683
914.566	10778
914.68	10653
914.793	10733
914.906	10504
915.019	10455
915.132	10363
915.245	10352
915.358	10542
915.47	10432
915.583	10466
915.696	10592
915.809	10618
915.921	10588
916.034	10436
916.146	10508
916.259	10375
916.371	10497
916.483	10474
916.595	10421
916.708	10367
916.82	10428
916.932	10409
917.044	10356
917.156	10371
917.268	10280
917.38	10341
917.491	10333
917.603	10299
917.715	10474
917.826	10360
917.938	10306
918.049	10185
918.161	10306
918.272	10470
918.384	10535
918.495	10314
918.606	10181
918.717	10147
918.828	10196
918.939	10268
919.05	10124
919.161	10116
919.272	10124
919.383	10074
919.494	10211
919.604	10451
919.715	10166
919.826	10154
919.936	10223
920.047	10299
920.157	10261
920.267	10394
920.378	10215
920.488	10211
920.598	10405
920.708	10531
920.818	10428
920.928	10398
921.038	10618
921.148	10512
921.258	10253
921.368	10124
921.477	10067
921.587	10071
921.697	9960
921.806	10166
921.916	9987
922.025	9766
922.134	9743
922.244	9625
922.353	9850
922.462	9663
922.571	9606
922.68	9466
922.789	9447
922.898	9462
923.007	9458
923.116	9549
923.224	9428
923.333	9511
923.442	9435
923.55	9310
923.659	9310
923.767	9344
923.876	9230
923.984	9424
924.092	9321
924.201	9367
924.309	9340
924.417	9306
924.525	9329
924.633	9317
924.741	10082
924.849	9154
924.956	9233
925.064	9154
925.172	8998
925.279	9089
925.387	9173
925.494	9127
925.602	9321
925.709	9207
925.816	9062
925.924	9066
926.031	9294
926.138	9199
926.245	9127
926.352	9013
926.459	9184
926.566	9253
926.673	9154
926.779	9001
926.886	9013
926.993	8872
927.099	8735
927.206	8811
927.312	8716
927.419	8849
927.525	8815
927.631	8887
927.737	8834
927.843	8743
927.95	8617
928.056	8686
928.162	8708
928.267	8811
928.373	9462
928.479	8845
928.585	8571
928.69	8750
928.796	8842
928.901	8648
929.007	8476
929.112	8644
929.218	8670
929.323	8575
929.428	8594
929.533	8674
929.638	8488
929.743	8545
929.848	8556
929.953	8507
930.058	8442
930.163	8339
930.267	8336
930.372	8469
930.477	8279
930.581	8499
930.685	8423
930.79	8244
930.894	8294
930.998	8267
931.103	8351
931.207	8046
931.311	7989
931.415	7997
931.519	7765
931.623	7738
