Data from test_V78500241_401.txt Node
Date: Fri Mar 25 14:36:30 CST 2022
User: usil
Spectrometer: V785-0024
Trigger mode: 0
Integration Time (sec): 4.000000E-1
Scans to average: 1
Nonlinearity correction enabled: false
Boxcar width: 0
Storing dark spectrum: false
XAxis mode: Wavelengths
Number of Pixels in Spectrum: 1024
>>>>>Begin Spectral Data<<<<<
801.071	26693
801.214	26724
801.356	26324
801.499	26358
801.641	26157
801.783	26202
801.926	26225
802.068	26069
802.211	26069
802.353	25887
802.496	25803
802.638	25742
802.78	25757
802.923	25601
803.065	25529
803.208	25537
803.35	25624
803.492	25597
803.635	25704
803.777	25605
803.919	25765
804.061	26096
804.204	25658
804.346	25757
804.488	25578
804.63	25514
804.773	25521
804.915	25563
805.057	25761
805.199	25510
805.341	25719
805.483	25727
805.626	25655
805.768	25491
805.91	25723
806.052	25776
806.194	25559
806.336	25837
806.478	25677
806.62	25700
806.762	25772
806.904	25928
807.046	26210
807.188	25993
807.33	26008
807.472	26168
807.614	26096
807.756	26005
807.898	25845
808.04	25887
808.182	25750
808.324	25860
808.465	25932
808.607	26073
808.749	26111
808.891	26149
809.033	26431
809.174	26275
809.316	26229
809.458	26142
809.6	26103
809.741	26233
809.883	26187
810.025	26286
810.166	26366
810.308	26355
810.45	26294
810.591	26149
810.733	26161
810.875	25993
811.016	26008
811.158	25898
811.299	26008
811.441	26183
811.582	26126
811.724	26012
811.865	26008
812.007	25887
812.148	26024
812.29	26039
812.431	26187
812.573	26282
812.714	26275
812.855	26453
812.997	26499
813.138	26887
813.279	26735
813.421	26457
813.562	26537
813.703	26313
813.845	26180
813.986	25955
814.127	25685
814.268	25575
814.41	25609
814.551	25521
814.692	25563
814.833	25552
814.974	25605
815.115	25449
815.256	25320
815.397	25403
815.539	25510
815.68	25411
815.821	25190
815.962	25232
816.103	25384
816.244	25194
816.385	25118
816.526	24962
816.666	24810
816.807	24703
816.948	24673
817.089	24859
817.23	24639
817.371	24757
817.512	24806
817.653	24703
817.793	24646
817.934	24536
818.075	24783
818.216	24696
818.356	24623
818.497	24570
818.638	24350
818.778	24403
818.919	24311
819.06	24593
819.2	24479
819.341	24521
819.481	24513
819.622	24840
819.762	25053
819.903	24810
820.043	24833
820.184	24661
820.324	24582
820.465	24688
820.605	24601
820.746	24601
820.886	24513
821.026	24521
821.167	24517
821.307	24658
821.447	24574
821.588	24517
821.728	24327
821.868	24136
822.008	24152
822.149	23931
822.289	23996
822.429	23821
822.569	23745
822.709	23653
822.849	23608
822.99	23493
823.13	23372
823.27	23315
823.41	23235
823.55	23250
823.69	23178
823.83	23376
823.97	23117
824.11	23033
824.25	22976
824.389	23041
824.529	23033
824.669	22984
824.809	23239
824.949	23178
825.089	23029
825.228	23025
825.368	22987
825.508	22850
825.648	22816
825.787	22923
825.927	22911
826.067	22812
826.206	22839
826.346	22835
826.485	22919
826.625	22767
826.765	22908
826.904	22801
827.044	22557
827.183	22577
827.323	22538
827.462	22790
827.601	22569
827.741	22386
827.88	22516
828.02	22318
828.159	22443
828.298	22470
828.437	22474
828.577	22519
828.716	22561
828.855	22394
828.994	22166
829.134	22295
829.273	22318
829.412	22158
829.551	22048
829.69	22124
829.829	22120
829.968	22276
830.107	22280
830.246	22280
830.385	22272
830.524	21972
830.663	21899
830.802	21918
830.941	21762
831.08	21739
831.219	21857
831.357	21743
831.496	21922
831.635	21736
831.774	21614
831.913	21526
832.051	21492
832.19	21534
832.329	21603
832.467	21572
832.606	21287
832.744	21420
832.883	21389
833.022	21340
833.16	21511
833.299	21393
833.437	21355
833.576	21439
833.714	21439
833.852	21492
833.991	21496
834.129	21553
834.267	21408
834.406	21416
834.544	21382
834.682	21428
834.821	21488
834.959	21648
835.097	21340
835.235	21545
835.373	21374
835.511	21359
835.65	21218
835.788	21313
835.926	21230
836.064	21100
836.202	21123
836.34	21207
836.478	21302
836.615	21237
836.753	21363
836.891	21291
837.029	21260
837.167	21135
837.305	21173
837.443	21195
837.58	21058
837.718	21252
837.856	21150
837.993	21093
838.131	21055
838.269	20921
838.406	21013
838.544	20868
838.681	20826
838.819	20788
838.956	20686
839.094	20659
839.231	20606
839.369	20712
839.506	20902
839.643	20735
839.781	20492
839.918	20461
840.055	20499
840.193	20514
840.33	20507
840.467	20465
840.604	20514
840.742	20777
840.879	20275
841.016	20457
841.153	20488
841.29	20545
841.427	20473
841.564	20545
841.701	20389
841.838	20389
841.975	20362
842.112	20351
842.249	20244
842.385	20180
842.522	20381
842.659	20298
842.796	20164
842.933	20183
843.069	20168
843.206	20145
843.343	20225
843.479	20111
843.616	20195
843.752	20039
843.889	19997
844.025	20149
844.162	19875
844.298	20005
844.435	20050
844.571	19860
844.708	19982
844.844	20065
844.98	20115
845.117	20046
845.253	19830
845.389	19826
845.525	19940
845.661	19833
845.798	19795
845.934	19784
846.07	19723
846.206	19776
846.342	19860
846.478	19761
846.614	19597
846.75	19480
846.886	19346
847.022	19457
847.158	19487
847.294	19270
847.429	19430
847.565	19369
847.701	19658
847.837	19183
847.972	19198
848.108	19217
848.244	19327
848.379	19050
848.515	19160
848.65	18935
848.786	18943
848.921	18985
849.057	19187
849.192	19027
849.328	19069
849.463	18993
849.598	18985
849.734	18958
849.869	18772
850.004	18665
850.14	18753
850.275	18817
850.41	18635
850.545	18623
850.68	18779
850.815	18677
850.95	18650
851.085	18863
851.22	18882
851.355	18650
851.49	18821
851.625	18741
851.76	18696
851.895	18623
852.03	18585
852.165	18681
852.299	18817
852.434	18696
852.569	18703
852.703	18688
852.838	18764
852.973	18837
853.107	18852
853.242	18665
853.376	18589
853.511	18582
853.645	18448
853.78	18673
853.914	18574
854.048	18441
854.183	18559
854.317	18502
854.451	18608
854.585	18494
854.72	18353
854.854	18574
854.988	18502
855.122	18426
855.256	18338
855.39	18471
855.524	18467
855.658	18559
855.792	18445
855.926	18544
856.06	18490
856.194	18703
856.327	18559
856.461	18426
856.595	18456
856.729	18471
856.862	18646
856.996	18506
857.13	18631
857.263	18620
857.397	18536
857.53	18498
857.664	18563
857.797	18578
857.931	18627
858.064	18517
858.197	18566
858.331	18494
858.464	18471
858.597	18429
858.731	18536
858.864	18547
858.997	18319
859.13	18448
859.263	18509
859.396	18509
859.529	18486
859.662	18395
859.795	18479
859.928	18460
860.061	18555
860.194	18639
860.327	18570
860.46	18528
860.592	18574
860.725	18635
860.858	18570
860.99	18559
861.123	18323
861.256	18437
861.388	18593
861.521	19164
861.653	18407
861.786	18330
861.918	18414
862.05	18532
862.183	18536
862.315	18532
862.447	18597
862.58	18506
862.712	18296
862.844	18258
862.976	18194
863.108	18239
863.24	18642
863.372	18174
863.504	18285
863.636	18285
863.768	18262
863.9	18197
864.032	18098
864.164	18209
864.296	18178
864.428	18247
864.559	18319
864.691	18361
864.823	18353
864.954	18136
865.086	18194
865.217	18144
865.349	18129
865.48	18133
865.612	18095
865.743	18254
865.875	18106
866.006	18136
866.137	18091
866.269	18125
866.4	18110
866.531	18110
866.662	18064
866.793	18114
866.924	18019
867.055	18148
867.186	18114
867.317	18007
867.448	18068
867.579	18019
867.71	18041
867.841	18098
867.972	18174
868.103	18064
868.233	18133
868.364	18079
868.495	18072
868.625	18304
868.756	18395
868.886	18228
869.017	18224
869.147	18357
869.278	18395
869.408	18258
869.539	18407
869.669	18426
869.799	18235
869.929	18490
870.06	18403
870.19	18669
870.32	18654
870.45	18688
870.58	18623
870.71	18863
870.84	18798
870.97	18798
871.1	18795
871.23	18878
871.36	18806
871.489	18779
871.619	18837
871.749	18871
871.879	18817
872.008	18928
872.138	19031
872.267	18958
872.397	18802
872.526	18776
872.656	18719
872.785	18639
872.915	18954
873.044	18966
873.173	18920
873.303	18985
873.432	18920
873.561	19004
873.69	18943
873.819	18909
873.948	19019
874.077	18993
874.206	18882
874.335	18985
874.464	19099
874.593	19221
874.722	19008
874.851	19194
874.979	19046
875.108	19179
875.237	19160
875.365	19126
875.494	19088
875.623	19202
875.751	19232
875.88	19156
876.008	19282
876.136	19354
876.265	19556
876.393	19674
876.521	19556
876.65	19689
876.778	19499
876.906	19647
877.034	19628
877.162	19597
877.29	19544
877.418	19635
877.546	19609
877.674	19647
877.802	19586
877.93	19563
878.058	19559
878.185	19464
878.313	19552
878.441	19552
878.568	19525
878.696	19556
878.824	19677
878.951	19715
879.079	19761
879.206	19936
879.333	19795
879.461	19559
879.588	19662
879.715	19799
879.842	19849
879.97	19651
880.097	19438
880.224	19518
880.351	19472
880.478	19502
880.605	19400
880.732	19563
880.859	19556
880.986	19491
881.112	19388
881.239	19266
881.366	19187
881.493	19209
881.619	19129
881.746	19137
881.872	19050
881.999	19118
882.125	19065
882.252	19023
882.378	19133
882.505	19297
882.631	18901
882.757	18913
882.883	18894
883.01	18909
883.136	18753
883.262	18696
883.388	18658
883.514	18772
883.64	18863
883.766	18791
883.892	18639
884.018	18631
884.143	18798
884.269	18897
884.395	18585
884.52	18445
884.646	18601
884.772	18376
884.897	18384
885.023	18525
885.148	18551
885.274	18650
885.399	18528
885.524	18498
885.65	18540
885.775	18441
885.9	18509
886.025	18585
886.15	18612
886.275	18448
886.4	18388
886.525	18399
886.65	18433
886.775	18422
886.9	18642
887.025	18741
887.149	18399
887.274	18323
887.399	18281
887.523	18228
887.648	18262
887.773	18133
887.897	18445
888.021	18292
888.146	18106
888.27	18353
888.395	18365
888.519	18232
888.643	18254
888.767	18209
888.891	18064
889.015	18011
889.139	18060
889.263	18083
889.387	18167
889.511	18296
889.635	18155
889.759	18106
889.883	17980
890.006	18133
890.13	18152
890.254	17980
890.377	17988
890.501	17813
890.624	17756
890.748	17912
890.871	17760
890.995	17627
891.118	17623
891.241	17646
891.364	17695
891.488	17893
891.611	17630
891.734	17710
891.857	17714
891.98	17634
892.103	17771
892.226	17684
892.349	17691
892.471	17482
892.594	17653
892.717	17627
892.839	17573
892.962	17668
893.085	17859
893.207	17642
893.33	17463
893.452	17478
893.575	17710
893.697	17554
893.819	17737
893.941	17840
894.064	17726
894.186	17554
894.308	17497
894.43	17554
894.552	17798
894.674	17722
894.796	17505
894.918	17623
895.04	17604
895.161	17695
895.283	17745
895.405	17718
895.526	17596
895.648	17638
895.769	17630
895.891	17824
896.012	17786
896.134	17691
896.255	17748
896.376	17528
896.498	17726
896.619	17729
896.74	17684
896.861	17809
896.982	18079
897.103	18178
897.224	17946
897.345	17996
897.466	17893
897.587	17969
897.708	18129
897.828	17977
897.949	17805
898.07	17878
898.19	17882
898.311	17916
898.431	17984
898.552	17897
898.672	18015
898.792	17950
898.913	17950
899.033	17904
899.153	17687
899.273	17703
899.393	17581
899.513	17802
899.633	17710
899.753	17726
899.873	17611
899.993	17764
900.113	17570
900.232	17642
900.352	17718
900.472	17581
900.591	17463
900.711	17604
900.83	17577
900.95	17684
901.069	17615
901.189	17478
901.308	17288
901.427	17208
901.546	17235
901.665	17239
901.784	17178
901.904	17090
902.023	16873
902.141	16793
902.26	16672
902.379	16805
902.498	16759
902.617	16717
902.735	16713
902.854	16790
902.973	16683
903.091	16394
903.21	16337
903.328	16329
903.446	16219
903.565	16124
903.683	16287
903.801	16063
903.919	16169
904.038	16097
904.156	15998
904.274	16051
904.392	15994
904.51	15949
904.627	16036
904.745	16010
904.863	15854
904.981	15816
905.098	15587
905.216	15629
905.334	15686
905.451	15690
905.569	15686
905.686	15603
905.803	15633
905.921	15443
906.038	15553
906.155	15420
906.272	15306
906.389	15443
906.506	15222
906.623	15146
906.74	15222
906.857	15127
906.974	15089
907.091	15313
907.208	15310
907.324	15207
907.441	15024
907.557	15009
907.674	14933
907.79	14838
907.907	14849
908.023	14925
908.139	14815
908.256	14853
908.372	14788
908.488	14842
908.604	14617
908.72	14514
908.836	14754
908.952	14560
909.068	14610
909.184	14689
909.3	14587
909.415	14686
909.531	14613
909.647	14313
909.762	14320
909.878	14358
909.993	14419
910.108	14248
910.224	14275
910.339	14286
910.454	14161
910.57	14096
910.685	14062
910.8	14427
910.915	14336
911.03	14206
911.145	13986
911.259	13906
911.374	13883
911.489	13898
911.604	13833
911.718	13624
911.833	13731
911.947	13571
912.062	13601
912.176	13624
912.291	13681
912.405	13662
912.519	13807
912.633	13795
912.748	13674
912.862	13636
912.976	13502
913.09	13400
913.204	13552
913.318	13510
913.431	13605
913.545	13681
913.659	13594
913.772	13460
913.886	13426
914	13396
914.113	13430
914.226	13449
914.34	13400
914.453	13244
914.566	13434
914.68	13225
914.793	13244
914.906	13084
915.019	13038
915.132	13069
915.245	13114
915.358	13000
915.47	13057
915.583	13015
915.696	13099
915.809	13236
915.921	13190
916.034	13012
916.146	12924
916.259	12928
916.371	13114
916.483	13027
916.595	12886
916.708	13012
916.82	12977
916.932	12894
917.044	12863
917.156	12935
917.268	12772
917.38	12833
917.491	12783
917.603	12741
917.715	12730
917.826	12837
917.938	12673
918.049	12642
918.161	12696
918.272	12863
918.384	12909
918.495	12753
918.606	12597
918.717	12578
918.828	12540
918.939	12623
919.05	12513
919.161	12513
919.272	12270
919.383	12422
919.494	12616
919.604	12669
919.715	12452
919.826	12437
919.936	12486
920.047	12650
920.157	12559
920.267	12734
920.378	12490
920.488	12555
920.598	12665
920.708	12848
920.818	12745
920.928	12635
921.038	12776
921.148	12753
921.258	12498
921.368	12445
921.477	12323
921.587	12251
921.697	12175
921.806	12315
921.916	12232
922.025	12068
922.134	11980
922.244	11988
922.353	11973
922.462	11863
922.571	11805
922.68	11726
922.789	11653
922.898	11665
923.007	11638
923.116	11627
923.224	11630
923.333	11577
923.442	11474
923.55	11497
923.659	11497
923.767	11501
923.876	11448
923.984	11501
924.092	11372
924.201	11471
924.309	11425
924.417	11372
924.525	11341
924.633	11353
924.741	12270
924.849	11208
924.956	11341
925.064	11170
925.172	11178
925.279	11124
925.387	11132
925.494	11223
925.602	11330
925.709	11147
925.816	11102
925.924	11181
926.031	11208
926.138	11094
926.245	11273
926.352	11083
926.459	11151
926.566	11269
926.673	11052
926.779	11003
926.886	10942
926.993	10911
927.099	10854
927.206	10790
927.312	10778
927.419	10858
927.525	10809
927.631	10892
927.737	10702
927.843	10717
927.95	10577
928.056	10721
928.162	10668
928.267	10668
928.373	11334
928.479	10759
928.585	10500
928.69	10596
928.796	10641
928.901	10615
929.007	10405
929.112	10558
929.218	10622
929.323	10459
929.428	10470
929.533	10558
929.638	10337
929.743	10386
929.848	10455
929.953	10413
930.058	10333
930.163	10238
930.267	10227
930.372	10253
930.477	10135
930.581	10371
930.685	10204
930.79	10032
930.894	9975
930.998	10071
931.103	10162
931.207	9846
931.311	9819
931.415	9648
931.519	9507
931.623	9469
