Data from test_V78500241_1862.txt Node
Date: Fri Mar 25 14:46:40 CST 2022
User: usil
Spectrometer: V785-0024
Trigger mode: 0
Integration Time (sec): 4.000000E-1
Scans to average: 1
Nonlinearity correction enabled: false
Boxcar width: 0
Storing dark spectrum: false
XAxis mode: Wavelengths
Number of Pixels in Spectrum: 1024
>>>>>Begin Spectral Data<<<<<
801.071	22109
801.214	21979
801.356	21759
801.499	21629
801.641	21591
801.783	21443
801.926	21553
802.068	21351
802.211	21351
802.353	21386
802.496	21146
802.638	20979
802.78	20979
802.923	21085
803.065	20838
803.208	20861
803.35	20834
803.492	20910
803.635	20937
803.777	20834
803.919	20975
804.061	21180
804.204	20849
804.346	20853
804.488	20712
804.63	20857
804.773	20758
804.915	20750
805.057	20842
805.199	20720
805.341	20834
805.483	20925
805.626	20876
805.768	20720
805.91	20689
806.052	20735
806.194	20720
806.336	20834
806.478	20720
806.62	20606
806.762	20845
806.904	20853
807.046	21195
807.188	20941
807.33	21070
807.472	21085
807.614	20914
807.756	21066
807.898	20891
808.04	20678
808.182	20750
808.324	20807
808.465	20804
808.607	21055
808.749	21116
808.891	21252
809.033	21340
809.174	21199
809.316	21089
809.458	21211
809.6	20994
809.741	21043
809.883	21249
810.025	21355
810.166	21249
810.308	21287
810.45	21211
810.591	21195
810.733	21051
810.875	20960
811.016	20925
811.158	20842
811.299	20963
811.441	21074
811.582	20948
811.724	20876
811.865	21017
812.007	20876
812.148	20853
812.29	20872
812.431	20994
812.573	21298
812.714	21249
812.855	21416
812.997	21450
813.138	21629
813.279	21393
813.421	21374
813.562	21340
813.703	21100
813.845	21039
813.986	20823
814.127	20682
814.268	20503
814.41	20621
814.551	20465
814.692	20564
814.833	20473
814.974	20400
815.115	20377
815.256	20305
815.397	20225
815.539	20362
815.68	20324
815.821	20320
815.962	20248
816.103	20111
816.244	20016
816.385	19940
816.526	19864
816.666	19814
816.807	19567
816.948	19769
817.089	19696
817.23	19666
817.371	19575
817.512	19556
817.653	19483
817.793	19537
817.934	19537
818.075	19613
818.216	19590
818.356	19628
818.497	19495
818.638	19274
818.778	19209
818.919	19308
819.06	19343
819.2	19225
819.341	19438
819.481	19476
819.622	19563
819.762	19753
819.903	19677
820.043	19666
820.184	19563
820.324	19582
820.465	19605
820.605	19635
820.746	19628
820.886	19441
821.026	19586
821.167	19499
821.307	19552
821.447	19521
821.588	19297
821.728	19304
821.868	19137
822.008	19004
822.149	18814
822.289	18951
822.429	18806
822.569	18608
822.709	18639
822.849	18528
822.99	18403
823.13	18353
823.27	18479
823.41	18296
823.55	18174
823.69	18277
823.83	18296
823.97	18174
824.11	18019
824.25	18064
824.389	18144
824.529	18114
824.669	18057
824.809	18068
824.949	18125
825.089	18155
825.228	18053
825.368	17885
825.508	17813
825.648	17707
825.787	17851
825.927	17935
826.067	17748
826.206	17863
826.346	17851
826.485	17741
826.625	17836
826.765	17923
826.904	17828
827.044	17695
827.183	17623
827.323	17558
827.462	17619
827.601	17554
827.741	17566
827.88	17520
828.02	17410
828.159	17596
828.298	17566
828.437	17585
828.577	17558
828.716	17592
828.855	17490
828.994	17273
829.134	17417
829.273	17303
829.412	17258
829.551	17174
829.69	17216
829.829	17277
829.968	17376
830.107	17364
830.246	17391
830.385	17208
830.524	17147
830.663	17067
830.802	17003
830.941	16938
831.08	16953
831.219	16949
831.357	16968
831.496	17109
831.635	16934
831.774	16767
831.913	16839
832.051	16710
832.19	16725
832.329	16752
832.467	16607
832.606	16565
832.744	16618
832.883	16516
833.022	16527
833.16	16653
833.299	16675
833.437	16653
833.576	16577
833.714	16645
833.852	16653
833.991	16706
834.129	16786
834.267	16805
834.406	16740
834.544	16713
834.682	16653
834.821	16641
834.959	16782
835.097	16588
835.235	16782
835.373	16660
835.511	16717
835.65	16554
835.788	16550
835.926	16478
836.064	16417
836.202	16421
836.34	16516
836.478	16577
836.615	16599
836.753	16637
836.891	16565
837.029	16569
837.167	16516
837.305	16546
837.443	16421
837.58	16348
837.718	16500
837.856	16531
837.993	16322
838.131	16451
838.269	16360
838.406	16375
838.544	16356
838.681	16139
838.819	16097
838.956	16120
839.094	15994
839.231	16032
839.369	16173
839.506	16443
839.643	16223
839.781	15899
839.918	15915
840.055	16002
840.193	15876
840.33	15869
840.467	15873
840.604	15953
840.742	16242
840.879	15835
841.016	15949
841.153	15854
841.29	16002
841.427	16036
841.564	16063
841.701	16051
841.838	15873
841.975	15945
842.112	15918
842.249	15747
842.385	15743
842.522	15907
842.659	15675
842.796	15720
842.933	15690
843.069	15698
843.206	15713
843.343	15732
843.479	15739
843.616	15785
843.752	15614
843.889	15553
844.025	15698
844.162	15443
844.298	15682
844.435	15534
844.571	15492
844.708	15584
844.844	15762
844.98	15739
845.117	15660
845.253	15561
845.389	15492
845.525	15496
845.661	15420
845.798	15329
845.934	15374
846.07	15363
846.206	15389
846.342	15458
846.478	15424
846.614	15123
846.75	15047
846.886	15161
847.022	15142
847.158	15135
847.294	15146
847.429	15161
847.565	15043
847.701	15344
847.837	14849
847.972	14758
848.108	14914
848.244	14872
848.379	14689
848.515	14689
848.65	14636
848.786	14659
848.921	14712
849.057	14830
849.192	14800
849.328	14762
849.463	14686
849.598	14746
849.734	14659
849.869	14533
850.004	14495
850.14	14602
850.275	14450
850.41	14393
850.545	14465
850.68	14461
850.815	14442
850.95	14427
851.085	14659
851.22	14560
851.355	14564
851.49	14499
851.625	14339
851.76	14465
851.895	14309
852.03	14343
852.165	14499
852.299	14431
852.434	14598
852.569	14522
852.703	14522
852.838	14571
852.973	14507
853.107	14606
853.242	14492
853.376	14389
853.511	14263
853.645	14271
853.78	14423
853.914	14431
854.048	14404
854.183	14351
854.317	14400
854.451	14511
854.585	14358
854.72	14385
854.854	14408
854.988	14313
855.122	14332
855.256	14180
855.39	14408
855.524	14469
855.658	14427
855.792	14374
855.926	14446
856.06	14434
856.194	14514
856.327	14381
856.461	14381
856.595	14248
856.729	14381
856.862	14492
856.996	14393
857.13	14473
857.263	14461
857.397	14518
857.53	14358
857.664	14533
857.797	14594
857.931	14347
858.064	14511
858.197	14400
858.331	14389
858.464	14256
858.597	14370
858.731	14336
858.864	14339
858.997	14385
859.13	14427
859.263	14415
859.396	14549
859.529	14396
859.662	14415
859.795	14343
859.928	14427
860.061	14533
860.194	14575
860.327	14415
860.46	14389
860.592	14423
860.725	14568
860.858	14446
860.99	14377
861.123	14347
861.256	14294
861.388	14469
861.521	15058
861.653	14267
861.786	14240
861.918	14168
862.05	14320
862.183	14317
862.315	14332
862.447	14469
862.58	14290
862.712	14058
862.844	14176
862.976	14237
863.108	14164
863.24	14632
863.372	14096
863.504	14176
863.636	14107
863.768	14164
863.9	14183
864.032	14119
864.164	14149
864.296	14183
864.428	14225
864.559	14172
864.691	14267
864.823	14267
864.954	14244
865.086	14206
865.217	14153
865.349	14073
865.48	14134
865.612	14115
865.743	14298
865.875	14214
866.006	14054
866.137	14214
866.269	14084
866.4	14046
866.531	14157
866.662	14100
866.793	14134
866.924	14107
867.055	14134
867.186	14271
867.317	14103
867.448	13932
867.579	14077
867.71	13940
867.841	14024
867.972	14202
868.103	14142
868.233	14168
868.364	14199
868.495	14206
868.625	14343
868.756	14533
868.886	14313
869.017	14377
869.147	14480
869.278	14556
869.408	14370
869.539	14446
869.669	14461
869.799	14499
869.929	14492
870.06	14473
870.19	14750
870.32	14708
870.45	14674
870.58	14781
870.71	14952
870.84	14830
870.97	14918
871.1	14758
871.23	15047
871.36	14998
871.489	14845
871.619	14929
871.749	14944
871.879	15028
872.008	15062
872.138	15070
872.267	14944
872.397	14792
872.526	14921
872.656	14762
872.785	14895
872.915	15017
873.044	15108
873.173	14975
873.303	15017
873.432	15013
873.561	15001
873.69	15013
873.819	15085
873.948	15108
874.077	15081
874.206	15013
874.335	15097
874.464	15146
874.593	15336
874.722	15321
874.851	15367
874.979	15340
875.108	15298
875.237	15351
875.365	15363
875.494	15363
875.623	15405
875.751	15336
875.88	15428
876.008	15477
876.136	15538
876.265	15861
876.393	15911
876.521	15819
876.65	15785
876.778	15835
876.906	15701
877.034	15778
877.162	15743
877.29	15755
877.418	15720
877.546	15835
877.674	15785
877.802	15736
877.93	15701
878.058	15743
878.185	15610
878.313	15797
878.441	15766
878.568	15622
878.696	15644
878.824	15888
878.951	15857
879.079	15949
879.206	16082
879.333	15930
879.461	15835
879.588	15808
879.715	15930
879.842	16196
879.97	15888
880.097	15568
880.224	15523
880.351	15644
880.478	15698
880.605	15591
880.732	15542
880.859	15869
880.986	15587
881.112	15705
881.239	15549
881.366	15393
881.493	15355
881.619	15283
881.746	15355
881.872	15264
881.999	15188
882.125	15211
882.252	15325
882.378	15329
882.505	15435
882.631	15249
882.757	15146
882.883	15150
883.01	15081
883.136	15036
883.262	14979
883.388	14948
883.514	15093
883.64	15127
883.766	15024
883.892	14918
884.018	14853
884.143	15123
884.269	15055
884.395	14686
884.52	14750
884.646	14815
884.772	14796
884.897	14632
885.023	14868
885.148	14781
885.274	14895
885.399	14857
885.524	14815
885.65	14804
885.775	14849
885.9	14845
886.025	14899
886.15	14754
886.275	14720
886.4	14648
886.525	14834
886.65	14746
886.775	14697
886.9	14864
887.025	15100
887.149	14750
887.274	14644
887.399	14598
887.523	14579
887.648	14613
887.773	14549
887.897	14636
888.021	14693
888.146	14461
888.27	14712
888.395	14800
888.519	14716
888.643	14663
888.767	14674
888.891	14522
889.015	14503
889.139	14594
889.263	14476
889.387	14549
889.511	14697
889.635	14613
889.759	14469
889.883	14446
890.006	14377
890.13	14594
890.254	14488
890.377	14446
890.501	14237
890.624	14275
890.748	14385
890.871	14263
890.995	14092
891.118	14157
891.241	14214
891.364	14210
891.488	14237
891.611	14210
891.734	14195
891.857	14313
891.98	14191
892.103	14267
892.226	14176
892.349	14164
892.471	14069
892.594	14225
892.717	14199
892.839	14130
892.962	14164
893.085	14259
893.207	14263
893.33	14035
893.452	14130
893.575	14278
893.697	14187
893.819	14339
893.941	14408
894.064	14309
894.186	14172
894.308	14237
894.43	14301
894.552	14400
894.674	14301
894.796	14149
894.918	14237
895.04	14187
895.161	14324
895.283	14290
895.405	14237
895.526	14248
895.648	14351
895.769	14442
895.891	14374
896.012	14381
896.134	14408
896.255	14351
896.376	14347
896.498	14263
896.619	14438
896.74	14400
896.861	14408
896.982	14617
897.103	14876
897.224	14602
897.345	14686
897.466	14568
897.587	14594
897.708	14682
897.828	14735
897.949	14590
898.07	14480
898.19	14686
898.311	14670
898.431	14629
898.552	14682
898.672	14754
898.792	14853
898.913	14762
899.033	14655
899.153	14518
899.273	14552
899.393	14438
899.513	14507
899.633	14537
899.753	14701
899.873	14473
899.993	14617
900.113	14518
900.232	14621
900.352	14507
900.472	14469
900.591	14412
900.711	14366
900.83	14332
900.95	14594
901.069	14450
901.189	14366
901.308	14164
901.427	14008
901.546	14062
901.665	14115
901.784	14062
901.904	14016
902.023	13906
902.141	13632
902.26	13662
902.379	13723
902.498	13693
902.617	13594
902.735	13753
902.854	13605
902.973	13540
903.091	13358
903.21	13377
903.328	13308
903.446	13274
903.565	13179
903.683	13266
903.801	13175
903.919	13225
904.038	13076
904.156	13065
904.274	13084
904.392	13046
904.51	12935
904.627	13015
904.745	13095
904.863	13084
904.981	12825
905.098	12673
905.216	12715
905.334	12757
905.451	12810
905.569	12700
905.686	12757
905.803	12730
905.921	12521
906.038	12669
906.155	12604
906.272	12422
906.389	12456
906.506	12410
906.623	12353
906.74	12346
906.857	12121
906.974	12262
907.091	12376
907.208	12445
907.324	12391
907.441	12247
907.557	12091
907.674	12060
907.79	11999
907.907	12057
908.023	12083
908.139	12072
908.256	11988
908.372	11920
908.488	12026
908.604	11813
908.72	11748
908.836	11817
908.952	11748
909.068	11988
909.184	11882
909.3	11828
909.415	11863
909.531	11847
909.647	11642
909.762	11657
909.878	11562
909.993	11608
910.108	11539
910.224	11524
910.339	11558
910.454	11455
910.57	11497
910.685	11356
910.8	11668
910.915	11585
911.03	11490
911.145	11227
911.259	11269
911.374	11349
911.489	11307
911.604	11162
911.718	11060
911.833	11075
911.947	10949
912.062	10911
912.176	11067
912.291	11060
912.405	10995
912.519	11299
912.633	11258
912.748	11239
912.862	11033
912.976	10938
913.09	10858
913.204	10892
913.318	10919
913.431	11052
913.545	11003
913.659	11052
913.772	10972
913.886	10790
914	10672
914.113	10877
914.226	10957
914.34	10850
914.453	10691
914.566	10934
914.68	10797
914.793	10736
914.906	10611
915.019	10538
915.132	10421
915.245	10588
915.358	10577
915.47	10603
915.583	10577
915.696	10668
915.809	10691
915.921	10698
916.034	10481
916.146	10424
916.259	10436
916.371	10554
916.483	10516
916.595	10436
916.708	10432
916.82	10577
916.932	10356
917.044	10489
917.156	10413
917.268	10348
917.38	10356
917.491	10356
917.603	10409
917.715	10493
917.826	10546
917.938	10379
918.049	10234
918.161	10356
918.272	10466
918.384	10497
918.495	10436
918.606	10242
918.717	10204
918.828	10223
918.939	10223
919.05	10154
919.161	10242
919.272	10002
919.383	10192
919.494	10337
919.604	10424
919.715	10344
919.826	10090
919.936	10204
920.047	10356
920.157	10295
920.267	10493
920.378	10360
920.488	10204
920.598	10443
920.708	10656
920.818	10443
920.928	10504
921.038	10611
921.148	10584
921.258	10276
921.368	10227
921.477	10154
921.587	10074
921.697	10017
921.806	10166
921.916	10078
922.025	9934
922.134	9838
922.244	9770
922.353	9838
922.462	9774
922.571	9671
922.68	9488
922.789	9599
922.898	9534
923.007	9469
923.116	9564
923.224	9526
923.333	9568
923.442	9431
923.55	9408
923.659	9389
923.767	9519
923.876	9386
923.984	9538
924.092	9397
924.201	9378
924.309	9424
924.417	9435
924.525	9405
924.633	9389
924.741	10341
924.849	9199
924.956	9317
925.064	9173
925.172	9154
925.279	9230
925.387	9287
925.494	9233
925.602	9374
925.709	9332
925.816	9173
925.924	9184
926.031	9230
926.138	9230
926.245	9283
926.352	9074
926.459	9275
926.566	9272
926.673	9154
926.779	9066
926.886	9062
926.993	8944
927.099	8906
927.206	8918
927.312	8899
927.419	8929
927.525	8921
927.631	9009
927.737	8876
927.843	8781
927.95	8720
928.056	8781
928.162	8807
928.267	8906
928.373	9424
928.479	8918
928.585	8659
928.69	8743
928.796	8777
928.901	8708
929.007	8621
929.112	8746
929.218	8670
929.323	8583
929.428	8556
929.533	8777
929.638	8545
929.743	8625
929.848	8590
929.953	8568
930.058	8556
930.163	8351
930.267	8431
930.372	8488
930.477	8328
930.581	8625
930.685	8480
930.79	8279
930.894	8377
930.998	8358
931.103	8473
931.207	8119
931.311	8115
931.415	7936
931.519	7830
931.623	7833
