Data from test_V78500241_1560.txt Node
Date: Fri Mar 25 14:44:34 CST 2022
User: usil
Spectrometer: V785-0024
Trigger mode: 0
Integration Time (sec): 4.000000E-1
Scans to average: 1
Nonlinearity correction enabled: false
Boxcar width: 0
Storing dark spectrum: false
XAxis mode: Wavelengths
Number of Pixels in Spectrum: 1024
>>>>>Begin Spectral Data<<<<<
801.071	22459
801.214	22352
801.356	22070
801.499	21991
801.641	21888
801.783	21797
801.926	21701
802.068	21713
802.211	21603
802.353	21485
802.496	21386
802.638	21302
802.78	21245
802.923	21230
803.065	21032
803.208	21100
803.35	21085
803.492	21036
803.635	21363
803.777	21108
803.919	21176
804.061	21504
804.204	21116
804.346	21036
804.488	21013
804.63	20990
804.773	20941
804.915	20963
805.057	21207
805.199	21062
805.341	21089
805.483	21116
805.626	21176
805.768	21039
805.91	20944
806.052	21062
806.194	20906
806.336	21119
806.478	20979
806.62	21058
806.762	21055
806.904	21260
807.046	21321
807.188	21389
807.33	21378
807.472	21378
807.614	21298
807.756	21230
807.898	21233
808.04	21127
808.182	21214
808.324	21256
808.465	21272
808.607	21462
808.749	21428
808.891	21629
809.033	21690
809.174	21690
809.316	21530
809.458	21485
809.6	21363
809.741	21545
809.883	21553
810.025	21648
810.166	21675
810.308	21496
810.45	21625
810.591	21534
810.733	21226
810.875	21249
811.016	21108
811.158	21176
811.299	21222
811.441	21313
811.582	21283
811.724	21230
811.865	21165
812.007	21138
812.148	21123
812.29	21370
812.431	21351
812.573	21443
812.714	21526
812.855	21663
812.997	21895
813.138	21876
813.279	21838
813.421	21618
813.562	21606
813.703	21420
813.845	21431
813.986	21085
814.127	20941
814.268	20750
814.41	20807
814.551	20735
814.692	20880
814.833	20613
814.974	20705
815.115	20640
815.256	20632
815.397	20621
815.539	20541
815.68	20579
815.821	20377
815.962	20541
816.103	20434
816.244	20351
816.385	20199
816.526	20134
816.666	20069
816.807	19917
816.948	20024
817.089	20043
817.23	19997
817.371	19898
817.512	19746
817.653	19849
817.793	19826
817.934	19959
818.075	20024
818.216	19925
818.356	19894
818.497	19696
818.638	19651
818.778	19605
818.919	19639
819.06	19499
819.2	19731
819.341	19784
819.481	19712
819.622	19894
819.762	19989
819.903	20027
820.043	19970
820.184	19830
820.324	19799
820.465	19986
820.605	19909
820.746	19799
820.886	19757
821.026	19856
821.167	19791
821.307	19909
821.447	19837
821.588	19586
821.728	19590
821.868	19445
822.008	19228
822.149	19282
822.289	19160
822.429	19031
822.569	18935
822.709	18977
822.849	18814
822.99	18787
823.13	18840
823.27	18673
823.41	18559
823.55	18540
823.69	18547
823.83	18563
823.97	18506
824.11	18391
824.25	18399
824.389	18460
824.529	18391
824.669	18369
824.809	18388
824.949	18490
825.089	18365
825.228	18372
825.368	18232
825.508	18140
825.648	18121
825.787	18129
825.927	18270
826.067	18007
826.206	18095
826.346	18174
826.485	18144
826.625	18091
826.765	18125
826.904	18235
827.044	17874
827.183	17965
827.323	17741
827.462	17817
827.601	17817
827.741	17790
827.88	17840
828.02	17695
828.159	17809
828.298	17817
828.437	17859
828.577	17813
828.716	17889
828.855	17779
828.994	17543
829.134	17501
829.273	17520
829.412	17501
829.551	17516
829.69	17478
829.829	17554
829.968	17642
830.107	17634
830.246	17558
830.385	17429
830.524	17349
830.663	17326
830.802	17277
830.941	17208
831.08	17124
831.219	17265
831.357	17220
831.496	17311
831.635	17151
831.774	17064
831.913	17102
832.051	17037
832.19	16934
832.329	17037
832.467	16839
832.606	16778
832.744	16862
832.883	16824
833.022	16927
833.16	16866
833.299	16881
833.437	16828
833.576	16877
833.714	16980
833.852	16934
833.991	17010
834.129	16915
834.267	17003
834.406	16915
834.544	16972
834.682	16961
834.821	16896
834.959	17083
835.097	16850
835.235	16873
835.373	16915
835.511	16877
835.65	16717
835.788	16744
835.926	16687
836.064	16489
836.202	16538
836.34	16824
836.478	16854
836.615	16847
836.753	16831
836.891	16812
837.029	16908
837.167	16694
837.305	16611
837.443	16752
837.58	16554
837.718	16755
837.856	16626
837.993	16546
838.131	16649
838.269	16550
838.406	16428
838.544	16493
838.681	16375
838.819	16363
838.956	16154
839.094	16162
839.231	16192
839.369	16379
839.506	16531
839.643	16462
839.781	16112
839.918	16166
840.055	16242
840.193	16204
840.33	16048
840.467	16234
840.604	16173
840.742	16474
840.879	16025
841.016	16173
841.153	16063
841.29	16402
841.427	16230
841.564	16188
841.701	16120
841.838	16169
841.975	16013
842.112	16090
842.249	16021
842.385	15918
842.522	16086
842.659	15953
842.796	15892
842.933	15888
843.069	15979
843.206	15968
843.343	16017
843.479	15983
843.616	16002
843.752	15739
843.889	15831
844.025	15930
844.162	15850
844.298	15876
844.435	15781
844.571	15747
844.708	15747
844.844	15869
844.98	15915
845.117	15949
845.253	15652
845.389	15610
845.525	15781
845.661	15778
845.798	15728
845.934	15770
846.07	15759
846.206	15705
846.342	15789
846.478	15641
846.614	15439
846.75	15272
846.886	15298
847.022	15359
847.158	15389
847.294	15252
847.429	15302
847.565	15260
847.701	15557
847.837	15138
847.972	14857
848.108	15097
848.244	15127
848.379	15020
848.515	14899
848.65	14891
848.786	14929
848.921	14918
849.057	14982
849.192	14929
849.328	14933
849.463	14952
849.598	14906
849.734	14857
849.869	14743
850.004	14686
850.14	14845
850.275	14697
850.41	14575
850.545	14583
850.68	14644
850.815	14621
850.95	14682
851.085	14826
851.22	14754
851.355	14705
851.49	14670
851.625	14674
851.76	14705
851.895	14454
852.03	14412
852.165	14590
852.299	14701
852.434	14796
852.569	14792
852.703	14648
852.838	14686
852.973	14872
853.107	14781
853.242	14568
853.376	14522
853.511	14355
853.645	14602
853.78	14613
853.914	14575
854.048	14473
854.183	14526
854.317	14568
854.451	14788
854.585	14465
854.72	14568
854.854	14571
854.988	14476
855.122	14541
855.256	14480
855.39	14461
855.524	14632
855.658	14568
855.792	14659
855.926	14552
856.06	14602
856.194	14678
856.327	14560
856.461	14442
856.595	14518
856.729	14537
856.862	14522
856.996	14560
857.13	14571
857.263	14587
857.397	14625
857.53	14556
857.664	14469
857.797	14636
857.931	14663
858.064	14503
858.197	14667
858.331	14587
858.464	14560
858.597	14450
858.731	14461
858.864	14545
858.997	14488
859.13	14507
859.263	14564
859.396	14644
859.529	14454
859.662	14526
859.795	14431
859.928	14503
860.061	14697
860.194	14712
860.327	14602
860.46	14465
860.592	14590
860.725	14640
860.858	14644
860.99	14488
861.123	14442
861.256	14473
861.388	14575
861.521	15150
861.653	14385
861.786	14404
861.918	14438
862.05	14518
862.183	14495
862.315	14492
862.447	14476
862.58	14431
862.712	14229
862.844	14240
862.976	14339
863.108	14377
863.24	14804
863.372	14256
863.504	14240
863.636	14358
863.768	14393
863.9	14305
864.032	14168
864.164	14267
864.296	14282
864.428	14476
864.559	14362
864.691	14400
864.823	14370
864.954	14298
865.086	14313
865.217	14320
865.349	14183
865.48	14294
865.612	14339
865.743	14355
865.875	14362
866.006	14317
866.137	14286
866.269	14240
866.4	14229
866.531	14298
866.662	14218
866.793	14263
866.924	14218
867.055	14206
867.186	14370
867.317	14210
867.448	14199
867.579	14218
867.71	14115
867.841	14218
867.972	14271
868.103	14206
868.233	14366
868.364	14240
868.495	14389
868.625	14465
868.756	14625
868.886	14438
869.017	14476
869.147	14587
869.278	14682
869.408	14594
869.539	14587
869.669	14644
869.799	14476
869.929	14590
870.06	14659
870.19	14857
870.32	14853
870.45	14834
870.58	14960
870.71	15081
870.84	15066
870.97	14880
871.1	14868
871.23	15047
871.36	15051
871.489	15043
871.619	15039
871.749	15058
871.879	15203
872.008	15199
872.138	15093
872.267	15173
872.397	14937
872.526	14971
872.656	14990
872.785	14967
872.915	15127
873.044	15188
873.173	15131
873.303	15233
873.432	15161
873.561	15317
873.69	15154
873.819	15131
873.948	15184
874.077	15211
874.206	15161
874.335	15169
874.464	15351
874.593	15526
874.722	15340
874.851	15538
874.979	15492
875.108	15622
875.237	15511
875.365	15389
875.494	15496
875.623	15584
875.751	15458
875.88	15515
876.008	15618
876.136	15641
876.265	15949
876.393	16074
876.521	16006
876.65	15907
876.778	15873
876.906	15873
877.034	15774
877.162	15838
877.29	15888
877.418	15949
877.546	15953
877.674	15869
877.802	15854
877.93	15880
878.058	15903
878.185	15751
878.313	15838
878.441	15907
878.568	15873
878.696	15808
878.824	15953
878.951	15956
879.079	16162
879.206	16173
879.333	16131
879.461	16032
879.588	16044
879.715	16219
879.842	16337
879.97	16055
880.097	15857
880.224	15686
880.351	15838
880.478	15854
880.605	15682
880.732	15778
880.859	16025
880.986	15770
881.112	15857
881.239	15641
881.366	15564
881.493	15477
881.619	15405
881.746	15435
881.872	15473
881.999	15454
882.125	15329
882.252	15443
882.378	15496
882.505	15557
882.631	15321
882.757	15260
882.883	15260
883.01	15268
883.136	15237
883.262	15039
883.388	15116
883.514	15294
883.64	15222
883.766	15218
883.892	15047
884.018	15001
884.143	15188
884.269	15272
884.395	15017
884.52	14979
884.646	14941
884.772	14899
884.897	14769
885.023	14986
885.148	15051
885.274	15135
885.399	15036
885.524	14887
885.65	14944
885.775	14979
885.9	14891
886.025	15173
886.15	14998
886.275	14910
886.4	14834
886.525	14842
886.65	14804
886.775	14979
886.9	15100
887.025	15211
887.149	14925
887.274	14781
887.399	14781
887.523	14788
887.648	14689
887.773	14621
887.897	14758
888.021	14792
888.146	14746
888.27	14796
888.395	14857
888.519	14792
888.643	14765
888.767	14864
888.891	14670
889.015	14541
889.139	14583
889.263	14530
889.387	14689
889.511	14788
889.635	14765
889.759	14568
889.883	14507
890.006	14621
890.13	14705
890.254	14575
890.377	14651
890.501	14377
890.624	14336
890.748	14522
890.871	14309
890.995	14183
891.118	14237
891.241	14332
891.364	14317
891.488	14404
891.611	14366
891.734	14278
891.857	14408
891.98	14328
892.103	14511
892.226	14278
892.349	14309
892.471	14145
892.594	14347
892.717	14332
892.839	14256
892.962	14320
893.085	14286
893.207	14305
893.33	14206
893.452	14206
893.575	14374
893.697	14282
893.819	14419
893.941	14579
894.064	14457
894.186	14286
894.308	14199
894.43	14495
894.552	14571
894.674	14446
894.796	14206
894.918	14419
895.04	14328
895.161	14434
895.283	14294
895.405	14332
895.526	14419
895.648	14457
895.769	14400
895.891	14454
896.012	14511
896.134	14393
896.255	14541
896.376	14431
896.498	14480
896.619	14511
896.74	14503
896.861	14530
896.982	14823
897.103	14876
897.224	14739
897.345	14689
897.466	14708
897.587	14746
897.708	14979
897.828	14792
897.949	14682
898.07	14514
898.19	14663
898.311	14823
898.431	14731
898.552	14872
898.672	14910
898.792	14952
898.913	14861
899.033	14701
899.153	14731
899.273	14575
899.393	14625
899.513	14644
899.633	14682
899.753	14686
899.873	14686
899.993	14735
900.113	14613
900.232	14758
900.352	14705
900.472	14621
900.591	14610
900.711	14537
900.83	14442
900.95	14541
901.069	14598
901.189	14431
901.308	14240
901.427	14206
901.546	14202
901.665	14263
901.784	14275
901.904	14065
902.023	14046
902.141	13898
902.26	13746
902.379	13818
902.498	13788
902.617	13696
902.735	13909
902.854	13864
902.973	13738
903.091	13525
903.21	13510
903.328	13559
903.446	13373
903.565	13392
903.683	13434
903.801	13232
903.919	13228
904.038	13202
904.156	13202
904.274	13270
904.392	13091
904.51	13118
904.627	13065
904.745	13187
904.863	13221
904.981	13004
905.098	12772
905.216	12863
905.334	12875
905.451	12829
905.569	12821
905.686	12985
905.803	12749
905.921	12669
906.038	12730
906.155	12631
906.272	12620
906.389	12547
906.506	12490
906.623	12410
906.74	12361
906.857	12391
906.974	12346
907.091	12475
907.208	12566
907.324	12521
907.441	12304
907.557	12262
907.674	12201
907.79	12076
907.907	12167
908.023	12133
908.139	12144
908.256	12213
908.372	12125
908.488	12106
908.604	11992
908.72	11916
908.836	11882
908.952	11897
909.068	11939
909.184	11961
909.3	11870
909.415	12038
909.531	11916
909.647	11748
909.762	11726
909.878	11638
909.993	11817
910.108	11714
910.224	11688
910.339	11676
910.454	11554
910.57	11539
910.685	11444
910.8	11805
910.915	11752
911.03	11520
911.145	11387
911.259	11379
911.374	11410
911.489	11330
911.604	11307
911.718	11212
911.833	11128
911.947	11041
912.062	11056
912.176	11227
912.291	11121
912.405	11189
912.519	11311
912.633	11345
912.748	11220
912.862	11277
912.976	11098
913.09	10911
913.204	11022
913.318	11003
913.431	11128
913.545	11136
913.659	11098
913.772	10991
913.886	10896
914	10919
914.113	11060
914.226	10999
914.34	11018
914.453	10816
914.566	10976
914.68	10831
914.793	10831
914.906	10691
915.019	10599
915.132	10679
915.245	10660
915.358	10706
915.47	10706
915.583	10706
915.696	10683
915.809	10801
915.921	10752
916.034	10550
916.146	10607
916.259	10535
916.371	10702
916.483	10675
916.595	10577
916.708	10577
916.82	10523
916.932	10516
917.044	10618
917.156	10500
917.268	10519
917.38	10523
917.491	10485
917.603	10500
917.715	10565
917.826	10588
917.938	10432
918.049	10398
918.161	10531
918.272	10622
918.384	10588
918.495	10398
918.606	10322
918.717	10371
918.828	10413
918.939	10428
919.05	10211
919.161	10337
919.272	10120
919.383	10181
919.494	10413
919.604	10573
919.715	10318
919.826	10249
919.936	10375
920.047	10462
920.157	10360
920.267	10481
920.378	10382
920.488	10382
920.598	10584
920.708	10801
920.818	10546
920.928	10569
921.038	10755
921.148	10683
921.258	10402
921.368	10375
921.477	10253
921.587	10185
921.697	10029
921.806	10169
921.916	10086
922.025	9846
922.134	9850
922.244	9816
922.353	9949
922.462	9793
922.571	9690
922.68	9595
922.789	9595
922.898	9648
923.007	9568
923.116	9625
923.224	9614
923.333	9614
923.442	9462
923.55	9526
923.659	9496
923.767	9507
923.876	9511
923.984	9557
924.092	9412
924.201	9443
924.309	9443
924.417	9405
924.525	9420
924.633	9359
924.741	10375
924.849	9184
924.956	9359
925.064	9184
925.172	9199
925.279	9192
925.387	9233
925.494	9268
925.602	9412
925.709	9355
925.816	9188
925.924	9279
926.031	9294
926.138	9313
926.245	9336
926.352	9127
926.459	9370
926.566	9412
926.673	9230
926.779	9123
926.886	9199
926.993	8929
927.099	9036
927.206	8941
927.312	8948
927.419	8998
927.525	8960
927.631	9032
927.737	8857
927.843	8804
927.95	8773
928.056	8895
928.162	8823
928.267	8963
928.373	9397
928.479	8971
928.585	8724
928.69	8914
928.796	8872
928.901	8697
929.007	8663
929.112	8769
929.218	8689
929.323	8716
929.428	8640
929.533	8796
929.638	8636
929.743	8693
929.848	8648
929.953	8663
930.058	8533
930.163	8484
930.267	8446
930.372	8492
930.477	8438
930.581	8625
930.685	8526
930.79	8328
930.894	8328
930.998	8347
931.103	8533
931.207	8221
931.311	8084
931.415	8069
931.519	7868
931.623	7871
