Data from test_V78500241_3485.txt Node
Date: Fri Mar 25 14:57:59 CST 2022
User: usil
Spectrometer: V785-0024
Trigger mode: 0
Integration Time (sec): 4.000000E-1
Scans to average: 1
Nonlinearity correction enabled: false
Boxcar width: 0
Storing dark spectrum: false
XAxis mode: Wavelengths
Number of Pixels in Spectrum: 1024
>>>>>Begin Spectral Data<<<<<
801.071	21983
801.214	21774
801.356	21580
801.499	21355
801.641	21294
801.783	21260
801.926	21302
802.068	21336
802.211	21081
802.353	21055
802.496	20876
802.638	20819
802.78	20636
802.923	20686
803.065	20625
803.208	20632
803.35	20602
803.492	20606
803.635	20686
803.777	20644
803.919	20613
804.061	20914
804.204	20674
804.346	20537
804.488	20476
804.63	20556
804.773	20503
804.915	20564
805.057	20640
805.199	20450
805.341	20568
805.483	20754
805.626	20556
805.768	20552
805.91	20431
806.052	20651
806.194	20381
806.336	20670
806.478	20469
806.62	20476
806.762	20568
806.904	20697
807.046	21017
807.188	20804
807.33	20857
807.472	20876
807.614	20762
807.756	20777
807.898	20735
808.04	20552
808.182	20598
808.324	20629
808.465	20697
808.607	20804
808.749	20963
808.891	21013
809.033	20944
809.174	20929
809.316	20819
809.458	20895
809.6	20861
809.741	20918
809.883	21039
810.025	20838
810.166	21066
810.308	20933
810.45	20967
810.591	21001
810.733	20739
810.875	20632
811.016	20575
811.158	20583
811.299	20731
811.441	20853
811.582	20682
811.724	20571
811.865	20674
812.007	20689
812.148	20644
812.29	20689
812.431	20819
812.573	20979
812.714	21013
812.855	21233
812.997	21249
813.138	21424
813.279	21226
813.421	21093
813.562	21138
813.703	20948
813.845	20792
813.986	20495
814.127	20404
814.268	20305
814.41	20351
814.551	20126
814.692	20168
814.833	20111
814.974	20046
815.115	20084
815.256	20031
815.397	20027
815.539	20058
815.68	19928
815.821	19803
815.962	19811
816.103	19719
816.244	19795
816.385	19575
816.526	19632
816.666	19567
816.807	19411
816.948	19487
817.089	19396
817.23	19381
817.371	19339
817.512	19293
817.653	19278
817.793	19282
817.934	19297
818.075	19297
818.216	19251
818.356	19301
818.497	19129
818.638	19012
818.778	18924
818.919	18939
819.06	18993
819.2	19244
819.341	19270
819.481	19190
819.622	19358
819.762	19487
819.903	19499
820.043	19339
820.184	19346
820.324	19228
820.465	19335
820.605	19255
820.746	19270
820.886	19187
821.026	19354
821.167	19282
821.307	19179
821.447	19282
821.588	19099
821.728	18924
821.868	18859
822.008	18711
822.149	18741
822.289	18707
822.429	18361
822.569	18399
822.709	18289
822.849	18159
822.99	18148
823.13	18163
823.27	18186
823.41	18022
823.55	17904
823.69	18095
823.83	18045
823.97	17904
824.11	17824
824.25	17680
824.389	17805
824.529	17847
824.669	17741
824.809	17832
824.949	17847
825.089	17893
825.228	17870
825.368	17615
825.508	17558
825.648	17638
825.787	17566
825.927	17638
826.067	17478
826.206	17520
826.346	17562
826.485	17554
826.625	17577
826.765	17634
826.904	17615
827.044	17261
827.183	17353
827.323	17200
827.462	17402
827.601	17356
827.741	17208
827.88	17307
828.02	17109
828.159	17128
828.298	17189
828.437	17326
828.577	17307
828.716	17273
828.855	17185
828.994	17052
829.134	17056
829.273	17029
829.412	17060
829.551	16976
829.69	17018
829.829	16885
829.968	17121
830.107	17102
830.246	17102
830.385	16976
830.524	16976
830.663	16892
830.802	16729
830.941	16752
831.08	16645
831.219	16710
831.357	16736
831.496	16820
831.635	16653
831.774	16531
831.913	16584
832.051	16497
832.19	16402
832.329	16558
832.467	16371
832.606	16280
832.744	16200
832.883	16318
833.022	16246
833.16	16337
833.299	16382
833.437	16284
833.576	16386
833.714	16390
833.852	16462
833.991	16455
834.129	16519
834.267	16371
834.406	16500
834.544	16352
834.682	16356
834.821	16318
834.959	16622
835.097	16379
835.235	16493
835.373	16466
835.511	16508
835.65	16249
835.788	16325
835.926	16128
836.064	16116
836.202	16131
836.34	16322
836.478	16402
836.615	16386
836.753	16325
836.891	16390
837.029	16329
837.167	16207
837.305	16143
837.443	16185
837.58	16242
837.718	16234
837.856	16150
837.993	16143
838.131	16299
838.269	16162
838.406	16086
838.544	16086
838.681	15998
838.819	15850
838.956	15743
839.094	15785
839.231	15899
839.369	15945
839.506	16090
839.643	15998
839.781	15838
839.918	15701
840.055	15690
840.193	15812
840.33	15736
840.467	15720
840.604	15720
840.742	16006
840.879	15549
841.016	15629
841.153	15747
841.29	15831
841.427	15766
841.564	15876
841.701	15816
841.838	15751
841.975	15564
842.112	15671
842.249	15610
842.385	15511
842.522	15747
842.659	15580
842.796	15462
842.933	15568
843.069	15469
843.206	15534
843.343	15515
843.479	15614
843.616	15542
843.752	15439
843.889	15393
844.025	15492
844.162	15313
844.298	15504
844.435	15367
844.571	15298
844.708	15428
844.844	15420
844.98	15545
845.117	15420
845.253	15325
845.389	15195
845.525	15233
845.661	15195
845.798	15150
845.934	15184
846.07	15024
846.206	15074
846.342	15211
846.478	15157
846.614	15001
846.75	14876
846.886	14864
847.022	15020
847.158	14941
847.294	14891
847.429	14960
847.565	14781
847.701	15188
847.837	14575
847.972	14632
848.108	14788
848.244	14629
848.379	14495
848.515	14537
848.65	14450
848.786	14594
848.921	14571
849.057	14590
849.192	14617
849.328	14522
849.463	14568
849.598	14377
849.734	14431
849.869	14355
850.004	14214
850.14	14358
850.275	14301
850.41	14263
850.545	14263
850.68	14221
850.815	14248
850.95	14275
851.085	14476
851.22	14408
851.355	14320
851.49	14313
851.625	14225
851.76	14206
851.895	14142
852.03	14096
852.165	14290
852.299	14259
852.434	14370
852.569	14305
852.703	14271
852.838	14385
852.973	14454
853.107	14476
853.242	14271
853.376	14123
853.511	13940
853.645	14100
853.78	14229
853.914	14084
854.048	14202
854.183	14043
854.317	14039
854.451	14336
854.585	14199
854.72	14035
854.854	14210
854.988	14027
855.122	14145
855.256	13989
855.39	14096
855.524	14176
855.658	14233
855.792	14210
855.926	14218
856.06	14221
856.194	14263
856.327	14081
856.461	14084
856.595	14035
856.729	14058
856.862	14225
856.996	14180
857.13	14259
857.263	14275
857.397	14328
857.53	14088
857.664	14324
857.797	14240
857.931	14229
858.064	14145
858.197	14256
858.331	14157
858.464	14062
858.597	13989
858.731	14130
858.864	14157
858.997	14039
859.13	14202
859.263	14149
859.396	14130
859.529	14199
859.662	14149
859.795	14229
859.928	14100
860.061	14301
860.194	14298
860.327	14168
860.46	14065
860.592	14225
860.725	14275
860.858	14271
860.99	14153
861.123	14039
861.256	14054
861.388	14123
861.521	14845
861.653	13970
861.786	13978
861.918	14027
862.05	14065
862.183	14020
862.315	14138
862.447	14153
862.58	14062
862.712	13875
862.844	13803
862.976	13913
863.108	13986
863.24	14419
863.372	13925
863.504	13917
863.636	13936
863.768	14069
863.9	13875
864.032	13772
864.164	13875
864.296	13864
864.428	14039
864.559	14107
864.691	13978
864.823	13928
864.954	14012
865.086	13909
865.217	13940
865.349	13902
865.48	13925
865.612	13963
865.743	14050
865.875	13947
866.006	13917
866.137	13887
866.269	13879
866.4	13841
866.531	13947
866.662	13765
866.793	13868
866.924	13928
867.055	13909
867.186	14016
867.317	13807
867.448	13780
867.579	13845
867.71	13841
867.841	13833
867.972	13890
868.103	13898
868.233	13887
868.364	13928
868.495	13940
868.625	14088
868.756	14271
868.886	14054
869.017	14130
869.147	14263
869.278	14275
869.408	14298
869.539	14069
869.669	14237
869.799	14168
869.929	14339
870.06	14248
870.19	14438
870.32	14480
870.45	14537
870.58	14594
870.71	14708
870.84	14606
870.97	14587
871.1	14533
871.23	14705
871.36	14682
871.489	14686
871.619	14826
871.749	14727
871.879	14735
872.008	14842
872.138	14781
872.267	14686
872.397	14617
872.526	14613
872.656	14610
872.785	14545
872.915	14773
873.044	14823
873.173	14739
873.303	14796
873.432	14868
873.561	14868
873.69	14842
873.819	14731
873.948	14872
874.077	14899
874.206	14762
874.335	14785
874.464	14990
874.593	15097
874.722	15043
874.851	15089
874.979	15070
875.108	15218
875.237	15112
875.365	15055
875.494	15173
875.623	15180
875.751	15036
875.88	15165
876.008	15378
876.136	15321
876.265	15526
876.393	15587
876.521	15629
876.65	15656
876.778	15618
876.906	15492
877.034	15454
877.162	15439
877.29	15572
877.418	15587
877.546	15629
877.674	15530
877.802	15485
877.93	15488
878.058	15515
878.185	15469
878.313	15599
878.441	15481
878.568	15431
878.696	15542
878.824	15564
878.951	15599
879.079	15637
879.206	15831
879.333	15656
879.461	15587
879.588	15629
879.715	15804
879.842	15876
879.97	15629
880.097	15348
880.224	15348
880.351	15439
880.478	15416
880.605	15351
880.732	15382
880.859	15637
880.986	15321
881.112	15450
881.239	15283
881.366	15207
881.493	15161
881.619	15001
881.746	15077
881.872	15039
881.999	15028
882.125	14994
882.252	15146
882.378	15009
882.505	15233
882.631	14906
882.757	14773
882.883	14891
883.01	14971
883.136	14933
883.262	14754
883.388	14594
883.514	14800
883.64	14929
883.766	14807
883.892	14682
884.018	14811
884.143	14800
884.269	14902
884.395	14625
884.52	14598
884.646	14526
884.772	14442
884.897	14442
885.023	14590
885.148	14682
885.274	14705
885.399	14739
885.524	14552
885.65	14697
885.775	14495
885.9	14606
886.025	14701
886.15	14587
886.275	14613
886.4	14484
886.525	14484
886.65	14427
886.775	14587
886.9	14651
887.025	14762
887.149	14484
887.274	14473
887.399	14393
887.523	14396
887.648	14370
887.773	14298
887.897	14492
888.021	14396
888.146	14381
888.27	14495
888.395	14575
888.519	14454
888.643	14480
888.767	14514
888.891	14347
889.015	14332
889.139	14286
889.263	14305
889.387	14381
889.511	14522
889.635	14317
889.759	14237
889.883	14271
890.006	14244
890.13	14438
890.254	14176
890.377	14202
890.501	14153
890.624	14157
890.748	14164
890.871	14024
890.995	13967
891.118	13940
891.241	13959
891.364	14001
891.488	14077
891.611	13986
891.734	14008
891.857	14077
891.98	13917
892.103	14088
892.226	13947
892.349	13970
892.471	13750
892.594	13993
892.717	13986
892.839	13887
892.962	14001
893.085	14065
893.207	13925
893.33	13925
893.452	13909
893.575	14058
893.697	13970
893.819	14134
893.941	14130
894.064	14134
894.186	13993
894.308	13940
894.43	14065
894.552	14187
894.674	14100
894.796	14027
894.918	14039
895.04	13913
895.161	14100
895.283	14115
895.405	14069
895.526	14130
895.648	14096
895.769	14138
895.891	14221
896.012	14119
896.134	14172
896.255	14180
896.376	14111
896.498	14096
896.619	14233
896.74	14157
896.861	14176
896.982	14427
897.103	14674
897.224	14545
897.345	14377
897.466	14415
897.587	14511
897.708	14476
897.828	14488
897.949	14415
898.07	14381
898.19	14362
898.311	14552
898.431	14408
898.552	14495
898.672	14674
898.792	14655
898.913	14583
899.033	14556
899.153	14370
899.273	14259
899.393	14252
899.513	14347
899.633	14347
899.753	14370
899.873	14328
899.993	14370
900.113	14324
900.232	14336
900.352	14286
900.472	14214
900.591	14237
900.711	14199
900.83	14187
900.95	14298
901.069	14408
901.189	14248
901.308	13936
901.427	13860
901.546	13970
901.665	13871
901.784	13906
901.904	13807
902.023	13639
902.141	13449
902.26	13430
902.379	13540
902.498	13521
902.617	13460
902.735	13491
902.854	13419
902.973	13377
903.091	13194
903.21	13152
903.328	13240
903.446	13103
903.565	12996
903.683	13027
903.801	12928
903.919	13072
904.038	13004
904.156	12852
904.274	12878
904.392	12825
904.51	12863
904.627	12829
904.745	12844
904.863	12939
904.981	12696
905.098	12623
905.216	12582
905.334	12563
905.451	12521
905.569	12536
905.686	12509
905.803	12498
905.921	12369
906.038	12410
906.155	12426
906.272	12209
906.389	12296
906.506	12091
906.623	12133
906.74	12030
906.857	12007
906.974	12049
907.091	12216
907.208	12338
907.324	12148
907.441	12129
907.557	11843
907.674	11904
907.79	11798
907.907	11908
908.023	11954
908.139	11851
908.256	11821
908.372	11741
908.488	11817
908.604	11672
908.72	11642
908.836	11760
908.952	11611
909.068	11688
909.184	11722
909.3	11653
909.415	11638
909.531	11577
909.647	11391
909.762	11402
909.878	11421
909.993	11421
910.108	11391
910.224	11444
910.339	11467
910.454	11303
910.57	11204
910.685	11250
910.8	11486
910.915	11417
911.03	11250
911.145	11155
911.259	11159
911.374	11159
911.489	11003
911.604	10968
911.718	10923
911.833	10885
911.947	10866
912.062	10786
912.176	10843
912.291	10930
912.405	10873
912.519	11037
912.633	11067
912.748	10976
912.862	10911
912.976	10778
913.09	10653
913.204	10755
913.318	10714
913.431	10862
913.545	10702
913.659	10862
913.772	10786
913.886	10687
914	10710
914.113	10744
914.226	10759
914.34	10740
914.453	10599
914.566	10698
914.68	10596
914.793	10584
914.906	10375
915.019	10382
915.132	10356
915.245	10405
915.358	10398
915.47	10436
915.583	10432
915.696	10485
915.809	10485
915.921	10611
916.034	10447
916.146	10402
916.259	10341
916.371	10451
916.483	10409
916.595	10295
916.708	10325
916.82	10390
916.932	10295
917.044	10272
917.156	10314
917.268	10204
917.38	10192
917.491	10215
917.603	10268
917.715	10325
917.826	10348
917.938	10257
918.049	10120
918.161	10219
918.272	10341
918.384	10424
918.495	10219
918.606	10071
918.717	10090
918.828	10093
918.939	10074
919.05	10002
919.161	10131
919.272	9937
919.383	9987
919.494	10131
919.604	10318
919.715	10177
919.826	10040
919.936	10109
920.047	10207
920.157	10188
920.267	10280
920.378	10211
920.488	10154
920.598	10386
920.708	10500
920.818	10337
920.928	10265
921.038	10470
921.148	10500
921.258	10120
921.368	10116
921.477	9964
921.587	9895
921.697	9876
921.806	9975
921.916	9861
922.025	9736
922.134	9660
922.244	9644
922.353	9759
922.462	9595
922.571	9534
922.68	9393
922.789	9389
922.898	9397
923.007	9313
923.116	9370
923.224	9389
923.333	9397
923.442	9321
923.55	9291
923.659	9291
923.767	9439
923.876	9241
923.984	9275
924.092	9195
924.201	9233
924.309	9222
924.417	9226
924.525	9264
924.633	9249
924.741	10109
924.849	8998
924.956	9214
925.064	8963
925.172	9020
925.279	9009
925.387	9085
925.494	9055
925.602	9188
925.709	9176
925.816	9005
925.924	9017
926.031	9165
926.138	8994
926.245	9093
926.352	8948
926.459	9138
926.566	9173
926.673	8952
926.779	8849
926.886	8895
926.993	8792
927.099	8735
927.206	8648
927.312	8746
927.419	8872
927.525	8754
927.631	8792
927.737	8712
927.843	8762
927.95	8541
928.056	8708
928.162	8689
928.267	8716
928.373	9363
928.479	8762
928.585	8537
928.69	8617
928.796	8716
928.901	8587
929.007	8427
929.112	8598
929.218	8549
929.323	8564
929.428	8492
929.533	8651
929.638	8431
929.743	8499
929.848	8511
929.953	8450
930.058	8400
930.163	8248
930.267	8221
930.372	8377
930.477	8221
930.581	8446
930.685	8294
930.79	8157
930.894	8252
930.998	8187
931.103	8301
931.207	7947
931.311	7974
931.415	7871
931.519	7712
931.623	7742
