Data from test_V78500241_335.txt Node
Date: Fri Mar 25 14:36:03 CST 2022
User: usil
Spectrometer: V785-0024
Trigger mode: 0
Integration Time (sec): 4.000000E-1
Scans to average: 1
Nonlinearity correction enabled: false
Boxcar width: 0
Storing dark spectrum: false
XAxis mode: Wavelengths
Number of Pixels in Spectrum: 1024
>>>>>Begin Spectral Data<<<<<
801.071	27001
801.214	26845
801.356	26556
801.499	26560
801.641	26400
801.783	26457
801.926	26419
802.068	26400
802.211	26263
802.353	26149
802.496	26016
802.638	25944
802.78	26088
802.923	25860
803.065	25906
803.208	25811
803.35	25818
803.492	25974
803.635	26054
803.777	25887
803.919	25940
804.061	26202
804.204	25951
804.346	25947
804.488	25731
804.63	25955
804.773	25841
804.915	25868
805.057	25997
805.199	25868
805.341	25826
805.483	25947
805.626	25947
805.768	25769
805.91	25913
806.052	26073
806.194	25788
806.336	26046
806.478	25898
806.62	25879
806.762	25966
806.904	26107
807.046	26465
807.188	26256
807.33	26438
807.472	26240
807.614	26332
807.756	26248
807.898	26218
808.04	26164
808.182	26119
808.324	26081
808.465	26001
808.607	26183
808.749	26469
808.891	26564
809.033	26739
809.174	26533
809.316	26374
809.458	26381
809.6	26317
809.741	26396
809.883	26431
810.025	26587
810.166	26686
810.308	26651
810.45	26499
810.591	26549
810.733	26278
810.875	26237
811.016	26233
811.158	26183
811.299	26396
811.441	26362
811.582	26374
811.724	26263
811.865	26214
812.007	26267
812.148	26278
812.29	26408
812.431	26381
812.573	26632
812.714	26431
812.855	26667
812.997	26842
813.138	26868
813.279	26880
813.421	26693
813.562	26659
813.703	26514
813.845	26511
813.986	26153
814.127	26043
814.268	25887
814.41	25837
814.551	25849
814.692	25940
814.833	25780
814.974	25685
815.115	25772
815.256	25655
815.397	25632
815.539	25776
815.68	25529
815.821	25571
815.962	25696
816.103	25689
816.244	25487
816.385	25381
816.526	25365
816.666	25080
816.807	24962
816.948	25050
817.089	25107
817.23	25008
817.371	25008
817.512	24859
817.653	24939
817.793	24920
817.934	24954
818.075	24920
818.216	24970
818.356	24886
818.497	24806
818.638	24696
818.778	24635
818.919	24684
819.06	24623
819.2	24779
819.341	24943
819.481	24894
819.622	25061
819.762	25091
819.903	25206
820.043	25034
820.184	24973
820.324	24814
820.465	24905
820.605	24878
820.746	24996
820.886	24844
821.026	24863
821.167	24859
821.307	24951
821.447	24688
821.588	24760
821.728	24582
821.868	24426
822.008	24418
822.149	24258
822.289	24247
822.429	23973
822.569	23954
822.709	23904
822.849	23771
822.99	23760
823.13	23653
823.27	23752
823.41	23535
823.55	23311
823.69	23444
823.83	23402
823.97	23505
824.11	23265
824.25	23269
824.389	23353
824.529	23353
824.669	23216
824.809	23372
824.949	23254
825.089	23436
825.228	23311
825.368	23151
825.508	23109
825.648	23113
825.787	23227
825.927	23189
826.067	23044
826.206	23143
826.346	23143
826.485	23155
826.625	23014
826.765	23220
826.904	23014
827.044	22896
827.183	22774
827.323	22805
827.462	22816
827.601	22778
827.741	22725
827.88	22759
828.02	22554
828.159	22675
828.298	22672
828.437	22675
828.577	22516
828.716	22767
828.855	22637
828.994	22424
829.134	22474
829.273	22542
829.412	22432
829.551	22440
829.69	22344
829.829	22516
829.968	22527
830.107	22421
830.246	22398
830.385	22348
830.524	22386
830.663	22246
830.802	22109
830.941	21960
831.08	21994
831.219	22101
831.357	22017
831.496	22265
831.635	22063
831.774	21945
831.913	21960
832.051	21800
832.19	21831
832.329	21812
832.467	21663
832.606	21538
832.744	21523
832.883	21694
833.022	21644
833.16	21599
833.299	21667
833.437	21720
833.576	21701
833.714	21732
833.852	21797
833.991	21865
834.129	21804
834.267	21732
834.406	21633
834.544	21694
834.682	21713
834.821	21724
834.959	21861
835.097	21622
835.235	21781
835.373	21637
835.511	21618
835.65	21557
835.788	21511
835.926	21260
836.064	21439
836.202	21313
836.34	21545
836.478	21534
836.615	21587
836.753	21511
836.891	21610
837.029	21515
837.167	21424
837.305	21424
837.443	21393
837.58	21329
837.718	21462
837.856	21302
837.993	21268
838.131	21374
838.269	21222
838.406	21336
838.544	21203
838.681	20929
838.819	21017
838.956	20697
839.094	20895
839.231	20982
839.369	20842
839.506	21176
839.643	21070
839.781	20796
839.918	20678
840.055	20773
840.193	20720
840.33	20651
840.467	20636
840.604	20724
840.742	21036
840.879	20522
841.016	20556
841.153	20594
841.29	20689
841.427	20849
841.564	20701
841.701	20663
841.838	20571
841.975	20583
842.112	20545
842.249	20362
842.385	20454
842.522	20697
842.659	20381
842.796	20434
842.933	20385
843.069	20366
843.206	20324
843.343	20541
843.479	20385
843.616	20434
843.752	20214
843.889	20134
844.025	20313
844.162	20157
844.298	20122
844.435	20172
844.571	20077
844.708	20313
844.844	20313
844.98	20317
845.117	20237
845.253	20149
845.389	20054
845.525	20153
845.661	20081
845.798	19925
845.934	20050
846.07	20020
846.206	19989
846.342	20122
846.478	19894
846.614	19689
846.75	19632
846.886	19552
847.022	19712
847.158	19628
847.294	19616
847.429	19712
847.565	19563
847.701	19845
847.837	19312
847.972	19282
848.108	19499
848.244	19483
848.379	19289
848.515	19228
848.65	19122
848.786	19244
848.921	19198
849.057	19213
849.192	19331
849.328	19183
849.463	19259
849.598	19213
849.734	19129
849.869	19110
850.004	18901
850.14	18989
850.275	18973
850.41	18932
850.545	18768
850.68	19015
850.815	18935
850.95	19008
851.085	19065
851.22	19042
851.355	18935
851.49	18886
851.625	18920
851.76	18947
851.895	18783
852.03	18833
852.165	18943
852.299	18894
852.434	19023
852.569	18848
852.703	18924
852.838	19000
852.973	19000
853.107	19027
853.242	18962
853.376	18760
853.511	18544
853.645	18681
853.78	18890
853.914	18852
854.048	18639
854.183	18734
854.317	18821
854.451	18973
854.585	18802
854.72	18783
854.854	18798
854.988	18738
855.122	18753
855.256	18551
855.39	18677
855.524	18776
855.658	18730
855.792	18837
855.926	18760
856.06	18764
856.194	18825
856.327	18677
856.461	18589
856.595	18681
856.729	18798
856.862	18840
856.996	18696
857.13	18798
857.263	18802
857.397	18894
857.53	18787
857.664	18776
857.797	18730
857.931	18848
858.064	18787
858.197	18806
858.331	18696
858.464	18707
858.597	18616
858.731	18734
858.864	18684
858.997	18642
859.13	18620
859.263	18688
859.396	18661
859.529	18589
859.662	18566
859.795	18681
859.928	18722
860.061	18703
860.194	18806
860.327	18650
860.46	18665
860.592	18673
860.725	18825
860.858	18795
860.99	18681
861.123	18597
861.256	18559
861.388	18627
861.521	19377
861.653	18502
861.786	18437
861.918	18658
862.05	18726
862.183	18563
862.315	18814
862.447	18856
862.58	18749
862.712	18589
862.844	18452
862.976	18593
863.108	18521
863.24	18783
863.372	18369
863.504	18467
863.636	18437
863.768	18490
863.9	18414
864.032	18277
864.164	18346
864.296	18410
864.428	18570
864.559	18521
864.691	18471
864.823	18403
864.954	18422
865.086	18365
865.217	18376
865.349	18327
865.48	18365
865.612	18289
865.743	18528
865.875	18399
866.006	18342
866.137	18266
866.269	18308
866.4	18292
866.531	18338
866.662	18258
866.793	18350
866.924	18224
867.055	18365
867.186	18194
867.317	18243
867.448	18121
867.579	18239
867.71	18266
867.841	18194
867.972	18201
868.103	18334
868.233	18334
868.364	18273
868.495	18395
868.625	18608
868.756	18578
868.886	18369
869.017	18471
869.147	18513
869.278	18601
869.408	18578
869.539	18528
869.669	18532
869.799	18486
869.929	18726
870.06	18722
870.19	18833
870.32	18817
870.45	18859
870.58	18859
870.71	18916
870.84	18958
870.97	18962
871.1	18989
871.23	19114
871.36	19168
871.489	19091
871.619	19061
871.749	19251
871.879	19042
872.008	19274
872.138	19118
872.267	19038
872.397	19076
872.526	18863
872.656	19038
872.785	18886
872.915	19122
873.044	19244
873.173	19160
873.303	19221
873.432	19198
873.561	19194
873.69	19122
873.819	19206
873.948	19198
874.077	19228
874.206	19206
874.335	19099
874.464	19320
874.593	19327
874.722	19339
874.851	19518
874.979	19369
875.108	19563
875.237	19411
875.365	19358
875.494	19312
875.623	19529
875.751	19510
875.88	19499
876.008	19655
876.136	19674
876.265	19803
876.393	20043
876.521	20039
876.65	19925
876.778	19830
876.906	19860
877.034	19715
877.162	19765
877.29	19651
877.418	19837
877.546	19868
877.674	19807
877.802	19772
877.93	19818
878.058	19951
878.185	19727
878.313	19811
878.441	19849
878.568	19674
878.696	19658
878.824	19811
878.951	19913
879.079	19951
879.206	20138
879.333	20008
879.461	19947
879.588	19978
879.715	20020
879.842	20248
879.97	19852
880.097	19845
880.224	19582
880.351	19727
880.478	19658
880.605	19639
880.732	19700
880.859	19909
880.986	19502
881.112	19776
881.239	19514
881.366	19529
881.493	19396
881.619	19270
881.746	19297
881.872	19308
881.999	19331
882.125	19259
882.252	19297
882.378	19259
882.505	19384
882.631	19152
882.757	19057
882.883	19095
883.01	19145
883.136	18970
883.262	18859
883.388	18837
883.514	18924
883.64	19080
883.766	18962
883.892	18783
884.018	18878
884.143	19069
884.269	19202
884.395	18844
884.52	18646
884.646	18711
884.772	18601
884.897	18688
885.023	18700
885.148	18669
885.274	18791
885.399	18844
885.524	18719
885.65	18726
885.775	18601
885.9	18741
886.025	18814
886.15	18749
886.275	18650
886.4	18544
886.525	18555
886.65	18528
886.775	18658
886.9	18764
887.025	18966
887.149	18692
887.274	18506
887.399	18380
887.523	18494
887.648	18426
887.773	18407
887.897	18506
888.021	18391
888.146	18323
888.27	18403
888.395	18563
888.519	18479
888.643	18399
888.767	18475
888.891	18369
889.015	18178
889.139	18346
889.263	18190
889.387	18391
889.511	18464
889.635	18346
889.759	18174
889.883	18213
890.006	18235
890.13	18311
890.254	18129
890.377	18220
890.501	18011
890.624	18030
890.748	18038
890.871	17916
890.995	17832
891.118	17672
891.241	17828
891.364	17821
891.488	17916
891.611	17908
891.734	17756
891.857	17992
891.98	17950
892.103	17908
892.226	17855
892.349	17805
892.471	17771
892.594	17775
892.717	17843
892.839	17695
892.962	17817
893.085	17969
893.207	17703
893.33	17737
893.452	17794
893.575	17866
893.697	17733
893.819	17927
893.941	18022
894.064	17916
894.186	17809
894.308	17684
894.43	17889
894.552	18003
894.674	17870
894.796	17703
894.918	17790
895.04	17718
895.161	17912
895.283	17920
895.405	17760
895.526	17958
895.648	17863
895.769	17897
895.891	17775
896.012	17809
896.134	17897
896.255	17946
896.376	17790
896.498	17901
896.619	17916
896.74	17931
896.861	18041
896.982	18266
897.103	18338
897.224	18232
897.345	18110
897.466	18136
897.587	18076
897.708	18174
897.828	18247
897.949	18053
898.07	18019
898.19	18087
898.311	18186
898.431	18064
898.552	18053
898.672	18163
898.792	18182
898.913	18060
899.033	18057
899.153	17897
899.273	17783
899.393	17901
899.513	17931
899.633	17790
899.753	17977
899.873	17794
899.993	17923
900.113	17935
900.232	17866
900.352	17767
900.472	17767
900.591	17630
900.711	17653
900.83	17707
900.95	17748
901.069	17920
901.189	17623
901.308	17436
901.427	17296
901.546	17433
901.665	17448
901.784	17273
901.904	17132
902.023	17284
902.141	16987
902.26	16744
902.379	17006
902.498	16885
902.617	16725
902.735	16900
902.854	16793
902.973	16763
903.091	16577
903.21	16516
903.328	16428
903.446	16500
903.565	16363
903.683	16356
903.801	16242
903.919	16341
904.038	16360
904.156	16109
904.274	16265
904.392	16139
904.51	16086
904.627	16109
904.745	16219
904.863	16147
904.981	15953
905.098	15854
905.216	15835
905.334	15842
905.451	15827
905.569	15781
905.686	15846
905.803	15934
905.921	15637
906.038	15644
906.155	15663
906.272	15447
906.389	15420
906.506	15428
906.623	15329
906.74	15359
906.857	15298
906.974	15169
907.091	15321
907.208	15568
907.324	15336
907.441	15180
907.557	15184
907.674	15020
907.79	15001
907.907	15001
908.023	15055
908.139	15074
908.256	14960
908.372	14902
908.488	14960
908.604	14758
908.72	14667
908.836	14792
908.952	14670
909.068	14781
909.184	14826
909.3	14845
909.415	14765
909.531	14781
909.647	14507
909.762	14438
909.878	14415
909.993	14549
910.108	14480
910.224	14503
910.339	14400
910.454	14355
910.57	14377
910.685	14263
910.8	14537
910.915	14484
911.03	14358
911.145	14088
911.259	14084
911.374	14153
911.489	14039
911.604	13921
911.718	13841
911.833	13967
911.947	13791
912.062	13712
912.176	13833
912.291	13856
912.405	13921
912.519	14073
912.633	14115
912.748	13913
912.862	13784
912.976	13696
913.09	13685
913.204	13708
913.318	13662
913.431	13799
913.545	13784
913.659	13780
913.772	13658
913.886	13624
914	13510
914.113	13571
914.226	13655
914.34	13594
914.453	13449
914.566	13628
914.68	13540
914.793	13464
914.906	13232
915.019	13221
915.132	13137
915.245	13198
915.358	13228
915.47	13209
915.583	13221
915.696	13251
915.809	13225
915.921	13316
916.034	13129
916.146	13084
916.259	13076
916.371	13225
916.483	13202
916.595	13133
916.708	12943
916.82	12966
916.932	13031
917.044	12989
917.156	12973
917.268	12890
917.38	12890
917.491	12897
917.603	12859
917.715	12913
917.826	13019
917.938	12878
918.049	12715
918.161	12913
918.272	12996
918.384	12996
918.495	12897
918.606	12696
918.717	12700
918.828	12711
918.939	12779
919.05	12646
919.161	12654
919.272	12517
919.383	12662
919.494	12692
919.604	12909
919.715	12677
919.826	12623
919.936	12612
920.047	12840
920.157	12715
920.267	12768
920.378	12696
920.488	12582
920.598	12840
920.708	12973
920.818	12825
920.928	12833
921.038	12996
921.148	12878
921.258	12669
921.368	12521
921.477	12498
921.587	12525
921.697	12323
921.806	12445
921.916	12247
922.025	12117
922.134	12117
922.244	12072
922.353	12186
922.462	11992
922.571	11977
922.68	11817
922.789	11809
922.898	11817
923.007	11691
923.116	11790
923.224	11718
923.333	11729
923.442	11630
923.55	11562
923.659	11722
923.767	11688
923.876	11657
923.984	11638
924.092	11452
924.201	11589
924.309	11532
924.417	11524
924.525	11417
924.633	11436
924.741	12266
924.849	11303
924.956	11505
925.064	11250
925.172	11174
925.279	11261
925.387	11315
925.494	11299
925.602	11421
925.709	11433
925.816	11280
925.924	11227
926.031	11315
926.138	11258
926.245	11280
926.352	11143
926.459	11383
926.566	11292
926.673	11151
926.779	10984
926.886	11014
926.993	10946
927.099	10858
927.206	10938
927.312	10862
927.419	10934
927.525	10828
927.631	10930
927.737	10725
927.843	10767
927.95	10702
928.056	10755
928.162	10736
928.267	10873
928.373	11280
928.479	10820
928.585	10622
928.69	10694
928.796	10767
928.901	10584
929.007	10519
929.112	10516
929.218	10577
929.323	10523
929.428	10519
929.533	10679
929.638	10436
929.743	10512
929.848	10489
929.953	10485
930.058	10356
930.163	10223
930.267	10230
930.372	10363
930.477	10162
930.581	10337
930.685	10166
930.79	10090
930.894	10158
930.998	10112
931.103	10306
931.207	9911
931.311	9854
931.415	9774
931.519	9542
931.623	9435
