Data from test_V78500241_1985.txt Node
Date: Fri Mar 25 14:47:32 CST 2022
User: usil
Spectrometer: V785-0024
Trigger mode: 0
Integration Time (sec): 4.000000E-1
Scans to average: 1
Nonlinearity correction enabled: false
Boxcar width: 0
Storing dark spectrum: false
XAxis mode: Wavelengths
Number of Pixels in Spectrum: 1024
>>>>>Begin Spectral Data<<<<<
801.071	22105
801.214	21960
801.356	21850
801.499	21694
801.641	21561
801.783	21488
801.926	21561
802.068	21424
802.211	21488
802.353	21241
802.496	21119
802.638	20975
802.78	20960
802.923	20944
803.065	20815
803.208	20830
803.35	20758
803.492	20788
803.635	20849
803.777	20758
803.919	20830
804.061	21066
804.204	20743
804.346	20781
804.488	20674
804.63	20746
804.773	20712
804.915	20651
805.057	20670
805.199	20724
805.341	20754
805.483	20807
805.626	20849
805.768	20716
805.91	20693
806.052	20823
806.194	20636
806.336	20845
806.478	20724
806.62	20655
806.762	20754
806.904	20899
807.046	21100
807.188	20986
807.33	21036
807.472	21135
807.614	20979
807.756	20914
807.898	20773
808.04	20625
808.182	20708
808.324	20788
808.465	20842
808.607	20956
808.749	21116
808.891	21127
809.033	21252
809.174	21230
809.316	20971
809.458	21036
809.6	21119
809.741	21150
809.883	21260
810.025	21306
810.166	21283
810.308	21192
810.45	21188
810.591	21157
810.733	20967
810.875	20853
811.016	20765
811.158	20777
811.299	20853
811.441	20971
811.582	20948
811.724	20872
811.865	20861
812.007	20823
812.148	20906
812.29	20868
812.431	20948
812.573	21249
812.714	21272
812.855	21329
812.997	21378
813.138	21564
813.279	21477
813.421	21397
813.562	21272
813.703	21184
813.845	21070
813.986	20655
814.127	20644
814.268	20499
814.41	20552
814.551	20457
814.692	20427
814.833	20469
814.974	20442
815.115	20514
815.256	20225
815.397	20271
815.539	20225
815.68	20054
815.821	20050
815.962	20001
816.103	20115
816.244	20012
816.385	19902
816.526	19780
816.666	19750
816.807	19632
816.948	19677
817.089	19655
817.23	19704
817.371	19438
817.512	19578
817.653	19544
817.793	19438
817.934	19499
818.075	19609
818.216	19487
818.356	19289
818.497	19396
818.638	19228
818.778	19251
818.919	19278
819.06	19282
819.2	19358
819.341	19529
819.481	19483
819.622	19635
819.762	19685
819.903	19655
820.043	19582
820.184	19476
820.324	19495
820.465	19499
820.605	19616
820.746	19487
820.886	19289
821.026	19548
821.167	19438
821.307	19540
821.447	19495
821.588	19301
821.728	19289
821.868	19072
822.008	18920
822.149	18939
822.289	18966
822.429	18601
822.569	18536
822.709	18646
822.849	18460
822.99	18426
823.13	18395
823.27	18342
823.41	18285
823.55	18201
823.69	18213
823.83	18205
823.97	18060
824.11	18045
824.25	17939
824.389	18019
824.529	18030
824.669	17958
824.809	18034
824.949	18019
825.089	18060
825.228	18011
825.368	17946
825.508	17741
825.648	17843
825.787	17832
825.927	17741
826.067	17764
826.206	17642
826.346	17904
826.485	17741
826.625	17764
826.765	17847
826.904	17752
827.044	17611
827.183	17471
827.323	17532
827.462	17623
827.601	17459
827.741	17444
827.88	17543
828.02	17349
828.159	17562
828.298	17497
828.437	17570
828.577	17425
828.716	17512
828.855	17376
828.994	17181
829.134	17269
829.273	17231
829.412	17113
829.551	17193
829.69	17223
829.829	17166
829.968	17341
830.107	17216
830.246	17345
830.385	17246
830.524	17147
830.663	16984
830.802	16915
830.941	16889
831.08	16911
831.219	16968
831.357	16930
831.496	17041
831.635	16786
831.774	16778
831.913	16675
832.051	16717
832.19	16630
832.329	16622
832.467	16626
832.606	16478
832.744	16561
832.883	16519
833.022	16558
833.16	16588
833.299	16592
833.437	16527
833.576	16580
833.714	16645
833.852	16755
833.991	16736
834.129	16607
834.267	16729
834.406	16622
834.544	16577
834.682	16626
834.821	16622
834.959	16896
835.097	16599
835.235	16744
835.373	16713
835.511	16656
835.65	16489
835.788	16481
835.926	16382
836.064	16306
836.202	16310
836.34	16630
836.478	16630
836.615	16481
836.753	16516
836.891	16626
837.029	16523
837.167	16592
837.305	16455
837.443	16421
837.58	16394
837.718	16436
837.856	16337
837.993	16337
838.131	16360
838.269	16341
838.406	16371
838.544	16287
838.681	16071
838.819	15964
838.956	15930
839.094	16021
839.231	15831
839.369	16143
839.506	16287
839.643	16181
839.781	16017
839.918	15975
840.055	16013
840.193	15991
840.33	15899
840.467	15880
840.604	15983
840.742	16158
840.879	15781
841.016	15918
841.153	15892
841.29	16051
841.427	16029
841.564	16002
841.701	16002
841.838	15953
841.975	15876
842.112	15812
842.249	15804
842.385	15739
842.522	15869
842.659	15694
842.796	15690
842.933	15759
843.069	15743
843.206	15610
843.343	15724
843.479	15698
843.616	15724
843.752	15523
843.889	15587
844.025	15667
844.162	15515
844.298	15587
844.435	15382
844.571	15507
844.708	15644
844.844	15816
844.98	15622
845.117	15663
845.253	15428
845.389	15412
845.525	15504
845.661	15435
845.798	15249
845.934	15363
846.07	15287
846.206	15310
846.342	15454
846.478	15355
846.614	15104
846.75	15009
846.886	14998
847.022	15165
847.158	15074
847.294	15047
847.429	15233
847.565	15112
847.701	15386
847.837	14811
847.972	14739
848.108	14948
848.244	15017
848.379	14743
848.515	14735
848.65	14708
848.786	14750
848.921	14720
849.057	14777
849.192	14754
849.328	14724
849.463	14689
849.598	14670
849.734	14667
849.869	14541
850.004	14419
850.14	14457
850.275	14480
850.41	14404
850.545	14366
850.68	14358
850.815	14415
850.95	14427
851.085	14530
851.22	14579
851.355	14454
851.49	14412
851.625	14434
851.76	14423
851.895	14309
852.03	14351
852.165	14389
852.299	14492
852.434	14495
852.569	14511
852.703	14499
852.838	14533
852.973	14682
853.107	14465
853.242	14427
853.376	14324
853.511	14252
853.645	14259
853.78	14423
853.914	14385
854.048	14355
854.183	14290
854.317	14347
854.451	14370
854.585	14275
854.72	14301
854.854	14396
854.988	14252
855.122	14290
855.256	14145
855.39	14259
855.524	14442
855.658	14400
855.792	14332
855.926	14438
856.06	14400
856.194	14415
856.327	14393
856.461	14210
856.595	14248
856.729	14328
856.862	14419
856.996	14374
857.13	14389
857.263	14450
857.397	14480
857.53	14366
857.664	14366
857.797	14423
857.931	14389
858.064	14427
858.197	14385
858.331	14309
858.464	14237
858.597	14145
858.731	14313
858.864	14248
858.997	14278
859.13	14347
859.263	14419
859.396	14473
859.529	14389
859.662	14317
859.795	14263
859.928	14362
860.061	14438
860.194	14518
860.327	14377
860.46	14301
860.592	14381
860.725	14499
860.858	14423
860.99	14244
861.123	14202
861.256	14191
861.388	14347
861.521	14998
861.653	14237
861.786	14100
861.918	14168
862.05	14210
862.183	14317
862.315	14282
862.447	14336
862.58	14221
862.712	14176
862.844	14008
862.976	14221
863.108	14065
863.24	14400
863.372	14058
863.504	14096
863.636	14054
863.768	14145
863.9	14130
864.032	14039
864.164	14088
864.296	14180
864.428	14309
864.559	14126
864.691	14237
864.823	14275
864.954	14119
865.086	14161
865.217	14130
865.349	14016
865.48	13967
865.612	14161
865.743	14210
865.875	14054
866.006	14043
866.137	14096
866.269	14123
866.4	14077
866.531	14065
866.662	13997
866.793	14065
866.924	13970
867.055	14161
867.186	14058
867.317	14046
867.448	13955
867.579	13928
867.71	14054
867.841	13989
867.972	13989
868.103	14107
868.233	14005
868.364	14062
868.495	14115
868.625	14389
868.756	14450
868.886	14259
869.017	14332
869.147	14465
869.278	14438
869.408	14374
869.539	14351
869.669	14393
869.799	14225
869.929	14465
870.06	14385
870.19	14648
870.32	14651
870.45	14716
870.58	14750
870.71	14781
870.84	14788
870.97	14705
871.1	14686
871.23	14883
871.36	14872
871.489	14830
871.619	14937
871.749	14986
871.879	14967
872.008	14975
872.138	14925
872.267	14895
872.397	14853
872.526	14758
872.656	14678
872.785	14845
872.915	14952
873.044	15032
873.173	14921
873.303	14990
873.432	15081
873.561	15043
873.69	15066
873.819	15013
873.948	15058
874.077	15058
874.206	14941
874.335	15047
874.464	15123
874.593	15226
874.722	15203
874.851	15249
874.979	15275
875.108	15279
875.237	15161
875.365	15313
875.494	15355
875.623	15306
875.751	15256
875.88	15367
876.008	15500
876.136	15553
876.265	15679
876.393	15865
876.521	15774
876.65	15842
876.778	15728
876.906	15755
877.034	15625
877.162	15728
877.29	15633
877.418	15713
877.546	15778
877.674	15728
877.802	15736
877.93	15774
878.058	15622
878.185	15633
878.313	15682
878.441	15736
878.568	15561
878.696	15694
878.824	15747
878.951	15827
879.079	15838
879.206	15949
879.333	15789
879.461	15728
879.588	15816
879.715	15861
879.842	16021
879.97	15755
880.097	15477
880.224	15462
880.351	15500
880.478	15545
880.605	15519
880.732	15538
880.859	15838
880.986	15519
881.112	15652
881.239	15504
881.366	15332
881.493	15249
881.619	15192
881.746	15203
881.872	15298
881.999	15165
882.125	15188
882.252	15275
882.378	15222
882.505	15313
882.631	15161
882.757	15062
882.883	15089
883.01	15093
883.136	15005
883.262	14864
883.388	14788
883.514	15104
883.64	15074
883.766	14979
883.892	14872
884.018	14781
884.143	14937
884.269	15089
884.395	14807
884.52	14765
884.646	14823
884.772	14697
884.897	14659
885.023	14724
885.148	14807
885.274	14769
885.399	14796
885.524	14724
885.65	14720
885.775	14800
885.9	14682
886.025	14811
886.15	14819
886.275	14705
886.4	14598
886.525	14716
886.65	14716
886.775	14629
886.9	14880
887.025	14834
887.149	14788
887.274	14488
887.399	14511
887.523	14526
887.648	14442
887.773	14533
887.897	14659
888.021	14579
888.146	14461
888.27	14667
888.395	14678
888.519	14697
888.643	14629
888.767	14583
888.891	14518
889.015	14396
889.139	14473
889.263	14450
889.387	14583
889.511	14503
889.635	14560
889.759	14374
889.883	14351
890.006	14374
890.13	14480
890.254	14328
890.377	14362
890.501	14237
890.624	14218
890.748	14305
890.871	14275
890.995	14145
891.118	14065
891.241	14164
891.364	14084
891.488	14317
891.611	14176
891.734	14168
891.857	14298
891.98	14164
892.103	14218
892.226	14187
892.349	14103
892.471	14077
892.594	14096
892.717	14244
892.839	14176
892.962	14107
893.085	14195
893.207	14202
893.33	14084
893.452	14073
893.575	14145
893.697	14119
893.819	14290
893.941	14332
894.064	14267
894.186	14058
894.308	14180
894.43	14248
894.552	14385
894.674	14248
894.796	14168
894.918	14191
895.04	14271
895.161	14389
895.283	14313
895.405	14218
895.526	14149
895.648	14309
895.769	14290
895.891	14286
896.012	14244
896.134	14355
896.255	14385
896.376	14309
896.498	14351
896.619	14438
896.74	14317
896.861	14358
896.982	14705
897.103	14743
897.224	14537
897.345	14537
897.466	14617
897.587	14571
897.708	14746
897.828	14590
897.949	14552
898.07	14530
898.19	14644
898.311	14663
898.431	14606
898.552	14804
898.672	14743
898.792	14800
898.913	14716
899.033	14594
899.153	14598
899.273	14480
899.393	14454
899.513	14606
899.633	14590
899.753	14678
899.873	14396
899.993	14606
900.113	14393
900.232	14571
900.352	14473
900.472	14434
900.591	14396
900.711	14374
900.83	14313
900.95	14465
901.069	14518
901.189	14298
901.308	14043
901.427	13989
901.546	14149
901.665	14092
901.784	14126
901.904	13963
902.023	13852
902.141	13727
902.26	13658
902.379	13715
902.498	13666
902.617	13674
902.735	13636
902.854	13597
902.973	13586
903.091	13350
903.21	13301
903.328	13392
903.446	13327
903.565	13110
903.683	13217
903.801	13160
903.919	13164
904.038	13129
904.156	13088
904.274	13171
904.392	13057
904.51	13004
904.627	13015
904.745	13152
904.863	13080
904.981	12878
905.098	12726
905.216	12700
905.334	12749
905.451	12814
905.569	12635
905.686	12722
905.803	12722
905.921	12532
906.038	12639
906.155	12517
906.272	12433
906.389	12403
906.506	12357
906.623	12403
906.74	12258
906.857	12277
906.974	12220
907.091	12327
907.208	12399
907.324	12346
907.441	12190
907.557	12045
907.674	12125
907.79	12022
907.907	11923
908.023	12152
908.139	12091
908.256	11969
908.372	11980
908.488	11965
908.604	11840
908.72	11775
908.836	11813
908.952	11790
909.068	11775
909.184	11946
909.3	11840
909.415	11885
909.531	11798
909.647	11608
909.762	11581
909.878	11505
909.993	11615
910.108	11581
910.224	11551
910.339	11581
910.454	11444
910.57	11501
910.685	11410
910.8	11695
910.915	11592
911.03	11467
911.145	11277
911.259	11277
911.374	11235
911.489	11181
911.604	11140
911.718	11064
911.833	11132
911.947	10946
912.062	10889
912.176	11060
912.291	11090
912.405	10972
912.519	11216
912.633	11220
912.748	11090
912.862	11041
912.976	10915
913.09	10767
913.204	10854
913.318	10915
913.431	11029
913.545	11018
913.659	11041
913.772	10942
913.886	10786
914	10790
914.113	10927
914.226	10942
914.34	10915
914.453	10653
914.566	10881
914.68	10778
914.793	10679
914.906	10622
915.019	10580
915.132	10478
915.245	10573
915.358	10615
915.47	10558
915.583	10523
915.696	10588
915.809	10691
915.921	10736
916.034	10546
916.146	10455
916.259	10478
916.371	10577
916.483	10584
916.595	10500
916.708	10527
916.82	10489
916.932	10379
917.044	10455
917.156	10440
917.268	10314
917.38	10371
917.491	10318
917.603	10432
917.715	10497
917.826	10428
917.938	10360
918.049	10211
918.161	10432
918.272	10535
918.384	10512
918.495	10409
918.606	10246
918.717	10147
918.828	10249
918.939	10246
919.05	10169
919.161	10295
919.272	10082
919.383	10078
919.494	10348
919.604	10470
919.715	10291
919.826	10265
919.936	10287
920.047	10299
920.157	10344
920.267	10470
920.378	10310
920.488	10276
920.598	10417
920.708	10618
920.818	10500
920.928	10459
921.038	10683
921.148	10554
921.258	10333
921.368	10188
921.477	10196
921.587	10048
921.697	9994
921.806	10147
921.916	10044
922.025	9804
922.134	9869
922.244	9770
922.353	9857
922.462	9736
922.571	9660
922.68	9519
922.789	9481
922.898	9519
923.007	9500
923.116	9576
923.224	9496
923.333	9473
923.442	9416
923.55	9393
923.659	9420
923.767	9526
923.876	9382
923.984	9435
924.092	9321
924.201	9355
924.309	9416
924.417	9431
924.525	9306
924.633	9405
924.741	10230
924.849	9161
924.956	9260
925.064	9192
925.172	9051
925.279	9184
925.387	9192
925.494	9192
925.602	9287
925.709	9275
925.816	9024
925.924	9146
926.031	9294
926.138	9116
926.245	9195
926.352	9066
926.459	9287
926.566	9325
926.673	9131
926.779	8990
926.886	8994
926.993	8872
927.099	8868
927.206	8826
927.312	8849
927.419	8941
927.525	8864
927.631	8891
927.737	8830
927.843	8735
927.95	8632
928.056	8724
928.162	8739
928.267	8712
928.373	9405
928.479	8883
928.585	8686
928.69	8735
928.796	8781
928.901	8712
929.007	8606
929.112	8705
929.218	8705
929.323	8655
929.428	8571
929.533	8792
929.638	8488
929.743	8541
929.848	8613
929.953	8571
930.058	8454
930.163	8347
930.267	8374
930.372	8480
930.477	8389
930.581	8545
930.685	8404
930.79	8358
930.894	8267
930.998	8267
931.103	8526
931.207	8069
931.311	8069
931.415	8012
931.519	7784
931.623	7811
