Data from test_V78500241_2917.txt Node
Date: Fri Mar 25 14:54:01 CST 2022
User: usil
Spectrometer: V785-0024
Trigger mode: 0
Integration Time (sec): 4.000000E-1
Scans to average: 1
Nonlinearity correction enabled: false
Boxcar width: 0
Storing dark spectrum: false
XAxis mode: Wavelengths
Number of Pixels in Spectrum: 1024
>>>>>Begin Spectral Data<<<<<
801.071	22082
801.214	21972
801.356	21755
801.499	21660
801.641	21439
801.783	21443
801.926	21523
802.068	21344
802.211	21367
802.353	21108
802.496	21100
802.638	20994
802.78	20918
802.923	20743
803.065	20750
803.208	20743
803.35	20811
803.492	20769
803.635	21028
803.777	20758
803.919	20845
804.061	21001
804.204	20914
804.346	20640
804.488	20765
804.63	20701
804.773	20754
804.915	20739
805.057	20807
805.199	20762
805.341	20735
805.483	20819
805.626	20701
805.768	20701
805.91	20765
806.052	20743
806.194	20522
806.336	20792
806.478	20686
806.62	20655
806.762	20788
806.904	20876
807.046	21146
807.188	20853
807.33	21028
807.472	21036
807.614	20918
807.756	20929
807.898	20914
808.04	20769
808.182	20807
808.324	20705
808.465	20746
808.607	20883
808.749	21020
808.891	21020
809.033	21272
809.174	21195
809.316	21055
809.458	21119
809.6	21051
809.741	21017
809.883	21043
810.025	21252
810.166	21211
810.308	21237
810.45	21184
810.591	21074
810.733	21020
810.875	20967
811.016	20758
811.158	20785
811.299	20849
811.441	21032
811.582	20952
811.724	20895
811.865	20758
812.007	20853
812.148	20845
812.29	20849
812.431	21066
812.573	21055
812.714	21211
812.855	21431
812.997	21401
813.138	21564
813.279	21450
813.421	21241
813.562	21359
813.703	21005
813.845	21051
813.986	20667
814.127	20564
814.268	20374
814.41	20389
814.551	20275
814.692	20480
814.833	20328
814.974	20336
815.115	20305
815.256	20180
815.397	20366
815.539	20225
815.68	20183
815.821	20077
815.962	20145
816.103	20050
816.244	19986
816.385	19772
816.526	19769
816.666	19700
816.807	19521
816.948	19590
817.089	19689
817.23	19689
817.371	19559
817.512	19343
817.653	19483
817.793	19453
817.934	19514
818.075	19525
818.216	19590
818.356	19400
818.497	19369
818.638	19145
818.778	19148
818.919	19263
819.06	19282
819.2	19312
819.341	19381
819.481	19308
819.622	19510
819.762	19685
819.903	19586
820.043	19620
820.184	19533
820.324	19449
820.465	19578
820.605	19499
820.746	19521
820.886	19350
821.026	19518
821.167	19316
821.307	19460
821.447	19430
821.588	19403
821.728	19168
821.868	18985
822.008	18859
822.149	18981
822.289	18890
822.429	18620
822.569	18574
822.709	18574
822.849	18342
822.99	18403
823.13	18399
823.27	18441
823.41	18106
823.55	18117
823.69	18186
823.83	18133
823.97	18125
824.11	17950
824.25	17939
824.389	17863
824.529	17885
824.669	17988
824.809	18053
824.949	18045
825.089	18030
825.228	17977
825.368	17786
825.508	17836
825.648	17653
825.787	17783
825.927	17821
826.067	17695
826.206	17737
826.346	17786
826.485	17726
826.625	17668
826.765	17836
826.904	17733
827.044	17554
827.183	17493
827.323	17360
827.462	17402
827.601	17197
827.741	17467
827.88	17440
828.02	17353
828.159	17288
828.298	17547
828.437	17410
828.577	17455
828.716	17452
828.855	17436
828.994	17235
829.134	17140
829.273	17162
829.412	17178
829.551	17212
829.69	17151
829.829	17250
829.968	17204
830.107	17136
830.246	17170
830.385	17132
830.524	16984
830.663	17037
830.802	16911
830.941	16862
831.08	16771
831.219	16904
831.357	16900
831.496	17048
831.635	16782
831.774	16717
831.913	16630
832.051	16561
832.19	16504
832.329	16668
832.467	16489
832.606	16375
832.744	16443
832.883	16470
833.022	16462
833.16	16459
833.299	16512
833.437	16455
833.576	16596
833.714	16447
833.852	16481
833.991	16516
834.129	16607
834.267	16470
834.406	16436
834.544	16649
834.682	16451
834.821	16459
834.959	16668
835.097	16421
835.235	16592
835.373	16618
835.511	16478
835.65	16375
835.788	16322
835.926	16249
836.064	16291
836.202	16284
836.34	16428
836.478	16432
836.615	16470
836.753	16489
836.891	16527
837.029	16504
837.167	16352
837.305	16230
837.443	16310
837.58	16352
837.718	16325
837.856	16306
837.993	16219
838.131	16295
838.269	16272
838.406	16207
838.544	16128
838.681	16055
838.819	16048
838.956	15842
839.094	15846
839.231	15857
839.369	16013
839.506	16265
839.643	15991
839.781	15842
839.918	15778
840.055	15831
840.193	15800
840.33	15800
840.467	15823
840.604	15751
840.742	16154
840.879	15720
841.016	15755
841.153	15766
841.29	15922
841.427	15797
841.564	15918
841.701	15785
841.838	15774
841.975	15728
842.112	15739
842.249	15641
842.385	15530
842.522	15762
842.659	15584
842.796	15496
842.933	15564
843.069	15591
843.206	15595
843.343	15701
843.479	15682
843.616	15637
843.752	15302
843.889	15420
844.025	15576
844.162	15412
844.298	15500
844.435	15420
844.571	15313
844.708	15435
844.844	15462
844.98	15534
845.117	15534
845.253	15363
845.389	15268
845.525	15317
845.661	15222
845.798	15176
845.934	15218
846.07	15188
846.206	15146
846.342	15344
846.478	15192
846.614	15009
846.75	14944
846.886	14956
847.022	15085
847.158	15024
847.294	14941
847.429	15051
847.565	14956
847.701	15264
847.837	14762
847.972	14731
848.108	14712
848.244	14701
848.379	14617
848.515	14568
848.65	14473
848.786	14602
848.921	14541
849.057	14743
849.192	14651
849.328	14602
849.463	14648
849.598	14541
849.734	14495
849.869	14476
850.004	14332
850.14	14408
850.275	14324
850.41	14328
850.545	14267
850.68	14229
850.815	14351
850.95	14282
851.085	14511
851.22	14404
851.355	14347
851.49	14259
851.625	14233
851.76	14370
851.895	14294
852.03	14278
852.165	14343
852.299	14309
852.434	14290
852.569	14343
852.703	14267
852.838	14412
852.973	14503
853.107	14431
853.242	14278
853.376	14180
853.511	14130
853.645	14256
853.78	14374
853.914	14244
854.048	14157
854.183	14058
854.317	14187
854.451	14358
854.585	14119
854.72	14145
854.854	14218
854.988	14073
855.122	14168
855.256	14012
855.39	14123
855.524	14286
855.658	14244
855.792	14282
855.926	14256
856.06	14275
856.194	14309
856.327	14157
856.461	14225
856.595	14187
856.729	14138
856.862	14328
856.996	14157
857.13	14168
857.263	14324
857.397	14355
857.53	14267
857.664	14229
857.797	14278
857.931	14298
858.064	14161
858.197	14259
858.331	14225
858.464	14172
858.597	14058
858.731	14138
858.864	14237
858.997	14126
859.13	14191
859.263	14301
859.396	14320
859.529	14275
859.662	14107
859.795	14123
859.928	14275
860.061	14328
860.194	14393
860.327	14286
860.46	14206
860.592	14301
860.725	14362
860.858	14324
860.99	14145
861.123	14134
861.256	14199
861.388	14180
861.521	14781
861.653	14058
861.786	14115
861.918	14031
862.05	14084
862.183	14195
862.315	14229
862.447	14202
862.58	14172
862.712	13944
862.844	13902
862.976	14065
863.108	13986
863.24	14275
863.372	13963
863.504	13925
863.636	13993
863.768	14092
863.9	14111
864.032	13974
864.164	14024
864.296	14039
864.428	14103
864.559	14024
864.691	14077
864.823	14001
864.954	14031
865.086	14027
865.217	13925
865.349	13947
865.48	14005
865.612	13955
865.743	14077
865.875	14020
866.006	13936
866.137	14001
866.269	13894
866.4	13963
866.531	13909
866.662	13890
866.793	13906
866.924	13879
867.055	14012
867.186	13925
867.317	13864
867.448	13921
867.579	13940
867.71	13849
867.841	13795
867.972	13921
868.103	13925
868.233	13989
868.364	13989
868.495	14035
868.625	14320
868.756	14271
868.886	14043
869.017	14172
869.147	14362
869.278	14263
869.408	14229
869.539	14336
869.669	14256
869.799	14248
869.929	14317
870.06	14332
870.19	14522
870.32	14514
870.45	14575
870.58	14606
870.71	14765
870.84	14674
870.97	14590
871.1	14625
871.23	14785
871.36	14792
871.489	14689
871.619	14792
871.749	14796
871.879	14807
872.008	14826
872.138	14864
872.267	14838
872.397	14663
872.526	14533
872.656	14689
872.785	14583
872.915	14857
873.044	14883
873.173	14910
873.303	14842
873.432	14872
873.561	14948
873.69	14868
873.819	14872
873.948	15032
874.077	14895
874.206	14902
874.335	14921
874.464	15093
874.593	15184
874.722	15089
874.851	15222
874.979	15199
875.108	15317
875.237	15146
875.365	15009
875.494	15112
875.623	15222
875.751	15127
875.88	15157
876.008	15211
876.136	15389
876.265	15671
876.393	15816
876.521	15694
876.65	15542
876.778	15667
876.906	15618
877.034	15572
877.162	15572
877.29	15500
877.418	15610
877.546	15587
877.674	15473
877.802	15568
877.93	15622
878.058	15538
878.185	15389
878.313	15462
878.441	15553
878.568	15397
878.696	15526
878.824	15652
878.951	15625
879.079	15698
879.206	15880
879.333	15728
879.461	15625
879.588	15739
879.715	15781
879.842	15884
879.97	15682
880.097	15431
880.224	15435
880.351	15473
880.478	15462
880.605	15260
880.732	15412
880.859	15641
880.986	15511
881.112	15492
881.239	15211
881.366	15222
881.493	15119
881.619	15199
881.746	15150
881.872	15089
881.999	15165
882.125	15108
882.252	15119
882.378	15112
882.505	15233
882.631	15036
882.757	14918
882.883	14906
883.01	14960
883.136	14864
883.262	14853
883.388	14796
883.514	14925
883.64	14921
883.766	14952
883.892	14712
884.018	14739
884.143	14891
884.269	14944
884.395	14750
884.52	14606
884.646	14648
884.772	14568
884.897	14503
885.023	14659
885.148	14640
885.274	14804
885.399	14724
885.524	14610
885.65	14686
885.775	14697
885.9	14617
886.025	14754
886.15	14632
886.275	14568
886.4	14560
886.525	14560
886.65	14495
886.775	14476
886.9	14708
887.025	14944
887.149	14674
887.274	14442
887.399	14454
887.523	14396
887.648	14298
887.773	14419
887.897	14484
888.021	14488
888.146	14465
888.27	14598
888.395	14526
888.519	14617
888.643	14465
888.767	14488
888.891	14419
889.015	14332
889.139	14309
889.263	14282
889.387	14393
889.511	14507
889.635	14571
889.759	14351
889.883	14298
890.006	14343
890.13	14454
890.254	14221
890.377	14317
890.501	14096
890.624	14221
890.748	14214
890.871	14016
890.995	13997
891.118	13902
891.241	14100
891.364	14027
891.488	14031
891.611	14035
891.734	14103
891.857	14008
891.98	14123
892.103	14035
892.226	14005
892.349	13959
892.471	13868
892.594	13959
892.717	13997
892.839	13982
892.962	14035
893.085	14054
893.207	14031
893.33	13970
893.452	13997
893.575	14096
893.697	13947
893.819	14180
893.941	14123
894.064	14187
894.186	14016
894.308	13982
894.43	14180
894.552	14225
894.674	14107
894.796	13932
894.918	14107
895.04	14073
895.161	14073
895.283	14256
895.405	14016
895.526	14096
895.648	14172
895.769	14130
895.891	14206
896.012	14309
896.134	14290
896.255	14187
896.376	14199
896.498	14202
896.619	14183
896.74	14176
896.861	14267
896.982	14564
897.103	14678
897.224	14507
897.345	14480
897.466	14450
897.587	14492
897.708	14621
897.828	14492
897.949	14431
898.07	14294
898.19	14457
898.311	14621
898.431	14556
898.552	14476
898.672	14617
898.792	14602
898.913	14568
899.033	14507
899.153	14415
899.273	14366
899.393	14389
899.513	14339
899.633	14328
899.753	14454
899.873	14381
899.993	14476
900.113	14385
900.232	14427
900.352	14412
900.472	14271
900.591	14290
900.711	14263
900.83	14187
900.95	14412
901.069	14370
901.189	14221
901.308	13906
901.427	13906
901.546	14027
901.665	13947
901.784	13959
901.904	13769
902.023	13791
902.141	13677
902.26	13453
902.379	13647
902.498	13468
902.617	13377
902.735	13624
902.854	13502
902.973	13487
903.091	13278
903.21	13289
903.328	13259
903.446	13179
903.565	13114
903.683	13114
903.801	13110
903.919	13156
904.038	13088
904.156	12935
904.274	12996
904.392	12859
904.51	12905
904.627	12875
904.745	12909
904.863	13004
904.981	12700
905.098	12608
905.216	12555
905.334	12635
905.451	12574
905.569	12585
905.686	12669
905.803	12578
905.921	12384
906.038	12589
906.155	12429
906.272	12338
906.389	12285
906.506	12133
906.623	12182
906.74	12182
906.857	12064
906.974	12072
907.091	12296
907.208	12296
907.324	12152
907.441	12140
907.557	11908
907.674	11855
907.79	11882
907.907	11893
908.023	11961
908.139	11950
908.256	11866
908.372	11840
908.488	11855
908.604	11691
908.72	11741
908.836	11707
908.952	11653
909.068	11703
909.184	11775
909.3	11714
909.415	11756
909.531	11695
909.647	11509
909.762	11474
909.878	11436
909.993	11425
910.108	11429
910.224	11349
910.339	11532
910.454	11448
910.57	11368
910.685	11185
910.8	11539
910.915	11482
911.03	11345
911.145	11227
911.259	11098
911.374	11197
911.489	11102
911.604	11075
911.718	10949
911.833	10919
911.947	10793
912.062	10759
912.176	10896
912.291	10919
912.405	10965
912.519	11018
912.633	11147
912.748	10995
912.862	10889
912.976	10866
913.09	10603
913.204	10736
913.318	10816
913.431	10900
913.545	10957
913.659	10881
913.772	10790
913.886	10691
914	10656
914.113	10767
914.226	10805
914.34	10786
914.453	10615
914.566	10706
914.68	10691
914.793	10645
914.906	10360
915.019	10413
915.132	10386
915.245	10424
915.358	10436
915.47	10409
915.583	10352
915.696	10542
915.809	10611
915.921	10645
916.034	10440
916.146	10356
916.259	10424
916.371	10478
916.483	10424
916.595	10348
916.708	10402
916.82	10432
916.932	10337
917.044	10333
917.156	10409
917.268	10276
917.38	10215
917.491	10207
917.603	10303
917.715	10306
917.826	10341
917.938	10223
918.049	10169
918.161	10272
918.272	10379
918.384	10405
918.495	10272
918.606	10173
918.717	10101
918.828	10139
918.939	10166
919.05	10090
919.161	10059
919.272	9941
919.383	10013
919.494	10150
919.604	10329
919.715	10257
919.826	10067
919.936	10150
920.047	10234
920.157	10147
920.267	10390
920.378	10249
920.488	10215
920.598	10360
920.708	10558
920.818	10344
920.928	10352
921.038	10603
921.148	10455
921.258	10249
921.368	10071
921.477	10048
921.587	9903
921.697	9835
921.806	10013
921.916	9903
922.025	9747
922.134	9740
922.244	9618
922.353	9759
922.462	9595
922.571	9557
922.68	9378
922.789	9428
922.898	9393
923.007	9405
923.116	9477
923.224	9355
923.333	9439
923.442	9268
923.55	9310
923.659	9378
923.767	9370
923.876	9222
923.984	9302
924.092	9233
924.201	9241
924.309	9313
924.417	9306
924.525	9233
924.633	9226
924.741	10154
924.849	9097
924.956	9237
925.064	9017
925.172	8990
925.279	9108
925.387	9066
925.494	9024
925.602	9154
925.709	9112
925.816	8952
925.924	9127
926.031	9104
926.138	9116
926.245	9157
926.352	8956
926.459	9135
926.566	9123
926.673	9039
926.779	8956
926.886	8967
926.993	8769
927.099	8766
927.206	8720
927.312	8689
927.419	8800
927.525	8830
927.631	8849
927.737	8773
927.843	8674
927.95	8579
928.056	8659
928.162	8689
928.267	8754
928.373	9294
928.479	8750
928.585	8530
928.69	8693
928.796	8743
928.901	8564
929.007	8530
929.112	8610
929.218	8583
929.323	8594
929.428	8522
929.533	8636
929.638	8492
929.743	8457
929.848	8587
929.953	8533
930.058	8408
930.163	8320
930.267	8263
930.372	8381
930.477	8199
930.581	8530
930.685	8396
930.79	8221
930.894	8362
930.998	8202
931.103	8366
931.207	8027
931.311	7982
931.415	7928
931.519	7780
931.623	7753
