Data from test_V78500241_1018.txt Node
Date: Fri Mar 25 14:40:48 CST 2022
User: usil
Spectrometer: V785-0024
Trigger mode: 0
Integration Time (sec): 4.000000E-1
Scans to average: 1
Nonlinearity correction enabled: false
Boxcar width: 0
Storing dark spectrum: false
XAxis mode: Wavelengths
Number of Pixels in Spectrum: 1024
>>>>>Begin Spectral Data<<<<<
801.071	22938
801.214	22915
801.356	22649
801.499	22580
801.641	22402
801.783	22329
801.926	22325
802.068	22238
802.211	22196
802.353	22234
802.496	21816
802.638	21823
802.78	21903
802.923	21694
803.065	21736
803.208	21709
803.35	21827
803.492	21690
803.635	21873
803.777	21644
803.919	21770
804.061	22093
804.204	21800
804.346	21656
804.488	21568
804.63	21709
804.773	21618
804.915	21694
805.057	21778
805.199	21705
805.341	21713
805.483	21808
805.626	21732
805.768	21682
805.91	21644
806.052	21587
806.194	21542
806.336	21865
806.478	21728
806.62	21785
806.762	21903
806.904	21960
807.046	22196
807.188	22116
807.33	22124
807.472	22211
807.614	22021
807.756	22310
807.898	22192
808.04	22101
808.182	22287
808.324	22272
808.465	22538
808.607	22835
808.749	22980
808.891	23102
809.033	23246
809.174	23083
809.316	22706
809.458	22740
809.6	22493
809.741	22561
809.883	22409
810.025	22512
810.166	22481
810.308	22394
810.45	22459
810.591	22287
810.733	22013
810.875	22135
811.016	21949
811.158	21926
811.299	21922
811.441	22177
811.582	22025
811.724	22048
811.865	21857
812.007	21918
812.148	21865
812.29	21838
812.431	22090
812.573	22204
812.714	22219
812.855	22379
812.997	22535
813.138	22485
813.279	22451
813.421	22360
813.562	22390
813.703	22166
813.845	21930
813.986	21778
814.127	21557
814.268	21519
814.41	21431
814.551	21408
814.692	21412
814.833	21291
814.974	21359
815.115	21245
815.256	21222
815.397	21169
815.539	21317
815.68	21211
815.821	21169
815.962	21138
816.103	21188
816.244	21013
816.385	20918
816.526	20868
816.666	20689
816.807	20514
816.948	20758
817.089	20750
817.23	20469
817.371	20594
817.512	20575
817.653	20583
817.793	20575
817.934	20587
818.075	20568
818.216	20590
818.356	20431
818.497	20381
818.638	20248
818.778	20168
818.919	20290
819.06	20111
819.2	20393
819.341	20374
819.481	20415
819.622	20431
819.762	20804
819.903	20777
820.043	20663
820.184	20571
820.324	20648
820.465	20651
820.605	20602
820.746	20488
820.886	20469
821.026	20446
821.167	20499
821.307	20571
821.447	20400
821.588	20275
821.728	20271
821.868	20172
822.008	19883
822.149	19860
822.289	19799
822.429	19635
822.569	19563
822.709	19616
822.849	19472
822.99	19518
823.13	19430
823.27	19301
823.41	19289
823.55	19236
823.69	19289
823.83	19236
823.97	19209
824.11	19023
824.25	18996
824.389	19034
824.529	19008
824.669	19053
824.809	19122
824.949	19122
825.089	19023
825.228	19046
825.368	18837
825.508	18757
825.648	18741
825.787	18848
825.927	18757
826.067	18768
826.206	18677
826.346	18795
826.485	18757
826.625	18894
826.765	18890
826.904	18795
827.044	18639
827.183	18502
827.323	18494
827.462	18532
827.601	18506
827.741	18426
827.88	18574
828.02	18270
828.159	18490
828.298	18479
828.437	18563
828.577	18422
828.716	18544
828.855	18357
828.994	18304
829.134	18270
829.273	18327
829.412	18174
829.551	18136
829.69	18216
829.829	18148
829.968	18235
830.107	18273
830.246	18296
830.385	18178
830.524	18045
830.663	17977
830.802	17828
830.941	17786
831.08	17752
831.219	17870
831.357	17843
831.496	18053
831.635	17737
831.774	17813
831.913	17668
832.051	17592
832.19	17634
832.329	17608
832.467	17433
832.606	17516
832.744	17551
832.883	17505
833.022	17554
833.16	17596
833.299	17756
833.437	17505
833.576	17642
833.714	17570
833.852	17627
833.991	17562
834.129	17638
834.267	17570
834.406	17642
834.544	17665
834.682	17581
834.821	17551
834.959	17767
835.097	17478
835.235	17657
835.373	17676
835.511	17646
835.65	17490
835.788	17478
835.926	17292
836.064	17181
836.202	17265
836.34	17516
836.478	17402
836.615	17444
836.753	17421
836.891	17516
837.029	17543
837.167	17455
837.305	17360
837.443	17220
837.58	17315
837.718	17326
837.856	17292
837.993	17284
838.131	17261
838.269	17250
838.406	17170
838.544	17143
838.681	16980
838.819	16911
838.956	16900
839.094	16774
839.231	16957
839.369	16991
839.506	17170
839.643	17162
839.781	16869
839.918	16656
840.055	16881
840.193	16927
840.33	16774
840.467	16831
840.604	16881
840.742	17025
840.879	16755
841.016	16717
841.153	16733
841.29	16980
841.427	16797
841.564	16889
841.701	16892
841.838	16630
841.975	16801
842.112	16763
842.249	16535
842.385	16554
842.522	16710
842.659	16558
842.796	16535
842.933	16630
843.069	16504
843.206	16546
843.343	16660
843.479	16596
843.616	16558
843.752	16538
843.889	16504
844.025	16489
844.162	16318
844.298	16455
844.435	16493
844.571	16303
844.708	16451
844.844	16577
844.98	16599
845.117	16542
845.253	16500
845.389	16417
845.525	16653
845.661	16706
845.798	17113
845.934	17132
846.07	17307
846.206	17452
846.342	17398
846.478	16900
846.614	16390
846.75	16185
846.886	16109
847.022	16101
847.158	16086
847.294	16029
847.429	15983
847.565	15960
847.701	16185
847.837	15789
847.972	15667
848.108	15797
848.244	15766
848.379	15553
848.515	15519
848.65	15530
848.786	15523
848.921	15633
849.057	15610
849.192	15724
849.328	15595
849.463	15572
849.598	15652
849.734	15473
849.869	15420
850.004	15359
850.14	15348
850.275	15412
850.41	15260
850.545	15230
850.68	15272
850.815	15268
850.95	15298
851.085	15477
851.22	15500
851.355	15332
851.49	15287
851.625	15230
851.76	15241
851.895	15237
852.03	15192
852.165	15321
852.299	15291
852.434	15378
852.569	15435
852.703	15416
852.838	15359
852.973	15466
853.107	15401
853.242	15157
853.376	15192
853.511	14998
853.645	15195
853.78	15317
853.914	15226
854.048	15093
854.183	15199
854.317	15108
854.451	15279
854.585	15157
854.72	15119
854.854	15268
854.988	15074
855.122	15116
855.256	15039
855.39	15085
855.524	15222
855.658	15192
855.792	15085
855.926	15203
856.06	15180
856.194	15195
856.327	15180
856.461	15039
856.595	15097
856.729	15188
856.862	15329
856.996	15161
857.13	15188
857.263	15272
857.397	15313
857.53	15161
857.664	15199
857.797	15192
857.931	15211
858.064	15176
858.197	15188
858.331	15104
858.464	15165
858.597	15039
858.731	15165
858.864	15070
858.997	15112
859.13	15180
859.263	15127
859.396	15161
859.529	15169
859.662	15017
859.795	15157
859.928	15195
860.061	15351
860.194	15359
860.327	15214
860.46	15180
860.592	15317
860.725	15287
860.858	15207
860.99	15093
861.123	15062
861.256	15123
861.388	15157
861.521	15941
861.653	15028
861.786	15043
861.918	15001
862.05	15028
862.183	15097
862.315	15100
862.447	15123
862.58	15093
862.712	14933
862.844	14830
862.976	14902
863.108	14982
863.24	15192
863.372	14845
863.504	14918
863.636	14880
863.768	14963
863.9	14910
864.032	14895
864.164	14819
864.296	14857
864.428	15013
864.559	14979
864.691	14891
864.823	14921
864.954	15005
865.086	14857
865.217	14971
865.349	14834
865.48	14853
865.612	14857
865.743	15047
865.875	14853
866.006	14914
866.137	14921
866.269	14948
866.4	14891
866.531	14804
866.662	14838
866.793	14861
866.924	14857
867.055	14933
867.186	14819
867.317	14887
867.448	14769
867.579	14849
867.71	14773
867.841	14819
867.972	14830
868.103	14838
868.233	14857
868.364	14861
868.495	15001
868.625	15104
868.756	15165
868.886	14986
869.017	15131
869.147	15176
869.278	15188
869.408	15150
869.539	15089
869.669	15176
869.799	15222
869.929	15298
870.06	15287
870.19	15469
870.32	15386
870.45	15439
870.58	15431
870.71	15686
870.84	15656
870.97	15473
871.1	15481
871.23	15671
871.36	15720
871.489	15629
871.619	15686
871.749	15667
871.879	15637
872.008	15842
872.138	15759
872.267	15793
872.397	15656
872.526	15500
872.656	15610
872.785	15542
872.915	15808
873.044	15880
873.173	15770
873.303	15800
873.432	15884
873.561	15937
873.69	15755
873.819	15781
873.948	15770
874.077	15797
874.206	15846
874.335	15789
874.464	16025
874.593	16169
874.722	16021
874.851	16074
874.979	16128
875.108	16139
875.237	16116
875.365	16078
875.494	16101
875.623	16185
875.751	16124
875.88	16013
876.008	16295
876.136	16299
876.265	16478
876.393	16717
876.521	16592
876.65	16668
876.778	16497
876.906	16485
877.034	16455
877.162	16462
877.29	16512
877.418	16554
877.546	16443
877.674	16474
877.802	16565
877.93	16565
878.058	16466
878.185	16363
878.313	16580
878.441	16565
878.568	16481
878.696	16558
878.824	16698
878.951	16740
879.079	16927
879.206	17025
879.333	17041
879.461	17045
879.588	17200
879.715	17220
879.842	17303
879.97	17006
880.097	16569
880.224	16626
880.351	16546
880.478	16542
880.605	16554
880.732	16565
880.859	16710
880.986	16599
881.112	16558
881.239	16356
881.366	16272
881.493	16082
881.619	16131
881.746	16124
881.872	16044
881.999	16082
882.125	16093
882.252	16086
882.378	16086
882.505	16154
882.631	16029
882.757	15987
882.883	16074
883.01	15998
883.136	15903
883.262	15736
883.388	15873
883.514	15953
883.64	15964
883.766	15934
883.892	15778
884.018	15751
884.143	15972
884.269	16029
884.395	15694
884.52	15599
884.646	15614
884.772	15679
884.897	15530
885.023	15610
885.148	15774
885.274	15717
885.399	15732
885.524	15610
885.65	15572
885.775	15663
885.9	15686
886.025	15660
886.15	15728
886.275	15633
886.4	15545
886.525	15591
886.65	15492
886.775	15488
886.9	15713
887.025	15751
887.149	15576
887.274	15355
887.399	15287
887.523	15344
887.648	15420
887.773	15340
887.897	15492
888.021	15477
888.146	15370
888.27	15496
888.395	15473
888.519	15450
888.643	15340
888.767	15458
888.891	15252
889.015	15230
889.139	15332
889.263	15199
889.387	15359
889.511	15447
889.635	15424
889.759	15131
889.883	15245
890.006	15207
890.13	15298
890.254	15142
890.377	15214
890.501	14982
890.624	15020
890.748	15055
890.871	14902
890.995	14952
891.118	14727
891.241	14921
891.364	14910
891.488	15039
891.611	14963
891.734	14785
891.857	14861
891.98	14823
892.103	15005
892.226	14971
892.349	14876
892.471	14659
892.594	14800
892.717	14880
892.839	14845
892.962	14807
893.085	14906
893.207	14823
893.33	14648
893.452	14697
893.575	14883
893.697	14838
893.819	15017
893.941	15070
894.064	14944
894.186	14807
894.308	14746
894.43	15009
894.552	15055
894.674	15020
894.796	14838
894.918	14952
895.04	14819
895.161	14952
895.283	14994
895.405	14895
895.526	14899
895.648	14986
895.769	14948
895.891	15009
896.012	15036
896.134	15032
896.255	15047
896.376	14925
896.498	14956
896.619	14967
896.74	15070
896.861	15112
896.982	15252
897.103	15507
897.224	15378
897.345	15199
897.466	15211
897.587	15340
897.708	15279
897.828	15310
897.949	15199
898.07	15192
898.19	15161
898.311	15397
898.431	15218
898.552	15378
898.672	15462
898.792	15336
898.913	15393
899.033	15237
899.153	15218
899.273	15116
899.393	15218
899.513	15184
899.633	15176
899.753	15127
899.873	15184
899.993	15230
900.113	15150
900.232	15176
900.352	15138
900.472	15066
900.591	15051
900.711	14975
900.83	15028
900.95	15116
901.069	15230
901.189	15024
901.308	14785
901.427	14720
901.546	14781
901.665	14746
901.784	14701
901.904	14598
902.023	14492
902.141	14377
902.26	14176
902.379	14419
902.498	14248
902.617	14221
902.735	14309
902.854	14305
902.973	14149
903.091	13913
903.21	14035
903.328	13944
903.446	13845
903.565	13742
903.683	13936
903.801	13696
903.919	13788
904.038	13696
904.156	13632
904.274	13723
904.392	13609
904.51	13582
904.627	13453
904.745	13620
904.863	13651
904.981	13419
905.098	13274
905.216	13362
905.334	13274
905.451	13266
905.569	13358
905.686	13373
905.803	13362
905.921	13175
906.038	13133
906.155	13118
906.272	13008
906.389	13015
906.506	12882
906.623	12768
906.74	12871
906.857	12802
906.974	12829
907.091	12920
907.208	12996
907.324	12852
907.441	12882
907.557	12665
907.674	12635
907.79	12559
907.907	12589
908.023	12616
908.139	12635
908.256	12578
908.372	12525
908.488	12486
908.604	12452
908.72	12346
908.836	12350
908.952	12338
909.068	12369
909.184	12494
909.3	12456
909.415	12357
909.531	12403
909.647	12178
909.762	12201
909.878	12114
909.993	12136
910.108	12148
910.224	12125
910.339	12087
910.454	12083
910.57	12003
910.685	11851
910.8	12213
910.915	12136
911.03	11931
911.145	11874
911.259	11775
911.374	11786
911.489	11760
911.604	11691
911.718	11520
911.833	11558
911.947	11562
912.062	11315
912.176	11551
912.291	11611
912.405	11634
912.519	11771
912.633	11741
912.748	11592
912.862	11638
912.976	11440
913.09	11334
913.204	11356
913.318	11516
913.431	11562
913.545	11596
913.659	11634
913.772	11471
913.886	11360
914	11254
914.113	11330
914.226	11433
914.34	11410
914.453	11254
914.566	11528
914.68	11330
914.793	11280
914.906	11109
915.019	11086
915.132	11029
915.245	11109
915.358	11109
915.47	11117
915.583	11083
915.696	11090
915.809	11189
915.921	11204
916.034	11083
916.146	11037
916.259	10987
916.371	11147
916.483	11060
916.595	10923
916.708	11064
916.82	10976
916.932	10987
917.044	10999
917.156	11014
917.268	10889
917.38	10881
917.491	10881
917.603	10885
917.715	10934
917.826	10953
917.938	10904
918.049	10835
918.161	10911
918.272	11006
918.384	10968
918.495	10889
918.606	10725
918.717	10710
918.828	10778
918.939	10816
919.05	10668
919.161	10710
919.272	10485
919.383	10584
919.494	10771
919.604	10881
919.715	10752
919.826	10622
919.936	10786
920.047	10805
920.157	10759
920.267	10995
920.378	10805
920.488	10698
920.598	10987
920.708	11155
920.818	10877
920.928	10976
921.038	11128
921.148	11003
921.258	10847
921.368	10653
921.477	10615
921.587	10573
921.697	10481
921.806	10588
921.916	10504
922.025	10344
922.134	10280
922.244	10211
922.353	10333
922.462	10188
922.571	10177
922.68	9979
922.789	10017
922.898	9975
923.007	9953
923.116	10002
923.224	9911
923.333	9930
923.442	9835
923.55	9895
923.659	9831
923.767	9930
923.876	9861
923.984	9865
924.092	9781
924.201	9838
924.309	9804
924.417	9812
924.525	9766
924.633	9747
924.741	10641
924.849	9549
924.956	9823
925.064	9561
925.172	9500
925.279	9572
925.387	9663
925.494	9576
925.602	9755
925.709	9679
925.816	9515
925.924	9648
926.031	9698
926.138	9603
926.245	9568
926.352	9534
926.459	9663
926.566	9698
926.673	9519
926.779	9488
926.886	9424
926.993	9370
927.099	9298
927.206	9138
927.312	9268
927.419	9260
927.525	9321
927.631	9340
927.737	9253
927.843	9214
927.95	9077
928.056	9176
928.162	9195
928.267	9226
928.373	9793
928.479	9226
928.585	9009
928.69	9218
928.796	9161
928.901	9028
929.007	9043
929.112	9104
929.218	9112
929.323	8948
929.428	8895
929.533	9226
929.638	8994
929.743	8967
929.848	8982
929.953	8868
930.058	8868
930.163	8701
930.267	8762
930.372	8921
930.477	8800
930.581	8998
930.685	8823
930.79	8678
930.894	8731
930.998	8579
931.103	8804
931.207	8488
931.311	8457
931.415	8358
931.519	8157
931.623	8210
