Data from test_V78500241_2040.txt Node
Date: Fri Mar 25 14:47:55 CST 2022
User: usil
Spectrometer: V785-0024
Trigger mode: 0
Integration Time (sec): 4.000000E-1
Scans to average: 1
Nonlinearity correction enabled: false
Boxcar width: 0
Storing dark spectrum: false
XAxis mode: Wavelengths
Number of Pixels in Spectrum: 1024
>>>>>Begin Spectral Data<<<<<
801.071	22090
801.214	21895
801.356	21770
801.499	21606
801.641	21511
801.783	21397
801.926	21496
802.068	21500
802.211	21382
802.353	21226
802.496	21116
802.638	20971
802.78	20956
802.923	20815
803.065	20796
803.208	20815
803.35	20823
803.492	20979
803.635	20845
803.777	20727
803.919	20929
804.061	21211
804.204	20807
804.346	20735
804.488	20716
804.63	20693
804.773	20648
804.915	20762
805.057	20872
805.199	20720
805.341	20773
805.483	20792
805.626	20849
805.768	20613
805.91	20720
806.052	20826
806.194	20754
806.336	20902
806.478	20708
806.62	20632
806.762	20830
806.904	20906
807.046	21074
807.188	21020
807.33	21062
807.472	21024
807.614	20861
807.756	20925
807.898	20853
808.04	20811
808.182	20815
808.324	20899
808.465	20815
808.607	20979
808.749	21039
808.891	21142
809.033	21272
809.174	21211
809.316	21062
809.458	21138
809.6	21154
809.741	21233
809.883	21173
810.025	21325
810.166	21279
810.308	21272
810.45	21157
810.591	21070
810.733	21039
810.875	20861
811.016	20762
811.158	20735
811.299	20990
811.441	20918
811.582	20971
811.724	20830
811.865	20842
812.007	20910
812.148	20807
812.29	20861
812.431	20967
812.573	21165
812.714	21256
812.855	21332
812.997	21500
813.138	21545
813.279	21382
813.421	21332
813.562	21294
813.703	21173
813.845	20937
813.986	20811
814.127	20644
814.268	20419
814.41	20434
814.551	20320
814.692	20457
814.833	20282
814.974	20351
815.115	20446
815.256	20256
815.397	20309
815.539	20339
815.68	20168
815.821	20077
815.962	19993
816.103	20016
816.244	19974
816.385	19936
816.526	19860
816.666	19738
816.807	19556
816.948	19632
817.089	19651
817.23	19666
817.371	19525
817.512	19647
817.653	19468
817.793	19597
817.934	19445
818.075	19445
818.216	19571
818.356	19495
818.497	19285
818.638	19232
818.778	19282
818.919	19266
819.06	19209
819.2	19320
819.341	19438
819.481	19441
819.622	19590
819.762	19719
819.903	19662
820.043	19586
820.184	19529
820.324	19567
820.465	19578
820.605	19643
820.746	19544
820.886	19407
821.026	19499
821.167	19476
821.307	19544
821.447	19411
821.588	19346
821.728	19160
821.868	19118
822.008	18886
822.149	18916
822.289	18943
822.429	18726
822.569	18722
822.709	18658
822.849	18479
822.99	18441
823.13	18395
823.27	18395
823.41	18311
823.55	18144
823.69	18197
823.83	18258
823.97	18102
824.11	17965
824.25	17996
824.389	18064
824.529	18194
824.669	18022
824.809	18026
824.949	18026
825.089	18152
825.228	18019
825.368	17786
825.508	17817
825.648	17874
825.787	17889
825.927	17836
826.067	17805
826.206	17771
826.346	17699
826.485	17855
826.625	17729
826.765	17893
826.904	17786
827.044	17444
827.183	17554
827.323	17516
827.462	17516
827.601	17505
827.741	17535
827.88	17547
828.02	17387
828.159	17395
828.298	17440
828.437	17471
828.577	17421
828.716	17558
828.855	17421
828.994	17277
829.134	17337
829.273	17334
829.412	17189
829.551	17193
829.69	17239
829.829	17261
829.968	17322
830.107	17303
830.246	17220
830.385	17216
830.524	17178
830.663	17052
830.802	16873
830.941	16900
831.08	16930
831.219	16965
831.357	17018
831.496	16976
831.635	16858
831.774	16736
831.913	16805
832.051	16683
832.19	16500
832.329	16725
832.467	16618
832.606	16485
832.744	16508
832.883	16668
833.022	16413
833.16	16527
833.299	16641
833.437	16580
833.576	16634
833.714	16569
833.852	16592
833.991	16649
834.129	16653
834.267	16596
834.406	16691
834.544	16744
834.682	16672
834.821	16573
834.959	16801
835.097	16584
835.235	16630
835.373	16675
835.511	16626
835.65	16508
835.788	16497
835.926	16436
836.064	16344
836.202	16474
836.34	16565
836.478	16596
836.615	16535
836.753	16508
836.891	16641
837.029	16596
837.167	16546
837.305	16447
837.443	16424
837.58	16402
837.718	16405
837.856	16436
837.993	16356
838.131	16306
838.269	16268
838.406	16242
838.544	16234
838.681	16207
838.819	16059
838.956	15956
839.094	15979
839.231	15975
839.369	16101
839.506	16299
839.643	16238
839.781	16010
839.918	15899
840.055	16010
840.193	15941
840.33	15926
840.467	15964
840.604	16055
840.742	16291
840.879	15888
841.016	15888
841.153	15857
841.29	16150
841.427	15922
841.564	15968
841.701	15892
841.838	15907
841.975	15865
842.112	15846
842.249	15804
842.385	15694
842.522	15861
842.659	15846
842.796	15743
842.933	15709
843.069	15686
843.206	15705
843.343	15781
843.479	15789
843.616	15724
843.752	15610
843.889	15469
844.025	15686
844.162	15584
844.298	15618
844.435	15507
844.571	15435
844.708	15667
844.844	15557
844.98	15766
845.117	15610
845.253	15469
845.389	15416
845.525	15408
845.661	15389
845.798	15367
845.934	15359
846.07	15386
846.206	15355
846.342	15492
846.478	15359
846.614	15123
846.75	15081
846.886	15116
847.022	15180
847.158	15157
847.294	15081
847.429	15089
847.565	15089
847.701	15359
847.837	14845
847.972	14838
848.108	14883
848.244	14914
848.379	14800
848.515	14648
848.65	14743
848.786	14636
848.921	14613
849.057	14857
849.192	14823
849.328	14807
849.463	14785
849.598	14629
849.734	14701
849.869	14610
850.004	14530
850.14	14507
850.275	14492
850.41	14347
850.545	14450
850.68	14434
850.815	14495
850.95	14499
851.085	14606
851.22	14434
851.355	14454
851.49	14431
851.625	14484
851.76	14389
851.895	14313
852.03	14263
852.165	14507
852.299	14427
852.434	14514
852.569	14514
852.703	14412
852.838	14617
852.973	14514
853.107	14583
853.242	14415
853.376	14377
853.511	14214
853.645	14278
853.78	14404
853.914	14305
854.048	14259
854.183	14240
854.317	14347
854.451	14465
854.585	14328
854.72	14259
854.854	14298
854.988	14271
855.122	14278
855.256	14145
855.39	14294
855.524	14381
855.658	14347
855.792	14377
855.926	14355
856.06	14385
856.194	14400
856.327	14336
856.461	14233
856.595	14301
856.729	14290
856.862	14461
856.996	14332
857.13	14427
857.263	14370
857.397	14408
857.53	14210
857.664	14355
857.797	14461
857.931	14499
858.064	14408
858.197	14442
858.331	14317
858.464	14225
858.597	14286
858.731	14267
858.864	14317
858.997	14313
859.13	14381
859.263	14355
859.396	14408
859.529	14313
859.662	14339
859.795	14305
859.928	14336
860.061	14533
860.194	14442
860.327	14454
860.46	14286
860.592	14499
860.725	14446
860.858	14370
860.99	14328
861.123	14256
861.256	14275
861.388	14415
861.521	15039
861.653	14157
861.786	14073
861.918	14183
862.05	14278
862.183	14286
862.315	14374
862.447	14339
862.58	14218
862.712	14084
862.844	14084
862.976	14191
863.108	14157
863.24	14415
863.372	14103
863.504	14153
863.636	14134
863.768	14199
863.9	14069
864.032	13944
864.164	14119
864.296	14176
864.428	14202
864.559	14183
864.691	14244
864.823	14187
864.954	14161
865.086	14206
865.217	14134
865.349	13944
865.48	14157
865.612	14024
865.743	14221
865.875	14084
866.006	14027
866.137	14202
866.269	14050
866.4	13997
866.531	14081
866.662	13978
866.793	14039
866.924	14077
867.055	14081
867.186	14119
867.317	14050
867.448	13947
867.579	14012
867.71	13993
867.841	13959
867.972	14107
868.103	14081
868.233	14138
868.364	14031
868.495	14187
868.625	14404
868.756	14396
868.886	14206
869.017	14332
869.147	14343
869.278	14568
869.408	14263
869.539	14412
869.669	14484
869.799	14442
869.929	14484
870.06	14412
870.19	14663
870.32	14708
870.45	14697
870.58	14655
870.71	14815
870.84	14800
870.97	14762
871.1	14735
871.23	14834
871.36	14960
871.489	14823
871.619	14937
871.749	14982
871.879	15009
872.008	15074
872.138	14849
872.267	14967
872.397	14785
872.526	14731
872.656	14804
872.785	14815
872.915	14990
873.044	15157
873.173	15013
873.303	15005
873.432	15036
873.561	15047
873.69	15066
873.819	14925
873.948	15039
874.077	15081
874.206	14902
874.335	15036
874.464	15074
874.593	15367
874.722	15173
874.851	15233
874.979	15287
875.108	15378
875.237	15176
875.365	15203
875.494	15252
875.623	15302
875.751	15321
875.88	15310
876.008	15450
876.136	15542
876.265	15652
876.393	15922
876.521	15751
876.65	15850
876.778	15705
876.906	15690
877.034	15648
877.162	15713
877.29	15618
877.418	15625
877.546	15751
877.674	15717
877.802	15675
877.93	15686
878.058	15660
878.185	15545
878.313	15595
878.441	15663
878.568	15614
878.696	15701
878.824	15717
878.951	15743
879.079	15926
879.206	16013
879.333	15873
879.461	15816
879.588	15812
879.715	15778
879.842	16101
879.97	15831
880.097	15644
880.224	15458
880.351	15549
880.478	15686
880.605	15641
880.732	15614
880.859	15778
880.986	15545
881.112	15591
881.239	15382
881.366	15332
881.493	15214
881.619	15169
881.746	15264
881.872	15203
881.999	15131
882.125	15241
882.252	15302
882.378	15233
882.505	15382
882.631	15195
882.757	15062
882.883	15211
883.01	15070
883.136	15157
883.262	14826
883.388	14925
883.514	15077
883.64	15032
883.766	14963
883.892	14830
884.018	14921
884.143	15062
884.269	15154
884.395	14899
884.52	14743
884.646	14773
884.772	14655
884.897	14632
885.023	14731
885.148	14849
885.274	14914
885.399	14872
885.524	14724
885.65	14804
885.775	14819
885.9	14807
886.025	14956
886.15	14735
886.275	14678
886.4	14686
886.525	14629
886.65	14610
886.775	14663
886.9	14921
887.025	14960
887.149	14697
887.274	14636
887.399	14560
887.523	14476
887.648	14511
887.773	14484
887.897	14621
888.021	14590
888.146	14560
888.27	14648
888.395	14640
888.519	14644
888.643	14629
888.767	14651
888.891	14457
889.015	14385
889.139	14533
889.263	14434
889.387	14473
889.511	14632
889.635	14503
889.759	14431
889.883	14431
890.006	14431
890.13	14598
890.254	14339
890.377	14423
890.501	14263
890.624	14225
890.748	14351
890.871	14172
890.995	14142
891.118	14107
891.241	14298
891.364	14149
891.488	14317
891.611	14149
891.734	14199
891.857	14202
891.98	14050
892.103	14259
892.226	14199
892.349	14107
892.471	13997
892.594	14126
892.717	14176
892.839	14157
892.962	14092
893.085	14229
893.207	14191
893.33	14115
893.452	14012
893.575	14233
893.697	14157
893.819	14278
893.941	14400
894.064	14202
894.186	14138
894.308	14084
894.43	14210
894.552	14423
894.674	14218
894.796	14088
894.918	14073
895.04	14191
895.161	14301
895.283	14328
895.405	14191
895.526	14282
895.648	14301
895.769	14278
895.891	14271
896.012	14358
896.134	14339
896.255	14290
896.376	14294
896.498	14324
896.619	14305
896.74	14370
896.861	14492
896.982	14674
897.103	14769
897.224	14556
897.345	14568
897.466	14404
897.587	14552
897.708	14629
897.828	14629
897.949	14594
898.07	14434
898.19	14518
898.311	14716
898.431	14560
898.552	14575
898.672	14632
898.792	14807
898.913	14610
899.033	14503
899.153	14495
899.273	14427
899.393	14613
899.513	14545
899.633	14465
899.753	14511
899.873	14412
899.993	14636
900.113	14454
900.232	14518
900.352	14495
900.472	14339
900.591	14305
900.711	14355
900.83	14290
900.95	14484
901.069	14457
901.189	14389
901.308	14107
901.427	14043
901.546	14069
901.665	14054
901.784	14031
901.904	13970
902.023	13841
902.141	13670
902.26	13552
902.379	13559
902.498	13616
902.617	13567
902.735	13525
902.854	13734
902.973	13518
903.091	13419
903.21	13324
903.328	13312
903.446	13198
903.565	13190
903.683	13217
903.801	13038
903.919	13091
904.038	13091
904.156	13015
904.274	13053
904.392	12973
904.51	12943
904.627	12981
904.745	13072
904.863	13008
904.981	12741
905.098	12764
905.216	12696
905.334	12623
905.451	12726
905.569	12688
905.686	12753
905.803	12768
905.921	12517
906.038	12650
906.155	12589
906.272	12414
906.389	12471
906.506	12232
906.623	12289
906.74	12289
906.857	12182
906.974	12289
907.091	12323
907.208	12410
907.324	12289
907.441	12155
907.557	12095
907.674	12030
907.79	11942
907.907	11969
908.023	12030
908.139	12015
908.256	11977
908.372	11992
908.488	11980
908.604	11824
908.72	11722
908.836	11752
908.952	11737
909.068	11802
909.184	11912
909.3	11794
909.415	11798
909.531	11760
909.647	11608
909.762	11516
909.878	11501
909.993	11619
910.108	11535
910.224	11558
910.339	11600
910.454	11444
910.57	11360
910.685	11360
910.8	11585
910.915	11562
911.03	11383
911.145	11277
911.259	11322
911.374	11223
911.489	11166
911.604	11159
911.718	10987
911.833	10927
911.947	10854
912.062	10908
912.176	10942
912.291	11052
912.405	10987
912.519	11250
912.633	11185
912.748	11143
912.862	11025
912.976	10847
913.09	10797
913.204	10854
913.318	10866
913.431	10999
913.545	10946
913.659	11102
913.772	10904
913.886	10828
914	10698
914.113	10824
914.226	10896
914.34	10809
914.453	10694
914.566	10862
914.68	10733
914.793	10725
914.906	10535
915.019	10569
915.132	10478
915.245	10474
915.358	10512
915.47	10519
915.583	10531
915.696	10478
915.809	10675
915.921	10603
916.034	10508
916.146	10546
916.259	10436
916.371	10603
916.483	10542
916.595	10470
916.708	10417
916.82	10394
916.932	10428
917.044	10413
917.156	10451
917.268	10253
917.38	10295
917.491	10341
917.603	10291
917.715	10325
917.826	10466
917.938	10314
918.049	10276
918.161	10363
918.272	10481
918.384	10421
918.495	10356
918.606	10219
918.717	10150
918.828	10257
918.939	10173
919.05	10131
919.161	10173
919.272	10017
919.383	10090
919.494	10314
919.604	10474
919.715	10253
919.826	10173
919.936	10124
920.047	10287
920.157	10284
920.267	10432
920.378	10303
920.488	10158
920.598	10405
920.708	10565
920.818	10459
920.928	10303
921.038	10615
921.148	10538
921.258	10272
921.368	10200
921.477	10074
921.587	10040
921.697	9934
921.806	10101
921.916	9964
922.025	9766
922.134	9835
922.244	9724
922.353	9774
922.462	9682
922.571	9641
922.68	9488
922.789	9424
922.898	9492
923.007	9450
923.116	9580
923.224	9515
923.333	9367
923.442	9355
923.55	9325
923.659	9435
923.767	9450
923.876	9302
923.984	9428
924.092	9310
924.201	9298
924.309	9283
924.417	9321
924.525	9237
924.633	9393
924.741	10204
924.849	9116
924.956	9306
925.064	9112
925.172	9020
925.279	9047
925.387	9119
925.494	9142
925.602	9264
925.709	9237
925.816	9043
925.924	9138
926.031	9302
926.138	9184
926.245	9157
926.352	9108
926.459	9249
926.566	9142
926.673	9066
926.779	9017
926.886	8975
926.993	8872
927.099	8868
927.206	8880
927.312	8815
927.419	8937
927.525	8853
927.631	8956
927.737	8792
927.843	8792
927.95	8693
928.056	8724
928.162	8819
928.267	8750
928.373	9466
928.479	8883
928.585	8701
928.69	8689
928.796	8777
928.901	8678
929.007	8587
929.112	8735
929.218	8743
929.323	8613
929.428	8545
929.533	8697
929.638	8484
929.743	8602
929.848	8613
929.953	8613
930.058	8560
930.163	8374
930.267	8450
930.372	8587
930.477	8389
930.581	8564
930.685	8476
930.79	8343
930.894	8393
930.998	8332
931.103	8454
931.207	8088
931.311	8005
931.415	8001
931.519	7814
931.623	7792
