Data from test_V78500241_2340.txt Node
Date: Fri Mar 25 14:50:00 CST 2022
User: usil
Spectrometer: V785-0024
Trigger mode: 0
Integration Time (sec): 4.000000E-1
Scans to average: 1
Nonlinearity correction enabled: false
Boxcar width: 0
Storing dark spectrum: false
XAxis mode: Wavelengths
Number of Pixels in Spectrum: 1024
>>>>>Begin Spectral Data<<<<<
801.071	22131
801.214	22025
801.356	21736
801.499	21671
801.641	21454
801.783	21469
801.926	21576
802.068	21462
802.211	21310
802.353	21321
802.496	21142
802.638	21089
802.78	20975
802.923	20971
803.065	20720
803.208	20781
803.35	20811
803.492	20971
803.635	20857
803.777	20800
803.919	20921
804.061	21188
804.204	20910
804.346	20842
804.488	20838
804.63	20853
804.773	20712
804.915	20758
805.057	20819
805.199	20800
805.341	20887
805.483	20853
805.626	20941
805.768	20659
805.91	20777
806.052	20796
806.194	20674
806.336	20807
806.478	20826
806.62	20773
806.762	20849
806.904	21013
807.046	21241
807.188	21161
807.33	21028
807.472	21138
807.614	21047
807.756	20994
807.898	20868
808.04	20743
808.182	20807
808.324	20880
808.465	20880
808.607	21142
808.749	21195
808.891	21275
809.033	21359
809.174	21370
809.316	21218
809.458	21077
809.6	21036
809.741	21131
809.883	21272
810.025	21408
810.166	21397
810.308	21313
810.45	21283
810.591	21184
810.733	21043
810.875	20986
811.016	20963
811.158	20804
811.299	21077
811.441	21146
811.582	21036
811.724	20925
811.865	20918
812.007	20876
812.148	20868
812.29	20842
812.431	21020
812.573	21226
812.714	21283
812.855	21443
812.997	21614
813.138	21622
813.279	21587
813.421	21389
813.562	21405
813.703	21207
813.845	21218
813.986	20914
814.127	20613
814.268	20480
814.41	20560
814.551	20495
814.692	20484
814.833	20431
814.974	20530
815.115	20533
815.256	20218
815.397	20259
815.539	20370
815.68	20320
815.821	20005
815.962	20229
816.103	20145
816.244	20084
816.385	19967
816.526	19925
816.666	19784
816.807	19620
816.948	19693
817.089	19765
817.23	19666
817.371	19460
817.512	19643
817.653	19624
817.793	19556
817.934	19559
818.075	19620
818.216	19521
818.356	19518
818.497	19438
818.638	19308
818.778	19335
818.919	19324
819.06	19396
819.2	19468
819.341	19438
819.481	19422
819.622	19499
819.762	19746
819.903	19814
820.043	19689
820.184	19639
820.324	19605
820.465	19731
820.605	19590
820.746	19563
820.886	19392
821.026	19548
821.167	19594
821.307	19594
821.447	19529
821.588	19388
821.728	19293
821.868	19099
822.008	18958
822.149	18954
822.289	19031
822.429	18783
822.569	18692
822.709	18703
822.849	18490
822.99	18540
823.13	18452
823.27	18418
823.41	18292
823.55	18319
823.69	18285
823.83	18239
823.97	18258
824.11	18095
824.25	18015
824.389	18114
824.529	18095
824.669	18136
824.809	18136
824.949	18171
825.089	18087
825.228	18136
825.368	17859
825.508	17805
825.648	17794
825.787	17897
825.927	17851
826.067	17779
826.206	17687
826.346	17832
826.485	17954
826.625	17863
826.765	17927
826.904	17821
827.044	17668
827.183	17608
827.323	17448
827.462	17516
827.601	17471
827.741	17486
827.88	17478
828.02	17440
828.159	17474
828.298	17467
828.437	17444
828.577	17421
828.716	17554
828.855	17501
828.994	17311
829.134	17239
829.273	17258
829.412	17204
829.551	17220
829.69	17299
829.829	17223
829.968	17345
830.107	17296
830.246	17136
830.385	17265
830.524	17102
830.663	17185
830.802	16976
830.941	16885
831.08	16801
831.219	16942
831.357	16976
831.496	17045
831.635	16911
831.774	16710
831.913	16778
832.051	16615
832.19	16672
832.329	16683
832.467	16519
832.606	16538
832.744	16519
832.883	16592
833.022	16485
833.16	16573
833.299	16618
833.437	16558
833.576	16641
833.714	16561
833.852	16577
833.991	16630
834.129	16691
834.267	16725
834.406	16637
834.544	16679
834.682	16577
834.821	16508
834.959	16820
835.097	16535
835.235	16683
835.373	16622
835.511	16558
835.65	16428
835.788	16523
835.926	16303
836.064	16318
836.202	16303
836.34	16489
836.478	16504
836.615	16428
836.753	16519
836.891	16630
837.029	16542
837.167	16424
837.305	16314
837.443	16318
837.58	16303
837.718	16421
837.856	16527
837.993	16246
838.131	16398
838.269	16253
838.406	16337
838.544	16257
838.681	16059
838.819	16021
838.956	15861
839.094	15915
839.231	16051
839.369	16109
839.506	16303
839.643	16211
839.781	15964
839.918	15876
840.055	15926
840.193	15762
840.33	15941
840.467	15850
840.604	15968
840.742	16177
840.879	15717
841.016	15804
841.153	15778
841.29	16048
841.427	15953
841.564	15850
841.701	15964
841.838	15850
841.975	15785
842.112	15907
842.249	15694
842.385	15713
842.522	15812
842.659	15778
842.796	15637
842.933	15648
843.069	15606
843.206	15660
843.343	15698
843.479	15698
843.616	15652
843.752	15473
843.889	15420
844.025	15622
844.162	15519
844.298	15637
844.435	15538
844.571	15443
844.708	15545
844.844	15561
844.98	15591
845.117	15530
845.253	15435
845.389	15363
845.525	15443
845.661	15359
845.798	15226
845.934	15344
846.07	15192
846.206	15287
846.342	15393
846.478	15294
846.614	15058
846.75	14960
846.886	15017
847.022	15157
847.158	15032
847.294	15024
847.429	15154
847.565	15013
847.701	15294
847.837	14746
847.972	14819
848.108	14883
848.244	14853
848.379	14640
848.515	14667
848.65	14594
848.786	14632
848.921	14735
849.057	14849
849.192	14720
849.328	14720
849.463	14663
849.598	14655
849.734	14606
849.869	14503
850.004	14431
850.14	14511
850.275	14374
850.41	14263
850.545	14339
850.68	14389
850.815	14362
850.95	14355
851.085	14579
851.22	14613
851.355	14434
851.49	14374
851.625	14438
851.76	14343
851.895	14221
852.03	14301
852.165	14400
852.299	14476
852.434	14446
852.569	14415
852.703	14434
852.838	14461
852.973	14583
853.107	14556
853.242	14370
853.376	14218
853.511	14187
853.645	14237
853.78	14374
853.914	14332
854.048	14332
854.183	14187
854.317	14259
854.451	14450
854.585	14225
854.72	14320
854.854	14381
854.988	14168
855.122	14282
855.256	14187
855.39	14221
855.524	14298
855.658	14298
855.792	14210
855.926	14328
856.06	14389
856.194	14408
856.327	14336
856.461	14278
856.595	14233
856.729	14252
856.862	14374
856.996	14332
857.13	14419
857.263	14408
857.397	14503
857.53	14317
857.664	14252
857.797	14396
857.931	14377
858.064	14393
858.197	14366
858.331	14199
858.464	14142
858.597	14290
858.731	14301
858.864	14271
858.997	14267
859.13	14267
859.263	14339
859.396	14339
859.529	14282
859.662	14199
859.795	14244
859.928	14358
860.061	14446
860.194	14358
860.327	14298
860.46	14313
860.592	14290
860.725	14366
860.858	14389
860.99	14320
861.123	14103
861.256	14313
861.388	14301
861.521	14823
861.653	14244
861.786	14084
861.918	14172
862.05	14221
862.183	14221
862.315	14278
862.447	14317
862.58	14199
862.712	14050
862.844	14020
862.976	14054
863.108	14050
863.24	14408
863.372	13947
863.504	14084
863.636	13974
863.768	14138
863.9	14012
864.032	13989
864.164	13951
864.296	14081
864.428	14157
864.559	14187
864.691	14065
864.823	14103
864.954	14062
865.086	14054
865.217	14062
865.349	13906
865.48	14100
865.612	14065
865.743	14123
865.875	14039
866.006	14008
866.137	13951
866.269	13997
866.4	14126
866.531	13963
866.662	13921
866.793	13997
866.924	14096
867.055	14054
867.186	14027
867.317	13951
867.448	13947
867.579	13963
867.71	13830
867.841	13894
867.972	14039
868.103	13925
868.233	14077
868.364	14069
868.495	14149
868.625	14259
868.756	14298
868.886	14103
869.017	14214
869.147	14324
869.278	14377
869.408	14355
869.539	14313
869.669	14362
869.799	14282
869.929	14351
870.06	14381
870.19	14629
870.32	14488
870.45	14617
870.58	14663
870.71	14769
870.84	14815
870.97	14560
871.1	14640
871.23	14796
871.36	14933
871.489	14705
871.619	14914
871.749	14857
871.879	14952
872.008	15036
872.138	14990
872.267	14845
872.397	14743
872.526	14716
872.656	14670
872.785	14743
872.915	14952
873.044	14971
873.173	14872
873.303	14921
873.432	14910
873.561	14960
873.69	14956
873.819	14823
873.948	14914
874.077	14933
874.206	14941
874.335	14921
874.464	15081
874.593	15173
874.722	15173
874.851	15272
874.979	15306
875.108	15222
875.237	15336
875.365	15112
875.494	15180
875.623	15279
875.751	15237
875.88	15302
876.008	15435
876.136	15534
876.265	15656
876.393	15861
876.521	15717
876.65	15671
876.778	15694
876.906	15652
877.034	15595
877.162	15580
877.29	15595
877.418	15660
877.546	15580
877.674	15519
877.802	15660
877.93	15614
878.058	15530
878.185	15599
878.313	15629
878.441	15526
878.568	15477
878.696	15660
878.824	15667
878.951	15663
879.079	15835
879.206	15964
879.333	15724
879.461	15694
879.588	15770
879.715	15850
879.842	15922
879.97	15637
880.097	15591
880.224	15545
880.351	15511
880.478	15557
880.605	15500
880.732	15492
880.859	15751
880.986	15549
881.112	15523
881.239	15412
881.366	15268
881.493	15176
881.619	15154
881.746	15123
881.872	15116
881.999	15188
882.125	15081
882.252	15313
882.378	15180
882.505	15302
882.631	15093
882.757	15058
882.883	14937
883.01	15039
883.136	14921
883.262	14891
883.388	14830
883.514	14948
883.64	14994
883.766	14853
883.892	14773
884.018	14864
884.143	14952
884.269	15097
884.395	14670
884.52	14731
884.646	14651
884.772	14571
884.897	14571
885.023	14727
885.148	14906
885.274	14826
885.399	14811
885.524	14716
885.65	14735
885.775	14644
885.9	14648
886.025	14743
886.15	14674
886.275	14655
886.4	14522
886.525	14552
886.65	14670
886.775	14602
886.9	14880
887.025	14941
887.149	14678
887.274	14549
887.399	14465
887.523	14480
887.648	14465
887.773	14469
887.897	14549
888.021	14522
888.146	14476
888.27	14571
888.395	14602
888.519	14625
888.643	14530
888.767	14499
888.891	14415
889.015	14404
889.139	14400
889.263	14343
889.387	14469
889.511	14587
889.635	14450
889.759	14400
889.883	14313
890.006	14480
890.13	14484
890.254	14286
890.377	14358
890.501	14191
890.624	14218
890.748	14282
890.871	14134
890.995	14005
891.118	13974
891.241	14111
891.364	14142
891.488	14237
891.611	14043
891.734	14001
891.857	14119
891.98	14058
892.103	14233
892.226	14062
892.349	13997
892.471	13936
892.594	14092
892.717	14081
892.839	14081
892.962	14145
893.085	14157
893.207	14077
893.33	13928
893.452	14008
893.575	14157
893.697	14130
893.819	14259
893.941	14229
894.064	14290
894.186	14088
894.308	14069
894.43	14183
894.552	14351
894.674	14332
894.796	14039
894.918	14138
895.04	14084
895.161	14233
895.283	14180
895.405	14058
895.526	14237
895.648	14206
895.769	14298
895.891	14164
896.012	14366
896.134	14324
896.255	14221
896.376	14149
896.498	14214
896.619	14271
896.74	14309
896.861	14286
896.982	14613
897.103	14823
897.224	14564
897.345	14533
897.466	14377
897.587	14465
897.708	14655
897.828	14583
897.949	14518
898.07	14457
898.19	14518
898.311	14625
898.431	14552
898.552	14644
898.672	14625
898.792	14739
898.913	14583
899.033	14564
899.153	14533
899.273	14427
899.393	14484
899.513	14514
899.633	14518
899.753	14469
899.873	14492
899.993	14552
900.113	14419
900.232	14507
900.352	14469
900.472	14347
900.591	14305
900.711	14298
900.83	14248
900.95	14423
901.069	14522
901.189	14317
901.308	14008
901.427	13932
901.546	14043
901.665	14062
901.784	14012
901.904	13871
902.023	13807
902.141	13582
902.26	13605
902.379	13685
902.498	13670
902.617	13651
902.735	13556
902.854	13590
902.973	13525
903.091	13350
903.21	13324
903.328	13232
903.446	13244
903.565	13168
903.683	13046
903.801	12996
903.919	13126
904.038	13145
904.156	13008
904.274	13065
904.392	12996
904.51	12993
904.627	12909
904.745	12966
904.863	13004
904.981	12726
905.098	12806
905.216	12677
905.334	12650
905.451	12741
905.569	12677
905.686	12650
905.803	12669
905.921	12555
906.038	12544
906.155	12429
906.272	12433
906.389	12346
906.506	12262
906.623	12273
906.74	12232
906.857	12133
906.974	12095
907.091	12277
907.208	12410
907.324	12251
907.441	12171
907.557	11984
907.674	11980
907.79	11939
907.907	11942
908.023	12026
908.139	12030
908.256	12038
908.372	11958
908.488	11783
908.604	11783
908.72	11775
908.836	11726
908.952	11752
909.068	11760
909.184	11908
909.3	11824
909.415	11813
909.531	11752
909.647	11524
909.762	11512
909.878	11497
909.993	11509
910.108	11452
910.224	11452
910.339	11615
910.454	11444
910.57	11353
910.685	11349
910.8	11589
910.915	11558
911.03	11425
911.145	11250
911.259	11231
911.374	11227
911.489	11159
911.604	11086
911.718	10900
911.833	10927
911.947	10908
912.062	10752
912.176	10942
912.291	10984
912.405	10976
912.519	11185
912.633	11185
912.748	11041
912.862	10999
912.976	10904
913.09	10748
913.204	10824
913.318	10835
913.431	10991
913.545	10957
913.659	10896
913.772	10869
913.886	10733
914	10755
914.113	10809
914.226	10809
914.34	10904
914.453	10653
914.566	10805
914.68	10702
914.793	10675
914.906	10527
915.019	10466
915.132	10436
915.245	10432
915.358	10455
915.47	10466
915.583	10497
915.696	10462
915.809	10656
915.921	10630
916.034	10455
916.146	10432
916.259	10421
916.371	10466
916.483	10527
916.595	10421
916.708	10443
916.82	10474
916.932	10451
917.044	10382
917.156	10375
917.268	10303
917.38	10257
917.491	10299
917.603	10356
917.715	10405
917.826	10379
917.938	10215
918.049	10158
918.161	10280
918.272	10409
918.384	10466
918.495	10390
918.606	10215
918.717	10044
918.828	10238
918.939	10177
919.05	10048
919.161	10185
919.272	10006
919.383	10078
919.494	10177
919.604	10466
919.715	10204
919.826	10112
919.936	10192
920.047	10223
920.157	10211
920.267	10440
920.378	10261
920.488	10204
920.598	10363
920.708	10546
920.818	10394
920.928	10367
921.038	10626
921.148	10542
921.258	10188
921.368	10177
921.477	10059
921.587	10067
921.697	9895
921.806	10101
921.916	9968
922.025	9774
922.134	9743
922.244	9713
922.353	9751
922.462	9652
922.571	9618
922.68	9538
922.789	9428
922.898	9496
923.007	9473
923.116	9496
923.224	9431
923.333	9389
923.442	9332
923.55	9340
923.659	9313
923.767	9428
923.876	9386
923.984	9393
924.092	9272
924.201	9310
924.309	9306
924.417	9412
924.525	9351
924.633	9344
924.741	9975
924.849	9135
924.956	9264
925.064	9180
925.172	8994
925.279	9055
925.387	9104
925.494	9135
925.602	9264
925.709	9226
925.816	9032
925.924	9020
926.031	9218
926.138	9081
926.245	9108
926.352	9039
926.459	9142
926.566	9249
926.673	9055
926.779	8933
926.886	8910
926.993	8906
927.099	8868
927.206	8807
927.312	8781
927.419	8857
927.525	8868
927.631	8826
927.737	8762
927.843	8670
927.95	8693
928.056	8670
928.162	8750
928.267	8872
928.373	9374
928.479	8823
928.585	8598
928.69	8689
928.796	8773
928.901	8708
929.007	8590
929.112	8617
929.218	8632
929.323	8674
929.428	8526
929.533	8651
929.638	8571
929.743	8602
929.848	8587
929.953	8590
930.058	8400
930.163	8309
930.267	8294
930.372	8511
930.477	8279
930.581	8541
930.685	8362
930.79	8244
930.894	8309
930.998	8214
931.103	8450
931.207	8058
931.311	7951
931.415	7944
931.519	7814
931.623	7769
