Data from test_V78500241_698.txt Node
Date: Fri Mar 25 14:38:34 CST 2022
User: usil
Spectrometer: V785-0024
Trigger mode: 0
Integration Time (sec): 4.000000E-1
Scans to average: 1
Nonlinearity correction enabled: false
Boxcar width: 0
Storing dark spectrum: false
XAxis mode: Wavelengths
Number of Pixels in Spectrum: 1024
>>>>>Begin Spectral Data<<<<<
801.071	27888
801.214	27781
801.356	27519
801.499	27481
801.641	27272
801.783	27336
801.926	27230
802.068	27252
802.211	27055
802.353	27058
802.496	26838
802.638	26944
802.78	26609
802.923	26792
803.065	26743
803.208	26686
803.35	26823
803.492	26762
803.635	26853
803.777	26720
803.919	26990
804.061	27237
804.204	27047
804.346	26914
804.488	26925
804.63	26963
804.773	26925
804.915	27066
805.057	27405
805.199	27184
805.341	27420
805.483	27603
805.626	27511
805.768	27386
805.91	27557
806.052	27914
806.194	27869
806.336	28284
806.478	28188
806.62	28497
806.762	28668
806.904	29128
807.046	29707
807.188	29958
807.33	30448
807.472	31099
807.614	31666
807.756	32552
807.898	33686
808.04	35170
808.182	37091
808.324	39930
808.465	42951
808.607	46162
808.749	49183
808.891	50773
809.033	51131
809.174	49403
809.316	46398
809.458	43107
809.6	39633
809.741	36989
809.883	34637
810.025	33195
810.166	32164
810.308	31278
810.45	30753
810.591	30102
810.733	29531
810.875	29022
811.016	28809
811.158	28584
811.299	28409
811.441	28489
811.582	28295
811.724	28166
811.865	27975
812.007	27816
812.148	27789
812.29	27797
812.431	27808
812.573	27823
812.714	27880
812.855	27911
812.997	28078
813.138	28078
813.279	28093
813.421	27713
813.562	27610
813.703	27580
813.845	27405
813.986	26994
814.127	26712
814.268	26606
814.41	26670
814.551	26571
814.692	26678
814.833	26385
814.974	26408
815.115	26587
815.256	26332
815.397	26180
815.539	26278
815.68	26138
815.821	26001
815.962	26039
816.103	26039
816.244	25925
816.385	25879
816.526	25738
816.666	25502
816.807	25343
816.948	25582
817.089	25506
817.23	25499
817.371	25377
817.512	25289
817.653	25335
817.793	25293
817.934	25304
818.075	25297
818.216	25255
818.356	25324
818.497	25164
818.638	24856
818.778	24882
818.919	25015
819.06	25042
819.2	25179
819.341	25255
819.481	25232
819.622	25164
819.762	25381
819.903	25316
820.043	25320
820.184	25301
820.324	25278
820.465	25221
820.605	25160
820.746	25156
820.886	25057
821.026	25038
821.167	25008
821.307	25061
821.447	24859
821.588	24867
821.728	24692
821.868	24582
822.008	24429
822.149	24330
822.289	24414
822.429	24140
822.569	24007
822.709	24106
822.849	23798
822.99	23847
823.13	23794
823.27	23809
823.41	23726
823.55	23433
823.69	23646
823.83	23589
823.97	23490
824.11	23406
824.25	23299
824.389	23246
824.529	23501
824.669	23448
824.809	23410
824.949	23554
825.089	23334
825.228	23288
825.368	23155
825.508	23147
825.648	23258
825.787	23239
825.927	23242
826.067	23197
826.206	23117
826.346	23212
826.485	23254
826.625	23071
826.765	23292
826.904	23124
827.044	22915
827.183	23056
827.323	22850
827.462	22839
827.601	22797
827.741	22740
827.88	22976
828.02	22615
828.159	22759
828.298	22767
828.437	22820
828.577	22664
828.716	22835
828.855	22767
828.994	22443
829.134	22508
829.273	22561
829.412	22516
829.551	22314
829.69	22436
829.829	22535
829.968	22531
830.107	22451
830.246	22531
830.385	22481
830.524	22333
830.663	22333
830.802	22135
830.941	22093
831.08	22078
831.219	22162
831.357	22124
831.496	22344
831.635	22181
831.774	21975
831.913	22002
832.051	21930
832.19	21857
832.329	22029
832.467	21934
832.606	21819
832.744	21755
832.883	22006
833.022	22040
833.16	22219
833.299	22310
833.437	22348
833.576	22523
833.714	22786
833.852	22976
833.991	22896
834.129	22972
834.267	23071
834.406	22919
834.544	22908
834.682	22713
834.821	22622
834.959	22774
835.097	22440
835.235	22405
835.373	22253
835.511	22150
835.65	21998
835.788	21964
835.926	21762
836.064	21572
836.202	21660
836.34	21838
836.478	21648
836.615	21652
836.753	21564
836.891	21759
837.029	21698
837.167	21583
837.305	21428
837.443	21526
837.58	21359
837.718	21526
837.856	21549
837.993	21317
838.131	21336
838.269	21283
838.406	21382
838.544	21249
838.681	21089
838.819	21100
838.956	20921
839.094	20960
839.231	20800
839.369	21001
839.506	21329
839.643	21112
839.781	20743
839.918	20762
840.055	20769
840.193	20758
840.33	20659
840.467	20792
840.604	20804
840.742	20933
840.879	20556
841.016	20686
841.153	20739
841.29	20960
841.427	20625
841.564	20712
841.701	20762
841.838	20758
841.975	20731
842.112	20739
842.249	20651
842.385	20678
842.522	20785
842.659	20765
842.796	20609
842.933	20651
843.069	20701
843.206	20648
843.343	20644
843.479	20644
843.616	20819
843.752	20575
843.889	20667
844.025	20750
844.162	20750
844.298	21036
844.435	21020
844.571	21188
844.708	21568
844.844	21945
844.98	22367
845.117	23029
845.253	24034
845.389	25852
845.525	29627
845.661	35493
845.798	42323
845.934	47482
846.07	49422
846.206	47904
846.342	43145
846.478	36262
846.614	30125
846.75	26408
846.886	24129
847.022	22805
847.158	21934
847.294	21447
847.429	21043
847.565	20705
847.701	20826
847.837	20157
847.972	20043
848.108	20103
848.244	19913
848.379	19811
848.515	19704
848.65	19639
848.786	19597
848.921	19616
849.057	19647
849.192	19681
849.328	19586
849.463	19548
849.598	19468
849.734	19354
849.869	19403
850.004	19274
850.14	19381
850.275	19259
850.41	19160
850.545	19084
850.68	19221
850.815	19225
850.95	19190
851.085	19339
851.22	19270
851.355	19270
851.49	19202
851.625	19141
851.76	19228
851.895	19156
852.03	19080
852.165	19187
852.299	19236
852.434	19278
852.569	19270
852.703	19285
852.838	19422
852.973	19445
853.107	19350
853.242	19221
853.376	19251
853.511	19156
853.645	19145
853.78	19350
853.914	19320
854.048	19320
854.183	19441
854.317	19426
854.451	19647
854.585	19339
854.72	19327
854.854	19460
854.988	19225
855.122	19240
855.256	19148
855.39	19232
855.524	19213
855.658	19168
855.792	19156
855.926	19133
856.06	19160
856.194	19129
856.327	19061
856.461	19015
856.595	18905
856.729	19069
856.862	19137
856.996	18996
857.13	19103
857.263	19122
857.397	19114
857.53	18905
857.664	19069
857.797	19012
857.931	19065
858.064	18901
858.197	19027
858.331	18890
858.464	18795
858.597	18753
858.731	18924
858.864	18863
858.997	18795
859.13	18901
859.263	18966
859.396	18894
859.529	18840
859.662	18745
859.795	18768
859.928	18886
860.061	18939
860.194	18973
860.327	18837
860.46	18852
860.592	18924
860.725	18962
860.858	18863
860.99	18749
861.123	18700
861.256	18772
861.388	18856
861.521	19247
861.653	18741
861.786	18631
861.918	18783
862.05	18776
862.183	18741
862.315	18779
862.447	18867
862.58	18810
862.712	18631
862.844	18506
862.976	18475
863.108	18601
863.24	18791
863.372	18460
863.504	18509
863.636	18517
863.768	18589
863.9	18471
864.032	18380
864.164	18486
864.296	18483
864.428	18563
864.559	18570
864.691	18467
864.823	18452
864.954	18456
865.086	18483
865.217	18441
865.349	18270
865.48	18506
865.612	18338
865.743	18426
865.875	18357
866.006	18369
866.137	18448
866.269	18391
866.4	18418
866.531	18323
866.662	18315
866.793	18273
866.924	18338
867.055	18372
867.186	18353
867.317	18357
867.448	18220
867.579	18346
867.71	18292
867.841	18304
867.972	18365
868.103	18296
868.233	18388
868.364	18498
868.495	18448
868.625	18532
868.756	18661
868.886	18612
869.017	18593
869.147	18681
869.278	18711
869.408	18646
869.539	18631
869.669	18726
869.799	18677
869.929	18700
870.06	18722
870.19	18878
870.32	18905
870.45	18989
870.58	19061
870.71	19171
870.84	19247
870.97	19194
871.1	18909
871.23	19213
871.36	19331
871.489	19247
871.619	19263
871.749	19282
871.879	19282
872.008	19544
872.138	19354
872.267	19400
872.397	19263
872.526	19225
872.656	19369
872.785	19282
872.915	19392
873.044	19453
873.173	19518
873.303	19594
873.432	19472
873.561	19757
873.69	19651
873.819	19616
873.948	19708
874.077	19689
874.206	19772
874.335	19662
874.464	19803
874.593	20005
874.722	20027
874.851	20145
874.979	20176
875.108	20161
875.237	20259
875.365	20100
875.494	20161
875.623	20298
875.751	20374
875.88	20290
876.008	20541
876.136	20644
876.265	20906
876.393	21017
876.521	21104
876.65	21188
876.778	21256
876.906	21096
877.034	21192
877.162	21241
877.29	21325
877.418	21447
877.546	21485
877.674	21603
877.802	21690
877.93	21972
878.058	22040
878.185	22242
878.313	22493
878.441	22858
878.568	23208
878.696	23840
878.824	24574
878.951	25898
879.079	27412
879.206	29478
879.333	31415
879.461	33283
879.588	34207
879.715	34306
879.842	33386
879.97	31491
880.097	29596
880.224	27705
880.351	26587
880.478	25613
880.605	25069
880.732	24635
880.859	24650
880.986	24338
881.112	24247
881.239	23984
881.366	23855
881.493	23707
881.619	23684
881.746	23726
881.872	23882
881.999	23710
882.125	23786
882.252	23950
882.378	24007
882.505	24045
882.631	23824
882.757	23889
882.883	23920
883.01	23718
883.136	23615
883.262	23657
883.388	23516
883.514	23687
883.64	23707
883.766	23680
883.892	23528
884.018	23516
884.143	23672
884.269	23794
884.395	23512
884.52	23467
884.646	23524
884.772	23406
884.897	23414
885.023	23448
885.148	23535
885.274	23497
885.399	23368
885.524	23052
885.65	23105
885.775	23003
885.9	22778
886.025	22824
886.15	22618
886.275	22379
886.4	22150
886.525	22002
886.65	21941
886.775	21774
886.9	21953
887.025	21842
887.149	21496
887.274	21275
887.399	21260
887.523	21100
887.648	21058
887.773	20880
887.897	21039
888.021	20651
888.146	20640
888.27	20811
888.395	20670
888.519	20594
888.643	20636
888.767	20606
888.891	20351
889.015	20161
889.139	20237
889.263	20218
889.387	20157
889.511	20195
889.635	20050
889.759	19982
889.883	19833
890.006	20005
890.13	19913
890.254	19681
890.377	19719
890.501	19552
890.624	19620
890.748	19590
890.871	19365
890.995	19240
891.118	19263
891.241	19236
891.364	19255
891.488	19350
891.611	19187
891.734	19183
891.857	19168
891.98	19110
892.103	19217
892.226	18970
892.349	19061
892.471	18795
892.594	18878
892.717	18924
892.839	18749
892.962	18844
893.085	18817
893.207	18711
893.33	18696
893.452	18646
893.575	18722
893.697	18661
893.819	18669
893.941	18764
894.064	18760
894.186	18502
894.308	18479
894.43	18559
894.552	18658
894.674	18498
894.796	18410
894.918	18429
895.04	18346
895.161	18448
895.283	18426
895.405	18376
895.526	18308
895.648	18235
895.769	18369
895.891	18391
896.012	18407
896.134	18399
896.255	18323
896.376	18323
896.498	18277
896.619	18380
896.74	18220
896.861	18251
896.982	18597
897.103	18646
897.224	18547
897.345	18429
897.466	18502
897.587	18547
897.708	18585
897.828	18452
897.949	18308
898.07	18296
898.19	18342
898.311	18471
898.431	18315
898.552	18334
898.672	18578
898.792	18479
898.913	18441
899.033	18346
899.153	18254
899.273	18243
899.393	18163
899.513	18258
899.633	18224
899.753	18174
899.873	18114
899.993	18258
900.113	18220
900.232	18216
900.352	18121
900.472	18121
900.591	17977
900.711	17999
900.83	18003
900.95	18072
901.069	17977
901.189	17885
901.308	17638
901.427	17600
901.546	17509
901.665	17596
901.784	17516
901.904	17391
902.023	17318
902.141	17048
902.26	17064
902.379	17102
902.498	17018
902.617	16999
902.735	17102
902.854	16869
902.973	16923
903.091	16702
903.21	16630
903.328	16611
903.446	16577
903.565	16481
903.683	16512
903.801	16295
903.919	16394
904.038	16276
904.156	16238
904.274	16215
904.392	16040
904.51	16211
904.627	16204
904.745	16166
904.863	16173
904.981	15854
905.098	15903
905.216	15789
905.334	15835
905.451	15869
905.569	15762
905.686	15838
905.803	15785
905.921	15568
906.038	15717
906.155	15629
906.272	15485
906.389	15595
906.506	15291
906.623	15283
906.74	15321
906.857	15252
906.974	15332
907.091	15401
907.208	15469
907.324	15294
907.441	15176
907.557	15108
907.674	15051
907.79	14944
907.907	14982
908.023	15127
908.139	15047
908.256	14906
908.372	14925
908.488	14948
908.604	14689
908.72	14861
908.836	14739
908.952	14682
909.068	14800
909.184	14777
909.3	14667
909.415	14819
909.531	14830
909.647	14431
909.762	14488
909.878	14461
909.993	14480
910.108	14556
910.224	14396
910.339	14503
910.454	14370
910.57	14294
910.685	14271
910.8	14484
910.915	14507
911.03	14237
911.145	14142
911.259	14199
911.374	14145
911.489	14050
911.604	14005
911.718	13883
911.833	13822
911.947	13791
912.062	13753
912.176	13833
912.291	13780
912.405	13852
912.519	14039
912.633	14031
912.748	13951
912.862	13803
912.976	13689
913.09	13514
913.204	13685
913.318	13559
913.431	13765
913.545	13750
913.659	13860
913.772	13753
913.886	13651
914	13499
914.113	13624
914.226	13651
914.34	13620
914.453	13434
914.566	13632
914.68	13491
914.793	13381
914.906	13228
915.019	13331
915.132	13141
915.245	13236
915.358	13282
915.47	13179
915.583	13285
915.696	13236
915.809	13365
915.921	13400
916.034	13282
916.146	13221
916.259	13209
916.371	13358
916.483	13354
916.595	13228
916.708	13263
916.82	13228
916.932	13175
917.044	13114
917.156	13057
917.268	13042
917.38	13042
917.491	13012
917.603	13019
917.715	13050
917.826	13126
917.938	12913
918.049	12814
918.161	12932
918.272	13050
918.384	12935
918.495	13012
918.606	12798
918.717	12635
918.828	12810
918.939	12825
919.05	12631
919.161	12677
919.272	12555
919.383	12646
919.494	12760
919.604	12932
919.715	12711
919.826	12654
919.936	12627
920.047	12802
920.157	12669
920.267	12783
920.378	12635
920.488	12639
920.598	12882
920.708	12993
920.818	12772
920.928	12875
921.038	13027
921.148	12947
921.258	12642
921.368	12616
921.477	12513
921.587	12433
921.697	12342
921.806	12399
921.916	12270
922.025	12175
922.134	12133
922.244	12049
922.353	12201
922.462	11965
922.571	11984
922.68	11737
922.789	11722
922.898	11733
923.007	11752
923.116	11817
923.224	11760
923.333	11764
923.442	11684
923.55	11570
923.659	11589
923.767	11767
923.876	11566
923.984	11623
924.092	11509
924.201	11573
924.309	11573
924.417	11554
924.525	11467
924.633	11467
924.741	12448
924.849	11311
924.956	11482
925.064	11258
925.172	11212
925.279	11299
925.387	11330
925.494	11258
925.602	11391
925.709	11318
925.816	11250
925.924	11254
926.031	11368
926.138	11242
926.245	11280
926.352	11147
926.459	11292
926.566	11433
926.673	11212
926.779	11079
926.886	11083
926.993	10927
927.099	10938
927.206	10828
927.312	10858
927.419	10942
927.525	10946
927.631	10873
927.737	10843
927.843	10805
927.95	10710
928.056	10790
928.162	10755
928.267	10919
928.373	11326
928.479	10782
928.585	10550
928.69	10778
928.796	10809
928.901	10691
929.007	10569
929.112	10721
929.218	10634
929.323	10527
929.428	10527
929.533	10691
929.638	10451
929.743	10500
929.848	10565
929.953	10466
930.058	10443
930.163	10287
930.267	10253
930.372	10398
930.477	10185
930.581	10413
930.685	10310
930.79	10211
930.894	10185
930.998	10105
931.103	10325
931.207	9892
931.311	9888
931.415	9770
931.519	9591
931.623	9591
