Data from test_V78500241_1744.txt Node
Date: Fri Mar 25 14:45:51 CST 2022
User: usil
Spectrometer: V785-0024
Trigger mode: 0
Integration Time (sec): 4.000000E-1
Scans to average: 1
Nonlinearity correction enabled: false
Boxcar width: 0
Storing dark spectrum: false
XAxis mode: Wavelengths
Number of Pixels in Spectrum: 1024
>>>>>Begin Spectral Data<<<<<
801.071	22261
801.214	22105
801.356	21903
801.499	21804
801.641	21625
801.783	21606
801.926	21553
802.068	21469
802.211	21389
802.353	21294
802.496	21028
802.638	21108
802.78	21009
802.923	20910
803.065	20785
803.208	20750
803.35	20929
803.492	20868
803.635	20982
803.777	20811
803.919	20998
804.061	21298
804.204	20952
804.346	20804
804.488	20853
804.63	20880
804.773	20750
804.915	20864
805.057	20948
805.199	20857
805.341	20883
805.483	20979
805.626	20929
805.768	20842
805.91	20819
806.052	20864
806.194	20773
806.336	20880
806.478	20872
806.62	20807
806.762	20906
806.904	21123
807.046	21233
807.188	21161
807.33	21218
807.472	21161
807.614	21032
807.756	21161
807.898	21028
808.04	20876
808.182	20906
808.324	21017
808.465	20887
808.607	21017
808.749	21256
808.891	21226
809.033	21412
809.174	21359
809.316	21230
809.458	21241
809.6	21013
809.741	21256
809.883	21355
810.025	21344
810.166	21310
810.308	21340
810.45	21317
810.591	21146
810.733	21077
810.875	21024
811.016	20941
811.158	20807
811.299	20986
811.441	21131
811.582	21173
811.724	20895
811.865	20902
812.007	21074
812.148	21009
812.29	21077
812.431	21123
812.573	21173
812.714	21397
812.855	21469
812.997	21568
813.138	21690
813.279	21667
813.421	21481
813.562	21306
813.703	21180
813.845	21180
813.986	20842
814.127	20689
814.268	20724
814.41	20507
814.551	20537
814.692	20484
814.833	20434
814.974	20518
815.115	20522
815.256	20442
815.397	20393
815.539	20473
815.68	20248
815.821	20278
815.962	20248
816.103	20164
816.244	20096
816.385	19947
816.526	20050
816.666	19818
816.807	19788
816.948	19674
817.089	19742
817.23	19875
817.371	19689
817.512	19628
817.653	19696
817.793	19723
817.934	19582
818.075	19715
818.216	19613
818.356	19525
818.497	19567
818.638	19354
818.778	19400
818.919	19335
819.06	19350
819.2	19506
819.341	19506
819.481	19499
819.622	19700
819.762	19909
819.903	19723
820.043	19712
820.184	19567
820.324	19670
820.465	19693
820.605	19597
820.746	19674
820.886	19578
821.026	19655
821.167	19670
821.307	19624
821.447	19578
821.588	19521
821.728	19365
821.868	19168
822.008	19084
822.149	19114
822.289	19164
822.429	18852
822.569	18726
822.709	18745
822.849	18608
822.99	18612
823.13	18540
823.27	18464
823.41	18342
823.55	18213
823.69	18342
823.83	18292
823.97	18232
824.11	18117
824.25	18182
824.389	18155
824.529	18254
824.669	18102
824.809	18209
824.949	18174
825.089	18304
825.228	18125
825.368	17950
825.508	17855
825.648	18057
825.787	18026
825.927	18007
826.067	17904
826.206	17954
826.346	17946
826.485	17988
826.625	17946
826.765	18057
826.904	18030
827.044	17767
827.183	17760
827.323	17512
827.462	17691
827.601	17630
827.741	17608
827.88	17676
828.02	17501
828.159	17524
828.298	17726
828.437	17642
828.577	17623
828.716	17832
828.855	17551
828.994	17406
829.134	17337
829.273	17364
829.412	17421
829.551	17235
829.69	17444
829.829	17379
829.968	17528
830.107	17486
830.246	17414
830.385	17444
830.524	17303
830.663	17223
830.802	17128
830.941	17083
831.08	16984
831.219	17037
831.357	16968
831.496	17147
831.635	17025
831.774	16980
831.913	16911
832.051	16858
832.19	16755
832.329	16759
832.467	16782
832.606	16618
832.744	16721
832.883	16687
833.022	16656
833.16	16687
833.299	16733
833.437	16809
833.576	16793
833.714	16713
833.852	16767
833.991	16713
834.129	16790
834.267	16763
834.406	16782
834.544	16801
834.682	16805
834.821	16805
834.959	16869
835.097	16687
835.235	16862
835.373	16744
835.511	16752
835.65	16630
835.788	16702
835.926	16527
836.064	16497
836.202	16516
836.34	16588
836.478	16725
836.615	16660
836.753	16721
836.891	16812
837.029	16596
837.167	16527
837.305	16561
837.443	16489
837.58	16474
837.718	16580
837.856	16500
837.993	16379
838.131	16512
838.269	16462
838.406	16341
838.544	16310
838.681	16143
838.819	16223
838.956	16048
839.094	16082
839.231	16078
839.369	16192
839.506	16394
839.643	16280
839.781	16059
839.918	15979
840.055	16013
840.193	16051
840.33	16109
840.467	15964
840.604	16169
840.742	16382
840.879	15911
841.016	15979
841.153	15911
841.29	16200
841.427	16143
841.564	16063
841.701	16120
841.838	16017
841.975	15975
842.112	15964
842.249	15739
842.385	15827
842.522	16093
842.659	15793
842.796	15789
842.933	15827
843.069	15865
843.206	15766
843.343	15888
843.479	15823
843.616	15869
843.752	15614
843.889	15606
844.025	15713
844.162	15572
844.298	15724
844.435	15603
844.571	15606
844.708	15660
844.844	15827
844.98	15797
845.117	15724
845.253	15545
845.389	15526
845.525	15614
845.661	15557
845.798	15325
845.934	15454
846.07	15412
846.206	15542
846.342	15542
846.478	15412
846.614	15298
846.75	15218
846.886	15135
847.022	15256
847.158	15203
847.294	15214
847.429	15226
847.565	15173
847.701	15374
847.837	14876
847.972	14925
848.108	15028
848.244	14944
848.379	14842
848.515	14762
848.65	14758
848.786	14792
848.921	14876
849.057	14845
849.192	14819
849.328	14853
849.463	14891
849.598	14750
849.734	14693
849.869	14549
850.004	14602
850.14	14777
850.275	14587
850.41	14590
850.545	14617
850.68	14602
850.815	14579
850.95	14617
851.085	14701
851.22	14644
851.355	14632
851.49	14686
851.625	14480
851.76	14484
851.895	14385
852.03	14343
852.165	14473
852.299	14583
852.434	14602
852.569	14530
852.703	14537
852.838	14533
852.973	14746
853.107	14727
853.242	14556
853.376	14507
853.511	14358
853.645	14324
853.78	14602
853.914	14415
854.048	14351
854.183	14423
854.317	14526
854.451	14610
854.585	14313
854.72	14454
854.854	14495
854.988	14343
855.122	14434
855.256	14267
855.39	14423
855.524	14552
855.658	14400
855.792	14526
855.926	14408
856.06	14492
856.194	14629
856.327	14400
856.461	14355
856.595	14381
856.729	14415
856.862	14457
856.996	14480
857.13	14503
857.263	14552
857.397	14579
857.53	14377
857.664	14495
857.797	14594
857.931	14545
858.064	14473
858.197	14568
858.331	14400
858.464	14400
858.597	14328
858.731	14381
858.864	14488
858.997	14366
859.13	14427
859.263	14499
859.396	14541
859.529	14457
859.662	14347
859.795	14324
859.928	14533
860.061	14511
860.194	14667
860.327	14488
860.46	14492
860.592	14564
860.725	14579
860.858	14549
860.99	14442
861.123	14301
861.256	14366
861.388	14434
861.521	15135
861.653	14294
861.786	14214
861.918	14244
862.05	14374
862.183	14412
862.315	14408
862.447	14457
862.58	14431
862.712	14286
862.844	14161
862.976	14240
863.108	14149
863.24	14511
863.372	14145
863.504	14202
863.636	14286
863.768	14233
863.9	14233
864.032	14145
864.164	14210
864.296	14161
864.428	14347
864.559	14358
864.691	14419
864.823	14195
864.954	14271
865.086	14195
865.217	14134
865.349	14103
865.48	14187
865.612	14229
865.743	14263
865.875	14252
866.006	14142
866.137	14183
866.269	14183
866.4	14168
866.531	14126
866.662	14077
866.793	14096
866.924	14180
867.055	14240
867.186	14172
867.317	14119
867.448	14039
867.579	14138
867.71	14115
867.841	14145
867.972	14145
868.103	14225
868.233	14202
868.364	14199
868.495	14252
868.625	14488
868.756	14530
868.886	14381
869.017	14469
869.147	14587
869.278	14514
869.408	14450
869.539	14469
869.669	14465
869.799	14476
869.929	14545
870.06	14507
870.19	14838
870.32	14659
870.45	14708
870.58	14895
870.71	14899
870.84	15043
870.97	14887
871.1	14872
871.23	14941
871.36	15036
871.489	14929
871.619	15047
871.749	15028
871.879	15017
872.008	15180
872.138	15165
872.267	15024
872.397	14804
872.526	14826
872.656	14834
872.785	14857
872.915	15009
873.044	15169
873.173	15039
873.303	15203
873.432	15097
873.561	15089
873.69	15081
873.819	15100
873.948	15108
874.077	15157
874.206	15032
874.335	15005
874.464	15272
874.593	15363
874.722	15203
874.851	15405
874.979	15382
875.108	15439
875.237	15401
875.365	15291
875.494	15370
875.623	15450
875.751	15412
875.88	15431
876.008	15473
876.136	15595
876.265	15675
876.393	15903
876.521	15816
876.65	15945
876.778	15808
876.906	15797
877.034	15724
877.162	15808
877.29	15656
877.418	15705
877.546	15812
877.674	15827
877.802	15819
877.93	15800
878.058	15793
878.185	15637
878.313	15747
878.441	15759
878.568	15747
878.696	15720
878.824	15937
878.951	15846
879.079	16013
879.206	16143
879.333	16002
879.461	15774
879.588	15895
879.715	16032
879.842	16105
879.97	15835
880.097	15633
880.224	15656
880.351	15644
880.478	15679
880.605	15606
880.732	15663
880.859	15991
880.986	15682
881.112	15690
881.239	15534
881.366	15431
881.493	15416
881.619	15351
881.746	15351
881.872	15317
881.999	15241
882.125	15317
882.252	15283
882.378	15268
882.505	15401
882.631	15252
882.757	15036
882.883	15165
883.01	15089
883.136	15058
883.262	14998
883.388	14944
883.514	15138
883.64	15298
883.766	15074
883.892	14857
884.018	14994
884.143	15188
884.269	15192
884.395	14868
884.52	14769
884.646	14796
884.772	14686
884.897	14663
885.023	14864
885.148	14921
885.274	15017
885.399	14918
885.524	14853
885.65	14746
885.775	14864
885.9	14857
886.025	14906
886.15	14990
886.275	14842
886.4	14724
886.525	14823
886.65	14792
886.775	14826
886.9	14941
887.025	15081
887.149	14872
887.274	14686
887.399	14579
887.523	14754
887.648	14579
887.773	14594
887.897	14651
888.021	14731
888.146	14568
888.27	14811
888.395	14743
888.519	14716
888.643	14655
888.767	14689
888.891	14610
889.015	14404
889.139	14590
889.263	14461
889.387	14571
889.511	14674
889.635	14636
889.759	14518
889.883	14412
890.006	14590
890.13	14545
890.254	14434
890.377	14461
890.501	14332
890.624	14282
890.748	14419
890.871	14240
890.995	14191
891.118	14142
891.241	14221
891.364	14119
891.488	14282
891.611	14229
891.734	14126
891.857	14309
891.98	14206
892.103	14263
892.226	14290
892.349	14073
892.471	14039
892.594	14183
892.717	14157
892.839	14199
892.962	14191
893.085	14259
893.207	14290
893.33	14031
893.452	14130
893.575	14225
893.697	14134
893.819	14374
893.941	14423
894.064	14419
894.186	14305
894.308	14161
894.43	14317
894.552	14438
894.674	14278
894.796	14282
894.918	14294
895.04	14256
895.161	14355
895.283	14267
895.405	14271
895.526	14339
895.648	14290
895.769	14351
895.891	14305
896.012	14362
896.134	14434
896.255	14389
896.376	14298
896.498	14358
896.619	14370
896.74	14396
896.861	14408
896.982	14693
897.103	14914
897.224	14667
897.345	14667
897.466	14625
897.587	14701
897.708	14674
897.828	14781
897.949	14625
898.07	14495
898.19	14533
898.311	14838
898.431	14613
898.552	14796
898.672	14815
898.792	14838
898.913	14689
899.033	14583
899.153	14537
899.273	14404
899.393	14526
899.513	14541
899.633	14579
899.753	14541
899.873	14545
899.993	14590
900.113	14522
900.232	14518
900.352	14530
900.472	14434
900.591	14415
900.711	14488
900.83	14370
900.95	14560
901.069	14560
901.189	14400
901.308	14221
901.427	14031
901.546	14088
901.665	14130
901.784	14088
901.904	13959
902.023	13913
902.141	13708
902.26	13712
902.379	13746
902.498	13586
902.617	13632
902.735	13784
902.854	13685
902.973	13681
903.091	13384
903.21	13407
903.328	13388
903.446	13324
903.565	13255
903.683	13301
903.801	13145
903.919	13187
904.038	13270
904.156	13034
904.274	13141
904.392	13050
904.51	13034
904.627	13053
904.745	13107
904.863	13080
904.981	12817
905.098	12749
905.216	12707
905.334	12795
905.451	12791
905.569	12711
905.686	12677
905.803	12779
905.921	12646
906.038	12650
906.155	12635
906.272	12418
906.389	12566
906.506	12315
906.623	12388
906.74	12300
906.857	12232
906.974	12224
907.091	12350
907.208	12395
907.324	12441
907.441	12243
907.557	12129
907.674	11996
907.79	12053
907.907	12049
908.023	12057
908.139	12136
908.256	12079
908.372	12045
908.488	11939
908.604	11859
908.72	11802
908.836	11916
908.952	11798
909.068	11790
909.184	11923
909.3	11866
909.415	11863
909.531	11878
909.647	11646
909.762	11539
909.878	11520
909.993	11649
910.108	11615
910.224	11505
910.339	11589
910.454	11543
910.57	11512
910.685	11379
910.8	11695
910.915	11524
911.03	11463
911.145	11315
911.259	11341
911.374	11341
911.489	11337
911.604	11193
911.718	11086
911.833	10976
911.947	10938
912.062	10965
912.176	11029
912.291	11067
912.405	11113
912.519	11227
912.633	11189
912.748	11185
912.862	11086
912.976	10934
913.09	10869
913.204	10965
913.318	10885
913.431	10987
913.545	11014
913.659	10965
913.772	10961
913.886	10820
914	10873
914.113	10885
914.226	10972
914.34	10980
914.453	10816
914.566	10896
914.68	10771
914.793	10759
914.906	10519
915.019	10546
915.132	10558
915.245	10478
915.358	10580
915.47	10558
915.583	10580
915.696	10519
915.809	10721
915.921	10729
916.034	10516
916.146	10500
916.259	10523
916.371	10611
916.483	10599
916.595	10542
916.708	10596
916.82	10500
916.932	10512
917.044	10497
917.156	10447
917.268	10421
917.38	10409
917.491	10333
917.603	10360
917.715	10481
917.826	10535
917.938	10394
918.049	10261
918.161	10314
918.272	10481
918.384	10519
918.495	10428
918.606	10299
918.717	10310
918.828	10230
918.939	10306
919.05	10147
919.161	10242
919.272	10055
919.383	10017
919.494	10310
919.604	10523
919.715	10299
919.826	10169
919.936	10272
920.047	10390
920.157	10325
920.267	10451
920.378	10303
920.488	10329
920.598	10527
920.708	10565
920.818	10478
920.928	10546
921.038	10668
921.148	10580
921.258	10348
921.368	10242
921.477	10131
921.587	10139
921.697	10013
921.806	10219
921.916	10006
922.025	9827
922.134	9819
922.244	9774
922.353	9949
922.462	9713
922.571	9717
922.68	9523
922.789	9538
922.898	9584
923.007	9488
923.116	9542
923.224	9523
923.333	9477
923.442	9450
923.55	9424
923.659	9374
923.767	9485
923.876	9355
923.984	9401
924.092	9397
924.201	9519
924.309	9416
924.417	9420
924.525	9275
924.633	9329
924.741	10295
924.849	9169
924.956	9283
925.064	9188
925.172	9043
925.279	9184
925.387	9207
925.494	9203
925.602	9329
925.709	9329
925.816	9127
925.924	9169
926.031	9222
926.138	9222
926.245	9188
926.352	9150
926.459	9291
926.566	9272
926.673	9211
926.779	9055
926.886	8990
926.993	9009
927.099	8910
927.206	8895
927.312	8944
927.419	8929
927.525	8872
927.631	8876
927.737	8807
927.843	8727
927.95	8712
928.056	8727
928.162	8815
928.267	8857
928.373	9363
928.479	8880
928.585	8636
928.69	8739
928.796	8804
928.901	8651
929.007	8625
929.112	8686
929.218	8613
929.323	8575
929.428	8644
929.533	8746
929.638	8594
929.743	8632
929.848	8663
929.953	8511
930.058	8484
930.163	8328
930.267	8324
930.372	8518
930.477	8328
930.581	8598
930.685	8446
930.79	8305
930.894	8358
930.998	8282
931.103	8415
931.207	8119
931.311	8073
931.415	8020
931.519	7852
931.623	7811
