Data from test_V78500241_996.txt Node
Date: Fri Mar 25 14:40:39 CST 2022
User: usil
Spectrometer: V785-0024
Trigger mode: 0
Integration Time (sec): 4.000000E-1
Scans to average: 1
Nonlinearity correction enabled: false
Boxcar width: 0
Storing dark spectrum: false
XAxis mode: Wavelengths
Number of Pixels in Spectrum: 1024
>>>>>Begin Spectral Data<<<<<
801.071	23204
801.214	23041
801.356	22797
801.499	22725
801.641	22470
801.783	22546
801.926	22535
802.068	22325
802.211	22310
802.353	22268
802.496	22074
802.638	22032
802.78	21915
802.923	21895
803.065	21831
803.208	21800
803.35	21747
803.492	21918
803.635	21991
803.777	21831
803.919	21823
804.061	22325
804.204	21895
804.346	21751
804.488	21622
804.63	21857
804.773	21766
804.915	21766
805.057	21918
805.199	21869
805.341	21778
805.483	21880
805.626	21857
805.768	21808
805.91	21808
806.052	21816
806.194	21876
806.336	22070
806.478	21964
806.62	21956
806.762	21873
806.904	22105
807.046	22432
807.188	22318
807.33	22306
807.472	22493
807.614	22341
807.756	22459
807.898	22253
808.04	22394
808.182	22459
808.324	22687
808.465	22805
808.607	23121
808.749	23368
808.891	23558
809.033	23775
809.174	23387
809.316	23239
809.458	22984
809.6	22805
809.741	22782
809.883	22618
810.025	22725
810.166	22599
810.308	22531
810.45	22561
810.591	22363
810.733	22295
810.875	22169
811.016	21972
811.158	22078
811.299	22207
811.441	22219
811.582	22128
811.724	22105
811.865	22048
812.007	22067
812.148	22188
812.29	22006
812.431	22185
812.573	22356
812.714	22424
812.855	22577
812.997	22557
813.138	22717
813.279	22626
813.421	22478
813.562	22500
813.703	22375
813.845	22265
813.986	21964
814.127	21747
814.268	21724
814.41	21739
814.551	21618
814.692	21622
814.833	21576
814.974	21587
815.115	21557
815.256	21397
815.397	21374
815.539	21481
815.68	21195
815.821	21207
815.962	21279
816.103	21199
816.244	21135
816.385	21066
816.526	20998
816.666	20762
816.807	20762
816.948	20720
817.089	20773
817.23	20750
817.371	20735
817.512	20746
817.653	20811
817.793	20640
817.934	20648
818.075	20773
818.216	20746
818.356	20701
818.497	20427
818.638	20457
818.778	20476
818.919	20438
819.06	20412
819.2	20499
819.341	20533
819.481	20651
819.622	20678
819.762	20815
819.903	20800
820.043	20777
820.184	20845
820.324	20629
820.465	20781
820.605	20682
820.746	20571
820.886	20461
821.026	20735
821.167	20602
821.307	20678
821.447	20533
821.588	20594
821.728	20374
821.868	20218
822.008	20092
822.149	20077
822.289	19974
822.429	19822
822.569	19746
822.709	19753
822.849	19506
822.99	19605
823.13	19464
823.27	19422
823.41	19487
823.55	19339
823.69	19392
823.83	19293
823.97	19236
824.11	19145
824.25	19050
824.389	19152
824.529	19148
824.669	19148
824.809	19266
824.949	19301
825.089	19107
825.228	19038
825.368	18886
825.508	18932
825.648	18882
825.787	19004
825.927	19027
826.067	18833
826.206	18867
826.346	18924
826.485	18890
826.625	18882
826.765	19000
826.904	18768
827.044	18658
827.183	18635
827.323	18506
827.462	18677
827.601	18566
827.741	18627
827.88	18563
828.02	18460
828.159	18673
828.298	18559
828.437	18673
828.577	18566
828.716	18684
828.855	18547
828.994	18372
829.134	18357
829.273	18395
829.412	18319
829.551	18270
829.69	18391
829.829	18395
829.968	18429
830.107	18380
830.246	18346
830.385	18209
830.524	18045
830.663	18182
830.802	18038
830.941	17931
831.08	17817
831.219	17999
831.357	18030
831.496	18228
831.635	17954
831.774	17908
831.913	17802
832.051	17741
832.19	17680
832.329	17760
832.467	17608
832.606	17672
832.744	17642
832.883	17581
833.022	17562
833.16	17767
833.299	17741
833.437	17604
833.576	17756
833.714	17786
833.852	17737
833.991	17737
834.129	17813
834.267	17809
834.406	17790
834.544	17790
834.682	17889
834.821	17817
834.959	17901
835.097	17733
835.235	17798
835.373	17752
835.511	17687
835.65	17672
835.788	17577
835.926	17395
836.064	17505
836.202	17478
836.34	17672
836.478	17604
836.615	17585
836.753	17592
836.891	17665
837.029	17551
837.167	17558
837.305	17459
837.443	17497
837.58	17376
837.718	17528
837.856	17448
837.993	17471
838.131	17417
838.269	17383
838.406	17433
838.544	17322
838.681	17136
838.819	17056
838.956	16908
839.094	16854
839.231	17052
839.369	17064
839.506	17326
839.643	17128
839.781	16976
839.918	16839
840.055	17060
840.193	16934
840.33	16866
840.467	16862
840.604	16942
840.742	17189
840.879	16885
841.016	16812
841.153	16866
841.29	17014
841.427	16942
841.564	17010
841.701	16938
841.838	16942
841.975	16862
842.112	16790
842.249	16664
842.385	16691
842.522	17014
842.659	16736
842.796	16565
842.933	16759
843.069	16702
843.206	16672
843.343	16729
843.479	16668
843.616	16809
843.752	16371
843.889	16542
844.025	16664
844.162	16504
844.298	16493
844.435	16584
844.571	16447
844.708	16481
844.844	16782
844.98	16698
845.117	16660
845.253	16500
845.389	16626
845.525	16835
845.661	17124
845.798	17410
845.934	17828
846.07	17802
846.206	17821
846.342	17729
846.478	17223
846.614	16786
846.75	16394
846.886	16257
847.022	16268
847.158	16211
847.294	16143
847.429	16124
847.565	16029
847.701	16272
847.837	15838
847.972	15774
848.108	15899
848.244	15808
848.379	15713
848.515	15690
848.65	15576
848.786	15682
848.921	15667
849.057	15739
849.192	15717
849.328	15641
849.463	15698
849.598	15614
849.734	15549
849.869	15443
850.004	15382
850.14	15370
850.275	15420
850.41	15294
850.545	15389
850.68	15298
850.815	15447
850.95	15401
851.085	15534
851.22	15553
851.355	15283
851.49	15329
851.625	15348
851.76	15344
851.895	15340
852.03	15310
852.165	15412
852.299	15466
852.434	15538
852.569	15519
852.703	15370
852.838	15443
852.973	15542
853.107	15610
853.242	15336
853.376	15245
853.511	15104
853.645	15169
853.78	15412
853.914	15363
854.048	15230
854.183	15222
854.317	15233
854.451	15428
854.585	15249
854.72	15226
854.854	15306
854.988	15192
855.122	15218
855.256	15081
855.39	15260
855.524	15218
855.658	15176
855.792	15291
855.926	15344
856.06	15336
856.194	15317
856.327	15218
856.461	15131
856.595	15268
856.729	15306
856.862	15370
856.996	15370
857.13	15355
857.263	15389
857.397	15473
857.53	15332
857.664	15249
857.797	15279
857.931	15458
858.064	15367
858.197	15378
858.331	15249
858.464	15207
858.597	15131
858.731	15291
858.864	15264
858.997	15165
859.13	15245
859.263	15233
859.396	15264
859.529	15268
859.662	15256
859.795	15116
859.928	15313
860.061	15351
860.194	15405
860.327	15226
860.46	15214
860.592	15348
860.725	15302
860.858	15367
860.99	15218
861.123	15218
861.256	15218
861.388	15252
861.521	15911
861.653	15150
861.786	15142
861.918	15104
862.05	15135
862.183	15245
862.315	15165
862.447	15260
862.58	15256
862.712	14944
862.844	14918
862.976	15093
863.108	15062
863.24	15382
863.372	14952
863.504	15013
863.636	15039
863.768	15036
863.9	15100
864.032	14967
864.164	14937
864.296	14986
864.428	15066
864.559	15108
864.691	15108
864.823	15062
864.954	14960
865.086	15043
865.217	14986
865.349	14948
865.48	15032
865.612	15070
865.743	15119
865.875	15017
866.006	14971
866.137	14960
866.269	14963
866.4	14971
866.531	14830
866.662	14963
866.793	14986
866.924	15017
867.055	15055
867.186	14929
867.317	14990
867.448	14876
867.579	14910
867.71	14853
867.841	14868
867.972	15028
868.103	14929
868.233	14994
868.364	15036
868.495	14990
868.625	15218
868.756	15340
868.886	15112
869.017	15199
869.147	15374
869.278	15363
869.408	15203
869.539	15237
869.669	15230
869.799	15279
869.929	15405
870.06	15348
870.19	15496
870.32	15542
870.45	15408
870.58	15603
870.71	15667
870.84	15812
870.97	15549
871.1	15523
871.23	15789
871.36	15774
871.489	15644
871.619	15793
871.749	15831
871.879	15922
872.008	15953
872.138	15770
872.267	15660
872.397	15625
872.526	15622
872.656	15701
872.785	15736
872.915	15812
873.044	15934
873.173	15895
873.303	15926
873.432	15854
873.561	15983
873.69	15861
873.819	15816
873.948	15972
874.077	15888
874.206	15823
874.335	15873
874.464	16002
874.593	16139
874.722	16204
874.851	16093
874.979	16226
875.108	16257
875.237	16166
875.365	16082
875.494	16093
875.623	16226
875.751	16192
875.88	16344
876.008	16443
876.136	16386
876.265	16565
876.393	16748
876.521	16675
876.65	16641
876.778	16645
876.906	16653
877.034	16577
877.162	16660
877.29	16550
877.418	16634
877.546	16603
877.674	16622
877.802	16622
877.93	16698
878.058	16626
878.185	16542
878.313	16729
878.441	16748
878.568	16455
878.696	16679
878.824	16820
878.951	16889
879.079	17189
879.206	17307
879.333	17189
879.461	17326
879.588	17379
879.715	17532
879.842	17611
879.97	17258
880.097	16896
880.224	16816
880.351	16854
880.478	16721
880.605	16725
880.732	16664
880.859	16809
880.986	16645
881.112	16698
881.239	16512
881.366	16398
881.493	16306
881.619	16284
881.746	16367
881.872	16234
881.999	16303
882.125	16207
882.252	16295
882.378	16246
882.505	16459
882.631	16242
882.757	16105
882.883	16112
883.01	16158
883.136	16074
883.262	16055
883.388	16021
883.514	16055
883.64	16139
883.766	16010
883.892	15869
884.018	15888
884.143	15983
884.269	16093
884.395	15934
884.52	15713
884.646	15778
884.772	15774
884.897	15778
885.023	15823
885.148	15865
885.274	15873
885.399	15964
885.524	15759
885.65	15831
885.775	15819
885.9	15854
886.025	15899
886.15	15682
886.275	15679
886.4	15717
886.525	15633
886.65	15614
886.775	15663
886.9	15785
887.025	15945
887.149	15713
887.274	15576
887.399	15412
887.523	15412
887.648	15420
887.773	15428
887.897	15549
888.021	15526
888.146	15298
888.27	15401
888.395	15473
888.519	15580
888.643	15511
888.767	15606
888.891	15348
889.015	15340
889.139	15397
889.263	15321
889.387	15374
889.511	15526
889.635	15526
889.759	15252
889.883	15207
890.006	15435
890.13	15332
890.254	15252
890.377	15233
890.501	15100
890.624	14986
890.748	15100
890.871	15043
890.995	14895
891.118	14960
891.241	14925
891.364	14929
891.488	15070
891.611	14941
891.734	14952
891.857	14975
891.98	15005
892.103	15066
892.226	15020
892.349	14876
892.471	14758
892.594	14933
892.717	14933
892.839	14872
892.962	14906
893.085	15093
893.207	14948
893.33	14792
893.452	14834
893.575	15116
893.697	14891
893.819	15146
893.941	15081
894.064	15127
894.186	14952
894.308	14845
894.43	15055
894.552	15150
894.674	14986
894.796	14960
894.918	14990
895.04	14956
895.161	15070
895.283	15066
895.405	14895
895.526	14982
895.648	14982
895.769	15085
895.891	15055
896.012	15176
896.134	15108
896.255	15070
896.376	14990
896.498	14960
896.619	15123
896.74	15142
896.861	15081
896.982	15420
897.103	15663
897.224	15374
897.345	15416
897.466	15291
897.587	15310
897.708	15481
897.828	15397
897.949	15389
898.07	15252
898.19	15302
898.311	15443
898.431	15378
898.552	15382
898.672	15545
898.792	15435
898.913	15447
899.033	15496
899.153	15264
899.273	15256
899.393	15363
899.513	15249
899.633	15329
899.753	15272
899.873	15165
899.993	15363
900.113	15226
900.232	15279
900.352	15264
900.472	15230
900.591	15112
900.711	15154
900.83	15047
900.95	15180
901.069	15192
901.189	15055
901.308	14880
901.427	14773
901.546	14796
901.665	14762
901.784	14906
901.904	14678
902.023	14606
902.141	14362
902.26	14442
902.379	14476
902.498	14355
902.617	14305
902.735	14423
902.854	14374
902.973	14294
903.091	14100
903.21	14096
903.328	14039
903.446	13944
903.565	13833
903.683	13833
903.801	13761
903.919	13906
904.038	13898
904.156	13609
904.274	13856
904.392	13643
904.51	13674
904.627	13700
904.745	13704
904.863	13696
904.981	13457
905.098	13320
905.216	13377
905.334	13392
905.451	13259
905.569	13316
905.686	13384
905.803	13301
905.921	13152
906.038	13297
906.155	13274
906.272	13072
906.389	13103
906.506	12966
906.623	12947
906.74	12954
906.857	12897
906.974	12875
907.091	12924
907.208	13065
907.324	13027
907.441	12848
907.557	12684
907.674	12635
907.79	12665
907.907	12578
908.023	12681
908.139	12658
908.256	12608
908.372	12635
908.488	12483
908.604	12426
908.72	12388
908.836	12395
908.952	12311
909.068	12441
909.184	12601
909.3	12426
909.415	12456
909.531	12517
909.647	12178
909.762	12197
909.878	12140
909.993	12155
910.108	12106
910.224	12159
910.339	12175
910.454	12022
910.57	12022
910.685	11958
910.8	12308
910.915	12197
911.03	12060
911.145	11855
911.259	11980
911.374	11832
911.489	11760
911.604	11775
911.718	11684
911.833	11596
911.947	11551
912.062	11368
912.176	11615
912.291	11604
912.405	11630
912.519	11802
912.633	11805
912.748	11764
912.862	11646
912.976	11433
913.09	11307
913.204	11482
913.318	11516
913.431	11596
913.545	11608
913.659	11653
913.772	11425
913.886	11402
914	11318
914.113	11440
914.226	11482
914.34	11391
914.453	11250
914.566	11356
914.68	11345
914.793	11322
914.906	11178
915.019	11086
915.132	11056
915.245	11067
915.358	11029
915.47	11094
915.583	11067
915.696	11143
915.809	11250
915.921	11193
916.034	11094
916.146	11060
916.259	11025
916.371	11151
916.483	11045
916.595	10995
916.708	10976
916.82	11090
916.932	11029
917.044	10949
917.156	10923
917.268	10942
917.38	10949
917.491	10831
917.603	10930
917.715	11014
917.826	11071
917.938	10911
918.049	10748
918.161	10869
918.272	10965
918.384	11037
918.495	10934
918.606	10740
918.717	10733
918.828	10793
918.939	10824
919.05	10668
919.161	10801
919.272	10516
919.383	10565
919.494	10820
919.604	11010
919.715	10858
919.826	10702
919.936	10782
920.047	10805
920.157	10790
920.267	11086
920.378	10752
920.488	10660
920.598	10984
920.708	11075
920.818	10896
920.928	10984
921.038	11098
921.148	11041
921.258	10786
921.368	10656
921.477	10603
921.587	10584
921.697	10390
921.806	10660
921.916	10531
922.025	10303
922.134	10310
922.244	10219
922.353	10371
922.462	10188
922.571	10131
922.68	10032
922.789	9983
922.898	9949
923.007	9895
923.116	10032
923.224	10040
923.333	9934
923.442	9953
923.55	9918
923.659	9876
923.767	9953
923.876	9808
923.984	9937
924.092	9770
924.201	9838
924.309	9884
924.417	9850
924.525	9766
924.633	9770
924.741	10694
924.849	9606
924.956	9713
925.064	9553
925.172	9526
925.279	9561
925.387	9698
925.494	9614
925.602	9781
925.709	9618
925.816	9553
925.924	9572
926.031	9648
926.138	9561
926.245	9728
926.352	9515
926.459	9603
926.566	9679
926.673	9648
926.779	9492
926.886	9511
926.993	9329
927.099	9253
927.206	9203
927.312	9249
927.419	9344
927.525	9329
927.631	9359
927.737	9287
927.843	9203
927.95	9138
928.056	9161
928.162	9214
928.267	9272
928.373	9732
928.479	9310
928.585	9005
928.69	9161
928.796	9199
928.901	9062
929.007	8967
929.112	9131
929.218	9123
929.323	8986
929.428	8990
929.533	9127
929.638	8971
929.743	8944
929.848	9097
929.953	8998
930.058	8921
930.163	8689
930.267	8762
930.372	8887
930.477	8689
930.581	9020
930.685	8781
930.79	8731
930.894	8750
930.998	8727
931.103	8872
931.207	8522
931.311	8457
931.415	8389
931.519	8240
931.623	8168
