Data from test_V78500241_550.txt Node
Date: Fri Mar 25 14:37:32 CST 2022
User: usil
Spectrometer: V785-0024
Trigger mode: 0
Integration Time (sec): 4.000000E-1
Scans to average: 1
Nonlinearity correction enabled: false
Boxcar width: 0
Storing dark spectrum: false
XAxis mode: Wavelengths
Number of Pixels in Spectrum: 1024
>>>>>Begin Spectral Data<<<<<
801.071	27663
801.214	27492
801.356	27188
801.499	27131
801.641	27039
801.783	26823
801.926	26940
802.068	26864
802.211	26800
802.353	26773
802.496	26598
802.638	26537
802.78	26530
802.923	26351
803.065	26317
803.208	26404
803.35	26469
803.492	26533
803.635	26568
803.777	26434
803.919	26590
804.061	26826
804.204	26518
804.346	26507
804.488	26419
804.63	26438
804.773	26469
804.915	26682
805.057	26621
805.199	26621
805.341	26864
805.483	26819
805.626	26815
805.768	26746
805.91	26925
806.052	26746
806.194	26880
806.336	27108
806.478	27104
806.62	27116
806.762	27317
806.904	27724
807.046	28070
807.188	28124
807.33	28082
807.472	28478
807.614	28721
807.756	29094
807.898	29452
808.04	30030
808.182	31057
808.324	32202
808.465	33534
808.607	34991
808.749	36129
808.891	36875
809.033	36894
809.174	36072
809.316	34949
809.458	33447
809.6	31830
809.741	30977
809.883	30041
810.025	29455
810.166	29159
810.308	28725
810.45	28455
810.591	28200
810.733	27922
810.875	27663
811.016	27500
811.158	27386
811.299	27466
811.441	27538
811.582	27405
811.724	27279
811.865	27089
812.007	27047
812.148	27051
812.29	27009
812.431	27123
812.573	27150
812.714	27291
812.855	27363
812.997	27648
813.138	27641
813.279	27408
813.421	27355
813.562	27245
813.703	27211
813.845	26925
813.986	26667
814.127	26560
814.268	26339
814.41	26381
814.551	26298
814.692	26389
814.833	26130
814.974	26218
815.115	26244
815.256	25993
815.397	26046
815.539	25993
815.68	25989
815.821	25871
815.962	25947
816.103	25837
816.244	25769
816.385	25685
816.526	25506
816.666	25308
816.807	25346
816.948	25316
817.089	25544
817.23	25381
817.371	25206
817.512	25266
817.653	25141
817.793	25168
817.934	25228
818.075	25118
818.216	25247
818.356	25171
818.497	25065
818.638	24935
818.778	24970
818.919	24875
819.06	25038
819.2	25046
819.341	25187
819.481	24989
819.622	25183
819.762	25537
819.903	25369
820.043	25263
820.184	25198
820.324	25304
820.465	25274
820.605	25065
820.746	25221
820.886	24958
821.026	25072
821.167	25084
821.307	25103
821.447	24962
821.588	24817
821.728	24753
821.868	24688
822.008	24517
822.149	24505
822.289	24452
822.429	24121
822.569	24186
822.709	24102
822.849	23840
822.99	23927
823.13	23802
823.27	23965
823.41	23684
823.55	23668
823.69	23642
823.83	23684
823.97	23615
824.11	23406
824.25	23402
824.389	23444
824.529	23455
824.669	23231
824.809	23471
824.949	23505
825.089	23509
825.228	23376
825.368	23322
825.508	23170
825.648	23254
825.787	23311
825.927	23296
826.067	23170
826.206	23204
826.346	23124
826.485	23235
826.625	23155
826.765	23349
826.904	23269
827.044	22885
827.183	23041
827.323	22831
827.462	22911
827.601	22911
827.741	22774
827.88	22869
828.02	22748
828.159	22683
828.298	22847
828.437	22919
828.577	22771
828.716	22904
828.855	22831
828.994	22641
829.134	22512
829.273	22535
829.412	22478
829.551	22546
829.69	22596
829.829	22649
829.968	22554
830.107	22592
830.246	22668
830.385	22360
830.524	22440
830.663	22432
830.802	22234
830.941	22070
831.08	22109
831.219	22249
831.357	22261
831.496	22318
831.635	22082
831.774	21964
831.913	22093
832.051	21983
832.19	22025
832.329	21934
832.467	21998
832.606	21865
832.744	21793
832.883	21819
833.022	21857
833.16	21915
833.299	22055
833.437	22074
833.576	22086
833.714	22166
833.852	22234
833.991	22379
834.129	22287
834.267	22398
834.406	22261
834.544	22382
834.682	22177
834.821	22147
834.959	22211
835.097	22006
835.235	21911
835.373	21873
835.511	21876
835.65	21709
835.788	21739
835.926	21530
836.064	21519
836.202	21519
836.34	21751
836.478	21778
836.615	21553
836.753	21652
836.891	21686
837.029	21644
837.167	21580
837.305	21587
837.443	21568
837.58	21249
837.718	21412
837.856	21511
837.993	21504
838.131	21466
838.269	21252
838.406	21344
838.544	21222
838.681	21001
838.819	21039
838.956	21039
839.094	20845
839.231	20941
839.369	20948
839.506	21275
839.643	21123
839.781	20956
839.918	20849
840.055	20746
840.193	20857
840.33	20792
840.467	20910
840.604	20826
840.742	21032
840.879	20678
841.016	20686
841.153	20686
841.29	20845
841.427	20853
841.564	20891
841.701	20815
841.838	20708
841.975	20731
842.112	20651
842.249	20609
842.385	20552
842.522	20781
842.659	20549
842.796	20552
842.933	20552
843.069	20492
843.206	20598
843.343	20754
843.479	20602
843.616	20507
843.752	20480
843.889	20347
844.025	20560
844.162	20396
844.298	20556
844.435	20621
844.571	20579
844.708	20834
844.844	21032
844.98	21123
845.117	21431
845.253	21751
845.389	22493
845.525	24007
845.661	26168
845.798	29109
845.934	31411
846.07	32408
846.206	31986
846.342	30034
846.478	27058
846.614	24525
846.75	22641
846.886	21667
847.022	21066
847.158	20606
847.294	20442
847.429	20271
847.565	20157
847.701	20271
847.837	19811
847.972	19628
848.108	19620
848.244	19677
848.379	19559
848.515	19495
848.65	19381
848.786	19350
848.921	19381
849.057	19518
849.192	19422
849.328	19415
849.463	19392
849.598	19285
849.734	19274
849.869	19145
850.004	19171
850.14	19042
850.275	19091
850.41	19031
850.545	19008
850.68	19088
850.815	19091
850.95	19038
851.085	19160
851.22	19118
851.355	19046
851.49	19103
851.625	19008
851.76	19015
851.895	18958
852.03	18954
852.165	19050
852.299	19038
852.434	19118
852.569	19084
852.703	18993
852.838	19084
852.973	19236
853.107	19209
853.242	19057
853.376	18985
853.511	18840
853.645	18905
853.78	18958
853.914	19027
854.048	19076
854.183	18985
854.317	19179
854.451	19228
854.585	18939
854.72	19088
854.854	19023
854.988	19015
855.122	18993
855.256	18840
855.39	18867
855.524	18973
855.658	18958
855.792	19050
855.926	18871
856.06	18939
856.194	18852
856.327	18981
856.461	18829
856.595	18810
856.729	18779
856.862	18875
856.996	18875
857.13	18954
857.263	18973
857.397	19004
857.53	18840
857.664	18844
857.797	18882
857.931	19015
858.064	18916
858.197	18954
858.331	18852
858.464	18726
858.597	18661
858.731	18833
858.864	18779
858.997	18730
859.13	18741
859.263	18726
859.396	18909
859.529	18738
859.662	18764
859.795	18764
859.928	18798
860.061	18886
860.194	18901
860.327	18848
860.46	18681
860.592	18905
860.725	18886
860.858	18897
860.99	18791
861.123	18696
861.256	18787
861.388	18787
861.521	19373
861.653	18639
861.786	18658
861.918	18669
862.05	18665
862.183	18840
862.315	18707
862.447	18783
862.58	18642
862.712	18486
862.844	18407
862.976	18563
863.108	18547
863.24	18886
863.372	18388
863.504	18475
863.636	18544
863.768	18509
863.9	18445
864.032	18410
864.164	18403
864.296	18388
864.428	18536
864.559	18528
864.691	18521
864.823	18418
864.954	18403
865.086	18403
865.217	18330
865.349	18361
865.48	18399
865.612	18365
865.743	18563
865.875	18327
866.006	18418
866.137	18407
866.269	18475
866.4	18353
866.531	18285
866.662	18308
866.793	18247
866.924	18372
867.055	18475
867.186	18308
867.317	18338
867.448	18384
867.579	18304
867.71	18213
867.841	18334
867.972	18315
868.103	18353
868.233	18365
868.364	18327
868.495	18365
868.625	18506
868.756	18612
868.886	18608
869.017	18555
869.147	18635
869.278	18806
869.408	18631
869.539	18597
869.669	18669
869.799	18635
869.929	18787
870.06	18776
870.19	19023
870.32	18920
870.45	18943
870.58	18958
870.71	19145
870.84	19164
870.97	18993
871.1	19046
871.23	19202
871.36	19270
871.489	19057
871.619	19133
871.749	19316
871.879	19320
872.008	19327
872.138	19221
872.267	19148
872.397	19023
872.526	19012
872.656	19095
872.785	19107
872.915	19278
873.044	19381
873.173	19331
873.303	19392
873.432	19434
873.561	19445
873.69	19430
873.819	19251
873.948	19502
874.077	19270
874.206	19426
874.335	19552
874.464	19567
874.593	19605
874.722	19677
874.851	19757
874.979	19769
875.108	19807
875.237	19700
875.365	19719
875.494	19864
875.623	19849
875.751	19769
875.88	19871
876.008	20016
876.136	20138
876.265	20507
876.393	20393
876.521	20385
876.65	20434
876.778	20514
876.906	20427
877.034	20476
877.162	20473
877.29	20450
877.418	20507
877.546	20667
877.674	20492
877.802	20785
877.93	20678
878.058	20746
878.185	20739
878.313	20990
878.441	21104
878.568	21104
878.696	21382
878.824	21755
878.951	22344
879.079	23109
879.206	24007
879.333	24909
879.461	25597
879.588	26027
879.715	26202
879.842	25932
879.97	24844
880.097	23741
880.224	22976
880.351	22428
880.478	22223
880.605	21956
880.732	21819
880.859	21876
880.986	21629
881.112	21485
881.239	21439
881.366	21241
881.493	21142
881.619	21214
881.746	21260
881.872	21214
881.999	21146
882.125	21138
882.252	21332
882.378	21340
882.505	21435
882.631	21081
882.757	20998
882.883	21093
883.01	21081
883.136	20979
883.262	20895
883.388	20906
883.514	20948
883.64	20971
883.766	21032
883.892	20716
884.018	20819
884.143	21013
884.269	20921
884.395	20705
884.52	20765
884.646	20781
884.772	20632
884.897	20629
885.023	20682
885.148	20769
885.274	20807
885.399	20640
885.524	20648
885.65	20564
885.775	20469
885.9	20355
886.025	20476
886.15	20301
886.275	20252
886.4	20202
886.525	20043
886.65	20092
886.775	19970
886.9	20161
887.025	20244
887.149	19849
887.274	19700
887.399	19620
887.523	19586
887.648	19544
887.773	19358
887.897	19533
888.021	19441
888.146	19339
888.27	19476
888.395	19556
888.519	19441
888.643	19369
888.767	19358
888.891	19236
889.015	19118
889.139	19206
889.263	19091
889.387	19148
889.511	19312
889.635	19114
889.759	18954
889.883	18943
890.006	18996
890.13	19046
890.254	18905
890.377	18932
890.501	18707
890.624	18646
890.748	18726
890.871	18597
890.995	18502
891.118	18471
891.241	18551
891.364	18483
891.488	18536
891.611	18445
891.734	18433
891.857	18460
891.98	18418
892.103	18540
892.226	18429
892.349	18407
892.471	18186
892.594	18266
892.717	18350
892.839	18304
892.962	18251
893.085	18292
893.207	18266
893.33	18163
893.452	18201
893.575	18281
893.697	18209
893.819	18376
893.941	18357
894.064	18338
894.186	18076
894.308	18095
894.43	18239
894.552	18350
894.674	18194
894.796	18026
894.918	18197
895.04	18083
895.161	18182
895.283	18174
895.405	18038
895.526	18110
895.648	18098
895.769	18060
895.891	18155
896.012	18098
896.134	18079
896.255	18079
896.376	17980
896.498	18072
896.619	18174
896.74	18125
896.861	18136
896.982	18456
897.103	18585
897.224	18441
897.345	18342
897.466	18273
897.587	18209
897.708	18433
897.828	18319
897.949	18251
898.07	18174
898.19	18311
898.311	18289
898.431	18304
898.552	18376
898.672	18486
898.792	18319
898.913	18418
899.033	18228
899.153	18159
899.273	18011
899.393	18022
899.513	18095
899.633	18117
899.753	18110
899.873	18095
899.993	18038
900.113	18060
900.232	18034
900.352	18057
900.472	18049
900.591	17980
900.711	18011
900.83	17859
900.95	18011
901.069	17996
901.189	17901
901.308	17558
901.427	17551
901.546	17558
901.665	17535
901.784	17448
901.904	17455
902.023	17231
902.141	17174
902.26	17033
902.379	17117
902.498	16949
902.617	16984
902.735	16961
902.854	17098
902.973	16976
903.091	16656
903.21	16649
903.328	16649
903.446	16584
903.565	16447
903.683	16497
903.801	16356
903.919	16474
904.038	16504
904.156	16318
904.274	16268
904.392	16238
904.51	16207
904.627	16139
904.745	16246
904.863	16185
904.981	16078
905.098	15903
905.216	16036
905.334	15918
905.451	15884
905.569	15949
905.686	15838
905.803	15762
905.921	15709
906.038	15690
906.155	15629
906.272	15580
906.389	15557
906.506	15504
906.623	15447
906.74	15447
906.857	15294
906.974	15294
907.091	15488
907.208	15473
907.324	15367
907.441	15302
907.557	15108
907.674	15108
907.79	15097
907.907	15131
908.023	15108
908.139	15039
908.256	14967
908.372	15062
908.488	14899
908.604	14781
908.72	14834
908.836	14838
908.952	14750
909.068	14750
909.184	14857
909.3	14773
909.415	14914
909.531	14746
909.647	14564
909.762	14514
909.878	14389
909.993	14499
910.108	14495
910.224	14568
910.339	14507
910.454	14404
910.57	14415
910.685	14252
910.8	14530
910.915	14404
911.03	14317
911.145	14092
911.259	14050
911.374	14103
911.489	13974
911.604	13986
911.718	13818
911.833	13951
911.947	13723
912.062	13700
912.176	13818
912.291	13868
912.405	13875
912.519	13997
912.633	14008
912.748	13947
912.862	13921
912.976	13784
913.09	13597
913.204	13681
913.318	13738
913.431	13799
913.545	13830
913.659	13811
913.772	13647
913.886	13597
914	13563
914.113	13567
914.226	13666
914.34	13586
914.453	13434
914.566	13529
914.68	13457
914.793	13430
914.906	13217
915.019	13187
915.132	13179
915.245	13206
915.358	13171
915.47	13126
915.583	13194
915.696	13225
915.809	13358
915.921	13285
916.034	13175
916.146	13145
916.259	13202
916.371	13259
916.483	13168
916.595	13099
916.708	13129
916.82	13107
916.932	12973
917.044	13042
917.156	13012
917.268	13027
917.38	12962
917.491	12977
917.603	12966
917.715	13046
917.826	12989
917.938	12886
918.049	12802
918.161	12954
918.272	13122
918.384	12947
918.495	12977
918.606	12662
918.717	12662
918.828	12711
918.939	12798
919.05	12620
919.161	12734
919.272	12452
919.383	12623
919.494	12745
919.604	12817
919.715	12696
919.826	12597
919.936	12608
920.047	12814
920.157	12707
920.267	12871
920.378	12692
920.488	12673
920.598	12859
920.708	13000
920.818	12859
920.928	12844
921.038	12913
921.148	12901
921.258	12692
921.368	12589
921.477	12490
921.587	12418
921.697	12357
921.806	12486
921.916	12270
922.025	12144
922.134	12060
922.244	12155
922.353	12152
922.462	12019
922.571	11954
922.68	11756
922.789	11756
922.898	11863
923.007	11710
923.116	11775
923.224	11729
923.333	11710
923.442	11718
923.55	11661
923.659	11668
923.767	11699
923.876	11535
923.984	11604
924.092	11528
924.201	11524
924.309	11596
924.417	11482
924.525	11440
924.633	11543
924.741	12353
924.849	11303
924.956	11592
925.064	11360
925.172	11299
925.279	11280
925.387	11326
925.494	11284
925.602	11398
925.709	11387
925.816	11204
925.924	11212
926.031	11311
926.138	11254
926.245	11277
926.352	11143
926.459	11296
926.566	11372
926.673	11231
926.779	11086
926.886	11098
926.993	10915
927.099	10980
927.206	10942
927.312	10850
927.419	10980
927.525	10801
927.631	10923
927.737	10869
927.843	10839
927.95	10687
928.056	10763
928.162	10873
928.267	10797
928.373	11277
928.479	10930
928.585	10607
928.69	10736
928.796	10771
928.901	10721
929.007	10531
929.112	10615
929.218	10512
929.323	10573
929.428	10508
929.533	10668
929.638	10481
929.743	10546
929.848	10527
929.953	10470
930.058	10390
930.163	10261
930.267	10246
930.372	10341
930.477	10249
930.581	10424
930.685	10306
930.79	10166
930.894	10150
930.998	10105
931.103	10230
931.207	9949
931.311	9861
931.415	9743
931.519	9656
931.623	9507
