Data from test_V78500241_3049.txt Node
Date: Fri Mar 25 14:54:56 CST 2022
User: usil
Spectrometer: V785-0024
Trigger mode: 0
Integration Time (sec): 4.000000E-1
Scans to average: 1
Nonlinearity correction enabled: false
Boxcar width: 0
Storing dark spectrum: false
XAxis mode: Wavelengths
Number of Pixels in Spectrum: 1024
>>>>>Begin Spectral Data<<<<<
801.071	22036
801.214	21911
801.356	21679
801.499	21618
801.641	21439
801.783	21485
801.926	21374
802.068	21447
802.211	21294
802.353	21332
802.496	20941
802.638	20956
802.78	20853
802.923	20845
803.065	20826
803.208	20845
803.35	20792
803.492	20781
803.635	20941
803.777	20682
803.919	20800
804.061	21112
804.204	20849
804.346	20708
804.488	20655
804.63	20849
804.773	20826
804.915	20682
805.057	20735
805.199	20712
805.341	20678
805.483	20807
805.626	20682
805.768	20735
805.91	20758
806.052	20743
806.194	20674
806.336	20872
806.478	20674
806.62	20609
806.762	20609
806.904	20792
807.046	21089
807.188	20967
807.33	21009
807.472	21055
807.614	20990
807.756	20944
807.898	20864
808.04	20735
808.182	20788
808.324	20811
808.465	20872
808.607	21028
808.749	21112
808.891	21222
809.033	21310
809.174	21051
809.316	20967
809.458	21043
809.6	21024
809.741	21180
809.883	21150
810.025	21188
810.166	21226
810.308	21241
810.45	21199
810.591	21070
810.733	20979
810.875	20956
811.016	20731
811.158	20731
811.299	20998
811.441	20944
811.582	20918
811.724	20902
811.865	20838
812.007	20868
812.148	20826
812.29	20910
812.431	20994
812.573	21081
812.714	21275
812.855	21313
812.997	21466
813.138	21603
813.279	21450
813.421	21420
813.562	21325
813.703	21055
813.845	21001
813.986	20689
814.127	20469
814.268	20450
814.41	20480
814.551	20374
814.692	20480
814.833	20404
814.974	20298
815.115	20412
815.256	20256
815.397	20332
815.539	20161
815.68	20187
815.821	20096
815.962	20237
816.103	20039
816.244	20058
816.385	19822
816.526	19689
816.666	19624
816.807	19499
816.948	19540
817.089	19734
817.23	19540
817.371	19480
817.512	19563
817.653	19582
817.793	19533
817.934	19582
818.075	19506
818.216	19567
818.356	19548
818.497	19278
818.638	19156
818.778	19114
818.919	19213
819.06	19221
819.2	19358
819.341	19396
819.481	19407
819.622	19533
819.762	19765
819.903	19609
820.043	19559
820.184	19540
820.324	19388
820.465	19499
820.605	19540
820.746	19445
820.886	19289
821.026	19556
821.167	19422
821.307	19544
821.447	19415
821.588	19346
821.728	19266
821.868	19152
822.008	18856
822.149	18871
822.289	18741
822.429	18673
822.569	18635
822.709	18612
822.849	18395
822.99	18403
823.13	18270
823.27	18346
823.41	18129
823.55	18220
823.69	18178
823.83	18167
823.97	18102
824.11	18053
824.25	17897
824.389	17878
824.529	18038
824.669	18019
824.809	18007
824.949	17969
825.089	18030
825.228	17946
825.368	17843
825.508	17760
825.648	17691
825.787	17786
825.927	17824
826.067	17630
826.206	17573
826.346	17771
826.485	17619
826.625	17638
826.765	17809
826.904	17802
827.044	17474
827.183	17383
827.323	17421
827.462	17482
827.601	17406
827.741	17467
827.88	17372
828.02	17349
828.159	17421
828.298	17425
828.437	17455
828.577	17288
828.716	17471
828.855	17379
828.994	17261
829.134	17265
829.273	17159
829.412	17121
829.551	17117
829.69	17121
829.829	17155
829.968	17303
830.107	17178
830.246	17174
830.385	17140
830.524	17113
830.663	17010
830.802	16881
830.941	16793
831.08	16725
831.219	16786
831.357	16812
831.496	16999
831.635	16717
831.774	16592
831.913	16561
832.051	16516
832.19	16554
832.329	16504
832.467	16516
832.606	16466
832.744	16451
832.883	16443
833.022	16417
833.16	16413
833.299	16542
833.437	16519
833.576	16432
833.714	16428
833.852	16573
833.991	16588
834.129	16538
834.267	16596
834.406	16531
834.544	16660
834.682	16565
834.821	16512
834.959	16630
835.097	16508
835.235	16702
835.373	16485
835.511	16462
835.65	16417
835.788	16417
835.926	16268
836.064	16257
836.202	16204
836.34	16481
836.478	16535
836.615	16341
836.753	16489
836.891	16493
837.029	16459
837.167	16402
837.305	16337
837.443	16234
837.58	16261
837.718	16443
837.856	16192
837.993	16272
838.131	16405
838.269	16223
838.406	16204
838.544	16185
838.681	16029
838.819	15949
838.956	15899
839.094	15854
839.231	15888
839.369	15968
839.506	16204
839.643	16040
839.781	15823
839.918	15800
840.055	15804
840.193	15797
840.33	15732
840.467	15838
840.604	15922
840.742	16131
840.879	15553
841.016	15751
841.153	15778
841.29	15778
841.427	15774
841.564	15838
841.701	15747
841.838	15785
841.975	15759
842.112	15675
842.249	15671
842.385	15587
842.522	15739
842.659	15614
842.796	15549
842.933	15561
843.069	15507
843.206	15606
843.343	15606
843.479	15660
843.616	15610
843.752	15367
843.889	15351
844.025	15610
844.162	15332
844.298	15576
844.435	15386
844.571	15272
844.708	15534
844.844	15625
844.98	15511
845.117	15500
845.253	15351
845.389	15161
845.525	15287
845.661	15192
845.798	15180
845.934	15195
846.07	15176
846.206	15272
846.342	15332
846.478	15207
846.614	15013
846.75	14918
846.886	14952
847.022	15024
847.158	15028
847.294	14902
847.429	14880
847.565	14963
847.701	15154
847.837	14678
847.972	14720
848.108	14743
848.244	14792
848.379	14541
848.515	14480
848.65	14454
848.786	14552
848.921	14602
849.057	14716
849.192	14583
849.328	14530
849.463	14610
849.598	14545
849.734	14587
849.869	14412
850.004	14362
850.14	14294
850.275	14286
850.41	14301
850.545	14377
850.68	14343
850.815	14358
850.95	14343
851.085	14412
851.22	14396
851.355	14343
851.49	14294
851.625	14301
851.76	14309
851.895	14149
852.03	14267
852.165	14286
852.299	14298
852.434	14362
852.569	14427
852.703	14423
852.838	14347
852.973	14480
853.107	14396
853.242	14233
853.376	14176
853.511	14153
853.645	14176
853.78	14336
853.914	14206
854.048	14012
854.183	14134
854.317	14248
854.451	14434
854.585	14168
854.72	14172
854.854	14271
854.988	14126
855.122	14221
855.256	14069
855.39	14176
855.524	14358
855.658	14294
855.792	14240
855.926	14278
856.06	14358
856.194	14259
856.327	14176
856.461	14195
856.595	14153
856.729	14191
856.862	14355
856.996	14195
857.13	14191
857.263	14290
857.397	14385
857.53	14358
857.664	14282
857.797	14218
857.931	14336
858.064	14343
858.197	14362
858.331	14218
858.464	14168
858.597	14168
858.731	14290
858.864	14343
858.997	14225
859.13	14191
859.263	14286
859.396	14339
859.529	14202
859.662	14180
859.795	14187
859.928	14164
860.061	14374
860.194	14431
860.327	14237
860.46	14290
860.592	14412
860.725	14298
860.858	14389
860.99	14183
861.123	14183
861.256	14005
861.388	14305
861.521	14967
861.653	14111
861.786	14020
861.918	14065
862.05	14164
862.183	14138
862.315	14263
862.447	14225
862.58	14103
862.712	14103
862.844	13883
862.976	13955
863.108	14035
863.24	14431
863.372	13871
863.504	13944
863.636	13963
863.768	14138
863.9	14065
864.032	13902
864.164	13982
864.296	14035
864.428	14126
864.559	14149
864.691	14062
864.823	14058
864.954	14031
865.086	14008
865.217	13951
865.349	13974
865.48	13928
865.612	13906
865.743	14138
865.875	14008
866.006	14012
866.137	13993
866.269	13917
866.4	14001
866.531	13909
866.662	13955
866.793	13955
866.924	13925
867.055	13997
867.186	14024
867.317	13932
867.448	13845
867.579	13967
867.71	13868
867.841	13864
867.972	13989
868.103	13875
868.233	13978
868.364	13970
868.495	14107
868.625	14065
868.756	14320
868.886	14172
869.017	14199
869.147	14370
869.278	14355
869.408	14267
869.539	14237
869.669	14271
869.799	14267
869.929	14385
870.06	14336
870.19	14434
870.32	14613
870.45	14598
870.58	14560
870.71	14716
870.84	14720
870.97	14674
871.1	14473
871.23	14777
871.36	14872
871.489	14807
871.619	14807
871.749	14842
871.879	14853
872.008	14861
872.138	14887
872.267	14815
872.397	14712
872.526	14655
872.656	14712
872.785	14735
872.915	14804
873.044	14925
873.173	14902
873.303	14967
873.432	14967
873.561	14902
873.69	14918
873.819	14800
873.948	15024
874.077	14891
874.206	14838
874.335	15009
874.464	15024
874.593	15165
874.722	15188
874.851	15241
874.979	15230
875.108	15252
875.237	15180
875.365	15085
875.494	15237
875.623	15245
875.751	15207
875.88	15184
876.008	15393
876.136	15450
876.265	15568
876.393	15705
876.521	15774
876.65	15709
876.778	15694
876.906	15694
877.034	15496
877.162	15523
877.29	15523
877.418	15667
877.546	15610
877.674	15606
877.802	15542
877.93	15587
878.058	15526
878.185	15534
878.313	15622
878.441	15530
878.568	15443
878.696	15504
878.824	15641
878.951	15736
879.079	15762
879.206	15869
879.333	15785
879.461	15709
879.588	15663
879.715	15789
879.842	15880
879.97	15682
880.097	15477
880.224	15431
880.351	15504
880.478	15511
880.605	15359
880.732	15511
880.859	15789
880.986	15557
881.112	15557
881.239	15397
881.366	15230
881.493	15207
881.619	15123
881.746	15157
881.872	15100
881.999	15135
882.125	15070
882.252	15157
882.378	15116
882.505	15336
882.631	15047
882.757	14948
882.883	14963
883.01	14887
883.136	14876
883.262	14811
883.388	14830
883.514	14963
883.64	14941
883.766	14971
883.892	14807
884.018	14864
884.143	14937
884.269	15032
884.395	14815
884.52	14579
884.646	14712
884.772	14541
884.897	14492
885.023	14667
885.148	14731
885.274	14804
885.399	14792
885.524	14625
885.65	14598
885.775	14693
885.9	14636
886.025	14689
886.15	14606
886.275	14648
886.4	14522
886.525	14659
886.65	14640
886.775	14583
886.9	14845
887.025	14883
887.149	14613
887.274	14374
887.399	14400
887.523	14434
887.648	14415
887.773	14240
887.897	14530
888.021	14492
888.146	14415
888.27	14636
888.395	14583
888.519	14393
888.643	14480
888.767	14625
888.891	14396
889.015	14305
889.139	14366
889.263	14294
889.387	14423
889.511	14518
889.635	14431
889.759	14358
889.883	14142
890.006	14393
890.13	14484
890.254	14347
890.377	14233
890.501	14214
890.624	14115
890.748	14271
890.871	14107
890.995	13944
891.118	13860
891.241	14001
891.364	14031
891.488	14092
891.611	14100
891.734	14031
891.857	14065
891.98	14039
892.103	14092
892.226	14119
892.349	13974
892.471	13852
892.594	14050
892.717	14062
892.839	13967
892.962	14054
893.085	14084
893.207	14058
893.33	13955
893.452	13913
893.575	14115
893.697	14005
893.819	14218
893.941	14305
894.064	14161
894.186	14081
894.308	14027
894.43	14180
894.552	14233
894.674	14187
894.796	14039
894.918	14073
895.04	14103
895.161	14252
895.283	14164
895.405	14119
895.526	14115
895.648	14183
895.769	14107
895.891	14259
896.012	14252
896.134	14278
896.255	14256
896.376	14187
896.498	14210
896.619	14347
896.74	14237
896.861	14237
896.982	14613
897.103	14686
897.224	14488
897.345	14537
897.466	14389
897.587	14450
897.708	14655
897.828	14583
897.949	14423
898.07	14218
898.19	14454
898.311	14575
898.431	14454
898.552	14598
898.672	14625
898.792	14701
898.913	14617
899.033	14514
899.153	14355
899.273	14351
899.393	14370
899.513	14370
899.633	14454
899.753	14473
899.873	14332
899.993	14457
900.113	14374
900.232	14454
900.352	14431
900.472	14370
900.591	14248
900.711	14263
900.83	14225
900.95	14415
901.069	14332
901.189	14168
901.308	14031
901.427	14016
901.546	14008
901.665	14008
901.784	14077
901.904	13791
902.023	13807
902.141	13655
902.26	13552
902.379	13674
902.498	13533
902.617	13468
902.735	13521
902.854	13521
902.973	13365
903.091	13282
903.21	13259
903.328	13217
903.446	13213
903.565	13129
903.683	13126
903.801	13027
903.919	13118
904.038	13069
904.156	12947
904.274	13034
904.392	12935
904.51	12829
904.627	12901
904.745	12939
904.863	12894
904.981	12745
905.098	12502
905.216	12627
905.334	12612
905.451	12635
905.569	12589
905.686	12639
905.803	12582
905.921	12407
906.038	12551
906.155	12422
906.272	12296
906.389	12353
906.506	12266
906.623	12194
906.74	12197
906.857	12148
906.974	12121
907.091	12285
907.208	12296
907.324	12228
907.441	12175
907.557	11958
907.674	12011
907.79	11859
907.907	11878
908.023	12030
908.139	12060
908.256	11950
908.372	11904
908.488	11961
908.604	11771
908.72	11729
908.836	11790
908.952	11642
909.068	11627
909.184	11790
909.3	11680
909.415	11745
909.531	11695
909.647	11493
909.762	11524
909.878	11455
909.993	11524
910.108	11554
910.224	11440
910.339	11444
910.454	11376
910.57	11303
910.685	11277
910.8	11520
910.915	11581
911.03	11360
911.145	11220
911.259	11174
911.374	11239
911.489	11075
911.604	11071
911.718	10957
911.833	11056
911.947	10835
912.062	10729
912.176	10889
912.291	10934
912.405	10873
912.519	11181
912.633	11140
912.748	11010
912.862	10942
912.976	10858
913.09	10733
913.204	10801
913.318	10809
913.431	10816
913.545	10972
913.659	11006
913.772	10710
913.886	10736
914	10675
914.113	10717
914.226	10919
914.34	10725
914.453	10607
914.566	10774
914.68	10702
914.793	10630
914.906	10447
915.019	10462
915.132	10348
915.245	10375
915.358	10375
915.47	10455
915.583	10580
915.696	10451
915.809	10615
915.921	10645
916.034	10432
916.146	10398
916.259	10329
916.371	10409
916.483	10489
916.595	10356
916.708	10348
916.82	10382
916.932	10421
917.044	10322
917.156	10344
917.268	10287
917.38	10329
917.491	10272
917.603	10272
917.715	10310
917.826	10306
917.938	10238
918.049	10215
918.161	10253
918.272	10417
918.384	10310
918.495	10253
918.606	10139
918.717	10021
918.828	10181
918.939	10192
919.05	10131
919.161	10162
919.272	9979
919.383	9994
919.494	10268
919.604	10375
919.715	10230
919.826	10135
919.936	10090
920.047	10280
920.157	10207
920.267	10329
920.378	10242
920.488	10147
920.598	10440
920.708	10519
920.818	10352
920.928	10360
921.038	10527
921.148	10527
921.258	10287
921.368	10131
921.477	10017
921.587	10093
921.697	9907
921.806	10093
921.916	9983
922.025	9808
922.134	9812
922.244	9740
922.353	9793
922.462	9701
922.571	9534
922.68	9428
922.789	9473
922.898	9454
923.007	9382
923.116	9564
923.224	9477
923.333	9393
923.442	9317
923.55	9336
923.659	9310
923.767	9454
923.876	9306
923.984	9401
924.092	9306
924.201	9332
924.309	9245
924.417	9245
924.525	9310
924.633	9275
924.741	10242
924.849	9104
924.956	9302
925.064	9135
925.172	9058
925.279	9104
925.387	9127
925.494	9032
925.602	9275
925.709	9188
925.816	9058
925.924	9055
926.031	9150
926.138	9127
926.245	9116
926.352	9005
926.459	9256
926.566	9214
926.673	9085
926.779	9013
926.886	8918
926.993	8960
927.099	8823
927.206	8796
927.312	8811
927.419	8853
927.525	8830
927.631	8864
927.737	8826
927.843	8807
927.95	8583
928.056	8712
928.162	8769
928.267	8811
928.373	9287
928.479	8834
928.585	8583
928.69	8731
928.796	8792
928.901	8629
929.007	8454
929.112	8598
929.218	8632
929.323	8632
929.428	8431
929.533	8670
929.638	8473
929.743	8522
929.848	8579
929.953	8579
930.058	8461
930.163	8244
930.267	8351
930.372	8461
930.477	8290
930.581	8552
930.685	8423
930.79	8229
930.894	8221
930.998	8233
931.103	8377
931.207	8054
931.311	8054
931.415	7986
931.519	7765
931.623	7761
