Data from test_V78500241_850.txt Node
Date: Fri Mar 25 14:39:38 CST 2022
User: usil
Spectrometer: V785-0024
Trigger mode: 0
Integration Time (sec): 4.000000E-1
Scans to average: 1
Nonlinearity correction enabled: false
Boxcar width: 0
Storing dark spectrum: false
XAxis mode: Wavelengths
Number of Pixels in Spectrum: 1024
>>>>>Begin Spectral Data<<<<<
801.071	25913
801.214	25837
801.356	25411
801.499	25369
801.641	25331
801.783	25183
801.926	25293
802.068	25152
802.211	24989
802.353	24989
802.496	24700
802.638	24814
802.78	24711
802.923	24582
803.065	24677
803.208	24555
803.35	24574
803.492	24802
803.635	24711
803.777	24642
803.919	24768
804.061	25034
804.204	24859
804.346	24688
804.488	24646
804.63	24806
804.773	24658
804.915	24779
805.057	24886
805.199	24863
805.341	24935
805.483	25008
805.626	25023
805.768	24996
805.91	25069
806.052	25095
806.194	25110
806.336	25381
806.478	25438
806.62	25479
806.762	25658
806.904	26081
807.046	26488
807.188	26423
807.33	26571
807.472	26979
807.614	27066
807.756	27899
807.898	28284
808.04	29075
808.182	30087
808.324	31537
808.465	33214
808.607	34839
808.749	36407
808.891	37369
809.033	37419
809.174	36388
809.316	34820
809.458	33058
809.6	31369
809.741	29950
809.883	28866
810.025	28325
810.166	27622
810.308	27150
810.45	26826
810.591	26549
810.733	26298
810.875	25902
811.016	25753
811.158	25601
811.299	25639
811.441	25658
811.582	25609
811.724	25422
811.865	25240
812.007	25194
812.148	25422
812.29	25388
812.431	25373
812.573	25601
812.714	25464
812.855	25559
812.997	25502
813.138	25685
813.279	25647
813.421	25518
813.562	25491
813.703	25274
813.845	25114
813.986	24871
814.127	24639
814.268	24566
814.41	24422
814.551	24574
814.692	24380
814.833	24357
814.974	24380
815.115	24456
815.256	24106
815.397	24114
815.539	24178
815.68	24064
815.821	23980
815.962	24049
816.103	24038
816.244	23927
816.385	23809
816.526	23813
816.666	23535
816.807	23414
816.948	23402
817.089	23509
817.23	23436
817.371	23372
817.512	23406
817.653	23299
817.793	23170
817.934	23364
818.075	23383
818.216	23433
818.356	23284
818.497	23200
818.638	23086
818.778	23044
818.919	23003
819.06	23056
819.2	23261
819.341	23136
819.481	23235
819.622	23360
819.762	23577
819.903	23528
820.043	23181
820.184	23292
820.324	23189
820.465	23307
820.605	23307
820.746	23193
820.886	23041
821.026	23159
821.167	23124
821.307	23235
821.447	23044
821.588	23041
821.728	22854
821.868	22683
822.008	22527
822.149	22634
822.289	22493
822.429	22257
822.569	22188
822.709	22169
822.849	22002
822.99	22025
823.13	21945
823.27	21945
823.41	21861
823.55	21755
823.69	21812
823.83	21797
823.97	21713
824.11	21599
824.25	21564
824.389	21622
824.529	21606
824.669	21671
824.809	21644
824.949	21614
825.089	21576
825.228	21705
825.368	21458
825.508	21302
825.648	21370
825.787	21359
825.927	21561
826.067	21256
826.206	21344
826.346	21420
826.485	21416
826.625	21367
826.765	21443
826.904	21252
827.044	21043
827.183	21093
827.323	21009
827.462	21169
827.601	21108
827.741	20933
827.88	20891
828.02	20986
828.159	20902
828.298	21077
828.437	20910
828.577	20880
828.716	21051
828.855	20792
828.994	20640
829.134	20617
829.273	20750
829.412	20735
829.551	20579
829.69	20678
829.829	20606
829.968	20720
830.107	20788
830.246	20785
830.385	20609
830.524	20514
830.663	20575
830.802	20434
830.941	20267
831.08	20142
831.219	20355
831.357	20324
831.496	20404
831.635	20389
831.774	20275
831.913	20180
832.051	20115
832.19	20149
832.329	20115
832.467	20149
832.606	20046
832.744	20035
832.883	20142
833.022	20065
833.16	20187
833.299	20183
833.437	20271
833.576	20415
833.714	20434
833.852	20492
833.991	20598
834.129	20625
834.267	20686
834.406	20575
834.544	20579
834.682	20617
834.821	20362
834.959	20492
835.097	20267
835.235	20263
835.373	20221
835.511	20298
835.65	19909
835.788	19989
835.926	19757
836.064	19620
836.202	19757
836.34	19852
836.478	19978
836.615	19803
836.753	19799
836.891	19856
837.029	19879
837.167	19696
837.305	19799
837.443	19605
837.58	19647
837.718	19681
837.856	19582
837.993	19635
838.131	19567
838.269	19556
838.406	19491
838.544	19384
838.681	19255
838.819	19297
838.956	19255
839.094	19168
839.231	19141
839.369	19244
839.506	19453
839.643	19312
839.781	19110
839.918	19038
840.055	19008
840.193	18989
840.33	18962
840.467	19129
840.604	19183
840.742	19358
840.879	18977
841.016	18977
841.153	18928
841.29	19190
841.427	19061
841.564	19141
841.701	19095
841.838	18973
841.975	18939
842.112	18943
842.249	18924
842.385	18722
842.522	19053
842.659	18943
842.796	18768
842.933	18890
843.069	18840
843.206	18776
843.343	18928
843.479	18924
843.616	18894
843.752	18703
843.889	18779
844.025	18817
844.162	18837
844.298	19072
844.435	18943
844.571	19050
844.708	19099
844.844	19506
844.98	19742
845.117	20081
845.253	20419
845.389	21237
845.525	22953
845.661	25742
845.798	29208
845.934	32058
846.07	33355
846.206	32724
846.342	30441
846.478	27062
846.614	23760
846.75	21606
846.886	20415
847.022	19689
847.158	19263
847.294	19031
847.429	18768
847.565	18464
847.701	18749
847.837	18125
847.972	18019
848.108	18053
848.244	18038
848.379	17885
848.515	17927
848.65	17672
848.786	17745
848.921	17916
849.057	17847
849.192	17847
849.328	17748
849.463	17676
849.598	17611
849.734	17764
849.869	17642
850.004	17417
850.14	17493
850.275	17436
850.41	17410
850.545	17311
850.68	17395
850.815	17467
850.95	17391
851.085	17615
851.22	17547
851.355	17448
851.49	17414
851.625	17467
851.76	17425
851.895	17322
852.03	17452
852.165	17600
852.299	17581
852.434	17558
852.569	17516
852.703	17440
852.838	17596
852.973	17627
853.107	17653
853.242	17444
853.376	17383
853.511	17315
853.645	17410
853.78	17463
853.914	17444
854.048	17398
854.183	17406
854.317	17539
854.451	17691
854.585	17501
854.72	17429
854.854	17406
854.988	17353
855.122	17417
855.256	17368
855.39	17455
855.524	17398
855.658	17379
855.792	17372
855.926	17296
856.06	17455
856.194	17383
856.327	17296
856.461	17330
856.595	17220
856.729	17288
856.862	17505
856.996	17239
857.13	17299
857.263	17235
857.397	17395
857.53	17250
857.664	17292
857.797	17326
857.931	17425
858.064	17322
858.197	17368
858.331	17220
858.464	17155
858.597	17140
858.731	17200
858.864	17151
858.997	17185
859.13	17174
859.263	17200
859.396	17315
859.529	17105
859.662	17181
859.795	17071
859.928	17174
860.061	17299
860.194	17360
860.327	17189
860.46	17193
860.592	17193
860.725	17364
860.858	17334
860.99	17136
861.123	17121
861.256	16972
861.388	17022
861.521	17680
861.653	17094
861.786	16961
861.918	17052
862.05	17056
862.183	17147
862.315	17174
862.447	17239
862.58	17113
862.712	16934
862.844	16908
862.976	16984
863.108	17033
863.24	17269
863.372	16866
863.504	16896
863.636	16892
863.768	16889
863.9	16839
864.032	16755
864.164	16774
864.296	16885
864.428	16991
864.559	16896
864.691	16923
864.823	16847
864.954	16869
865.086	16828
865.217	16889
865.349	16911
865.48	16900
865.612	16812
865.743	16968
865.875	17025
866.006	16839
866.137	16892
866.269	16771
866.4	16824
866.531	16752
866.662	16683
866.793	16755
866.924	16790
867.055	16782
867.186	16873
867.317	16767
867.448	16706
867.579	16801
867.71	16740
867.841	16691
867.972	16816
868.103	16854
868.233	16812
868.364	16778
868.495	16915
868.625	17045
868.756	17124
868.886	16980
869.017	16896
869.147	17212
869.278	17128
869.408	17094
869.539	17056
869.669	17090
869.799	16995
869.929	17098
870.06	17185
870.19	17414
870.32	17532
870.45	17417
870.58	17471
870.71	17585
870.84	17642
870.97	17490
871.1	17524
871.23	17729
871.36	17760
871.489	17653
871.619	17714
871.749	17608
871.879	17760
872.008	17722
872.138	17695
872.267	17695
872.397	17710
872.526	17543
872.656	17710
872.785	17661
872.915	17722
873.044	17939
873.173	17668
873.303	17836
873.432	17874
873.561	17958
873.69	17859
873.819	17904
873.948	17984
874.077	17904
874.206	17821
874.335	17901
874.464	18095
874.593	18243
874.722	18194
874.851	18251
874.979	18388
875.108	18365
875.237	18292
875.365	18281
875.494	18319
875.623	18418
875.751	18361
875.88	18350
876.008	18525
876.136	18601
876.265	18932
876.393	19038
876.521	18943
876.65	19080
876.778	19015
876.906	19004
877.034	18993
877.162	19019
877.29	19145
877.418	19095
877.546	19213
877.674	19301
877.802	19339
877.93	19301
878.058	19301
878.185	19445
878.313	19685
878.441	19849
878.568	19887
878.696	20381
878.824	20785
878.951	21397
879.079	22272
879.206	23383
879.333	24525
879.461	25381
879.588	25917
879.715	26001
879.842	25674
879.97	24566
880.097	23326
880.224	22169
880.351	21736
880.478	21233
880.605	20880
880.732	20739
880.859	20853
880.986	20499
881.112	20541
881.239	20305
881.366	20259
881.493	20031
881.619	19993
881.746	20138
881.872	20065
881.999	19982
882.125	20092
882.252	20199
882.378	20191
882.505	20339
882.631	20164
882.757	19936
882.883	20073
883.01	19989
883.136	19925
883.262	19940
883.388	19814
883.514	20008
883.64	19887
883.766	19925
883.892	19753
884.018	19822
884.143	19883
884.269	20020
884.395	19590
884.52	19723
884.646	19696
884.772	19582
884.897	19655
885.023	19776
885.148	19742
885.274	19727
885.399	19647
885.524	19422
885.65	19514
885.775	19369
885.9	19343
886.025	19426
886.15	19350
886.275	19206
886.4	18966
886.525	18989
886.65	18810
886.775	18730
886.9	18905
887.025	19057
887.149	18722
887.274	18559
887.399	18433
887.523	18384
887.648	18277
887.773	18308
887.897	18388
888.021	18194
888.146	18117
888.27	18270
888.395	18228
888.519	18133
888.643	18182
888.767	18163
888.891	17973
889.015	17946
889.139	17859
889.263	17764
889.387	17935
889.511	17973
889.635	17992
889.759	17699
889.883	17767
890.006	17726
890.13	17851
890.254	17589
890.377	17600
890.501	17440
890.624	17368
890.748	17501
890.871	17356
890.995	17261
891.118	17189
891.241	17246
891.364	17345
891.488	17322
891.611	17151
891.734	17147
891.857	17296
891.98	17132
892.103	17143
892.226	17155
892.349	17223
892.471	16877
892.594	16968
892.717	17041
892.839	17052
892.962	16980
893.085	17094
893.207	16942
893.33	16850
893.452	16850
893.575	17014
893.697	16965
893.819	17079
893.941	16999
894.064	16957
894.186	16805
894.308	16805
894.43	16923
894.552	17079
894.674	16930
894.796	16797
894.918	16873
895.04	16763
895.161	16968
895.283	16877
895.405	16748
895.526	16873
895.648	16790
895.769	16831
895.891	16930
896.012	16869
896.134	16858
896.255	16744
896.376	16812
896.498	16790
896.619	16877
896.74	16820
896.861	16873
896.982	17193
897.103	17277
897.224	17204
897.345	17022
897.466	16911
897.587	16984
897.708	17223
897.828	16984
897.949	16984
898.07	16854
898.19	17052
898.311	17121
898.431	16984
898.552	17018
898.672	17151
898.792	17220
898.913	17090
899.033	16972
899.153	16908
899.273	16809
899.393	16828
899.513	16946
899.633	16866
899.753	16972
899.873	16786
899.993	16957
900.113	16847
900.232	16949
900.352	16805
900.472	16790
900.591	16736
900.711	16721
900.83	16733
900.95	16835
901.069	16866
901.189	16641
901.308	16436
901.427	16344
901.546	16371
901.665	16348
901.784	16421
901.904	16173
902.023	16162
902.141	15884
902.26	15918
902.379	15903
902.498	15759
902.617	15835
902.735	15804
902.854	15808
902.973	15755
903.091	15587
903.21	15526
903.328	15587
903.446	15450
903.565	15321
903.683	15386
903.801	15211
903.919	15291
904.038	15291
904.156	15233
904.274	15222
904.392	15127
904.51	15032
904.627	15013
904.745	15036
904.863	15169
904.981	14785
905.098	14773
905.216	14727
905.334	14800
905.451	14731
905.569	14651
905.686	14762
905.803	14632
905.921	14556
906.038	14610
906.155	14473
906.272	14450
906.389	14438
906.506	14370
906.623	14313
906.74	14142
906.857	14123
906.974	14134
907.091	14286
907.208	14347
907.324	14271
907.441	14187
907.557	14062
907.674	13970
907.79	13818
907.907	14027
908.023	13898
908.139	13959
908.256	13989
908.372	13909
908.488	13845
908.604	13734
908.72	13715
908.836	13674
908.952	13731
909.068	13666
909.184	13769
909.3	13689
909.415	13727
909.531	13719
909.647	13460
909.762	13552
909.878	13464
909.993	13445
910.108	13468
910.224	13365
910.339	13449
910.454	13339
910.57	13270
910.685	13145
910.8	13430
910.915	13392
911.03	13240
911.145	13179
911.259	13080
911.374	13095
911.489	13023
911.604	13008
911.718	12859
911.833	12844
911.947	12692
912.062	12726
912.176	12840
912.291	12829
912.405	12806
912.519	13118
912.633	13084
912.748	12916
912.862	12833
912.976	12665
913.09	12639
913.204	12631
913.318	12650
913.431	12776
913.545	12753
913.659	12764
913.772	12639
913.886	12593
914	12532
914.113	12620
914.226	12669
914.34	12589
914.453	12483
914.566	12574
914.68	12521
914.793	12479
914.906	12258
915.019	12182
915.132	12144
915.245	12243
915.358	12308
915.47	12330
915.583	12350
915.696	12224
915.809	12429
915.921	12433
916.034	12251
916.146	12171
916.259	12247
916.371	12247
916.483	12148
916.595	12129
916.708	12224
916.82	12095
916.932	12190
917.044	12243
917.156	12178
917.268	12026
917.38	12076
917.491	12110
917.603	12079
917.715	12140
917.826	12079
917.938	11999
918.049	11912
918.161	12022
918.272	12030
918.384	12079
918.495	11942
918.606	11840
918.717	11828
918.828	11897
918.939	11851
919.05	11798
919.161	11832
919.272	11668
919.383	11688
919.494	11931
919.604	12041
919.715	11802
919.826	11619
919.936	11798
920.047	11946
920.157	11813
920.267	12026
920.378	11824
920.488	11824
920.598	11931
920.708	12125
920.818	11958
920.928	12011
921.038	12194
921.148	12152
921.258	11790
921.368	11710
921.477	11566
921.587	11573
921.697	11611
921.806	11592
921.916	11509
922.025	11334
922.134	11315
922.244	11322
922.353	11322
922.462	11296
922.571	11136
922.68	10972
922.789	11022
922.898	10946
923.007	10885
923.116	11022
923.224	11010
923.333	10934
923.442	10847
923.55	10862
923.659	10812
923.767	10900
923.876	10797
923.984	10869
924.092	10752
924.201	10729
924.309	10763
924.417	10805
924.525	10691
924.633	10748
924.741	11592
924.849	10523
924.956	10717
925.064	10516
925.172	10516
925.279	10516
925.387	10538
925.494	10561
925.602	10660
925.709	10580
925.816	10466
925.924	10542
926.031	10599
926.138	10455
926.245	10519
926.352	10470
926.459	10565
926.566	10615
926.673	10440
926.779	10417
926.886	10352
926.993	10192
927.099	10219
927.206	10173
927.312	10215
927.419	10261
927.525	10219
927.631	10188
927.737	10074
927.843	10101
927.95	9979
928.056	10010
928.162	10055
928.267	10120
928.373	10668
928.479	10143
928.585	9911
928.69	9998
928.796	10036
928.901	9956
929.007	9762
929.112	9968
929.218	9823
929.323	9884
929.428	9857
929.533	9998
929.638	9854
929.743	9812
929.848	9861
929.953	9770
930.058	9717
930.163	9561
930.267	9568
930.372	9720
930.477	9595
930.581	9865
930.685	9644
930.79	9523
930.894	9545
930.998	9492
931.103	9633
931.207	9260
931.311	9192
931.415	9108
931.519	9009
931.623	8967
