Data from test_V78500241_1613.txt Node
Date: Fri Mar 25 14:44:56 CST 2022
User: usil
Spectrometer: V785-0024
Trigger mode: 0
Integration Time (sec): 4.000000E-1
Scans to average: 1
Nonlinearity correction enabled: false
Boxcar width: 0
Storing dark spectrum: false
XAxis mode: Wavelengths
Number of Pixels in Spectrum: 1024
>>>>>Begin Spectral Data<<<<<
801.071	22306
801.214	22394
801.356	22044
801.499	21895
801.641	21709
801.783	21671
801.926	21633
802.068	21682
802.211	21606
802.353	21542
802.496	21348
802.638	21291
802.78	21176
802.923	21104
803.065	21077
803.208	21028
803.35	21195
803.492	21051
803.635	21256
803.777	21119
803.919	21165
804.061	21469
804.204	21211
804.346	21036
804.488	20933
804.63	21032
804.773	20864
804.915	21005
805.057	21062
805.199	20925
805.341	21009
805.483	21020
805.626	21199
805.768	20944
805.91	20956
806.052	21032
806.194	20952
806.336	21146
806.478	20982
806.62	21161
806.762	21039
806.904	21237
807.046	21515
807.188	21302
807.33	21416
807.472	21401
807.614	21188
807.756	21237
807.898	21256
808.04	21222
808.182	21256
808.324	21135
808.465	21165
808.607	21294
808.749	21488
808.891	21477
809.033	21755
809.174	21447
809.316	21367
809.458	21481
809.6	21420
809.741	21374
809.883	21428
810.025	21652
810.166	21545
810.308	21553
810.45	21523
810.591	21325
810.733	21291
810.875	21264
811.016	21108
811.158	21123
811.299	21161
811.441	21123
811.582	21336
811.724	21211
811.865	21226
812.007	21142
812.148	21195
812.29	21252
812.431	21435
812.573	21515
812.714	21652
812.855	21599
812.997	21956
813.138	21861
813.279	21701
813.421	21675
813.562	21610
813.703	21355
813.845	21344
813.986	21135
814.127	20899
814.268	20773
814.41	20792
814.551	20587
814.692	20857
814.833	20857
814.974	20579
815.115	20701
815.256	20564
815.397	20507
815.539	20606
815.68	20461
815.821	20377
815.962	20469
816.103	20488
816.244	20263
816.385	20237
816.526	20183
816.666	20088
816.807	19906
816.948	19959
817.089	20084
817.23	19883
817.371	19841
817.512	19902
817.653	19807
817.793	19765
817.934	19913
818.075	19814
818.216	19830
818.356	19845
818.497	19582
818.638	19529
818.778	19438
818.919	19506
819.06	19575
819.2	19666
819.341	19727
819.481	19727
819.622	19856
819.762	19978
819.903	19951
820.043	19887
820.184	19898
820.324	19837
820.465	19864
820.605	19894
820.746	19803
820.886	19708
821.026	19822
821.167	19753
821.307	19784
821.447	19750
821.588	19639
821.728	19495
821.868	19335
822.008	19282
822.149	19152
822.289	19160
822.429	18920
822.569	18966
822.709	18825
822.849	18688
822.99	18677
823.13	18715
823.27	18650
823.41	18589
823.55	18467
823.69	18460
823.83	18448
823.97	18433
824.11	18304
824.25	18258
824.389	18243
824.529	18372
824.669	18308
824.809	18410
824.949	18399
825.089	18243
825.228	18262
825.368	18197
825.508	18155
825.648	18129
825.787	18095
825.927	18026
826.067	17946
826.206	18091
826.346	18034
826.485	18064
826.625	18041
826.765	18129
826.904	17973
827.044	17904
827.183	17794
827.323	17703
827.462	17722
827.601	17802
827.741	17733
827.88	17748
828.02	17634
828.159	17733
828.298	17824
828.437	17741
828.577	17726
828.716	17942
828.855	17767
828.994	17520
829.134	17547
829.273	17596
829.412	17570
829.551	17429
829.69	17493
829.829	17535
829.968	17577
830.107	17581
830.246	17524
830.385	17490
830.524	17421
830.663	17395
830.802	17162
830.941	17143
831.08	17094
831.219	17170
831.357	17181
831.496	17372
831.635	17098
831.774	16987
831.913	16999
832.051	16908
832.19	16938
832.329	16900
832.467	16736
832.606	16805
832.744	16740
832.883	16816
833.022	16691
833.16	16771
833.299	16736
833.437	16805
833.576	16831
833.714	16862
833.852	16889
833.991	16904
834.129	16934
834.267	16877
834.406	16786
834.544	16987
834.682	16824
834.821	16816
834.959	16984
835.097	16831
835.235	16904
835.373	16930
835.511	16782
835.65	16847
835.788	16752
835.926	16569
836.064	16569
836.202	16641
836.34	16755
836.478	16786
836.615	16801
836.753	16782
836.891	16896
837.029	16713
837.167	16675
837.305	16588
837.443	16489
837.58	16603
837.718	16729
837.856	16710
837.993	16546
838.131	16535
838.269	16523
838.406	16443
838.544	16523
838.681	16291
838.819	16265
838.956	16101
839.094	16150
839.231	16238
839.369	16257
839.506	16546
839.643	16375
839.781	16169
839.918	16135
840.055	16276
840.193	16101
840.33	16055
840.467	16044
840.604	16204
840.742	16459
840.879	16074
841.016	16086
841.153	16093
841.29	16211
841.427	16230
841.564	16158
841.701	16238
841.838	15998
841.975	15998
842.112	15987
842.249	15964
842.385	15930
842.522	16128
842.659	16010
842.796	15819
842.933	15945
843.069	15903
843.206	15884
843.343	16055
843.479	15846
843.616	15911
843.752	15717
843.889	15728
844.025	15861
844.162	15743
844.298	15892
844.435	15759
844.571	15644
844.708	15724
844.844	15972
844.98	15873
845.117	15835
845.253	15701
845.389	15595
845.525	15686
845.661	15705
845.798	15675
845.934	15671
846.07	15641
846.206	15641
846.342	15682
846.478	15587
846.614	15355
846.75	15302
846.886	15294
847.022	15424
847.158	15348
847.294	15340
847.429	15298
847.565	15249
847.701	15496
847.837	15039
847.972	15009
848.108	15108
848.244	15169
848.379	15013
848.515	14872
848.65	14918
848.786	14963
848.921	15013
849.057	14937
849.192	15036
849.328	14880
849.463	14906
849.598	14861
849.734	14845
849.869	14788
850.004	14731
850.14	14880
850.275	14727
850.41	14621
850.545	14663
850.68	14617
850.815	14735
850.95	14617
851.085	14819
851.22	14796
851.355	14632
851.49	14590
851.625	14579
851.76	14701
851.895	14610
852.03	14610
852.165	14674
852.299	14625
852.434	14792
852.569	14731
852.703	14697
852.838	14613
852.973	14925
853.107	14880
853.242	14629
853.376	14537
853.511	14484
853.645	14522
853.78	14788
853.914	14434
854.048	14412
854.183	14499
854.317	14629
854.451	14705
854.585	14473
854.72	14530
854.854	14522
854.988	14408
855.122	14438
855.256	14366
855.39	14533
855.524	14655
855.658	14560
855.792	14625
855.926	14598
856.06	14682
856.194	14613
856.327	14514
856.461	14492
856.595	14541
856.729	14450
856.862	14629
856.996	14552
857.13	14617
857.263	14659
857.397	14651
857.53	14484
857.664	14556
857.797	14621
857.931	14648
858.064	14579
858.197	14629
858.331	14457
858.464	14465
858.597	14423
858.731	14511
858.864	14492
858.997	14530
859.13	14507
859.263	14590
859.396	14621
859.529	14465
859.662	14488
859.795	14400
859.928	14610
860.061	14712
860.194	14655
860.327	14590
860.46	14579
860.592	14617
860.725	14663
860.858	14678
860.99	14522
861.123	14461
861.256	14465
861.388	14541
861.521	15287
861.653	14374
861.786	14377
861.918	14385
862.05	14476
862.183	14412
862.315	14518
862.447	14549
862.58	14450
862.712	14290
862.844	14271
862.976	14522
863.108	14366
863.24	14819
863.372	14176
863.504	14370
863.636	14336
863.768	14389
863.9	14298
864.032	14290
864.164	14259
864.296	14294
864.428	14412
864.559	14347
864.691	14313
864.823	14473
864.954	14374
865.086	14351
865.217	14248
865.349	14195
865.48	14332
865.612	14309
865.743	14389
865.875	14290
866.006	14259
866.137	14248
866.269	14370
866.4	14229
866.531	14275
866.662	14237
866.793	14286
866.924	14176
867.055	14286
867.186	14343
867.317	14164
867.448	14229
867.579	14145
867.71	14123
867.841	14138
867.972	14271
868.103	14377
868.233	14244
868.364	14271
868.495	14286
868.625	14556
868.756	14568
868.886	14450
869.017	14549
869.147	14629
869.278	14682
869.408	14545
869.539	14526
869.669	14594
869.799	14518
869.929	14663
870.06	14686
870.19	14857
870.32	14765
870.45	14811
870.58	14914
870.71	14948
870.84	14990
870.97	14891
871.1	14944
871.23	14914
871.36	15097
871.489	15070
871.619	15184
871.749	15135
871.879	15131
872.008	15199
872.138	15157
872.267	15032
872.397	14975
872.526	14941
872.656	14933
872.785	15039
872.915	15214
873.044	15214
873.173	15135
873.303	15138
873.432	15154
873.561	15226
873.69	15188
873.819	15138
873.948	15249
874.077	15165
874.206	15150
874.335	15207
874.464	15386
874.593	15428
874.722	15424
874.851	15454
874.979	15488
875.108	15519
875.237	15477
875.365	15359
875.494	15530
875.623	15671
875.751	15382
875.88	15462
876.008	15648
876.136	15637
876.265	15873
876.393	16067
876.521	15991
876.65	15975
876.778	15892
876.906	15869
877.034	15918
877.162	15793
877.29	15694
877.418	15865
877.546	15880
877.674	15854
877.802	15888
877.93	15918
878.058	15838
878.185	15789
878.313	15842
878.441	15892
878.568	15713
878.696	15857
878.824	15934
878.951	15983
879.079	16120
879.206	16276
879.333	16162
879.461	15857
879.588	16093
879.715	16147
879.842	16204
879.97	16097
880.097	15812
880.224	15724
880.351	15789
880.478	15720
880.605	15797
880.732	15713
880.859	15915
880.986	15804
881.112	15743
881.239	15557
881.366	15473
881.493	15511
881.619	15408
881.746	15291
881.872	15310
881.999	15431
882.125	15458
882.252	15370
882.378	15447
882.505	15561
882.631	15450
882.757	15192
882.883	15245
883.01	15241
883.136	15108
883.262	15047
883.388	15047
883.514	15233
883.64	15226
883.766	15203
883.892	15043
884.018	15077
884.143	15321
884.269	15321
884.395	14990
884.52	14960
884.646	14929
884.772	14868
884.897	14929
885.023	14887
885.148	14994
885.274	15093
885.399	15001
885.524	15005
885.65	14979
885.775	14960
885.9	14906
886.025	15036
886.15	14921
886.275	15001
886.4	14834
886.525	14929
886.65	14906
886.775	14815
886.9	14982
887.025	15081
887.149	14963
887.274	14705
887.399	14727
887.523	14731
887.648	14750
887.773	14678
887.897	14777
888.021	14762
888.146	14674
888.27	14880
888.395	14853
888.519	14754
888.643	14796
888.767	14773
888.891	14720
889.015	14537
889.139	14697
889.263	14610
889.387	14712
889.511	14769
889.635	14720
889.759	14648
889.883	14621
890.006	14632
890.13	14655
890.254	14526
890.377	14568
890.501	14412
890.624	14362
890.748	14423
890.871	14389
890.995	14195
891.118	14252
891.241	14324
891.364	14271
891.488	14419
891.611	14168
891.734	14324
891.857	14396
891.98	14320
892.103	14362
892.226	14332
892.349	14259
892.471	14286
892.594	14221
892.717	14309
892.839	14202
892.962	14259
893.085	14370
893.207	14286
893.33	14256
893.452	14240
893.575	14233
893.697	14214
893.819	14431
893.941	14442
894.064	14465
894.186	14355
894.308	14214
894.43	14454
894.552	14587
894.674	14374
894.796	14240
894.918	14351
895.04	14351
895.161	14431
895.283	14381
895.405	14286
895.526	14434
895.648	14389
895.769	14537
895.891	14495
896.012	14621
896.134	14461
896.255	14454
896.376	14533
896.498	14377
896.619	14488
896.74	14461
896.861	14480
896.982	14842
897.103	14937
897.224	14796
897.345	14765
897.466	14613
897.587	14693
897.708	14830
897.828	14777
897.949	14739
898.07	14522
898.19	14678
898.311	14887
898.431	14845
898.552	14838
898.672	14872
898.792	14937
898.913	14830
899.033	14773
899.153	14689
899.273	14568
899.393	14625
899.513	14716
899.633	14617
899.753	14720
899.873	14594
899.993	14701
900.113	14735
900.232	14739
900.352	14792
900.472	14556
900.591	14484
900.711	14552
900.83	14465
900.95	14712
901.069	14651
901.189	14419
901.308	14267
901.427	14191
901.546	14153
901.665	14168
901.784	14218
901.904	14138
902.023	14050
902.141	13788
902.26	13814
902.379	13868
902.498	13761
902.617	13750
902.735	13864
902.854	13814
902.973	13712
903.091	13540
903.21	13396
903.328	13571
903.446	13495
903.565	13339
903.683	13362
903.801	13198
903.919	13346
904.038	13331
904.156	13145
904.274	13289
904.392	13042
904.51	13118
904.627	13080
904.745	13164
904.863	13171
904.981	12935
905.098	12844
905.216	12867
905.334	12806
905.451	12859
905.569	12814
905.686	12901
905.803	12928
905.921	12612
906.038	12772
906.155	12749
906.272	12532
906.389	12578
906.506	12399
906.623	12540
906.74	12407
906.857	12300
906.974	12350
907.091	12460
907.208	12486
907.324	12555
907.441	12304
907.557	12072
907.674	12148
907.79	12083
907.907	12053
908.023	12098
908.139	12095
908.256	12064
908.372	12068
908.488	12007
908.604	11958
908.72	11813
908.836	11920
908.952	11912
909.068	12034
909.184	11988
909.3	11920
909.415	11954
909.531	11912
909.647	11764
909.762	11718
909.878	11638
909.993	11672
910.108	11745
910.224	11627
910.339	11661
910.454	11630
910.57	11554
910.685	11493
910.8	11737
910.915	11786
911.03	11630
911.145	11372
911.259	11334
911.374	11436
911.489	11379
911.604	11197
911.718	11121
911.833	11083
911.947	11006
912.062	11006
912.176	11147
912.291	11166
912.405	11143
912.519	11398
912.633	11315
912.748	11185
912.862	11060
912.976	11022
913.09	10915
913.204	10995
913.318	11098
913.431	11178
913.545	11086
913.659	11098
913.772	11041
913.886	10938
914	10904
914.113	10968
914.226	11041
914.34	10942
914.453	10873
914.566	10976
914.68	10797
914.793	10869
914.906	10763
915.019	10626
915.132	10611
915.245	10637
915.358	10641
915.47	10691
915.583	10645
915.696	10687
915.809	10698
915.921	10759
916.034	10630
916.146	10596
916.259	10550
916.371	10630
916.483	10569
916.595	10538
916.708	10527
916.82	10634
916.932	10440
917.044	10649
917.156	10538
917.268	10363
917.38	10421
917.491	10424
917.603	10455
917.715	10497
917.826	10523
917.938	10405
918.049	10310
918.161	10402
918.272	10630
918.384	10558
918.495	10421
918.606	10375
918.717	10268
918.828	10360
918.939	10382
919.05	10272
919.161	10223
919.272	10154
919.383	10215
919.494	10341
919.604	10569
919.715	10299
919.826	10257
919.936	10348
920.047	10455
920.157	10295
920.267	10531
920.378	10398
920.488	10417
920.598	10561
920.708	10599
920.818	10440
920.928	10527
921.038	10721
921.148	10675
921.258	10379
921.368	10268
921.477	10238
921.587	10215
921.697	10090
921.806	10177
921.916	10105
922.025	9918
922.134	9903
922.244	9812
922.353	9987
922.462	9751
922.571	9789
922.68	9595
922.789	9534
922.898	9568
923.007	9534
923.116	9595
923.224	9652
923.333	9652
923.442	9488
923.55	9492
923.659	9492
923.767	9564
923.876	9378
923.984	9504
924.092	9466
924.201	9488
924.309	9462
924.417	9511
924.525	9431
924.633	9397
924.741	10181
924.849	9283
924.956	9321
925.064	9180
925.172	9173
925.279	9135
925.387	9218
925.494	9211
925.602	9321
925.709	9306
925.816	9150
925.924	9272
926.031	9313
926.138	9268
926.245	9298
926.352	9131
926.459	9279
926.566	9378
926.673	9192
926.779	9157
926.886	9116
926.993	9028
927.099	8941
927.206	8887
927.312	8914
927.419	9001
927.525	8925
927.631	8963
927.737	8861
927.843	8880
927.95	8701
928.056	8785
928.162	8864
928.267	8956
928.373	9386
928.479	8956
928.585	8758
928.69	8838
928.796	8842
928.901	8697
929.007	8701
929.112	8746
929.218	8697
929.323	8663
929.428	8686
929.533	8842
929.638	8552
929.743	8682
929.848	8575
929.953	8640
930.058	8571
930.163	8427
930.267	8446
930.372	8518
930.477	8499
930.581	8655
930.685	8465
930.79	8419
930.894	8442
930.998	8313
931.103	8488
931.207	8149
931.311	8134
931.415	8092
931.519	7841
931.623	7974
