Data from test_V78500241_2179.txt Node
Date: Fri Mar 25 14:48:53 CST 2022
User: usil
Spectrometer: V785-0024
Trigger mode: 0
Integration Time (sec): 4.000000E-1
Scans to average: 1
Nonlinearity correction enabled: false
Boxcar width: 0
Storing dark spectrum: false
XAxis mode: Wavelengths
Number of Pixels in Spectrum: 1024
>>>>>Begin Spectral Data<<<<<
801.071	22169
801.214	22036
801.356	21861
801.499	21652
801.641	21549
801.783	21591
801.926	21439
802.068	21576
802.211	21412
802.353	21367
802.496	21123
802.638	20883
802.78	21047
802.923	20899
803.065	20925
803.208	20849
803.35	20792
803.492	21028
803.635	21176
803.777	20918
803.919	20941
804.061	21146
804.204	20986
804.346	20731
804.488	20746
804.63	20872
804.773	20598
804.915	20800
805.057	20914
805.199	20788
805.341	20880
805.483	20823
805.626	20914
805.768	20686
805.91	20750
806.052	20823
806.194	20727
806.336	20937
806.478	20746
806.62	20731
806.762	20899
806.904	20971
807.046	21154
807.188	21176
807.33	21154
807.472	21237
807.614	21058
807.756	21032
807.898	20857
808.04	21039
808.182	20838
808.324	20883
808.465	20906
808.607	21093
808.749	21184
808.891	21340
809.033	21424
809.174	21211
809.316	21138
809.458	20998
809.6	21085
809.741	21340
809.883	21279
810.025	21359
810.166	21363
810.308	21340
810.45	21157
810.591	21081
810.733	21036
810.875	20891
811.016	20868
811.158	20800
811.299	21024
811.441	21077
811.582	21112
811.724	20952
811.865	20929
812.007	20872
812.148	20960
812.29	20956
812.431	21207
812.573	21176
812.714	21321
812.855	21431
812.997	21496
813.138	21736
813.279	21488
813.421	21511
813.562	21272
813.703	21237
813.845	21100
813.986	20769
814.127	20743
814.268	20518
814.41	20564
814.551	20415
814.692	20674
814.833	20450
814.974	20419
815.115	20442
815.256	20332
815.397	20396
815.539	20423
815.68	20317
815.821	20157
815.962	20298
816.103	20256
816.244	20046
816.385	19982
816.526	20005
816.666	19765
816.807	19693
816.948	19776
817.089	19750
817.23	19674
817.371	19624
817.512	19643
817.653	19655
817.793	19613
817.934	19655
818.075	19643
818.216	19712
818.356	19556
818.497	19381
818.638	19324
818.778	19194
818.919	19388
819.06	19343
819.2	19369
819.341	19537
819.481	19533
819.622	19635
819.762	19822
819.903	19795
820.043	19712
820.184	19590
820.324	19620
820.465	19677
820.605	19502
820.746	19605
820.886	19457
821.026	19628
821.167	19548
821.307	19700
821.447	19571
821.588	19502
821.728	19373
821.868	19213
822.008	19027
822.149	18932
822.289	18905
822.429	18757
822.569	18642
822.709	18711
822.849	18681
822.99	18547
823.13	18456
823.27	18437
823.41	18350
823.55	18216
823.69	18270
823.83	18327
823.97	18277
824.11	18041
824.25	17973
824.389	18076
824.529	18148
824.669	18091
824.809	18197
824.949	18110
825.089	18152
825.228	18182
825.368	17866
825.508	17863
825.648	17923
825.787	17916
825.927	17942
826.067	17832
826.206	17790
826.346	17855
826.485	17908
826.625	17775
826.765	17931
826.904	17950
827.044	17745
827.183	17448
827.323	17474
827.462	17608
827.601	17554
827.741	17471
827.88	17562
828.02	17398
828.159	17490
828.298	17547
828.437	17634
828.577	17589
828.716	17752
828.855	17581
828.994	17334
829.134	17265
829.273	17223
829.412	17197
829.551	17212
829.69	17178
829.829	17269
829.968	17417
830.107	17315
830.246	17345
830.385	17170
830.524	17299
830.663	17094
830.802	16934
830.941	16885
831.08	16896
831.219	16987
831.357	16938
831.496	17140
831.635	16797
831.774	16790
831.913	16694
832.051	16717
832.19	16664
832.329	16649
832.467	16668
832.606	16565
832.744	16584
832.883	16550
833.022	16504
833.16	16584
833.299	16706
833.437	16637
833.576	16668
833.714	16558
833.852	16691
833.991	16656
834.129	16645
834.267	16782
834.406	16653
834.544	16596
834.682	16721
834.821	16675
834.959	16858
835.097	16592
835.235	16748
835.373	16668
835.511	16763
835.65	16592
835.788	16660
835.926	16440
836.064	16325
836.202	16356
836.34	16459
836.478	16573
836.615	16497
836.753	16565
836.891	16687
837.029	16497
837.167	16531
837.305	16447
837.443	16451
837.58	16508
837.718	16535
837.856	16417
837.993	16386
838.131	16409
838.269	16314
838.406	16413
838.544	16234
838.681	16188
838.819	16040
838.956	15991
839.094	15922
839.231	16071
839.369	16044
839.506	16253
839.643	16188
839.781	15968
839.918	15892
840.055	15960
840.193	15937
840.33	15918
840.467	15953
840.604	15945
840.742	16200
840.879	15774
841.016	15873
841.153	15808
841.29	16093
841.427	15876
841.564	16002
841.701	15941
841.838	15918
841.975	15930
842.112	15884
842.249	15816
842.385	15762
842.522	15884
842.659	15667
842.796	15694
842.933	15732
843.069	15629
843.206	15614
843.343	15800
843.479	15755
843.616	15724
843.752	15568
843.889	15549
844.025	15564
844.162	15469
844.298	15663
844.435	15435
844.571	15420
844.708	15576
844.844	15713
844.98	15648
845.117	15580
845.253	15496
845.389	15374
845.525	15450
845.661	15492
845.798	15275
845.934	15454
846.07	15241
846.206	15340
846.342	15443
846.478	15348
846.614	15146
846.75	15020
846.886	15047
847.022	15176
847.158	15112
847.294	15036
847.429	15097
847.565	15089
847.701	15287
847.837	14849
847.972	14887
848.108	14910
848.244	14842
848.379	14819
848.515	14651
848.65	14659
848.786	14697
848.921	14705
849.057	14777
849.192	14746
849.328	14743
849.463	14686
849.598	14651
849.734	14552
849.869	14434
850.004	14438
850.14	14480
850.275	14484
850.41	14351
850.545	14461
850.68	14461
850.815	14404
850.95	14442
851.085	14651
851.22	14514
851.355	14450
851.49	14442
851.625	14412
851.76	14465
851.895	14366
852.03	14336
852.165	14408
852.299	14549
852.434	14530
852.569	14457
852.703	14465
852.838	14499
852.973	14670
853.107	14568
853.242	14434
853.376	14290
853.511	14339
853.645	14317
853.78	14389
853.914	14385
854.048	14271
854.183	14263
854.317	14301
854.451	14385
854.585	14240
854.72	14347
854.854	14355
854.988	14233
855.122	14305
855.256	14191
855.39	14351
855.524	14476
855.658	14332
855.792	14271
855.926	14317
856.06	14343
856.194	14419
856.327	14339
856.461	14225
856.595	14275
856.729	14313
856.862	14393
856.996	14343
857.13	14438
857.263	14389
857.397	14404
857.53	14355
857.664	14419
857.797	14415
857.931	14427
858.064	14355
858.197	14465
858.331	14377
858.464	14305
858.597	14202
858.731	14267
858.864	14374
858.997	14237
859.13	14282
859.263	14339
859.396	14450
859.529	14301
859.662	14282
859.795	14191
859.928	14339
860.061	14492
860.194	14556
860.327	14328
860.46	14385
860.592	14533
860.725	14381
860.858	14412
860.99	14324
861.123	14225
861.256	14275
861.388	14301
861.521	14910
861.653	14305
861.786	14199
861.918	14058
862.05	14206
862.183	14142
862.315	14282
862.447	14404
862.58	14157
862.712	14130
862.844	14050
862.976	14221
863.108	14107
863.24	14423
863.372	14062
863.504	14046
863.636	14111
863.768	14142
863.9	14046
864.032	13951
864.164	13970
864.296	14039
864.428	14267
864.559	14161
864.691	14145
864.823	14065
864.954	14153
865.086	14126
865.217	13989
865.349	14050
865.48	14050
865.612	14142
865.743	14221
865.875	14149
866.006	14005
866.137	14081
866.269	14050
866.4	14039
866.531	14005
866.662	14005
866.793	13959
866.924	14077
867.055	14123
867.186	13993
867.317	14081
867.448	13986
867.579	14050
867.71	14092
867.841	13970
867.972	13986
868.103	14069
868.233	14161
868.364	14062
868.495	14183
868.625	14286
868.756	14389
868.886	14206
869.017	14278
869.147	14446
869.278	14480
869.408	14336
869.539	14305
869.669	14381
869.799	14396
869.929	14473
870.06	14442
870.19	14621
870.32	14720
870.45	14731
870.58	14750
870.71	14796
870.84	14739
870.97	14727
871.1	14758
871.23	14902
871.36	14906
871.489	14826
871.619	14872
871.749	14883
871.879	14967
872.008	15024
872.138	14876
872.267	14838
872.397	14735
872.526	14731
872.656	14735
872.785	14895
872.915	14994
873.044	15036
873.173	14944
873.303	15001
873.432	15074
873.561	15081
873.69	14960
873.819	14853
873.948	14971
874.077	15123
874.206	14941
874.335	14944
874.464	15161
874.593	15116
874.722	15203
874.851	15405
874.979	15340
875.108	15264
875.237	15252
875.365	15230
875.494	15359
875.623	15439
875.751	15256
875.88	15313
876.008	15412
876.136	15492
876.265	15694
876.393	15911
876.521	15838
876.65	15781
876.778	15720
876.906	15622
877.034	15625
877.162	15694
877.29	15637
877.418	15694
877.546	15705
877.674	15717
877.802	15778
877.93	15766
878.058	15770
878.185	15591
878.313	15713
878.441	15644
878.568	15488
878.696	15587
878.824	15774
878.951	15876
879.079	15861
879.206	15994
879.333	15797
879.461	15743
879.588	15876
879.715	15918
879.842	16101
879.97	15732
880.097	15568
880.224	15610
880.351	15717
880.478	15580
880.605	15545
880.732	15561
880.859	15713
880.986	15599
881.112	15671
881.239	15408
881.366	15298
881.493	15222
881.619	15157
881.746	15230
881.872	15188
881.999	15104
882.125	15222
882.252	15260
882.378	15207
882.505	15401
882.631	15169
882.757	15036
882.883	15169
883.01	15036
883.136	14986
883.262	14845
883.388	14861
883.514	15119
883.64	15062
883.766	14975
883.892	14883
884.018	14864
884.143	15066
884.269	15157
884.395	14842
884.52	14667
884.646	14762
884.772	14617
884.897	14625
885.023	14716
885.148	14815
885.274	14804
885.399	14891
885.524	14861
885.65	14731
885.775	14746
885.9	14765
886.025	14807
886.15	14743
886.275	14743
886.4	14629
886.525	14598
886.65	14686
886.775	14564
886.9	14807
887.025	14925
887.149	14739
887.274	14473
887.399	14533
887.523	14537
887.648	14511
887.773	14408
887.897	14617
888.021	14602
888.146	14522
888.27	14686
888.395	14648
888.519	14568
888.643	14568
888.767	14674
888.891	14438
889.015	14419
889.139	14446
889.263	14400
889.387	14564
889.511	14686
889.635	14499
889.759	14366
889.883	14465
890.006	14454
890.13	14526
890.254	14389
890.377	14465
890.501	14275
890.624	14305
890.748	14301
890.871	14142
890.995	14065
891.118	13993
891.241	14103
891.364	14084
891.488	14195
891.611	14214
891.734	14153
891.857	14138
891.98	14126
892.103	14142
892.226	14199
892.349	14168
892.471	14016
892.594	14134
892.717	14096
892.839	14134
892.962	14229
893.085	14221
893.207	14111
893.33	14100
893.452	14126
893.575	14138
893.697	14035
893.819	14385
893.941	14381
894.064	14290
894.186	14134
894.308	14088
894.43	14267
894.552	14431
894.674	14248
894.796	14096
894.918	14191
895.04	14100
895.161	14221
895.283	14164
895.405	14206
895.526	14183
895.648	14237
895.769	14225
895.891	14305
896.012	14313
896.134	14339
896.255	14355
896.376	14328
896.498	14294
896.619	14351
896.74	14351
896.861	14317
896.982	14682
897.103	14815
897.224	14571
897.345	14632
897.466	14518
897.587	14587
897.708	14667
897.828	14644
897.949	14556
898.07	14393
898.19	14602
898.311	14769
898.431	14568
898.552	14602
898.672	14754
898.792	14781
898.913	14617
899.033	14564
899.153	14480
899.273	14480
899.393	14374
899.513	14598
899.633	14419
899.753	14495
899.873	14484
899.993	14564
900.113	14518
900.232	14549
900.352	14507
900.472	14351
900.591	14370
900.711	14328
900.83	14229
900.95	14415
901.069	14473
901.189	14282
901.308	14115
901.427	14084
901.546	14111
901.665	14142
901.784	14206
901.904	13921
902.023	13841
902.141	13712
902.26	13597
902.379	13628
902.498	13502
902.617	13487
902.735	13647
902.854	13567
902.973	13480
903.091	13403
903.21	13350
903.328	13400
903.446	13263
903.565	13270
903.683	13179
903.801	13114
903.919	13141
904.038	13145
904.156	12894
904.274	13110
904.392	12875
904.51	12928
904.627	12958
904.745	13069
904.863	13046
904.981	12913
905.098	12620
905.216	12673
905.334	12734
905.451	12616
905.569	12639
905.686	12700
905.803	12730
905.921	12532
906.038	12517
906.155	12426
906.272	12483
906.389	12437
906.506	12292
906.623	12239
906.74	12289
906.857	12087
906.974	12281
907.091	12311
907.208	12365
907.324	12384
907.441	12171
907.557	12064
907.674	11973
907.79	12003
907.907	11977
908.023	12114
908.139	11973
908.256	12003
908.372	11980
908.488	11893
908.604	11786
908.72	11752
908.836	11779
908.952	11714
909.068	11786
909.184	11885
909.3	11703
909.415	11847
909.531	11847
909.647	11528
909.762	11627
909.878	11471
909.993	11623
910.108	11558
910.224	11516
910.339	11604
910.454	11467
910.57	11379
910.685	11349
910.8	11615
910.915	11577
911.03	11436
911.145	11261
911.259	11220
911.374	11258
911.489	11181
911.604	11124
911.718	10946
911.833	11048
911.947	10892
912.062	10755
912.176	11102
912.291	11083
912.405	10946
912.519	11227
912.633	11208
912.748	11041
912.862	11052
912.976	10919
913.09	10816
913.204	10828
913.318	10911
913.431	11010
913.545	10927
913.659	10980
913.772	10835
913.886	10767
914	10694
914.113	10729
914.226	10862
914.34	10824
914.453	10675
914.566	10850
914.68	10721
914.793	10729
914.906	10538
915.019	10519
915.132	10413
915.245	10558
915.358	10519
915.47	10569
915.583	10523
915.696	10615
915.809	10656
915.921	10698
916.034	10481
916.146	10451
916.259	10436
916.371	10500
916.483	10516
916.595	10432
916.708	10436
916.82	10470
916.932	10367
917.044	10455
917.156	10398
917.268	10333
917.38	10341
917.491	10284
917.603	10466
917.715	10459
917.826	10428
917.938	10246
918.049	10196
918.161	10306
918.272	10493
918.384	10542
918.495	10341
918.606	10219
918.717	10040
918.828	10265
918.939	10230
919.05	10188
919.161	10158
919.272	10044
919.383	10013
919.494	10219
919.604	10455
919.715	10158
919.826	10150
919.936	10230
920.047	10284
920.157	10280
920.267	10424
920.378	10238
920.488	10253
920.598	10485
920.708	10558
920.818	10451
920.928	10455
921.038	10645
921.148	10569
921.258	10306
921.368	10177
921.477	10128
921.587	10048
921.697	9934
921.806	10112
921.916	9915
922.025	9842
922.134	9892
922.244	9732
922.353	9869
922.462	9679
922.571	9595
922.68	9504
922.789	9462
922.898	9447
923.007	9435
923.116	9557
923.224	9405
923.333	9549
923.442	9393
923.55	9363
923.659	9393
923.767	9416
923.876	9283
923.984	9397
924.092	9142
924.201	9332
924.309	9340
924.417	9329
924.525	9291
924.633	9287
924.741	10078
924.849	9116
924.956	9256
925.064	9195
925.172	9093
925.279	9131
925.387	9146
925.494	9203
925.602	9203
925.709	9264
925.816	9062
925.924	9138
926.031	9256
926.138	9165
926.245	9066
926.352	9074
926.459	9207
926.566	9131
926.673	9108
926.779	9024
926.886	8994
926.993	8902
927.099	8883
927.206	8781
927.312	8796
927.419	8864
927.525	8819
927.631	8921
927.737	8826
927.843	8773
927.95	8655
928.056	8750
928.162	8727
928.267	8811
928.373	9378
928.479	8849
928.585	8640
928.69	8769
928.796	8750
928.901	8674
929.007	8514
929.112	8663
929.218	8689
929.323	8606
929.428	8579
929.533	8727
929.638	8450
929.743	8495
929.848	8590
929.953	8514
930.058	8419
930.163	8256
930.267	8370
930.372	8507
930.477	8248
930.581	8541
930.685	8396
930.79	8294
930.894	8271
930.998	8240
931.103	8461
931.207	8096
931.311	8031
931.415	7928
931.519	7803
931.623	7818
