Data from test_V78500241_2497.txt Node
Date: Fri Mar 25 14:51:06 CST 2022
User: usil
Spectrometer: V785-0024
Trigger mode: 0
Integration Time (sec): 4.000000E-1
Scans to average: 1
Nonlinearity correction enabled: false
Boxcar width: 0
Storing dark spectrum: false
XAxis mode: Wavelengths
Number of Pixels in Spectrum: 1024
>>>>>Begin Spectral Data<<<<<
801.071	22040
801.214	22055
801.356	21751
801.499	21580
801.641	21374
801.783	21367
801.926	21469
802.068	21329
802.211	21378
802.353	21283
802.496	21089
802.638	20902
802.78	20952
802.923	20659
803.065	20834
803.208	20739
803.35	20735
803.492	20811
803.635	20811
803.777	20765
803.919	20883
804.061	21093
804.204	20880
804.346	20781
804.488	20727
804.63	20861
804.773	20632
804.915	20655
805.057	20765
805.199	20720
805.341	20712
805.483	20804
805.626	20826
805.768	20693
805.91	20655
806.052	20670
806.194	20667
806.336	20834
806.478	20724
806.62	20663
806.762	20670
806.904	20933
807.046	21077
807.188	21089
807.33	21017
807.472	21081
807.614	20868
807.756	20956
807.898	20743
808.04	20762
808.182	20830
808.324	20720
808.465	20800
808.607	20971
808.749	21055
808.891	21173
809.033	21294
809.174	21188
809.316	21005
809.458	21051
809.6	21077
809.741	21157
809.883	21051
810.025	21260
810.166	21165
810.308	21233
810.45	21150
810.591	21081
810.733	20963
810.875	20918
811.016	20781
811.158	20731
811.299	20948
811.441	20921
811.582	20963
811.724	20918
811.865	20861
812.007	20876
812.148	20830
812.29	20807
812.431	20823
812.573	21169
812.714	21192
812.855	21355
812.997	21481
813.138	21557
813.279	21435
813.421	21382
813.562	21329
813.703	21199
813.845	20937
813.986	20693
814.127	20533
814.268	20454
814.41	20442
814.551	20294
814.692	20480
814.833	20351
814.974	20332
815.115	20415
815.256	20077
815.397	20252
815.539	20309
815.68	20119
815.821	20172
815.962	20145
816.103	20054
816.244	20084
816.385	19959
816.526	19776
816.666	19712
816.807	19544
816.948	19727
817.089	19700
817.23	19449
817.371	19449
817.512	19472
817.653	19487
817.793	19365
817.934	19590
818.075	19468
818.216	19552
818.356	19396
818.497	19346
818.638	19297
818.778	19129
818.919	19198
819.06	19171
819.2	19293
819.341	19320
819.481	19335
819.622	19487
819.762	19772
819.903	19670
820.043	19620
820.184	19514
820.324	19460
820.465	19601
820.605	19460
820.746	19415
820.886	19301
821.026	19506
821.167	19403
821.307	19502
821.447	19400
821.588	19259
821.728	19228
821.868	18958
822.008	18920
822.149	18897
822.289	18901
822.429	18726
822.569	18559
822.709	18582
822.849	18486
822.99	18357
823.13	18376
823.27	18262
823.41	18304
823.55	18171
823.69	18232
823.83	18186
823.97	18224
824.11	17946
824.25	17980
824.389	17836
824.529	18125
824.669	18030
824.809	18026
824.949	17908
825.089	18060
825.228	17996
825.368	17863
825.508	17840
825.648	17824
825.787	17821
825.927	17729
826.067	17722
826.206	17672
826.346	17832
826.485	17687
826.625	17756
826.765	17851
826.904	17646
827.044	17528
827.183	17478
827.323	17490
827.462	17478
827.601	17376
827.741	17471
827.88	17444
828.02	17410
828.159	17417
828.298	17566
828.437	17482
828.577	17440
828.716	17516
828.855	17383
828.994	17208
829.134	17166
829.273	17197
829.412	17197
829.551	17128
829.69	17109
829.829	17193
829.968	17273
830.107	17349
830.246	17208
830.385	17083
830.524	17208
830.663	16995
830.802	16854
830.941	16862
831.08	16710
831.219	16938
831.357	16911
831.496	17014
831.635	16801
831.774	16660
831.913	16725
832.051	16504
832.19	16508
832.329	16637
832.467	16424
832.606	16424
832.744	16485
832.883	16447
833.022	16474
833.16	16478
833.299	16554
833.437	16466
833.576	16554
833.714	16523
833.852	16656
833.991	16603
834.129	16561
834.267	16527
834.406	16542
834.544	16550
834.682	16554
834.821	16485
834.959	16755
835.097	16523
835.235	16615
835.373	16550
835.511	16626
835.65	16485
835.788	16379
835.926	16238
836.064	16249
836.202	16310
836.34	16424
836.478	16603
836.615	16432
836.753	16462
836.891	16531
837.029	16447
837.167	16523
837.305	16424
837.443	16352
837.58	16299
837.718	16398
837.856	16360
837.993	16333
838.131	16322
838.269	16280
838.406	16234
838.544	16204
838.681	16021
838.819	16086
838.956	15915
839.094	15804
839.231	15857
839.369	15922
839.506	16318
839.643	16040
839.781	15869
839.918	15857
840.055	15941
840.193	15880
840.33	15857
840.467	15888
840.604	15937
840.742	16086
840.879	15732
841.016	15869
841.153	15736
841.29	15998
841.427	15888
841.564	15937
841.701	15994
841.838	15732
841.975	15713
842.112	15656
842.249	15682
842.385	15606
842.522	15827
842.659	15648
842.796	15511
842.933	15644
843.069	15587
843.206	15557
843.343	15717
843.479	15568
843.616	15652
843.752	15370
843.889	15428
844.025	15534
844.162	15431
844.298	15538
844.435	15523
844.571	15424
844.708	15496
844.844	15671
844.98	15622
845.117	15641
845.253	15359
845.389	15291
845.525	15275
845.661	15298
845.798	15294
845.934	15344
846.07	15192
846.206	15260
846.342	15329
846.478	15218
846.614	14971
846.75	15020
846.886	14906
847.022	15116
847.158	15066
847.294	15051
847.429	15062
847.565	15093
847.701	15195
847.837	14746
847.972	14701
848.108	14937
848.244	14838
848.379	14629
848.515	14587
848.65	14545
848.786	14613
848.921	14537
849.057	14686
849.192	14735
849.328	14689
849.463	14629
849.598	14545
849.734	14480
849.869	14476
850.004	14465
850.14	14469
850.275	14507
850.41	14313
850.545	14434
850.68	14393
850.815	14366
850.95	14446
851.085	14621
851.22	14511
851.355	14400
851.49	14317
851.625	14320
851.76	14320
851.895	14301
852.03	14199
852.165	14225
852.299	14366
852.434	14454
852.569	14400
852.703	14495
852.838	14404
852.973	14461
853.107	14568
853.242	14332
853.376	14233
853.511	14164
853.645	14271
853.78	14377
853.914	14278
854.048	14252
854.183	14286
854.317	14176
854.451	14438
854.585	14187
854.72	14183
854.854	14248
854.988	14168
855.122	14233
855.256	14138
855.39	14202
855.524	14347
855.658	14286
855.792	14153
855.926	14324
856.06	14324
856.194	14259
856.327	14275
856.461	14115
856.595	14214
856.729	14187
856.862	14336
856.996	14282
857.13	14324
857.263	14389
857.397	14248
857.53	14237
857.664	14256
857.797	14336
857.931	14336
858.064	14301
858.197	14324
858.331	14294
858.464	14218
858.597	14229
858.731	14267
858.864	14286
858.997	14183
859.13	14259
859.263	14233
859.396	14381
859.529	14214
859.662	14164
859.795	14225
859.928	14317
860.061	14381
860.194	14495
860.327	14244
860.46	14199
860.592	14347
860.725	14218
860.858	14415
860.99	14233
861.123	14092
861.256	14077
861.388	14275
861.521	14941
861.653	14199
861.786	14062
861.918	14035
862.05	14138
862.183	14202
862.315	14267
862.447	14309
862.58	14183
862.712	14001
862.844	13997
862.976	14008
863.108	14119
863.24	14286
863.372	14046
863.504	14001
863.636	14012
863.768	14073
863.9	14005
864.032	13928
864.164	14027
864.296	14058
864.428	14115
864.559	14187
864.691	14172
864.823	14123
864.954	14088
865.086	14107
865.217	14001
865.349	13963
865.48	13921
865.612	14065
865.743	14100
865.875	14001
866.006	13959
866.137	14046
866.269	13936
866.4	14081
866.531	14012
866.662	13917
866.793	13864
866.924	14008
867.055	14020
867.186	14088
867.317	13993
867.448	13902
867.579	13993
867.71	13906
867.841	13967
867.972	13993
868.103	13978
868.233	13978
868.364	13963
868.495	14126
868.625	14248
868.756	14389
868.886	14195
869.017	14176
869.147	14389
869.278	14324
869.408	14259
869.539	14244
869.669	14339
869.799	14320
869.929	14434
870.06	14412
870.19	14522
870.32	14522
870.45	14560
870.58	14720
870.71	14712
870.84	14750
870.97	14632
871.1	14648
871.23	14811
871.36	14842
871.489	14701
871.619	14872
871.749	14861
871.879	14925
872.008	15005
872.138	15005
872.267	14842
872.397	14735
872.526	14739
872.656	14701
872.785	14781
872.915	14849
873.044	15070
873.173	14929
873.303	14967
873.432	14910
873.561	15017
873.69	14891
873.819	14975
873.948	15028
874.077	14891
874.206	14864
874.335	14914
874.464	15005
874.593	15218
874.722	15192
874.851	15252
874.979	15310
875.108	15176
875.237	15085
875.365	15222
875.494	15195
875.623	15294
875.751	15100
875.88	15294
876.008	15367
876.136	15507
876.265	15644
876.393	15850
876.521	15679
876.65	15755
876.778	15633
876.906	15682
877.034	15557
877.162	15561
877.29	15614
877.418	15652
877.546	15641
877.674	15595
877.802	15625
877.93	15622
878.058	15694
878.185	15610
878.313	15584
878.441	15606
878.568	15469
878.696	15587
878.824	15587
878.951	15736
879.079	15762
879.206	15945
879.333	15766
879.461	15682
879.588	15717
879.715	15926
879.842	15854
879.97	15679
880.097	15492
880.224	15389
880.351	15542
880.478	15526
880.605	15488
880.732	15534
880.859	15732
880.986	15500
881.112	15488
881.239	15275
881.366	15195
881.493	15230
881.619	15138
881.746	15184
881.872	15226
881.999	15100
882.125	15093
882.252	15214
882.378	15192
882.505	15325
882.631	15062
882.757	14998
882.883	15039
883.01	15017
883.136	14933
883.262	14849
883.388	14963
883.514	15001
883.64	14918
883.766	14967
883.892	14883
884.018	14804
884.143	15028
884.269	15081
884.395	14617
884.52	14590
884.646	14678
884.772	14571
884.897	14552
885.023	14640
885.148	14750
885.274	14872
885.399	14792
885.524	14648
885.65	14674
885.775	14708
885.9	14655
886.025	14845
886.15	14697
886.275	14724
886.4	14617
886.525	14716
886.65	14678
886.775	14530
886.9	14727
887.025	14902
887.149	14762
887.274	14488
887.399	14530
887.523	14518
887.648	14396
887.773	14469
887.897	14507
888.021	14484
888.146	14495
888.27	14552
888.395	14663
888.519	14663
888.643	14545
888.767	14533
888.891	14366
889.015	14393
889.139	14423
889.263	14305
889.387	14461
889.511	14598
889.635	14545
889.759	14267
889.883	14351
890.006	14419
890.13	14514
890.254	14317
890.377	14298
890.501	14149
890.624	14115
890.748	14237
890.871	14096
890.995	14012
891.118	13955
891.241	14050
891.364	14138
891.488	14252
891.611	14069
891.734	14084
891.857	14096
891.98	14020
892.103	14115
892.226	14005
892.349	14107
892.471	13986
892.594	13986
892.717	14096
892.839	14054
892.962	14016
893.085	14081
893.207	14081
893.33	14027
893.452	14005
893.575	14062
893.697	14096
893.819	14206
893.941	14347
894.064	14252
894.186	14016
894.308	14100
894.43	14187
894.552	14347
894.674	14252
894.796	14100
894.918	14073
895.04	14005
895.161	14195
895.283	14218
895.405	14138
895.526	14157
895.648	14233
895.769	14202
895.891	14176
896.012	14275
896.134	14317
896.255	14107
896.376	14176
896.498	14244
896.619	14237
896.74	14240
896.861	14313
896.982	14579
897.103	14765
897.224	14526
897.345	14431
897.466	14461
897.587	14507
897.708	14651
897.828	14533
897.949	14522
898.07	14351
898.19	14552
898.311	14724
898.431	14545
898.552	14640
898.672	14667
898.792	14693
898.913	14602
899.033	14511
899.153	14377
899.273	14377
899.393	14408
899.513	14461
899.633	14480
899.753	14419
899.873	14469
899.993	14484
900.113	14511
900.232	14465
900.352	14427
900.472	14336
900.591	14355
900.711	14351
900.83	14214
900.95	14427
901.069	14389
901.189	14263
901.308	14115
901.427	14031
901.546	13940
901.665	14073
901.784	14115
901.904	13807
902.023	13799
902.141	13647
902.26	13510
902.379	13677
902.498	13613
902.617	13521
902.735	13559
902.854	13518
902.973	13586
903.091	13225
903.21	13301
903.328	13255
903.446	13232
903.565	13164
903.683	13183
903.801	13072
903.919	13110
904.038	13069
904.156	12973
904.274	13065
904.392	12962
904.51	12863
904.627	12901
904.745	12985
904.863	13065
904.981	12783
905.098	12608
905.216	12741
905.334	12722
905.451	12700
905.569	12566
905.686	12711
905.803	12631
905.921	12380
906.038	12631
906.155	12414
906.272	12407
906.389	12369
906.506	12254
906.623	12285
906.74	12266
906.857	12102
906.974	12076
907.091	12346
907.208	12490
907.324	12304
907.441	12205
907.557	11961
907.674	12064
907.79	11790
907.907	11935
908.023	12045
908.139	12015
908.256	11908
908.372	11912
908.488	11961
908.604	11832
908.72	11695
908.836	11710
908.952	11707
909.068	11714
909.184	11836
909.3	11688
909.415	11805
909.531	11764
909.647	11558
909.762	11482
909.878	11463
909.993	11543
910.108	11577
910.224	11532
910.339	11410
910.454	11452
910.57	11307
910.685	11227
910.8	11547
910.915	11608
911.03	11459
911.145	11201
911.259	11174
911.374	11261
911.489	11098
911.604	11117
911.718	10946
911.833	10965
911.947	10850
912.062	10767
912.176	10896
912.291	10980
912.405	10961
912.519	11178
912.633	11216
912.748	11094
912.862	11006
912.976	10850
913.09	10729
913.204	10812
913.318	10820
913.431	10949
913.545	10968
913.659	10934
913.772	10843
913.886	10729
914	10664
914.113	10873
914.226	10900
914.34	10793
914.453	10637
914.566	10763
914.68	10596
914.793	10679
914.906	10497
915.019	10405
915.132	10375
915.245	10436
915.358	10478
915.47	10497
915.583	10474
915.696	10474
915.809	10554
915.921	10599
916.034	10489
916.146	10405
916.259	10413
916.371	10436
916.483	10493
916.595	10363
916.708	10440
916.82	10440
916.932	10344
917.044	10348
917.156	10341
917.268	10329
917.38	10291
917.491	10310
917.603	10299
917.715	10333
917.826	10405
917.938	10249
918.049	10188
918.161	10234
918.272	10447
918.384	10371
918.495	10352
918.606	10204
918.717	10131
918.828	10143
918.939	10143
919.05	10105
919.161	10150
919.272	9983
919.383	10063
919.494	10219
919.604	10322
919.715	10230
919.826	10090
919.936	10177
920.047	10253
920.157	10227
920.267	10481
920.378	10280
920.488	10230
920.598	10379
920.708	10546
920.818	10432
920.928	10375
921.038	10599
921.148	10531
921.258	10204
921.368	10181
921.477	10059
921.587	10124
921.697	9983
921.806	10067
921.916	9972
922.025	9800
922.134	9781
922.244	9789
922.353	9850
922.462	9717
922.571	9580
922.68	9450
922.789	9496
922.898	9492
923.007	9485
923.116	9545
923.224	9488
923.333	9492
923.442	9336
923.55	9363
923.659	9310
923.767	9496
923.876	9321
923.984	9481
924.092	9279
924.201	9332
924.309	9321
924.417	9336
924.525	9275
924.633	9325
924.741	10280
924.849	9135
924.956	9382
925.064	9199
925.172	9058
925.279	9135
925.387	9157
925.494	9116
925.602	9291
925.709	9211
925.816	9020
925.924	9138
926.031	9237
926.138	9203
926.245	9176
926.352	9116
926.459	9230
926.566	9306
926.673	9214
926.779	9039
926.886	9032
926.993	8910
927.099	8811
927.206	8746
927.312	8842
927.419	8883
927.525	8929
927.631	8960
927.737	8819
927.843	8743
927.95	8560
928.056	8781
928.162	8720
928.267	8788
928.373	9408
928.479	8845
928.585	8590
928.69	8785
928.796	8868
928.901	8686
929.007	8495
929.112	8678
929.218	8621
929.323	8610
929.428	8636
929.533	8678
929.638	8560
929.743	8617
929.848	8583
929.953	8545
930.058	8454
930.163	8457
930.267	8374
930.372	8476
930.477	8282
930.581	8556
930.685	8393
930.79	8267
930.894	8324
930.998	8229
931.103	8473
931.207	8130
931.311	8062
931.415	7944
931.519	7769
931.623	7818
