Data from test_V78500241_3581.txt Node
Date: Fri Mar 25 14:58:39 CST 2022
User: usil
Spectrometer: V785-0024
Trigger mode: 0
Integration Time (sec): 4.000000E-1
Scans to average: 1
Nonlinearity correction enabled: false
Boxcar width: 0
Storing dark spectrum: false
XAxis mode: Wavelengths
Number of Pixels in Spectrum: 1024
>>>>>Begin Spectral Data<<<<<
801.071	21869
801.214	21770
801.356	21561
801.499	21561
801.641	21344
801.783	21329
801.926	21393
802.068	21252
802.211	21077
802.353	20986
802.496	20868
802.638	20800
802.78	20788
802.923	20781
803.065	20492
803.208	20511
803.35	20568
803.492	20754
803.635	20682
803.777	20773
803.919	20583
804.061	20849
804.204	20693
804.346	20457
804.488	20473
804.63	20579
804.773	20476
804.915	20415
805.057	20556
805.199	20324
805.341	20583
805.483	20541
805.626	20431
805.768	20484
805.91	20461
806.052	20480
806.194	20393
806.336	20655
806.478	20442
806.62	20454
806.762	20457
806.904	20625
807.046	20834
807.188	20845
807.33	20811
807.472	20861
807.614	20720
807.756	20781
807.898	20613
808.04	20621
808.182	20511
808.324	20598
808.465	20629
808.607	20811
808.749	20891
808.891	21024
809.033	20899
809.174	20921
809.316	20750
809.458	20819
809.6	20663
809.741	20941
809.883	20883
810.025	20929
810.166	20986
810.308	20967
810.45	20815
810.591	20880
810.733	20678
810.875	20583
811.016	20545
811.158	20469
811.299	20720
811.441	20720
811.582	20735
811.724	20655
811.865	20549
812.007	20682
812.148	20590
812.29	20598
812.431	20823
812.573	20925
812.714	20986
812.855	21104
812.997	21291
813.138	21336
813.279	21131
813.421	21062
813.562	21001
813.703	20758
813.845	20678
813.986	20465
814.127	20259
814.268	20183
814.41	20168
814.551	20096
814.692	20100
814.833	20046
814.974	20062
815.115	20142
815.256	19986
815.397	19932
815.539	20012
815.68	19849
815.821	19681
815.962	19826
816.103	19902
816.244	19712
816.385	19578
816.526	19620
816.666	19480
816.807	19194
816.948	19472
817.089	19320
817.23	19400
817.371	19293
817.512	19293
817.653	19244
817.793	19160
817.934	19232
818.075	19304
818.216	19206
818.356	19202
818.497	19034
818.638	18958
818.778	19038
818.919	18943
819.06	18958
819.2	19046
819.341	19118
819.481	19164
819.622	19228
819.762	19495
819.903	19343
820.043	19392
820.184	19285
820.324	19247
820.465	19228
820.605	19152
820.746	19285
820.886	19008
821.026	19225
821.167	19171
821.307	19327
821.447	19206
821.588	19000
821.728	19019
821.868	18749
822.008	18631
822.149	18593
822.289	18555
822.429	18513
822.569	18365
822.709	18330
822.849	18152
822.99	18144
823.13	18083
823.27	18152
823.41	17969
823.55	17977
823.69	17889
823.83	17870
823.97	17855
824.11	17726
824.25	17672
824.389	17707
824.529	17722
824.669	17710
824.809	17817
824.949	17855
825.089	17775
825.228	17756
825.368	17520
825.508	17516
825.648	17589
825.787	17547
825.927	17581
826.067	17395
826.206	17417
826.346	17497
826.485	17577
826.625	17512
826.765	17649
826.904	17543
827.044	17292
827.183	17239
827.323	17178
827.462	17330
827.601	17235
827.741	17098
827.88	17261
828.02	17159
828.159	17124
828.298	17231
828.437	17170
828.577	17181
828.716	17345
828.855	17292
828.994	17018
829.134	16946
829.273	16911
829.412	16809
829.551	16965
829.69	17003
829.829	17052
829.968	17090
830.107	17045
830.246	16980
830.385	16919
830.524	16896
830.663	16854
830.802	16717
830.941	16596
831.08	16592
831.219	16637
831.357	16691
831.496	16778
831.635	16645
831.774	16538
831.913	16451
832.051	16462
832.19	16299
832.329	16375
832.467	16325
832.606	16226
832.744	16314
832.883	16234
833.022	16234
833.16	16272
833.299	16303
833.437	16314
833.576	16341
833.714	16318
833.852	16348
833.991	16493
834.129	16386
834.267	16371
834.406	16417
834.544	16424
834.682	16474
834.821	16280
834.959	16459
835.097	16249
835.235	16459
835.373	16432
835.511	16325
835.65	16230
835.788	16306
835.926	16101
836.064	16139
836.202	16154
836.34	16246
836.478	16356
836.615	16230
836.753	16337
836.891	16318
837.029	16310
837.167	16223
837.305	16200
837.443	16162
837.58	16207
837.718	16192
837.856	16200
837.993	16082
838.131	16238
838.269	16101
838.406	16124
838.544	16040
838.681	15789
838.819	15861
838.956	15694
839.094	15648
839.231	15774
839.369	15816
839.506	16204
839.643	15899
839.781	15736
839.918	15629
840.055	15728
840.193	15694
840.33	15644
840.467	15576
840.604	15717
840.742	16006
840.879	15534
841.016	15652
841.153	15549
841.29	15804
841.427	15701
841.564	15755
841.701	15747
841.838	15542
841.975	15625
842.112	15591
842.249	15587
842.385	15477
842.522	15797
842.659	15492
842.796	15428
842.933	15538
843.069	15564
843.206	15469
843.343	15557
843.479	15519
843.616	15587
843.752	15359
843.889	15252
844.025	15481
844.162	15241
844.298	15374
844.435	15237
844.571	15154
844.708	15310
844.844	15401
844.98	15469
845.117	15272
845.253	15260
845.389	15142
845.525	15161
845.661	15214
845.798	15047
845.934	15108
846.07	15157
846.206	15203
846.342	15222
846.478	15074
846.614	14906
846.75	14743
846.886	14807
847.022	14937
847.158	14823
847.294	14876
847.429	14872
847.565	14868
847.701	15154
847.837	14648
847.972	14537
848.108	14632
848.244	14716
848.379	14556
848.515	14492
848.65	14404
848.786	14412
848.921	14400
849.057	14556
849.192	14522
849.328	14457
849.463	14465
849.598	14457
849.734	14275
849.869	14278
850.004	14202
850.14	14282
850.275	14256
850.41	14096
850.545	14233
850.68	14271
850.815	14248
850.95	14233
851.085	14431
851.22	14347
851.355	14229
851.49	14286
851.625	14103
851.76	14187
851.895	14130
852.03	14100
852.165	14149
852.299	14332
852.434	14252
852.569	14343
852.703	14237
852.838	14374
852.973	14324
853.107	14358
853.242	14183
853.376	14119
853.511	14020
853.645	13955
853.78	14290
853.914	14134
854.048	14153
854.183	14153
854.317	14168
854.451	14237
854.585	14126
854.72	14073
854.854	14142
854.988	14046
855.122	14096
855.256	13913
855.39	14073
855.524	14096
855.658	14130
855.792	14050
855.926	14123
856.06	14111
856.194	14145
856.327	14096
856.461	14050
856.595	14046
856.729	14100
856.862	14168
856.996	14263
857.13	14149
857.263	14248
857.397	14210
857.53	14092
857.664	14119
857.797	14130
857.931	14275
858.064	14103
858.197	14267
858.331	14069
858.464	14145
858.597	14069
858.731	14050
858.864	14126
858.997	14096
859.13	14073
859.263	14062
859.396	14134
859.529	14027
859.662	14115
859.795	14088
859.928	14107
860.061	14248
860.194	14267
860.327	14176
860.46	13963
860.592	14195
860.725	14145
860.858	14282
860.99	14142
861.123	14088
861.256	14024
861.388	14130
861.521	14952
861.653	13970
861.786	13974
861.918	14016
862.05	14115
862.183	14062
862.315	14126
862.447	14199
862.58	14039
862.712	13898
862.844	13883
862.976	13963
863.108	13959
863.24	14294
863.372	13731
863.504	13883
863.636	13879
863.768	14008
863.9	13925
864.032	13761
864.164	13898
864.296	13917
864.428	14020
864.559	14012
864.691	14008
864.823	13978
864.954	13890
865.086	13932
865.217	13906
865.349	13795
865.48	13936
865.612	13860
865.743	14008
865.875	13845
866.006	13811
866.137	13906
866.269	13868
866.4	13788
866.531	13818
866.662	13769
866.793	13818
866.924	13837
867.055	13868
867.186	13921
867.317	13811
867.448	13868
867.579	13868
867.71	13734
867.841	13803
867.972	13818
868.103	13928
868.233	13955
868.364	13871
868.495	13955
868.625	14077
868.756	14229
868.886	14062
869.017	14138
869.147	14172
869.278	14157
869.408	14088
869.539	14054
869.669	14202
869.799	14183
869.929	14183
870.06	14256
870.19	14427
870.32	14469
870.45	14434
870.58	14522
870.71	14689
870.84	14613
870.97	14511
871.1	14522
871.23	14686
871.36	14750
871.489	14659
871.619	14769
871.749	14697
871.879	14674
872.008	14895
872.138	14648
872.267	14758
872.397	14556
872.526	14571
872.656	14514
872.785	14598
872.915	14792
873.044	14823
873.173	14796
873.303	14804
873.432	14880
873.561	14804
873.69	14830
873.819	14819
873.948	14910
874.077	14895
874.206	14735
874.335	14769
874.464	15001
874.593	15154
874.722	14982
874.851	15097
874.979	15070
875.108	15176
875.237	15039
875.365	15043
875.494	15116
875.623	15180
875.751	15085
875.88	15077
876.008	15237
876.136	15310
876.265	15595
876.393	15614
876.521	15629
876.65	15545
876.778	15545
876.906	15507
877.034	15431
877.162	15492
877.29	15477
877.418	15504
877.546	15515
877.674	15477
877.802	15515
877.93	15462
878.058	15374
878.185	15431
878.313	15370
878.441	15523
878.568	15378
878.696	15564
878.824	15542
878.951	15500
879.079	15679
879.206	15869
879.333	15774
879.461	15557
879.588	15606
879.715	15667
879.842	15819
879.97	15561
880.097	15412
880.224	15321
880.351	15336
880.478	15378
880.605	15374
880.732	15424
880.859	15622
880.986	15435
881.112	15397
881.239	15226
881.366	15138
881.493	15154
881.619	15036
881.746	15062
881.872	15043
881.999	14982
882.125	14960
882.252	15123
882.378	15028
882.505	15192
882.631	14906
882.757	14819
882.883	14800
883.01	14785
883.136	14785
883.262	14678
883.388	14739
883.514	14845
883.64	14933
883.766	14830
883.892	14655
884.018	14670
884.143	14781
884.269	14975
884.395	14560
884.52	14495
884.646	14552
884.772	14564
884.897	14526
885.023	14594
885.148	14537
885.274	14724
885.399	14682
885.524	14583
885.65	14514
885.775	14579
885.9	14526
886.025	14632
886.15	14655
886.275	14537
886.4	14492
886.525	14454
886.65	14427
886.775	14526
886.9	14682
887.025	14800
887.149	14549
887.274	14362
887.399	14347
887.523	14374
887.648	14267
887.773	14259
887.897	14347
888.021	14389
888.146	14374
888.27	14606
888.395	14484
888.519	14473
888.643	14313
888.767	14408
888.891	14332
889.015	14202
889.139	14298
889.263	14240
889.387	14431
889.511	14476
889.635	14347
889.759	14214
889.883	14305
890.006	14298
890.13	14404
890.254	14115
890.377	14191
890.501	14046
890.624	14065
890.748	14096
890.871	13967
890.995	13947
891.118	13913
891.241	13917
891.364	14031
891.488	14043
891.611	13928
891.734	13921
891.857	14069
891.98	13978
892.103	14123
892.226	13898
892.349	13963
892.471	13788
892.594	13917
892.717	14001
892.839	13841
892.962	13936
893.085	14065
893.207	13989
893.33	13849
893.452	13849
893.575	14046
893.697	13932
893.819	14142
893.941	14172
894.064	14096
894.186	13818
894.308	14035
894.43	14043
894.552	14153
894.674	14035
894.796	13944
894.918	13978
895.04	13936
895.161	14062
895.283	14172
895.405	13982
895.526	14039
895.648	14073
895.769	14046
895.891	14107
896.012	14225
896.134	14149
896.255	14088
896.376	14142
896.498	13993
896.619	14225
896.74	14046
896.861	14119
896.982	14389
897.103	14511
897.224	14400
897.345	14374
897.466	14358
897.587	14412
897.708	14415
897.828	14461
897.949	14313
898.07	14381
898.19	14393
898.311	14431
898.431	14385
898.552	14412
898.672	14568
898.792	14549
898.913	14518
899.033	14313
899.153	14301
899.273	14195
899.393	14294
899.513	14408
899.633	14389
899.753	14320
899.873	14347
899.993	14339
900.113	14252
900.232	14400
900.352	14336
900.472	14347
900.591	14221
900.711	14168
900.83	14164
900.95	14278
901.069	14282
901.189	14183
901.308	13982
901.427	13833
901.546	13894
901.665	13921
901.784	13951
901.904	13685
902.023	13643
902.141	13449
902.26	13411
902.379	13495
902.498	13426
902.617	13468
902.735	13464
902.854	13449
902.973	13331
903.091	13247
903.21	13232
903.328	13202
903.446	13156
903.565	13019
903.683	13027
903.801	12852
903.919	13012
904.038	12981
904.156	12901
904.274	12920
904.392	12825
904.51	12821
904.627	12779
904.745	12886
904.863	12859
904.981	12681
905.098	12566
905.216	12433
905.334	12623
905.451	12593
905.569	12563
905.686	12589
905.803	12467
905.921	12285
906.038	12452
906.155	12319
906.272	12258
906.389	12216
906.506	12125
906.623	12083
906.74	11992
906.857	11996
906.974	12022
907.091	12144
907.208	12186
907.324	12247
907.441	12022
907.557	11920
907.674	11874
907.79	11851
907.907	11847
908.023	11885
908.139	11931
908.256	11684
908.372	11821
908.488	11798
908.604	11707
908.72	11619
908.836	11619
908.952	11619
909.068	11611
909.184	11748
909.3	11619
909.415	11642
909.531	11642
909.647	11379
909.762	11448
909.878	11391
909.993	11410
910.108	11474
910.224	11315
910.339	11425
910.454	11296
910.57	11379
910.685	11181
910.8	11535
910.915	11387
911.03	11311
911.145	11094
911.259	11166
911.374	11136
911.489	11102
911.604	10930
911.718	10968
911.833	10847
911.947	10763
912.062	10767
912.176	10847
912.291	10801
912.405	10843
912.519	11098
912.633	11132
912.748	11029
912.862	10957
912.976	10786
913.09	10558
913.204	10717
913.318	10801
913.431	10831
913.545	10835
913.659	10877
913.772	10801
913.886	10611
914	10660
914.113	10668
914.226	10748
914.34	10698
914.453	10516
914.566	10740
914.68	10599
914.793	10580
914.906	10375
915.019	10306
915.132	10310
915.245	10379
915.358	10405
915.47	10325
915.583	10413
915.696	10424
915.809	10508
915.921	10455
916.034	10367
916.146	10333
916.259	10280
916.371	10341
916.483	10436
916.595	10287
916.708	10303
916.82	10394
916.932	10291
917.044	10325
917.156	10303
917.268	10227
917.38	10291
917.491	10200
917.603	10276
917.715	10295
917.826	10299
917.938	10227
918.049	10071
918.161	10215
918.272	10352
918.384	10382
918.495	10234
918.606	10097
918.717	10082
918.828	10112
918.939	10139
919.05	10025
919.161	10051
919.272	9884
919.383	9922
919.494	10162
919.604	10337
919.715	10150
919.826	10074
919.936	10071
920.047	10196
920.157	10131
920.267	10348
920.378	10154
920.488	10154
920.598	10306
920.708	10508
920.818	10382
920.928	10325
921.038	10481
921.148	10455
921.258	10154
921.368	10059
921.477	9975
921.587	9941
921.697	9918
921.806	10010
921.916	9892
922.025	9717
922.134	9667
922.244	9591
922.353	9778
922.462	9526
922.571	9526
922.68	9344
922.789	9363
922.898	9450
923.007	9359
923.116	9454
923.224	9420
923.333	9329
923.442	9302
923.55	9195
923.659	9272
923.767	9363
923.876	9226
923.984	9283
924.092	9180
924.201	9237
924.309	9211
924.417	9241
924.525	9233
924.633	9161
924.741	9930
924.849	8982
924.956	9161
925.064	9036
925.172	8998
925.279	8929
925.387	9074
925.494	9017
925.602	9138
925.709	9138
925.816	8979
925.924	9001
926.031	9070
926.138	9039
926.245	9070
926.352	8960
926.459	9108
926.566	9195
926.673	9070
926.779	8899
926.886	8830
926.993	8842
927.099	8762
927.206	8701
927.312	8640
927.419	8807
927.525	8724
927.631	8781
927.737	8640
927.843	8632
927.95	8419
928.056	8613
928.162	8674
928.267	8746
928.373	9237
928.479	8712
928.585	8492
928.69	8613
928.796	8712
928.901	8579
929.007	8465
929.112	8590
929.218	8579
929.323	8488
929.428	8419
929.533	8651
929.638	8400
929.743	8419
929.848	8571
929.953	8476
930.058	8400
930.163	8240
930.267	8237
930.372	8370
930.477	8195
930.581	8457
930.685	8366
930.79	8233
930.894	8244
930.998	8161
931.103	8279
931.207	7928
931.311	7898
931.415	7898
931.519	7639
931.623	7723
