Data from test_V78500241_1496.txt Node
Date: Fri Mar 25 14:44:07 CST 2022
User: usil
Spectrometer: V785-0024
Trigger mode: 0
Integration Time (sec): 4.000000E-1
Scans to average: 1
Nonlinearity correction enabled: false
Boxcar width: 0
Storing dark spectrum: false
XAxis mode: Wavelengths
Number of Pixels in Spectrum: 1024
>>>>>Begin Spectral Data<<<<<
801.071	22356
801.214	22211
801.356	22025
801.499	22029
801.641	21884
801.783	21766
801.926	21812
802.068	21743
802.211	21530
802.353	21523
802.496	21405
802.638	21188
802.78	21249
802.923	21104
803.065	21036
803.208	21127
803.35	21165
803.492	21245
803.635	21256
803.777	21051
803.919	21283
804.061	21454
804.204	21195
804.346	21157
804.488	20937
804.63	21013
804.773	21058
804.915	20982
805.057	21195
805.199	20944
805.341	21051
805.483	21184
805.626	21154
805.768	21039
805.91	21001
806.052	20979
806.194	20849
806.336	21245
806.478	21058
806.62	20986
806.762	21085
806.904	21188
807.046	21412
807.188	21374
807.33	21496
807.472	21462
807.614	21329
807.756	21408
807.898	21222
808.04	21230
808.182	21275
808.324	21279
808.465	21370
808.607	21496
808.749	21561
808.891	21743
809.033	21797
809.174	21759
809.316	21507
809.458	21694
809.6	21603
809.741	21606
809.883	21656
810.025	21629
810.166	21698
810.308	21622
810.45	21675
810.591	21534
810.733	21317
810.875	21264
811.016	21203
811.158	21096
811.299	21256
811.441	21393
811.582	21393
811.724	21112
811.865	21154
812.007	21306
812.148	21256
812.29	21245
812.431	21481
812.573	21553
812.714	21610
812.855	21766
812.997	21827
813.138	21926
813.279	21808
813.421	21663
813.562	21698
813.703	21462
813.845	21485
813.986	21089
814.127	20941
814.268	20853
814.41	20792
814.551	20758
814.692	20845
814.833	20663
814.974	20762
815.115	20777
815.256	20648
815.397	20632
815.539	20632
815.68	20442
815.821	20560
815.962	20518
816.103	20400
816.244	20358
816.385	20263
816.526	20278
816.666	20088
816.807	19944
816.948	19982
817.089	20172
817.23	19902
817.371	19913
817.512	19883
817.653	19833
817.793	19894
817.934	19841
818.075	19902
818.216	19925
818.356	19860
818.497	19685
818.638	19601
818.778	19544
818.919	19666
819.06	19662
819.2	19731
819.341	19765
819.481	19761
819.622	19780
819.762	20202
819.903	20039
820.043	19967
820.184	20020
820.324	19868
820.465	19936
820.605	19890
820.746	19860
820.886	19712
821.026	19708
821.167	19791
821.307	19921
821.447	19803
821.588	19738
821.728	19624
821.868	19487
822.008	19320
822.149	19350
822.289	19240
822.429	19061
822.569	19027
822.709	19023
822.849	18814
822.99	18806
823.13	18791
823.27	18707
823.41	18696
823.55	18578
823.69	18585
823.83	18483
823.97	18540
824.11	18323
824.25	18410
824.389	18315
824.529	18338
824.669	18418
824.809	18437
824.949	18399
825.089	18407
825.228	18327
825.368	18205
825.508	18213
825.648	18140
825.787	18224
825.927	18224
826.067	18186
826.206	18117
826.346	18159
826.485	18117
826.625	18098
826.765	18178
826.904	18152
827.044	17855
827.183	17805
827.323	17722
827.462	17786
827.601	17802
827.741	17691
827.88	17805
828.02	17619
828.159	17836
828.298	17889
828.437	17866
828.577	17779
828.716	17920
828.855	17760
828.994	17512
829.134	17566
829.273	17630
829.412	17547
829.551	17478
829.69	17535
829.829	17573
829.968	17661
830.107	17554
830.246	17573
830.385	17501
830.524	17486
830.663	17383
830.802	17220
830.941	17250
831.08	17185
831.219	17292
831.357	17235
831.496	17330
831.635	17197
831.774	17208
831.913	17052
832.051	16927
832.19	16965
832.329	16900
832.467	16877
832.606	16862
832.744	16850
832.883	16854
833.022	16809
833.16	16820
833.299	16934
833.437	16900
833.576	16991
833.714	16953
833.852	16991
833.991	16927
834.129	16881
834.267	17079
834.406	16972
834.544	17003
834.682	16828
834.821	16908
834.959	17037
835.097	16949
835.235	16987
835.373	16866
835.511	16881
835.65	16869
835.788	16812
835.926	16611
836.064	16607
836.202	16717
836.34	16896
836.478	16938
836.615	16740
836.753	16908
836.891	16904
837.029	16801
837.167	16854
837.305	16733
837.443	16592
837.58	16683
837.718	16717
837.856	16615
837.993	16656
838.131	16713
838.269	16573
838.406	16622
838.544	16516
838.681	16489
838.819	16341
838.956	16325
839.094	16166
839.231	16166
839.369	16409
839.506	16573
839.643	16398
839.781	16185
839.918	16158
840.055	16234
840.193	16169
840.33	16150
840.467	16166
840.604	16341
840.742	16436
840.879	16082
841.016	16071
841.153	16055
841.29	16287
841.427	16276
841.564	16234
841.701	16242
841.838	16128
841.975	15991
842.112	16128
842.249	16017
842.385	15937
842.522	16154
842.659	15964
842.796	15907
842.933	15930
843.069	15907
843.206	15907
843.343	16044
843.479	16036
843.616	15968
843.752	15717
843.889	15698
844.025	15987
844.162	15751
844.298	16010
844.435	15854
844.571	15732
844.708	15819
844.844	15880
844.98	15915
845.117	15907
845.253	15728
845.389	15778
845.525	15759
845.661	15793
845.798	15694
845.934	15747
846.07	15766
846.206	15808
846.342	15895
846.478	15629
846.614	15519
846.75	15416
846.886	15268
847.022	15431
847.158	15264
847.294	15329
847.429	15386
847.565	15340
847.701	15591
847.837	15039
847.972	15047
848.108	15135
848.244	15150
848.379	14986
848.515	14990
848.65	14948
848.786	14834
848.921	14941
849.057	15062
849.192	14998
849.328	14891
849.463	15047
849.598	14910
849.734	14845
849.869	14830
850.004	14667
850.14	14716
850.275	14758
850.41	14613
850.545	14689
850.68	14636
850.815	14689
850.95	14640
851.085	14800
851.22	14769
851.355	14762
851.49	14697
851.625	14697
851.76	14693
851.895	14556
852.03	14568
852.165	14788
852.299	14731
852.434	14712
852.569	14743
852.703	14724
852.838	14781
852.973	14842
853.107	14746
853.242	14727
853.376	14655
853.511	14377
853.645	14511
853.78	14663
853.914	14560
854.048	14533
854.183	14545
854.317	14537
854.451	14807
854.585	14549
854.72	14533
854.854	14636
854.988	14454
855.122	14579
855.256	14347
855.39	14606
855.524	14701
855.658	14632
855.792	14640
855.926	14663
856.06	14613
856.194	14640
856.327	14598
856.461	14522
856.595	14549
856.729	14438
856.862	14644
856.996	14594
857.13	14678
857.263	14644
857.397	14636
857.53	14522
857.664	14682
857.797	14686
857.931	14636
858.064	14629
858.197	14716
858.331	14583
858.464	14507
858.597	14484
858.731	14526
858.864	14625
858.997	14461
859.13	14590
859.263	14632
859.396	14670
859.529	14590
859.662	14522
859.795	14476
859.928	14689
860.061	14754
860.194	14857
860.327	14632
860.46	14541
860.592	14708
860.725	14693
860.858	14785
860.99	14511
861.123	14465
861.256	14450
861.388	14537
861.521	15146
861.653	14419
861.786	14438
861.918	14457
862.05	14587
862.183	14537
862.315	14511
862.447	14503
862.58	14480
862.712	14298
862.844	14263
862.976	14442
863.108	14473
863.24	14788
863.372	14240
863.504	14377
863.636	14286
863.768	14461
863.9	14305
864.032	14244
864.164	14313
864.296	14495
864.428	14473
864.559	14419
864.691	14419
864.823	14507
864.954	14393
865.086	14454
865.217	14339
865.349	14199
865.48	14271
865.612	14351
865.743	14396
865.875	14377
866.006	14233
866.137	14355
866.269	14351
866.4	14305
866.531	14225
866.662	14191
866.793	14233
866.924	14328
867.055	14343
867.186	14313
867.317	14237
867.448	14252
867.579	14259
867.71	14259
867.841	14225
867.972	14313
868.103	14210
868.233	14324
868.364	14400
868.495	14381
868.625	14594
868.756	14640
868.886	14518
869.017	14552
869.147	14670
869.278	14712
869.408	14568
869.539	14575
869.669	14579
869.799	14583
869.929	14689
870.06	14701
870.19	14975
870.32	14941
870.45	14876
870.58	14944
870.71	15085
870.84	15100
870.97	14948
871.1	14910
871.23	15161
871.36	15135
871.489	15108
871.619	15093
871.749	15230
871.879	15142
872.008	15222
872.138	15272
872.267	15203
872.397	15013
872.526	14960
872.656	14925
872.785	14994
872.915	15252
873.044	15222
873.173	15226
873.303	15237
873.432	15226
873.561	15302
873.69	15180
873.819	15211
873.948	15188
874.077	15214
874.206	15116
874.335	15241
874.464	15332
874.593	15504
874.722	15408
874.851	15488
874.979	15614
875.108	15553
875.237	15515
875.365	15462
875.494	15466
875.623	15496
875.751	15511
875.88	15637
876.008	15675
876.136	15804
876.265	15869
876.393	16082
876.521	16078
876.65	16059
876.778	15994
876.906	15987
877.034	15937
877.162	15941
877.29	15907
877.418	15899
877.546	15926
877.674	15865
877.802	15994
877.93	16006
878.058	15865
878.185	15827
878.313	15892
878.441	16051
878.568	15869
878.696	15895
878.824	16032
878.951	16101
879.079	16120
879.206	16291
879.333	16207
879.461	16097
879.588	16200
879.715	16162
879.842	16325
879.97	16101
880.097	15991
880.224	15698
880.351	15899
880.478	15823
880.605	15800
880.732	15884
880.859	16040
880.986	15876
881.112	15873
881.239	15755
881.366	15663
881.493	15584
881.619	15435
881.746	15462
881.872	15447
881.999	15382
882.125	15507
882.252	15633
882.378	15431
882.505	15644
882.631	15458
882.757	15313
882.883	15351
883.01	15241
883.136	15272
883.262	15138
883.388	15157
883.514	15252
883.64	15294
883.766	15195
883.892	15127
884.018	15077
884.143	15218
884.269	15374
884.395	15047
884.52	14963
884.646	14914
884.772	14849
884.897	14921
885.023	14891
885.148	15127
885.274	15135
885.399	15039
885.524	14975
885.65	14960
885.775	14933
885.9	14941
886.025	15024
886.15	14986
886.275	15020
886.4	14811
886.525	15001
886.65	14906
886.775	14883
886.9	15028
887.025	15188
887.149	15017
887.274	14788
887.399	14868
887.523	14823
887.648	14743
887.773	14739
887.897	14902
888.021	14785
888.146	14769
888.27	14781
888.395	14948
888.519	14864
888.643	14933
888.767	14914
888.891	14807
889.015	14682
889.139	14705
889.263	14640
889.387	14754
889.511	14788
889.635	14716
889.759	14644
889.883	14613
890.006	14682
890.13	14739
890.254	14617
890.377	14617
890.501	14511
890.624	14488
890.748	14537
890.871	14343
890.995	14396
891.118	14252
891.241	14381
891.364	14423
891.488	14347
891.611	14313
891.734	14370
891.857	14484
891.98	14259
892.103	14442
892.226	14385
892.349	14408
892.471	14233
892.594	14301
892.717	14317
892.839	14233
892.962	14324
893.085	14454
893.207	14317
893.33	14244
893.452	14244
893.575	14336
893.697	14240
893.819	14457
893.941	14537
894.064	14488
894.186	14229
894.308	14202
894.43	14545
894.552	14541
894.674	14446
894.796	14366
894.918	14473
895.04	14343
895.161	14469
895.283	14446
895.405	14339
895.526	14362
895.648	14396
895.769	14423
895.891	14484
896.012	14644
896.134	14484
896.255	14511
896.376	14503
896.498	14461
896.619	14518
896.74	14469
896.861	14590
896.982	14804
897.103	15032
897.224	14861
897.345	14758
897.466	14750
897.587	14849
897.708	14880
897.828	14804
897.949	14754
898.07	14708
898.19	14712
898.311	14880
898.431	14670
898.552	14887
898.672	14902
898.792	14895
898.913	14990
899.033	14716
899.153	14610
899.273	14492
899.393	14682
899.513	14735
899.633	14663
899.753	14731
899.873	14598
899.993	14682
900.113	14773
900.232	14754
900.352	14689
900.472	14594
900.591	14549
900.711	14514
900.83	14530
900.95	14689
901.069	14716
901.189	14499
901.308	14294
901.427	14123
901.546	14286
901.665	14259
901.784	14176
901.904	14199
902.023	13970
902.141	13928
902.26	13833
902.379	13833
902.498	13849
902.617	13788
902.735	13807
902.854	13780
902.973	13788
903.091	13552
903.21	13552
903.328	13525
903.446	13377
903.565	13362
903.683	13438
903.801	13202
903.919	13354
904.038	13327
904.156	13225
904.274	13316
904.392	13232
904.51	13168
904.627	13171
904.745	13244
904.863	13266
904.981	13019
905.098	12848
905.216	12932
905.334	12882
905.451	12859
905.569	12806
905.686	12882
905.803	12878
905.921	12551
906.038	12779
906.155	12681
906.272	12631
906.389	12658
906.506	12475
906.623	12475
906.74	12403
906.857	12338
906.974	12334
907.091	12426
907.208	12498
907.324	12376
907.441	12448
907.557	12224
907.674	12220
907.79	12076
907.907	12152
908.023	12220
908.139	12232
908.256	12190
908.372	12159
908.488	12060
908.604	11908
908.72	11912
908.836	11973
908.952	11950
909.068	11992
909.184	12045
909.3	11916
909.415	11946
909.531	11939
909.647	11802
909.762	11718
909.878	11699
909.993	11798
910.108	11638
910.224	11665
910.339	11672
910.454	11676
910.57	11608
910.685	11570
910.8	11786
910.915	11741
911.03	11551
911.145	11387
911.259	11410
911.374	11493
911.489	11376
911.604	11345
911.718	11181
911.833	11136
911.947	11064
912.062	11067
912.176	11132
912.291	11208
912.405	11151
912.519	11433
912.633	11387
912.748	11181
912.862	11208
912.976	11033
913.09	10911
913.204	11075
913.318	11022
913.431	11132
913.545	11159
913.659	11143
913.772	11041
913.886	10965
914	10850
914.113	10957
914.226	11079
914.34	11025
914.453	10854
914.566	10999
914.68	10908
914.793	10858
914.906	10599
915.019	10626
915.132	10615
915.245	10664
915.358	10717
915.47	10641
915.583	10710
915.696	10599
915.809	10801
915.921	10793
916.034	10596
916.146	10607
916.259	10618
916.371	10710
916.483	10660
916.595	10558
916.708	10706
916.82	10618
916.932	10584
917.044	10580
917.156	10584
917.268	10375
917.38	10569
917.491	10588
917.603	10527
917.715	10546
917.826	10603
917.938	10424
918.049	10265
918.161	10432
918.272	10637
918.384	10660
918.495	10577
918.606	10352
918.717	10306
918.828	10413
918.939	10337
919.05	10276
919.161	10382
919.272	10135
919.383	10246
919.494	10360
919.604	10645
919.715	10325
919.826	10329
919.936	10341
920.047	10500
920.157	10462
920.267	10641
920.378	10462
920.488	10417
920.598	10565
920.708	10668
920.818	10538
920.928	10588
921.038	10668
921.148	10706
921.258	10424
921.368	10341
921.477	10200
921.587	10200
921.697	10116
921.806	10276
921.916	10169
922.025	10025
922.134	9945
922.244	9865
922.353	10021
922.462	9857
922.571	9804
922.68	9652
922.789	9545
922.898	9686
923.007	9595
923.116	9625
923.224	9606
923.333	9644
923.442	9496
923.55	9496
923.659	9561
923.767	9610
923.876	9481
923.984	9587
924.092	9351
924.201	9500
924.309	9507
924.417	9469
924.525	9462
924.633	9370
924.741	10421
924.849	9226
924.956	9393
925.064	9378
925.172	9169
925.279	9199
925.387	9325
925.494	9313
925.602	9378
925.709	9283
925.816	9241
925.924	9253
926.031	9447
926.138	9275
926.245	9382
926.352	9165
926.459	9374
926.566	9367
926.673	9237
926.779	9176
926.886	9157
926.993	9066
927.099	8914
927.206	8944
927.312	8921
927.419	9028
927.525	8994
927.631	9112
927.737	8960
927.843	8864
927.95	8773
928.056	8891
928.162	8887
928.267	9009
928.373	9504
928.479	8990
928.585	8693
928.69	8815
928.796	8963
928.901	8792
929.007	8693
929.112	8807
929.218	8708
929.323	8727
929.428	8640
929.533	8766
929.638	8644
929.743	8632
929.848	8735
929.953	8674
930.058	8625
930.163	8438
930.267	8499
930.372	8552
930.477	8469
930.581	8629
930.685	8503
930.79	8370
930.894	8499
930.998	8518
931.103	8590
931.207	8244
931.311	8130
931.415	8084
931.519	7959
931.623	7932
