Data from test_V78500241_3704.txt Node
Date: Fri Mar 25 14:59:30 CST 2022
User: usil
Spectrometer: V785-0024
Trigger mode: 0
Integration Time (sec): 4.000000E-1
Scans to average: 1
Nonlinearity correction enabled: false
Boxcar width: 0
Storing dark spectrum: false
XAxis mode: Wavelengths
Number of Pixels in Spectrum: 1024
>>>>>Begin Spectral Data<<<<<
801.071	21827
801.214	21854
801.356	21534
801.499	21424
801.641	21408
801.783	21252
801.926	21355
802.068	21207
802.211	21161
802.353	21161
802.496	20895
802.638	20750
802.78	20788
802.923	20613
803.065	20556
803.208	20495
803.35	20640
803.492	20800
803.635	20663
803.777	20560
803.919	20613
804.061	21028
804.204	20823
804.346	20632
804.488	20522
804.63	20533
804.773	20606
804.915	20686
805.057	20598
805.199	20511
805.341	20545
805.483	20583
805.626	20568
805.768	20492
805.91	20446
806.052	20625
806.194	20370
806.336	20568
806.478	20434
806.62	20514
806.762	20465
806.904	20609
807.046	20918
807.188	20823
807.33	20830
807.472	20853
807.614	20823
807.756	20606
807.898	20617
808.04	20625
808.182	20518
808.324	20621
808.465	20537
808.607	20819
808.749	20933
808.891	20998
809.033	21058
809.174	20941
809.316	20777
809.458	20815
809.6	20960
809.741	21024
809.883	20845
810.025	20975
810.166	20910
810.308	21009
810.45	20944
810.591	20876
810.733	20705
810.875	20613
811.016	20549
811.158	20442
811.299	20743
811.441	20659
811.582	20724
811.724	20606
811.865	20556
812.007	20590
812.148	20530
812.29	20663
812.431	20785
812.573	21055
812.714	21017
812.855	21165
812.997	21070
813.138	21268
813.279	21230
813.421	21096
813.562	21127
813.703	20887
813.845	20834
813.986	20522
814.127	20202
814.268	20161
814.41	20301
814.551	20214
814.692	20180
814.833	20096
814.974	20225
815.115	20183
815.256	19944
815.397	19955
815.539	20103
815.68	19959
815.821	19856
815.962	20001
816.103	19879
816.244	19799
816.385	19761
816.526	19628
816.666	19445
816.807	19285
816.948	19392
817.089	19411
817.23	19373
817.371	19304
817.512	19266
817.653	19304
817.793	19244
817.934	19225
818.075	19236
818.216	19339
818.356	19232
818.497	19099
818.638	18973
818.778	18932
818.919	19061
819.06	19050
819.2	19069
819.341	19076
819.481	19080
819.622	19274
819.762	19411
819.903	19236
820.043	19396
820.184	19270
820.324	19213
820.465	19343
820.605	19240
820.746	19221
820.886	19148
821.026	19061
821.167	19179
821.307	19240
821.447	19251
821.588	19126
821.728	19057
821.868	18871
822.008	18726
822.149	18631
822.289	18646
822.429	18369
822.569	18399
822.709	18369
822.849	18270
822.99	18220
823.13	18300
823.27	18129
823.41	17946
823.55	17931
823.69	18019
823.83	18060
823.97	17843
824.11	17786
824.25	17642
824.389	17786
824.529	17748
824.669	17771
824.809	17786
824.949	17802
825.089	17832
825.228	17756
825.368	17528
825.508	17528
825.648	17535
825.787	17619
825.927	17547
826.067	17585
826.206	17493
826.346	17497
826.485	17539
826.625	17512
826.765	17535
826.904	17577
827.044	17296
827.183	17212
827.323	17185
827.462	17322
827.601	17296
827.741	17273
827.88	17227
828.02	17086
828.159	17128
828.298	17265
828.437	17258
828.577	17277
828.716	17391
828.855	17086
828.994	17136
829.134	16968
829.273	16987
829.412	17010
829.551	16911
829.69	16904
829.829	17025
829.968	17102
830.107	16991
830.246	17029
830.385	16995
830.524	16850
830.663	16759
830.802	16717
830.941	16561
831.08	16577
831.219	16660
831.357	16611
831.496	16858
831.635	16653
831.774	16599
831.913	16481
832.051	16424
832.19	16474
832.329	16386
832.467	16318
832.606	16272
832.744	16337
832.883	16318
833.022	16238
833.16	16314
833.299	16325
833.437	16318
833.576	16329
833.714	16325
833.852	16299
833.991	16333
834.129	16352
834.267	16440
834.406	16295
834.544	16481
834.682	16413
834.821	16322
834.959	16622
835.097	16295
835.235	16550
835.373	16398
835.511	16337
835.65	16196
835.788	16246
835.926	16135
836.064	15994
836.202	16188
836.34	16242
836.478	16405
836.615	16215
836.753	16249
836.891	16356
837.029	16322
837.167	16223
837.305	16200
837.443	16185
837.58	16086
837.718	16318
837.856	16154
837.993	16139
838.131	16166
838.269	16128
838.406	16162
838.544	16112
838.681	15934
838.819	15854
838.956	15641
839.094	15652
839.231	15751
839.369	15861
839.506	16128
839.643	15930
839.781	15785
839.918	15709
840.055	15667
840.193	15766
840.33	15633
840.467	15728
840.604	15778
840.742	15994
840.879	15682
841.016	15564
841.153	15660
841.29	15903
841.427	15717
841.564	15739
841.701	15694
841.838	15660
841.975	15663
842.112	15686
842.249	15500
842.385	15393
842.522	15667
842.659	15405
842.796	15428
842.933	15466
843.069	15481
843.206	15492
843.343	15500
843.479	15473
843.616	15500
843.752	15252
843.889	15329
844.025	15386
844.162	15233
844.298	15287
844.435	15336
844.571	15199
844.708	15363
844.844	15431
844.98	15462
845.117	15397
845.253	15245
845.389	15104
845.525	15135
845.661	15192
845.798	14998
845.934	15104
846.07	15051
846.206	15119
846.342	15275
846.478	15070
846.614	14902
846.75	14792
846.886	14861
847.022	14952
847.158	14872
847.294	14891
847.429	14899
847.565	14811
847.701	15077
847.837	14659
847.972	14598
848.108	14705
848.244	14686
848.379	14549
848.515	14575
848.65	14499
848.786	14438
848.921	14423
849.057	14571
849.192	14602
849.328	14438
849.463	14541
849.598	14438
849.734	14366
849.869	14298
850.004	14195
850.14	14275
850.275	14286
850.41	14218
850.545	14233
850.68	14244
850.815	14252
850.95	14176
851.085	14415
851.22	14385
851.355	14187
851.49	14202
851.625	14172
851.76	14138
851.895	14145
852.03	14062
852.165	14267
852.299	14172
852.434	14278
852.569	14202
852.703	14237
852.838	14290
852.973	14454
853.107	14336
853.242	14214
853.376	14126
853.511	13940
853.645	13982
853.78	14256
853.914	14107
854.048	14088
854.183	14024
854.317	14069
854.451	14381
854.585	14039
854.72	14187
854.854	14084
854.988	14031
855.122	14084
855.256	13936
855.39	14031
855.524	14126
855.658	14138
855.792	14130
855.926	14149
856.06	14134
856.194	14180
856.327	14123
856.461	14020
856.595	14001
856.729	14115
856.862	14237
856.996	14107
857.13	14221
857.263	14153
857.397	14271
857.53	14126
857.664	14164
857.797	14134
857.931	14218
858.064	14229
858.197	14225
858.331	14065
858.464	14039
858.597	14065
858.731	14084
858.864	14081
858.997	14081
859.13	14130
859.263	14237
859.396	14130
859.529	14084
859.662	14100
859.795	14103
859.928	14103
860.061	14214
860.194	14282
860.327	14103
860.46	14092
860.592	14187
860.725	14252
860.858	14256
860.99	14107
861.123	13986
861.256	14016
861.388	14119
861.521	14746
861.653	13989
861.786	13887
861.918	13890
862.05	13974
862.183	14001
862.315	14119
862.447	14107
862.58	14081
862.712	13913
862.844	13871
862.976	13856
863.108	13963
863.24	14404
863.372	13921
863.504	13925
863.636	13883
863.768	14046
863.9	13906
864.032	13811
864.164	13826
864.296	13967
864.428	14058
864.559	13951
864.691	13993
864.823	13944
864.954	13871
865.086	13932
865.217	13879
865.349	13750
865.48	13868
865.612	13925
865.743	14027
865.875	13959
866.006	13864
866.137	13822
866.269	13868
866.4	13860
866.531	13788
866.662	13803
866.793	13780
866.924	13849
867.055	13833
867.186	13921
867.317	13849
867.448	13830
867.579	13811
867.71	13772
867.841	13833
867.972	13894
868.103	13822
868.233	13837
868.364	13883
868.495	13947
868.625	14168
868.756	14180
868.886	14073
869.017	14119
869.147	14210
869.278	14214
869.408	14142
869.539	14164
869.669	14161
869.799	14126
869.929	14164
870.06	14259
870.19	14480
870.32	14431
870.45	14465
870.58	14610
870.71	14678
870.84	14632
870.97	14541
871.1	14518
871.23	14716
871.36	14754
871.489	14575
871.619	14575
871.749	14712
871.879	14777
872.008	14838
872.138	14708
872.267	14724
872.397	14663
872.526	14564
872.656	14514
872.785	14682
872.915	14727
873.044	14883
873.173	14792
873.303	14849
873.432	14826
873.561	14838
873.69	14754
873.819	14781
873.948	14880
874.077	14834
874.206	14705
874.335	14853
874.464	14891
874.593	15085
874.722	15055
874.851	15127
874.979	15142
875.108	15241
875.237	15005
875.365	15020
875.494	15020
875.623	15169
875.751	15146
875.88	15127
876.008	15298
876.136	15306
876.265	15530
876.393	15694
876.521	15648
876.65	15603
876.778	15534
876.906	15477
877.034	15534
877.162	15500
877.29	15454
877.418	15485
877.546	15591
877.674	15564
877.802	15496
877.93	15477
878.058	15542
878.185	15351
878.313	15469
878.441	15545
878.568	15389
878.696	15408
878.824	15488
878.951	15622
879.079	15751
879.206	15873
879.333	15610
879.461	15641
879.588	15545
879.715	15717
879.842	15857
879.97	15648
880.097	15359
880.224	15386
880.351	15351
880.478	15443
880.605	15382
880.732	15374
880.859	15614
880.986	15359
881.112	15405
881.239	15252
881.366	15188
881.493	15142
881.619	15081
881.746	15119
881.872	15024
881.999	15058
882.125	14956
882.252	15119
882.378	15020
882.505	15116
882.631	14899
882.757	14891
882.883	14815
883.01	14781
883.136	14804
883.262	14762
883.388	14621
883.514	14845
883.64	14906
883.766	14819
883.892	14689
884.018	14701
884.143	14845
884.269	14971
884.395	14644
884.52	14476
884.646	14545
884.772	14488
884.897	14374
885.023	14663
885.148	14556
885.274	14678
885.399	14705
885.524	14530
885.65	14552
885.775	14655
885.9	14579
886.025	14724
886.15	14625
886.275	14457
886.4	14438
886.525	14583
886.65	14465
886.775	14488
886.9	14678
887.025	14720
887.149	14594
887.274	14366
887.399	14366
887.523	14366
887.648	14256
887.773	14294
887.897	14484
888.021	14469
888.146	14305
888.27	14488
888.395	14473
888.519	14404
888.643	14370
888.767	14457
888.891	14343
889.015	14313
889.139	14374
889.263	14081
889.387	14385
889.511	14385
889.635	14309
889.759	14214
889.883	14282
890.006	14336
890.13	14396
890.254	14168
890.377	14199
890.501	14069
890.624	14081
890.748	14115
890.871	14100
890.995	13894
891.118	13776
891.241	13963
891.364	13959
891.488	14035
891.611	13921
891.734	14024
891.857	13978
891.98	13978
892.103	14039
892.226	13944
892.349	13906
892.471	13734
892.594	13928
892.717	13993
892.839	13928
892.962	14001
893.085	14039
893.207	13925
893.33	13807
893.452	13871
893.575	14005
893.697	13940
893.819	14145
893.941	14164
894.064	14065
894.186	13951
894.308	13967
894.43	14077
894.552	14183
894.674	14073
894.796	13921
894.918	13997
895.04	13947
895.161	14077
895.283	14046
895.405	14035
895.526	14054
895.648	14115
895.769	14005
895.891	14176
896.012	14103
896.134	14153
896.255	14069
896.376	14024
896.498	14111
896.619	14111
896.74	14092
896.861	14191
896.982	14396
897.103	14746
897.224	14400
897.345	14408
897.466	14191
897.587	14492
897.708	14507
897.828	14385
897.949	14370
898.07	14275
898.19	14374
898.311	14526
898.431	14370
898.552	14454
898.672	14587
898.792	14590
898.913	14571
899.033	14522
899.153	14438
899.273	14298
899.393	14313
899.513	14393
899.633	14252
899.753	14385
899.873	14343
899.993	14511
900.113	14313
900.232	14404
900.352	14259
900.472	14229
900.591	14058
900.711	14172
900.83	14149
900.95	14294
901.069	14290
901.189	14210
901.308	14027
901.427	13811
901.546	13890
901.665	13921
901.784	13852
901.904	13784
902.023	13704
902.141	13563
902.26	13441
902.379	13518
902.498	13510
902.617	13384
902.735	13510
902.854	13457
902.973	13388
903.091	13129
903.21	13126
903.328	13152
903.446	13072
903.565	13141
903.683	13042
903.801	12932
903.919	12966
904.038	13004
904.156	12817
904.274	12916
904.392	12840
904.51	12791
904.627	12764
904.745	12825
904.863	12886
904.981	12589
905.098	12559
905.216	12532
905.334	12559
905.451	12494
905.569	12437
905.686	12589
905.803	12490
905.921	12308
906.038	12483
906.155	12410
906.272	12190
906.389	12311
906.506	12098
906.623	12144
906.74	12163
906.857	12076
906.974	12011
907.091	12175
907.208	12163
907.324	12140
907.441	12068
907.557	11931
907.674	11851
907.79	11771
907.907	11843
908.023	11874
908.139	11882
908.256	11779
908.372	11824
908.488	11760
908.604	11668
908.72	11604
908.836	11672
908.952	11615
909.068	11638
909.184	11665
909.3	11653
909.415	11611
909.531	11585
909.647	11395
909.762	11372
909.878	11379
909.993	11318
910.108	11433
910.224	11379
910.339	11391
910.454	11311
910.57	11208
910.685	11159
910.8	11493
910.915	11398
911.03	11258
911.145	11086
911.259	11121
911.374	11052
911.489	11094
911.604	10957
911.718	10831
911.833	10843
911.947	10782
912.062	10645
912.176	10942
912.291	10858
912.405	10816
912.519	11064
912.633	11113
912.748	11025
912.862	10869
912.976	10744
913.09	10687
913.204	10736
913.318	10759
913.431	10793
913.545	10778
913.659	10892
913.772	10828
913.886	10641
914	10607
914.113	10771
914.226	10740
914.34	10672
914.453	10569
914.566	10702
914.68	10607
914.793	10554
914.906	10367
915.019	10379
915.132	10246
915.245	10352
915.358	10379
915.47	10352
915.583	10421
915.696	10424
915.809	10500
915.921	10580
916.034	10306
916.146	10314
916.259	10402
916.371	10421
916.483	10394
916.595	10238
916.708	10303
916.82	10371
916.932	10261
917.044	10375
917.156	10314
917.268	10230
917.38	10211
917.491	10185
917.603	10287
917.715	10253
917.826	10341
917.938	10162
918.049	10093
918.161	10246
918.272	10371
918.384	10265
918.495	10223
918.606	10181
918.717	10048
918.828	10086
918.939	10044
919.05	10040
919.161	10040
919.272	9850
919.383	9926
919.494	10204
919.604	10249
919.715	10162
919.826	10017
919.936	10120
920.047	10177
920.157	10139
920.267	10303
920.378	10124
920.488	10071
920.598	10318
920.708	10485
920.818	10261
920.928	10295
921.038	10489
921.148	10485
921.258	10128
921.368	10093
921.477	9945
921.587	9949
921.697	9819
921.806	10013
921.916	9899
922.025	9667
922.134	9667
922.244	9610
922.353	9736
922.462	9504
922.571	9500
922.68	9389
922.789	9340
922.898	9351
923.007	9351
923.116	9389
923.224	9325
923.333	9382
923.442	9317
923.55	9233
923.659	9275
923.767	9378
923.876	9203
923.984	9317
924.092	9233
924.201	9294
924.309	9222
924.417	9302
924.525	9233
924.633	9214
924.741	10131
924.849	8982
924.956	9157
925.064	9013
925.172	9005
925.279	9005
925.387	9055
925.494	8979
925.602	9195
925.709	9085
925.816	8933
925.924	8990
926.031	9150
926.138	8982
926.245	9028
926.352	8941
926.459	9077
926.566	9131
926.673	8937
926.779	8868
926.886	8929
926.993	8739
927.099	8743
927.206	8754
927.312	8716
927.419	8819
927.525	8724
927.631	8781
927.737	8697
927.843	8625
927.95	8564
928.056	8686
928.162	8587
928.267	8750
928.373	9207
928.479	8724
928.585	8488
928.69	8663
928.796	8686
928.901	8533
929.007	8396
929.112	8579
929.218	8530
929.323	8503
929.428	8423
929.533	8594
929.638	8400
929.743	8454
929.848	8484
929.953	8465
930.058	8351
930.163	8225
930.267	8267
930.372	8415
930.477	8206
930.581	8446
930.685	8275
930.79	8172
930.894	8263
930.998	8168
931.103	8324
931.207	8001
931.311	7909
931.415	7792
931.519	7727
931.623	7670
