Data from test_V78500241_1506.txt Node
Date: Fri Mar 25 14:44:12 CST 2022
User: usil
Spectrometer: V785-0024
Trigger mode: 0
Integration Time (sec): 4.000000E-1
Scans to average: 1
Nonlinearity correction enabled: false
Boxcar width: 0
Storing dark spectrum: false
XAxis mode: Wavelengths
Number of Pixels in Spectrum: 1024
>>>>>Begin Spectral Data<<<<<
801.071	22466
801.214	22322
801.356	22067
801.499	21869
801.641	21793
801.783	21759
801.926	21911
802.068	21644
802.211	21583
802.353	21682
802.496	21317
802.638	21245
802.78	21256
802.923	21058
803.065	20998
803.208	21188
803.35	21093
803.492	21237
803.635	21275
803.777	21131
803.919	21313
804.061	21507
804.204	21256
804.346	21036
804.488	21093
804.63	21089
804.773	21017
804.915	21009
805.057	21161
805.199	21066
805.341	20986
805.483	21112
805.626	21047
805.768	20956
805.91	20982
806.052	21150
806.194	20925
806.336	21173
806.478	20975
806.62	21036
806.762	21150
806.904	21214
807.046	21393
807.188	21321
807.33	21370
807.472	21466
807.614	21332
807.756	21363
807.898	21264
808.04	21359
808.182	21348
808.324	21173
808.465	21321
808.607	21500
808.749	21534
808.891	21694
809.033	21720
809.174	21663
809.316	21572
809.458	21572
809.6	21523
809.741	21572
809.883	21526
810.025	21690
810.166	21591
810.308	21606
810.45	21610
810.591	21507
810.733	21321
810.875	21287
811.016	20979
811.158	21173
811.299	21317
811.441	21405
811.582	21351
811.724	21351
811.865	21214
812.007	21176
812.148	21233
812.29	21348
812.431	21408
812.573	21515
812.714	21488
812.855	21713
812.997	21861
813.138	21857
813.279	21865
813.421	21797
813.562	21641
813.703	21439
813.845	21329
813.986	21165
814.127	20815
814.268	20785
814.41	20811
814.551	20731
814.692	20811
814.833	20720
814.974	20575
815.115	20826
815.256	20530
815.397	20663
815.539	20708
815.68	20389
815.821	20488
815.962	20503
816.103	20438
816.244	20313
816.385	20237
816.526	20282
816.666	20031
816.807	19849
816.948	20050
817.089	20008
817.23	20001
817.371	19921
817.512	19883
817.653	19936
817.793	19830
817.934	20027
818.075	19917
818.216	19944
818.356	19788
818.497	19689
818.638	19476
818.778	19708
818.919	19537
819.06	19643
819.2	19715
819.341	19712
819.481	19696
819.622	20001
819.762	20107
819.903	20024
820.043	19947
820.184	19871
820.324	19871
820.465	19814
820.605	19940
820.746	19864
820.886	19719
821.026	19788
821.167	19803
821.307	19830
821.447	19868
821.588	19651
821.728	19563
821.868	19362
822.008	19274
822.149	19194
822.289	19285
822.429	19110
822.569	18993
822.709	18993
822.849	18696
822.99	18711
823.13	18745
823.27	18635
823.41	18658
823.55	18517
823.69	18551
823.83	18578
823.97	18460
824.11	18399
824.25	18342
824.389	18327
824.529	18582
824.669	18350
824.809	18433
824.949	18414
825.089	18372
825.228	18391
825.368	18220
825.508	18247
825.648	18194
825.787	18273
825.927	18197
826.067	18038
826.206	18060
826.346	18106
826.485	18171
826.625	18083
826.765	18228
826.904	18159
827.044	17889
827.183	17920
827.323	17866
827.462	17882
827.601	17752
827.741	17824
827.88	17851
828.02	17649
828.159	17798
828.298	17832
828.437	17901
828.577	17722
828.716	17901
828.855	17764
828.994	17520
829.134	17486
829.273	17623
829.412	17512
829.551	17429
829.69	17395
829.829	17585
829.968	17733
830.107	17695
830.246	17512
830.385	17539
830.524	17372
830.663	17429
830.802	17235
830.941	17102
831.08	17170
831.219	17220
831.357	17212
831.496	17379
831.635	17170
831.774	17124
831.913	17140
832.051	17006
832.19	16972
832.329	17075
832.467	16866
832.606	16713
832.744	16828
832.883	16835
833.022	16809
833.16	16919
833.299	16873
833.437	16877
833.576	16839
833.714	16877
833.852	16896
833.991	16934
834.129	17022
834.267	16946
834.406	16946
834.544	16949
834.682	16930
834.821	16965
834.959	17090
835.097	16980
835.235	16965
835.373	16976
835.511	16949
835.65	16812
835.788	16725
835.926	16622
836.064	16656
836.202	16713
836.34	16812
836.478	16828
836.615	16717
836.753	16778
836.891	16949
837.029	16763
837.167	16835
837.305	16786
837.443	16668
837.58	16611
837.718	16729
837.856	16748
837.993	16675
838.131	16626
838.269	16584
838.406	16706
838.544	16523
838.681	16409
838.819	16299
838.956	16238
839.094	16234
839.231	16291
839.369	16291
839.506	16599
839.643	16527
839.781	16242
839.918	16185
840.055	16303
840.193	16211
840.33	16177
840.467	16135
840.604	16341
840.742	16497
840.879	16078
841.016	16090
841.153	16219
841.29	16341
841.427	16207
841.564	16287
841.701	16291
841.838	16150
841.975	16147
842.112	16177
842.249	15956
842.385	15975
842.522	16131
842.659	16010
842.796	15983
842.933	16048
843.069	15994
843.206	15937
843.343	16128
843.479	16093
843.616	16013
843.752	15797
843.889	15827
844.025	15915
844.162	15686
844.298	15850
844.435	15793
844.571	15762
844.708	15736
844.844	15884
844.98	15991
845.117	15880
845.253	15781
845.389	15679
845.525	15800
845.661	15747
845.798	15812
845.934	15838
846.07	15865
846.206	15873
846.342	15876
846.478	15785
846.614	15431
846.75	15405
846.886	15416
847.022	15450
847.158	15355
847.294	15363
847.429	15408
847.565	15348
847.701	15519
847.837	15176
847.972	14998
848.108	15123
848.244	15112
848.379	14967
848.515	14883
848.65	14834
848.786	14883
848.921	15028
849.057	15070
849.192	15055
849.328	14971
849.463	14933
849.598	14952
849.734	14792
849.869	14796
850.004	14731
850.14	14693
850.275	14663
850.41	14663
850.545	14659
850.68	14636
850.815	14720
850.95	14746
851.085	14876
851.22	14796
851.355	14621
851.49	14701
851.625	14697
851.76	14697
851.895	14610
852.03	14606
852.165	14632
852.299	14731
852.434	14811
852.569	14712
852.703	14819
852.838	14826
852.973	14777
853.107	14834
853.242	14636
853.376	14568
853.511	14484
853.645	14621
853.78	14693
853.914	14575
854.048	14473
854.183	14533
854.317	14602
854.451	14712
854.585	14469
854.72	14560
854.854	14598
854.988	14507
855.122	14594
855.256	14347
855.39	14492
855.524	14575
855.658	14640
855.792	14507
855.926	14571
856.06	14594
856.194	14689
856.327	14575
856.461	14514
856.595	14594
856.729	14575
856.862	14594
856.996	14549
857.13	14644
857.263	14659
857.397	14746
857.53	14552
857.664	14670
857.797	14564
857.931	14735
858.064	14568
858.197	14651
858.331	14712
858.464	14564
858.597	14480
858.731	14552
858.864	14579
858.997	14549
859.13	14556
859.263	14541
859.396	14541
859.529	14560
859.662	14518
859.795	14461
859.928	14598
860.061	14682
860.194	14750
860.327	14636
860.46	14465
860.592	14682
860.725	14746
860.858	14648
860.99	14670
861.123	14484
861.256	14526
861.388	14552
861.521	15241
861.653	14438
861.786	14427
861.918	14431
862.05	14541
862.183	14575
862.315	14564
862.447	14556
862.58	14461
862.712	14328
862.844	14237
862.976	14442
863.108	14396
863.24	14663
863.372	14328
863.504	14240
863.636	14218
863.768	14336
863.9	14347
864.032	14320
864.164	14362
864.296	14298
864.428	14442
864.559	14514
864.691	14374
864.823	14286
864.954	14408
865.086	14427
865.217	14351
865.349	14324
865.48	14298
865.612	14336
865.743	14480
865.875	14313
866.006	14278
866.137	14400
866.269	14317
866.4	14256
866.531	14123
866.662	14263
866.793	14278
866.924	14244
867.055	14298
867.186	14259
867.317	14282
867.448	14138
867.579	14244
867.71	14271
867.841	14157
867.972	14313
868.103	14358
868.233	14294
868.364	14278
868.495	14377
868.625	14598
868.756	14674
868.886	14469
869.017	14511
869.147	14693
869.278	14659
869.408	14575
869.539	14556
869.669	14663
869.799	14636
869.929	14613
870.06	14701
870.19	14899
870.32	14845
870.45	14956
870.58	14899
870.71	14986
870.84	14990
870.97	14994
871.1	14998
871.23	15089
871.36	15165
871.489	14975
871.619	15058
871.749	15100
871.879	15207
872.008	15279
872.138	15214
872.267	15104
872.397	15047
872.526	15020
872.656	14971
872.785	14979
872.915	15146
873.044	15275
873.173	15108
873.303	15173
873.432	15245
873.561	15279
873.69	15199
873.819	15226
873.948	15367
874.077	15272
874.206	15135
874.335	15332
874.464	15408
874.593	15389
874.722	15469
874.851	15603
874.979	15507
875.108	15515
875.237	15450
875.365	15370
875.494	15378
875.623	15622
875.751	15523
875.88	15648
876.008	15701
876.136	15641
876.265	15964
876.393	16044
876.521	15975
876.65	16051
876.778	15899
876.906	15915
877.034	15854
877.162	15968
877.29	15865
877.418	15994
877.546	15987
877.674	16006
877.802	15903
877.93	15937
878.058	15983
878.185	15945
878.313	15934
878.441	15922
878.568	15781
878.696	15899
878.824	16006
878.951	16048
879.079	16150
879.206	16291
879.333	16211
879.461	16074
879.588	16158
879.715	16147
879.842	16234
879.97	16063
880.097	15827
880.224	15876
880.351	15785
880.478	15743
880.605	15743
880.732	15774
880.859	16082
880.986	15686
881.112	15713
881.239	15701
881.366	15564
881.493	15450
881.619	15488
881.746	15428
881.872	15458
881.999	15408
882.125	15386
882.252	15561
882.378	15542
882.505	15492
882.631	15397
882.757	15321
882.883	15428
883.01	15264
883.136	15287
883.262	15093
883.388	15043
883.514	15302
883.64	15287
883.766	15138
883.892	15062
884.018	15077
884.143	15306
884.269	15435
884.395	15024
884.52	14914
884.646	14937
884.772	14891
884.897	14967
885.023	14948
885.148	15032
885.274	15127
885.399	15062
885.524	14986
885.65	14982
885.775	15024
885.9	14933
886.025	15081
886.15	14906
886.275	14899
886.4	14887
886.525	14944
886.65	14868
886.775	14849
886.9	15036
887.025	15165
887.149	15020
887.274	14838
887.399	14705
887.523	14674
887.648	14731
887.773	14712
887.897	14887
888.021	14925
888.146	14785
888.27	14849
888.395	14845
888.519	14792
888.643	14876
888.767	14823
888.891	14727
889.015	14651
889.139	14720
889.263	14632
889.387	14708
889.511	14994
889.635	14689
889.759	14583
889.883	14598
890.006	14674
890.13	14796
890.254	14442
890.377	14530
890.501	14476
890.624	14419
890.748	14655
890.871	14286
890.995	14313
891.118	14252
891.241	14366
891.364	14294
891.488	14351
891.611	14317
891.734	14374
891.857	14286
891.98	14294
892.103	14423
892.226	14309
892.349	14355
892.471	14050
892.594	14256
892.717	14370
892.839	14256
892.962	14362
893.085	14381
893.207	14377
893.33	14233
893.452	14282
893.575	14370
893.697	14282
893.819	14530
893.941	14511
894.064	14499
894.186	14267
894.308	14195
894.43	14450
894.552	14518
894.674	14480
894.796	14305
894.918	14438
895.04	14362
895.161	14518
895.283	14446
895.405	14427
895.526	14438
895.648	14450
895.769	14518
895.891	14518
896.012	14564
896.134	14484
896.255	14457
896.376	14408
896.498	14511
896.619	14526
896.74	14564
896.861	14590
896.982	14800
897.103	14929
897.224	14758
897.345	14807
897.466	14739
897.587	14701
897.708	14925
897.828	14902
897.949	14792
898.07	14579
898.19	14792
898.311	14902
898.431	14804
898.552	14769
898.672	14910
898.792	14914
898.913	14823
899.033	14857
899.153	14697
899.273	14503
899.393	14651
899.513	14701
899.633	14632
899.753	14663
899.873	14655
899.993	14754
900.113	14663
900.232	14731
900.352	14678
900.472	14590
900.591	14484
900.711	14552
900.83	14579
900.95	14610
901.069	14712
901.189	14499
901.308	14214
901.427	14202
901.546	14199
901.665	14275
901.784	14218
901.904	14123
902.023	13917
902.141	13864
902.26	13795
902.379	13830
902.498	13772
902.617	13757
902.735	13860
902.854	13814
902.973	13685
903.091	13419
903.21	13480
903.328	13533
903.446	13392
903.565	13358
903.683	13289
903.801	13312
903.919	13377
904.038	13339
904.156	13183
904.274	13251
904.392	13168
904.51	13141
904.627	13133
904.745	13206
904.863	13213
904.981	13023
905.098	12920
905.216	12951
905.334	12932
905.451	12905
905.569	12863
905.686	12932
905.803	12859
905.921	12741
906.038	12821
906.155	12757
906.272	12608
906.389	12620
906.506	12483
906.623	12471
906.74	12498
906.857	12361
906.974	12418
907.091	12464
907.208	12608
907.324	12544
907.441	12448
907.557	12205
907.674	12247
907.79	12254
907.907	12152
908.023	12190
908.139	12175
908.256	12186
908.372	12098
908.488	12152
908.604	12007
908.72	11977
908.836	11935
908.952	11878
909.068	11950
909.184	12068
909.3	11965
909.415	12129
909.531	12087
909.647	11779
909.762	11813
909.878	11779
909.993	11843
910.108	11756
910.224	11756
910.339	11760
910.454	11646
910.57	11642
910.685	11509
910.8	11851
910.915	11707
911.03	11691
911.145	11474
911.259	11459
911.374	11505
911.489	11356
911.604	11387
911.718	11235
911.833	11280
911.947	11064
912.062	11090
912.176	11181
912.291	11162
912.405	11216
912.519	11372
912.633	11448
912.748	11292
912.862	11151
912.976	11075
913.09	10946
913.204	10980
913.318	11109
913.431	11155
913.545	11246
913.659	11220
913.772	11121
913.886	10934
914	10858
914.113	11098
914.226	11086
914.34	10968
914.453	10927
914.566	11060
914.68	10904
914.793	10869
914.906	10725
915.019	10634
915.132	10672
915.245	10706
915.358	10637
915.47	10755
915.583	10755
915.696	10771
915.809	10805
915.921	10866
916.034	10702
916.146	10683
916.259	10668
916.371	10797
916.483	10683
916.595	10630
916.708	10645
916.82	10645
916.932	10607
917.044	10637
917.156	10615
917.268	10470
917.38	10527
917.491	10489
917.603	10523
917.715	10603
917.826	10637
917.938	10500
918.049	10493
918.161	10546
918.272	10656
918.384	10672
918.495	10584
918.606	10329
918.717	10352
918.828	10371
918.939	10432
919.05	10318
919.161	10348
919.272	10154
919.383	10238
919.494	10382
919.604	10618
919.715	10500
919.826	10367
919.936	10371
920.047	10478
920.157	10409
920.267	10584
920.378	10432
920.488	10409
920.598	10523
920.708	10687
920.818	10618
920.928	10687
921.038	10828
921.148	10683
921.258	10531
921.368	10447
921.477	10284
921.587	10268
921.697	10116
921.806	10265
921.916	10128
922.025	10025
922.134	9987
922.244	9918
922.353	9994
922.462	9816
922.571	9808
922.68	9625
922.789	9595
922.898	9679
923.007	9637
923.116	9701
923.224	9755
923.333	9614
923.442	9538
923.55	9462
923.659	9610
923.767	9587
923.876	9488
923.984	9606
924.092	9591
924.201	9469
924.309	9538
924.417	9515
924.525	9420
924.633	9511
924.741	10371
924.849	9302
924.956	9374
925.064	9291
925.172	9253
925.279	9249
925.387	9310
925.494	9317
925.602	9317
925.709	9374
925.816	9283
925.924	9226
926.031	9332
926.138	9233
926.245	9355
926.352	9176
926.459	9359
926.566	9420
926.673	9310
926.779	9199
926.886	9173
926.993	9020
927.099	8967
927.206	9013
927.312	8986
927.419	9001
927.525	9047
927.631	9047
927.737	8944
927.843	8883
927.95	8716
928.056	8876
928.162	8910
928.267	8998
928.373	9443
928.479	8990
928.585	8796
928.69	8880
928.796	8914
928.901	8823
929.007	8655
929.112	8857
929.218	8861
929.323	8739
929.428	8697
929.533	8830
929.638	8602
929.743	8693
929.848	8716
929.953	8712
930.058	8594
930.163	8427
930.267	8518
930.372	8564
930.477	8473
930.581	8720
930.685	8522
930.79	8408
930.894	8480
930.998	8385
931.103	8522
931.207	8263
931.311	8180
931.415	8084
931.519	7928
931.623	7871
