Data from test_V78500241_3243.txt Node
Date: Fri Mar 25 14:56:17 CST 2022
User: usil
Spectrometer: V785-0024
Trigger mode: 0
Integration Time (sec): 4.000000E-1
Scans to average: 1
Nonlinearity correction enabled: false
Boxcar width: 0
Storing dark spectrum: false
XAxis mode: Wavelengths
Number of Pixels in Spectrum: 1024
>>>>>Begin Spectral Data<<<<<
801.071	21915
801.214	21865
801.356	21709
801.499	21443
801.641	21435
801.783	21416
801.926	21359
802.068	21176
802.211	21207
802.353	21123
802.496	21062
802.638	20762
802.78	20883
802.923	20815
803.065	20651
803.208	20735
803.35	20800
803.492	20830
803.635	20842
803.777	20674
803.919	20788
804.061	21036
804.204	20773
804.346	20651
804.488	20613
804.63	20644
804.773	20541
804.915	20602
805.057	20648
805.199	20533
805.341	20617
805.483	20701
805.626	20708
805.768	20602
805.91	20590
806.052	20678
806.194	20579
806.336	20811
806.478	20613
806.62	20613
806.762	20575
806.904	20758
807.046	20990
807.188	20948
807.33	20944
807.472	20933
807.614	20914
807.756	20861
807.898	20861
808.04	20682
808.182	20518
808.324	20735
808.465	20682
808.607	20880
808.749	20895
808.891	20990
809.033	21005
809.174	20929
809.316	20925
809.458	20933
809.6	20921
809.741	21043
809.883	20941
810.025	21081
810.166	21138
810.308	20998
810.45	21150
810.591	21013
810.733	20777
810.875	20716
811.016	20720
811.158	20629
811.299	20823
811.441	20933
811.582	20792
811.724	20754
811.865	20590
812.007	20811
812.148	20708
812.29	20750
812.431	20807
812.573	21013
812.714	21138
812.855	21195
812.997	21260
813.138	21454
813.279	21344
813.421	21283
813.562	21150
813.703	21047
813.845	20857
813.986	20598
814.127	20332
814.268	20305
814.41	20370
814.551	20320
814.692	20244
814.833	20195
814.974	20298
815.115	20233
815.256	20145
815.397	20145
815.539	20012
815.68	19917
815.821	19959
815.962	19936
816.103	19940
816.244	19849
816.385	19761
816.526	19677
816.666	19658
816.807	19392
816.948	19460
817.089	19506
817.23	19559
817.371	19430
817.512	19388
817.653	19327
817.793	19411
817.934	19217
818.075	19514
818.216	19362
818.356	19320
818.497	19099
818.638	18973
818.778	19080
818.919	19114
819.06	19065
819.2	19202
819.341	19255
819.481	19331
819.622	19396
819.762	19632
819.903	19491
820.043	19537
820.184	19384
820.324	19343
820.465	19396
820.605	19422
820.746	19346
820.886	19122
821.026	19335
821.167	19304
821.307	19316
821.447	19244
821.588	19057
821.728	19091
821.868	18973
822.008	18669
822.149	18867
822.289	18745
822.429	18559
822.569	18486
822.709	18452
822.849	18300
822.99	18171
823.13	18319
823.27	18285
823.41	18076
823.55	18045
823.69	18171
823.83	18064
823.97	18030
824.11	17840
824.25	17916
824.389	17828
824.529	17999
824.669	17847
824.809	18030
824.949	17999
825.089	17870
825.228	17927
825.368	17726
825.508	17570
825.648	17748
825.787	17722
825.927	17630
826.067	17570
826.206	17512
826.346	17611
826.485	17642
826.625	17718
826.765	17764
826.904	17729
827.044	17440
827.183	17471
827.323	17273
827.462	17315
827.601	17372
827.741	17250
827.88	17421
828.02	17197
828.159	17181
828.298	17303
828.437	17356
828.577	17246
828.716	17463
828.855	17235
828.994	17037
829.134	17105
829.273	17022
829.412	17018
829.551	16976
829.69	17014
829.829	17025
829.968	17254
830.107	17067
830.246	17124
830.385	17025
830.524	17003
830.663	16877
830.802	16816
830.941	16710
831.08	16584
831.219	16812
831.357	16805
831.496	16919
831.635	16691
831.774	16656
831.913	16523
832.051	16447
832.19	16394
832.329	16405
832.467	16478
832.606	16246
832.744	16322
832.883	16341
833.022	16276
833.16	16318
833.299	16390
833.437	16402
833.576	16352
833.714	16512
833.852	16516
833.991	16561
834.129	16538
834.267	16527
834.406	16421
834.544	16481
834.682	16409
834.821	16428
834.959	16527
835.097	16428
835.235	16542
835.373	16474
835.511	16436
835.65	16352
835.788	16322
835.926	16074
836.064	16192
836.202	16169
836.34	16402
836.478	16489
836.615	16223
836.753	16379
836.891	16398
837.029	16341
837.167	16268
837.305	16303
837.443	16375
837.58	16192
837.718	16284
837.856	16223
837.993	16181
838.131	16280
838.269	16116
838.406	16158
838.544	16097
838.681	15880
838.819	15983
838.956	15861
839.094	15762
839.231	15838
839.369	15926
839.506	16181
839.643	15880
839.781	15785
839.918	15739
840.055	15743
840.193	15880
840.33	15762
840.467	15770
840.604	15762
840.742	16086
840.879	15599
841.016	15679
841.153	15584
841.29	15869
841.427	15800
841.564	15842
841.701	15838
841.838	15682
841.975	15759
842.112	15698
842.249	15606
842.385	15542
842.522	15717
842.659	15595
842.796	15599
842.933	15576
843.069	15515
843.206	15530
843.343	15625
843.479	15591
843.616	15694
843.752	15370
843.889	15256
844.025	15458
844.162	15329
844.298	15458
844.435	15302
844.571	15348
844.708	15359
844.844	15469
844.98	15481
845.117	15523
845.253	15325
845.389	15195
845.525	15249
845.661	15161
845.798	15089
845.934	15100
846.07	15074
846.206	15146
846.342	15260
846.478	15085
846.614	14982
846.75	14918
846.886	14891
847.022	14975
847.158	14948
847.294	14887
847.429	14944
847.565	14902
847.701	15093
847.837	14636
847.972	14632
848.108	14693
848.244	14697
848.379	14583
848.515	14499
848.65	14400
848.786	14454
848.921	14454
849.057	14556
849.192	14560
849.328	14648
849.463	14556
849.598	14530
849.734	14461
849.869	14317
850.004	14252
850.14	14244
850.275	14275
850.41	14168
850.545	14214
850.68	14336
850.815	14343
850.95	14320
851.085	14347
851.22	14415
851.355	14294
851.49	14218
851.625	14351
851.76	14252
851.895	14180
852.03	14161
852.165	14328
852.299	14393
852.434	14324
852.569	14210
852.703	14347
852.838	14328
852.973	14507
853.107	14412
853.242	14263
853.376	14081
853.511	14069
853.645	14043
853.78	14229
853.914	14195
854.048	14107
854.183	14073
854.317	14115
854.451	14366
854.585	14191
854.72	14161
854.854	14206
854.988	14157
855.122	14084
855.256	14065
855.39	14142
855.524	14221
855.658	14145
855.792	14191
855.926	14202
856.06	14256
856.194	14278
856.327	14130
856.461	14168
856.595	14084
856.729	14202
856.862	14218
856.996	14229
857.13	14233
857.263	14309
857.397	14237
857.53	14180
857.664	14256
857.797	14202
857.931	14252
858.064	14229
858.197	14317
858.331	14248
858.464	14134
858.597	14012
858.731	14252
858.864	14130
858.997	14084
859.13	14130
859.263	14176
859.396	14282
859.529	14119
859.662	14221
859.795	14069
859.928	14210
860.061	14324
860.194	14290
860.327	14271
860.46	14084
860.592	14229
860.725	14229
860.858	14244
860.99	14172
861.123	14096
861.256	14084
861.388	14134
861.521	14842
861.653	14020
861.786	14005
861.918	14069
862.05	14035
862.183	14126
862.315	14081
862.447	14164
862.58	14123
862.712	13906
862.844	13928
862.976	13951
863.108	13993
863.24	14358
863.372	13849
863.504	14001
863.636	13917
863.768	14016
863.9	13989
864.032	13837
864.164	13997
864.296	13974
864.428	14092
864.559	14054
864.691	14016
864.823	14024
864.954	14020
865.086	13940
865.217	14005
865.349	13868
865.48	13849
865.612	13902
865.743	14096
865.875	14084
866.006	13898
866.137	13875
866.269	13909
866.4	13951
866.531	13898
866.662	13883
866.793	13868
866.924	13909
867.055	14050
867.186	13970
867.317	13803
867.448	13807
867.579	13788
867.71	13894
867.841	13868
867.972	13902
868.103	13951
868.233	13974
868.364	13868
868.495	13932
868.625	14138
868.756	14286
868.886	14046
869.017	14123
869.147	14275
869.278	14233
869.408	14115
869.539	14164
869.669	14221
869.799	14214
869.929	14275
870.06	14282
870.19	14556
870.32	14454
870.45	14412
870.58	14541
870.71	14640
870.84	14678
870.97	14545
871.1	14537
871.23	14743
871.36	14765
871.489	14686
871.619	14708
871.749	14727
871.879	14880
872.008	14975
872.138	14739
872.267	14754
872.397	14632
872.526	14610
872.656	14636
872.785	14697
872.915	14872
873.044	14895
873.173	14826
873.303	14887
873.432	14902
873.561	14861
873.69	14842
873.819	14777
873.948	15005
874.077	14914
874.206	14750
874.335	14788
874.464	14990
874.593	15138
874.722	15093
874.851	15157
874.979	15184
875.108	15062
875.237	15051
875.365	15062
875.494	15043
875.623	15184
875.751	15135
875.88	15100
876.008	15329
876.136	15355
876.265	15660
876.393	15694
876.521	15584
876.65	15713
876.778	15599
876.906	15492
877.034	15515
877.162	15553
877.29	15538
877.418	15622
877.546	15629
877.674	15542
877.802	15519
877.93	15622
878.058	15572
878.185	15439
878.313	15542
878.441	15553
878.568	15416
878.696	15439
878.824	15584
878.951	15724
879.079	15800
879.206	15911
879.333	15743
879.461	15667
879.588	15660
879.715	15739
879.842	15751
879.97	15606
880.097	15424
880.224	15355
880.351	15397
880.478	15408
880.605	15412
880.732	15447
880.859	15595
880.986	15420
881.112	15561
881.239	15336
881.366	15146
881.493	15188
881.619	15131
881.746	15070
881.872	15036
881.999	14979
882.125	15013
882.252	15043
882.378	15009
882.505	15097
882.631	15036
882.757	14876
882.883	14933
883.01	14902
883.136	14769
883.262	14773
883.388	14735
883.514	14868
883.64	14838
883.766	14826
883.892	14674
884.018	14701
884.143	14929
884.269	14956
884.395	14682
884.52	14606
884.646	14625
884.772	14484
884.897	14480
885.023	14598
885.148	14621
885.274	14792
885.399	14762
885.524	14610
885.65	14560
885.775	14648
885.9	14552
886.025	14765
886.15	14636
886.275	14587
886.4	14480
886.525	14518
886.65	14442
886.775	14632
886.9	14697
887.025	14800
887.149	14693
887.274	14454
887.399	14415
887.523	14370
887.648	14313
887.773	14313
887.897	14522
888.021	14503
888.146	14469
888.27	14484
888.395	14530
888.519	14465
888.643	14488
888.767	14434
888.891	14313
889.015	14370
889.139	14313
889.263	14233
889.387	14415
889.511	14442
889.635	14442
889.759	14355
889.883	14298
890.006	14320
890.13	14347
890.254	14206
890.377	14298
890.501	14073
890.624	14088
890.748	14180
890.871	14062
890.995	13963
891.118	13860
891.241	13940
891.364	14005
891.488	14115
891.611	14035
891.734	14046
891.857	14077
891.98	14096
892.103	14058
892.226	14046
892.349	13925
892.471	13788
892.594	13906
892.717	13959
892.839	14035
892.962	13967
893.085	14092
893.207	13978
893.33	13936
893.452	13997
893.575	14016
893.697	13993
893.819	14240
893.941	14168
894.064	14157
894.186	13993
894.308	14024
894.43	14142
894.552	14218
894.674	14123
894.796	13967
894.918	14138
895.04	14016
895.161	14088
895.283	14138
895.405	14088
895.526	14142
895.648	14115
895.769	14172
895.891	14183
896.012	14233
896.134	14229
896.255	14221
896.376	14142
896.498	14218
896.619	14259
896.74	14229
896.861	14240
896.982	14518
897.103	14568
897.224	14381
897.345	14355
897.466	14358
897.587	14408
897.708	14587
897.828	14457
897.949	14404
898.07	14271
898.19	14377
898.311	14602
898.431	14469
898.552	14476
898.672	14594
898.792	14541
898.913	14526
899.033	14469
899.153	14393
899.273	14305
899.393	14294
899.513	14469
899.633	14366
899.753	14412
899.873	14313
899.993	14423
900.113	14317
900.232	14396
900.352	14358
900.472	14221
900.591	14195
900.711	14259
900.83	14107
900.95	14438
901.069	14286
901.189	14084
901.308	13951
901.427	13860
901.546	13879
901.665	13906
901.784	13917
901.904	13902
902.023	13689
902.141	13571
902.26	13567
902.379	13624
902.498	13537
902.617	13384
902.735	13578
902.854	13487
902.973	13464
903.091	13251
903.21	13225
903.328	13266
903.446	13141
903.565	13084
903.683	13042
903.801	13031
903.919	13042
904.038	12993
904.156	12871
904.274	12951
904.392	12863
904.51	12817
904.627	12787
904.745	12901
904.863	12951
904.981	12681
905.098	12650
905.216	12627
905.334	12616
905.451	12627
905.569	12582
905.686	12570
905.803	12525
905.921	12292
906.038	12528
906.155	12426
906.272	12330
906.389	12315
906.506	12167
906.623	12190
906.74	12239
906.857	11984
906.974	12152
907.091	12315
907.208	12273
907.324	12220
907.441	12060
907.557	11878
907.674	11897
907.79	11817
907.907	11851
908.023	11923
908.139	11874
908.256	11908
908.372	11874
908.488	11832
908.604	11627
908.72	11668
908.836	11688
908.952	11722
909.068	11680
909.184	11779
909.3	11638
909.415	11699
909.531	11710
909.647	11482
909.762	11497
909.878	11528
909.993	11482
910.108	11440
910.224	11421
910.339	11482
910.454	11315
910.57	11246
910.685	11151
910.8	11551
910.915	11478
911.03	11284
911.145	11132
911.259	11136
911.374	11193
911.489	11071
911.604	11102
911.718	10889
911.833	10908
911.947	10812
912.062	10752
912.176	10866
912.291	10915
912.405	10892
912.519	11052
912.633	11151
912.748	10972
912.862	10949
912.976	10790
913.09	10656
913.204	10774
913.318	10835
913.431	10866
913.545	10908
913.659	10930
913.772	10831
913.886	10687
914	10668
914.113	10809
914.226	10843
914.34	10778
914.453	10637
914.566	10694
914.68	10607
914.793	10588
914.906	10379
915.019	10382
915.132	10291
915.245	10424
915.358	10436
915.47	10428
915.583	10402
915.696	10451
915.809	10535
915.921	10500
916.034	10405
916.146	10325
916.259	10337
916.371	10440
916.483	10432
916.595	10306
916.708	10325
916.82	10306
916.932	10337
917.044	10276
917.156	10344
917.268	10280
917.38	10242
917.491	10227
917.603	10249
917.715	10371
917.826	10299
917.938	10257
918.049	10150
918.161	10238
918.272	10402
918.384	10318
918.495	10276
918.606	10105
918.717	10055
918.828	10181
918.939	10230
919.05	10078
919.161	10044
919.272	9953
919.383	10036
919.494	10185
919.604	10303
919.715	10116
919.826	10071
919.936	10082
920.047	10188
920.157	10207
920.267	10329
920.378	10265
920.488	10131
920.598	10310
920.708	10421
920.818	10333
920.928	10284
921.038	10516
921.148	10500
921.258	10223
921.368	10101
921.477	10040
921.587	9956
921.697	9873
921.806	10044
921.916	9865
922.025	9743
922.134	9724
922.244	9690
922.353	9831
922.462	9599
922.571	9492
922.68	9389
922.789	9336
922.898	9428
923.007	9294
923.116	9367
923.224	9420
923.333	9382
923.442	9241
923.55	9291
923.659	9306
923.767	9443
923.876	9233
923.984	9378
924.092	9165
924.201	9275
924.309	9279
924.417	9199
924.525	9260
924.633	9237
924.741	10105
924.849	9024
924.956	9123
925.064	9009
925.172	9013
925.279	8986
925.387	9047
925.494	9013
925.602	9135
925.709	9180
925.816	9017
925.924	9036
926.031	9093
926.138	9104
926.245	9119
926.352	8963
926.459	9123
926.566	9199
926.673	8998
926.779	8880
926.886	8838
926.993	8796
927.099	8788
927.206	8743
927.312	8655
927.419	8838
927.525	8781
927.631	8766
927.737	8686
927.843	8651
927.95	8537
928.056	8644
928.162	8663
928.267	8720
928.373	9199
928.479	8735
928.585	8587
928.69	8568
928.796	8746
928.901	8571
929.007	8434
929.112	8583
929.218	8537
929.323	8522
929.428	8438
929.533	8663
929.638	8374
929.743	8465
929.848	8503
929.953	8503
930.058	8415
930.163	8259
930.267	8309
930.372	8438
930.477	8229
930.581	8499
930.685	8400
930.79	8161
930.894	8237
930.998	8229
931.103	8336
931.207	7978
931.311	7967
931.415	7879
931.519	7685
931.623	7700
