Data from test_V78500241_422.txt Node
Date: Fri Mar 25 14:36:39 CST 2022
User: usil
Spectrometer: V785-0024
Trigger mode: 0
Integration Time (sec): 4.000000E-1
Scans to average: 1
Nonlinearity correction enabled: false
Boxcar width: 0
Storing dark spectrum: false
XAxis mode: Wavelengths
Number of Pixels in Spectrum: 1024
>>>>>Begin Spectral Data<<<<<
801.071	26640
801.214	26571
801.356	26366
801.499	26336
801.641	26111
801.783	26005
801.926	26039
802.068	26043
802.211	25860
802.353	25940
802.496	25742
802.638	25677
802.78	25643
802.923	25563
803.065	25647
803.208	25594
803.35	25487
803.492	25647
803.635	25791
803.777	25567
803.919	25833
804.061	25986
804.204	25662
804.346	25567
804.488	25449
804.63	25605
804.773	25506
804.915	25544
805.057	25643
805.199	25559
805.341	25613
805.483	25693
805.626	25712
805.768	25514
805.91	25559
806.052	25540
806.194	25502
806.336	25765
806.478	25704
806.62	25537
806.762	25849
806.904	25830
807.046	26005
807.188	26050
807.33	26039
807.472	26012
807.614	25966
807.756	25864
807.898	25753
808.04	25639
808.182	25708
808.324	25814
808.465	25670
808.607	25986
808.749	26008
808.891	26176
809.033	26237
809.174	25947
809.316	26218
809.458	25989
809.6	26050
809.741	26119
809.883	26100
810.025	26271
810.166	26233
810.308	26191
810.45	26290
810.591	26214
810.733	26001
810.875	25959
811.016	25769
811.158	25970
811.299	25974
811.441	26107
811.582	26073
811.724	25932
811.865	25959
812.007	25932
812.148	25875
812.29	25959
812.431	25925
812.573	26153
812.714	26199
812.855	26423
812.997	26526
813.138	26682
813.279	26461
813.421	26351
813.562	26366
813.703	26233
813.845	26145
813.986	25902
814.127	25613
814.268	25457
814.41	25495
814.551	25620
814.692	25571
814.833	25419
814.974	25377
815.115	25381
815.256	25285
815.397	25460
815.539	25514
815.68	25137
815.821	25179
815.962	25255
816.103	25297
816.244	25103
816.385	25000
816.526	24928
816.666	24772
816.807	24639
816.948	24757
817.089	24639
817.23	24616
817.371	24467
817.512	24593
817.653	24608
817.793	24623
817.934	24498
818.075	24589
818.216	24631
818.356	24498
818.497	24479
818.638	24216
818.778	24285
818.919	24144
819.06	24285
819.2	24346
819.341	24582
819.481	24563
819.622	24623
819.762	24730
819.903	24684
820.043	24673
820.184	24700
820.324	24585
820.465	24700
820.605	24677
820.746	24544
820.886	24547
821.026	24525
821.167	24410
821.307	24563
821.447	24517
821.588	24407
821.728	24270
821.868	24171
822.008	24022
822.149	23942
822.289	23760
822.429	23547
822.569	23661
822.709	23630
822.849	23398
822.99	23379
823.13	23364
823.27	23322
823.41	23140
823.55	23109
823.69	23147
823.83	23220
823.97	23159
824.11	22965
824.25	22976
824.389	22980
824.529	23025
824.669	22934
824.809	22938
824.949	23006
825.089	23033
825.228	23083
825.368	22752
825.508	22679
825.648	22687
825.787	22843
825.927	22740
826.067	22778
826.206	22767
826.346	22835
826.485	22694
826.625	22767
826.765	22923
826.904	22805
827.044	22459
827.183	22451
827.323	22493
827.462	22557
827.601	22382
827.741	22333
827.88	22356
828.02	22242
828.159	22417
828.298	22413
828.437	22489
828.577	22303
828.716	22527
828.855	22306
828.994	22135
829.134	22097
829.273	22177
829.412	22051
829.551	21895
829.69	22128
829.829	22067
829.968	22200
830.107	22067
830.246	22063
830.385	22067
830.524	21945
830.663	21915
830.802	21789
830.941	21759
831.08	21667
831.219	21907
831.357	21690
831.496	21926
831.635	21572
831.774	21622
831.913	21553
832.051	21416
832.19	21454
832.329	21435
832.467	21298
832.606	21428
832.744	21363
832.883	21233
833.022	21298
833.16	21443
833.299	21530
833.437	21393
833.576	21443
833.714	21435
833.852	21462
833.991	21408
834.129	21443
834.267	21462
834.406	21351
834.544	21405
834.682	21245
834.821	21412
834.959	21469
835.097	21207
835.235	21393
835.373	21401
835.511	21325
835.65	21165
835.788	21131
835.926	21089
836.064	21043
836.202	21074
836.34	21169
836.478	21214
836.615	21214
836.753	21173
836.891	21264
837.029	21150
837.167	21272
837.305	21070
837.443	21104
837.58	21093
837.718	20971
837.856	21089
837.993	20921
838.131	21036
838.269	20948
838.406	20967
838.544	20895
838.681	20731
838.819	20670
838.956	20469
839.094	20484
839.231	20632
839.369	20648
839.506	20948
839.643	20796
839.781	20412
839.918	20438
840.055	20526
840.193	20461
840.33	20370
840.467	20328
840.604	20408
840.742	20731
840.879	20290
841.016	20377
841.153	20233
841.29	20571
841.427	20294
841.564	20362
841.701	20358
841.838	20438
841.975	20210
842.112	20275
842.249	20145
842.385	20103
842.522	20298
842.659	20168
842.796	20092
842.933	20020
843.069	20153
843.206	20115
843.343	20122
843.479	20103
843.616	20005
843.752	19894
843.889	19795
844.025	19959
844.162	19868
844.298	19925
844.435	19951
844.571	19845
844.708	20016
844.844	19955
844.98	19974
845.117	19944
845.253	19875
845.389	19666
845.525	19822
845.661	19788
845.798	19712
845.934	19757
846.07	19639
846.206	19708
846.342	19818
846.478	19693
846.614	19411
846.75	19362
846.886	19335
847.022	19453
847.158	19373
847.294	19449
847.429	19426
847.565	19316
847.701	19594
847.837	19027
847.972	19004
848.108	19206
848.244	19183
848.379	18966
848.515	18916
848.65	18817
848.786	18871
848.921	18920
849.057	19088
849.192	18901
849.328	18958
849.463	18947
849.598	18916
849.734	18768
849.869	18757
850.004	18639
850.14	18646
850.275	18665
850.41	18654
850.545	18601
850.68	18528
850.815	18787
850.95	18570
851.085	18798
851.22	18795
851.355	18738
851.49	18536
851.625	18631
851.76	18692
851.895	18464
852.03	18467
852.165	18566
852.299	18719
852.434	18791
852.569	18620
852.703	18620
852.838	18700
852.973	18673
853.107	18802
853.242	18513
853.376	18338
853.511	18452
853.645	18490
853.78	18544
853.914	18475
854.048	18380
854.183	18494
854.317	18448
854.451	18521
854.585	18490
854.72	18376
854.854	18585
854.988	18308
855.122	18578
855.256	18315
855.39	18407
855.524	18403
855.658	18509
855.792	18464
855.926	18456
856.06	18559
856.194	18677
856.327	18426
856.461	18369
856.595	18319
856.729	18426
856.862	18490
856.996	18483
857.13	18483
857.263	18513
857.397	18521
857.53	18494
857.664	18490
857.797	18544
857.931	18627
858.064	18585
858.197	18536
858.331	18490
858.464	18323
858.597	18273
858.731	18452
858.864	18422
858.997	18319
859.13	18456
859.263	18437
859.396	18452
859.529	18270
859.662	18353
859.795	18403
859.928	18346
860.061	18551
860.194	18589
860.327	18540
860.46	18384
860.592	18456
860.725	18585
860.858	18433
860.99	18429
861.123	18281
861.256	18330
861.388	18380
861.521	19217
861.653	18205
861.786	18281
861.918	18186
862.05	18384
862.183	18277
862.315	18429
862.447	18589
862.58	18315
862.712	18220
862.844	18117
862.976	18216
863.108	18194
863.24	18547
863.372	18049
863.504	18129
863.636	18152
863.768	18239
863.9	18155
864.032	18091
864.164	18110
864.296	18224
864.428	18235
864.559	18232
864.691	18159
864.823	18220
864.954	18106
865.086	18232
865.217	18026
865.349	18015
865.48	18079
865.612	17961
865.743	18129
865.875	18015
866.006	18019
866.137	17988
866.269	18041
866.4	18098
866.531	17984
866.662	17958
866.793	17935
866.924	18079
867.055	18015
867.186	18045
867.317	17863
867.448	17950
867.579	17946
867.71	17870
867.841	17828
867.972	18034
868.103	17923
868.233	17961
868.364	17954
868.495	18072
868.625	18186
868.756	18391
868.886	18087
869.017	18213
869.147	18319
869.278	18292
869.408	18224
869.539	18216
869.669	18315
869.799	18315
869.929	18292
870.06	18243
870.19	18517
870.32	18452
870.45	18616
870.58	18673
870.71	18665
870.84	18608
870.97	18608
871.1	18574
871.23	18787
871.36	18768
871.489	18547
871.619	18833
871.749	18768
871.879	18825
872.008	18928
872.138	18909
872.267	18787
872.397	18722
872.526	18677
872.656	18673
872.785	18627
872.915	18852
873.044	18871
873.173	18837
873.303	18901
873.432	18913
873.561	18852
873.69	18848
873.819	18878
873.948	18920
874.077	18863
874.206	18776
874.335	18890
874.464	19023
874.593	19137
874.722	19019
874.851	19350
874.979	19251
875.108	19164
875.237	19038
875.365	19126
875.494	19000
875.623	19335
875.751	19027
875.88	19091
876.008	19339
876.136	19422
876.265	19556
876.393	19616
876.521	19575
876.65	19708
876.778	19495
876.906	19537
877.034	19381
877.162	19438
877.29	19483
877.418	19468
877.546	19544
877.674	19510
877.802	19506
877.93	19518
878.058	19514
878.185	19506
878.313	19521
878.441	19491
878.568	19449
878.696	19468
878.824	19563
878.951	19559
879.079	19704
879.206	19769
879.333	19742
879.461	19556
879.588	19731
879.715	19750
879.842	19902
879.97	19499
880.097	19426
880.224	19411
880.351	19422
880.478	19441
880.605	19343
880.732	19316
880.859	19544
880.986	19335
881.112	19411
881.239	19225
881.366	19129
881.493	19160
881.619	19008
881.746	18947
881.872	18996
881.999	18947
882.125	18863
882.252	19008
882.378	19008
882.505	19137
882.631	18833
882.757	18821
882.883	18764
883.01	18783
883.136	18620
883.262	18631
883.388	18574
883.514	18688
883.64	18715
883.766	18707
883.892	18525
884.018	18627
884.143	18684
884.269	18688
884.395	18471
884.52	18410
884.646	18448
884.772	18407
884.897	18391
885.023	18395
885.148	18494
885.274	18460
885.399	18483
885.524	18441
885.65	18475
885.775	18353
885.9	18361
886.025	18631
886.15	18498
886.275	18353
886.4	18300
886.525	18365
886.65	18289
886.775	18327
886.9	18437
887.025	18509
887.149	18270
887.274	18155
887.399	18129
887.523	18167
887.648	18049
887.773	17965
887.897	18186
888.021	18148
888.146	18159
888.27	18300
888.395	18144
888.519	18152
888.643	18076
888.767	18201
888.891	18064
889.015	17878
889.139	18003
889.263	17977
889.387	18007
889.511	18194
889.635	18121
889.759	17916
889.883	17942
890.006	17874
890.13	18060
890.254	17874
890.377	17916
890.501	17783
890.624	17718
890.748	17756
890.871	17638
890.995	17661
891.118	17463
891.241	17657
891.364	17547
891.488	17741
891.611	17455
891.734	17714
891.857	17863
891.98	17520
892.103	17630
892.226	17668
892.349	17589
892.471	17307
892.594	17573
892.717	17592
892.839	17566
892.962	17478
893.085	17570
893.207	17509
893.33	17353
893.452	17467
893.575	17589
893.697	17509
893.819	17589
893.941	17733
894.064	17707
894.186	17478
894.308	17471
894.43	17589
894.552	17737
894.674	17619
894.796	17349
894.918	17577
895.04	17516
895.161	17684
895.283	17630
895.405	17558
895.526	17592
895.648	17570
895.769	17589
895.891	17570
896.012	17642
896.134	17695
896.255	17581
896.376	17490
896.498	17581
896.619	17665
896.74	17676
896.861	17748
896.982	17885
897.103	18182
897.224	17874
897.345	17828
897.466	17756
897.587	17939
897.708	17958
897.828	17893
897.949	17798
898.07	17741
898.19	17733
898.311	17901
898.431	17893
898.552	17836
898.672	17923
898.792	17893
898.913	17859
899.033	17760
899.153	17714
899.273	17558
899.393	17592
899.513	17634
899.633	17627
899.753	17691
899.873	17615
899.993	17585
900.113	17551
900.232	17665
900.352	17573
900.472	17566
900.591	17387
900.711	17486
900.83	17497
900.95	17512
901.069	17649
901.189	17395
901.308	17220
901.427	17064
901.546	17079
901.665	17166
901.784	17197
901.904	17033
902.023	16927
902.141	16641
902.26	16653
902.379	16744
902.498	16603
902.617	16584
902.735	16630
902.854	16584
902.973	16504
903.091	16318
903.21	16310
903.328	16257
903.446	16287
903.565	16200
903.683	16135
903.801	16013
903.919	16055
904.038	16135
904.156	15861
904.274	16021
904.392	15956
904.51	15934
904.627	15994
904.745	15922
904.863	15945
904.981	15713
905.098	15530
905.216	15553
905.334	15542
905.451	15724
905.569	15599
905.686	15652
905.803	15603
905.921	15450
906.038	15481
906.155	15428
906.272	15340
906.389	15287
906.506	15119
906.623	15176
906.74	15043
906.857	15005
906.974	14986
907.091	15195
907.208	15268
907.324	15085
907.441	15020
907.557	14887
907.674	14872
907.79	14914
907.907	14899
908.023	14868
908.139	14773
908.256	14720
908.372	14773
908.488	14762
908.604	14667
908.72	14507
908.836	14583
908.952	14571
909.068	14541
909.184	14640
909.3	14492
909.415	14526
909.531	14598
909.647	14465
909.762	14347
909.878	14256
909.993	14336
910.108	14282
910.224	14145
910.339	14233
910.454	14256
910.57	14077
910.685	14046
910.8	14351
910.915	14294
911.03	14088
911.145	13921
911.259	13951
911.374	13818
911.489	13803
911.604	13841
911.718	13788
911.833	13689
911.947	13548
912.062	13453
912.176	13658
912.291	13624
912.405	13636
912.519	13902
912.633	13837
912.748	13681
912.862	13582
912.976	13495
913.09	13502
913.204	13445
913.318	13396
913.431	13578
913.545	13537
913.659	13571
913.772	13426
913.886	13335
914	13339
914.113	13460
914.226	13392
914.34	13400
914.453	13278
914.566	13415
914.68	13255
914.793	13270
914.906	13099
915.019	12993
915.132	12977
915.245	13023
915.358	13065
915.47	13012
915.583	12958
915.696	13107
915.809	13110
915.921	13072
916.034	13004
916.146	12871
916.259	12897
916.371	13023
916.483	12973
916.595	12810
916.708	12920
916.82	12848
916.932	12852
917.044	12840
917.156	12829
917.268	12631
917.38	12745
917.491	12707
917.603	12707
917.715	12795
917.826	12875
917.938	12749
918.049	12639
918.161	12688
918.272	12802
918.384	12768
918.495	12707
918.606	12532
918.717	12433
918.828	12635
918.939	12585
919.05	12437
919.161	12532
919.272	12247
919.383	12365
919.494	12498
919.604	12639
919.715	12547
919.826	12330
919.936	12452
920.047	12445
920.157	12494
920.267	12570
920.378	12437
920.488	12475
920.598	12620
920.708	12821
920.818	12597
920.928	12707
921.038	12817
921.148	12768
921.258	12448
921.368	12426
921.477	12285
921.587	12258
921.697	12098
921.806	12311
921.916	12110
922.025	11961
922.134	11904
922.244	11847
922.353	11973
922.462	11843
922.571	11722
922.68	11581
922.789	11589
922.898	11577
923.007	11493
923.116	11653
923.224	11573
923.333	11570
923.442	11440
923.55	11463
923.659	11421
923.767	11490
923.876	11315
923.984	11482
924.092	11395
924.201	11379
924.309	11341
924.417	11440
924.525	11189
924.633	11349
924.741	12273
924.849	11147
924.956	11322
925.064	11090
925.172	11109
925.279	11136
925.387	11189
925.494	11128
925.602	11303
925.709	11204
925.816	11067
925.924	11140
926.031	11162
926.138	11060
926.245	11155
926.352	10965
926.459	11143
926.566	11181
926.673	10961
926.779	10847
926.886	10892
926.993	10778
927.099	10790
927.206	10672
927.312	10740
927.419	10752
927.525	10740
927.631	10809
927.737	10660
927.843	10622
927.95	10535
928.056	10672
928.162	10634
928.267	10637
928.373	11337
928.479	10672
928.585	10466
928.69	10497
928.796	10580
928.901	10512
929.007	10405
929.112	10440
929.218	10508
929.323	10379
929.428	10291
929.533	10451
929.638	10318
929.743	10344
929.848	10337
929.953	10325
930.058	10276
930.163	10086
930.267	10188
930.372	10158
930.477	10082
930.581	10284
930.685	10074
930.79	9983
930.894	10006
930.998	9994
931.103	10025
931.207	9816
931.311	9728
931.415	9584
931.519	9401
931.623	9363
