Data from test_V78500241_2191.txt Node
Date: Fri Mar 25 14:48:58 CST 2022
User: usil
Spectrometer: V785-0024
Trigger mode: 0
Integration Time (sec): 4.000000E-1
Scans to average: 1
Nonlinearity correction enabled: false
Boxcar width: 0
Storing dark spectrum: false
XAxis mode: Wavelengths
Number of Pixels in Spectrum: 1024
>>>>>Begin Spectral Data<<<<<
801.071	22166
801.214	22051
801.356	21770
801.499	21637
801.641	21545
801.783	21435
801.926	21595
802.068	21450
802.211	21424
802.353	21382
802.496	21207
802.638	21058
802.78	20921
802.923	20906
803.065	20819
803.208	20861
803.35	20967
803.492	20899
803.635	21036
803.777	20845
803.919	20933
804.061	21154
804.204	21001
804.346	20670
804.488	20750
804.63	20906
804.773	20686
804.915	20842
805.057	20910
805.199	20705
805.341	20781
805.483	20826
805.626	20868
805.768	20750
805.91	20701
806.052	20815
806.194	20765
806.336	21017
806.478	20765
806.62	20689
806.762	20819
806.904	21009
807.046	21161
807.188	21161
807.33	21157
807.472	21112
807.614	21017
807.756	21108
807.898	20921
808.04	20849
808.182	20864
808.324	20872
808.465	20986
808.607	21104
808.749	21096
808.891	21180
809.033	21359
809.174	21161
809.316	21096
809.458	21173
809.6	21036
809.741	21291
809.883	21336
810.025	21435
810.166	21317
810.308	21332
810.45	21260
810.591	21184
810.733	21116
810.875	20872
811.016	20921
811.158	20834
811.299	20918
811.441	21013
811.582	20891
811.724	20986
811.865	20819
812.007	20857
812.148	20979
812.29	20883
812.431	21047
812.573	21203
812.714	21252
812.855	21412
812.997	21504
813.138	21622
813.279	21523
813.421	21340
813.562	21340
813.703	21176
813.845	21013
813.986	20765
814.127	20651
814.268	20556
814.41	20457
814.551	20419
814.692	20564
814.833	20465
814.974	20438
815.115	20377
815.256	20339
815.397	20240
815.539	20347
815.68	20214
815.821	20187
815.962	20278
816.103	20153
816.244	20096
816.385	19997
816.526	19833
816.666	19723
816.807	19723
816.948	19769
817.089	19655
817.23	19651
817.371	19685
817.512	19670
817.653	19635
817.793	19582
817.934	19510
818.075	19685
818.216	19639
818.356	19571
818.497	19586
818.638	19350
818.778	19365
818.919	19316
819.06	19392
819.2	19301
819.341	19396
819.481	19434
819.622	19620
819.762	19864
819.903	19769
820.043	19757
820.184	19571
820.324	19632
820.465	19658
820.605	19559
820.746	19556
820.886	19559
821.026	19582
821.167	19563
821.307	19750
821.447	19514
821.588	19487
821.728	19289
821.868	19076
822.008	19164
822.149	19012
822.289	18916
822.429	18726
822.569	18627
822.709	18616
822.849	18437
822.99	18570
823.13	18456
823.27	18426
823.41	18372
823.55	18197
823.69	18289
823.83	18323
823.97	18190
824.11	17996
824.25	18003
824.389	18026
824.529	18300
824.669	18003
824.809	18117
824.949	18095
825.089	18083
825.228	18152
825.368	17889
825.508	17939
825.648	17847
825.787	17893
825.927	17855
826.067	17805
826.206	17710
826.346	17904
826.485	17859
826.625	17847
826.765	17874
826.904	17817
827.044	17589
827.183	17642
827.323	17524
827.462	17516
827.601	17539
827.741	17455
827.88	17661
828.02	17417
828.159	17524
828.298	17566
828.437	17653
828.577	17512
828.716	17585
828.855	17463
828.994	17181
829.134	17288
829.273	17330
829.412	17326
829.551	17181
829.69	17185
829.829	17326
829.968	17334
830.107	17307
830.246	17356
830.385	17299
830.524	17151
830.663	17083
830.802	17022
830.941	16828
831.08	16797
831.219	17022
831.357	16885
831.496	17113
831.635	16831
831.774	16790
831.913	16668
832.051	16687
832.19	16774
832.329	16755
832.467	16687
832.606	16554
832.744	16478
832.883	16656
833.022	16512
833.16	16698
833.299	16679
833.437	16455
833.576	16736
833.714	16660
833.852	16622
833.991	16702
834.129	16793
834.267	16637
834.406	16637
834.544	16584
834.682	16744
834.821	16725
834.959	16774
835.097	16634
835.235	16706
835.373	16713
835.511	16637
835.65	16565
835.788	16573
835.926	16447
836.064	16295
836.202	16322
836.34	16596
836.478	16615
836.615	16481
836.753	16512
836.891	16607
837.029	16550
837.167	16402
837.305	16322
837.443	16478
837.58	16341
837.718	16519
837.856	16337
837.993	16284
838.131	16329
838.269	16402
838.406	16417
838.544	16303
838.681	16169
838.819	16082
838.956	15956
839.094	15911
839.231	15964
839.369	16166
839.506	16367
839.643	16188
839.781	15937
839.918	15964
840.055	15922
840.193	15915
840.33	15945
840.467	15991
840.604	16010
840.742	16143
840.879	15770
841.016	15827
841.153	15873
841.29	16032
841.427	15918
841.564	15888
841.701	15888
841.838	15934
841.975	15789
842.112	15778
842.249	15846
842.385	15633
842.522	15861
842.659	15800
842.796	15747
842.933	15743
843.069	15644
843.206	15618
843.343	15751
843.479	15644
843.616	15789
843.752	15504
843.889	15599
844.025	15709
844.162	15492
844.298	15606
844.435	15485
844.571	15458
844.708	15458
844.844	15728
844.98	15667
845.117	15660
845.253	15397
845.389	15389
845.525	15424
845.661	15386
845.798	15230
845.934	15367
846.07	15252
846.206	15355
846.342	15458
846.478	15408
846.614	15195
846.75	15043
846.886	14925
847.022	15176
847.158	15009
847.294	15093
847.429	15017
847.565	15062
847.701	15283
847.837	14883
847.972	14762
848.108	14861
848.244	14845
848.379	14781
848.515	14735
848.65	14625
848.786	14689
848.921	14705
849.057	14777
849.192	14785
849.328	14800
849.463	14670
849.598	14632
849.734	14598
849.869	14522
850.004	14526
850.14	14571
850.275	14465
850.41	14298
850.545	14358
850.68	14374
850.815	14461
850.95	14465
851.085	14537
851.22	14442
851.355	14499
851.49	14400
851.625	14381
851.76	14336
851.895	14423
852.03	14370
852.165	14446
852.299	14473
852.434	14613
852.569	14503
852.703	14522
852.838	14560
852.973	14552
853.107	14590
853.242	14400
853.376	14317
853.511	14172
853.645	14347
853.78	14511
853.914	14339
854.048	14278
854.183	14278
854.317	14358
854.451	14484
854.585	14328
854.72	14309
854.854	14358
854.988	14298
855.122	14233
855.256	14176
855.39	14256
855.524	14355
855.658	14301
855.792	14351
855.926	14358
856.06	14362
856.194	14339
856.327	14377
856.461	14317
856.595	14313
856.729	14240
856.862	14336
856.996	14374
857.13	14385
857.263	14480
857.397	14377
857.53	14324
857.664	14381
857.797	14358
857.931	14469
858.064	14400
858.197	14434
858.331	14332
858.464	14225
858.597	14050
858.731	14347
858.864	14339
858.997	14324
859.13	14271
859.263	14427
859.396	14351
859.529	14210
859.662	14305
859.795	14286
859.928	14301
860.061	14427
860.194	14514
860.327	14328
860.46	14271
860.592	14313
860.725	14503
860.858	14434
860.99	14385
861.123	14263
861.256	14252
861.388	14339
861.521	14796
861.653	14214
861.786	14103
861.918	14229
862.05	14202
862.183	14278
862.315	14290
862.447	14347
862.58	14355
862.712	14016
862.844	14050
862.976	14161
863.108	14214
863.24	14355
863.372	14016
863.504	14126
863.636	14092
863.768	14195
863.9	14073
864.032	13940
864.164	13982
864.296	14195
864.428	14187
864.559	14142
864.691	14134
864.823	14202
864.954	14126
865.086	14103
865.217	14016
865.349	14039
865.48	14046
865.612	14084
865.743	14210
865.875	14176
866.006	14081
866.137	14134
866.269	14050
866.4	14107
866.531	13978
866.662	14081
866.793	14043
866.924	14145
867.055	14168
867.186	14031
867.317	14062
867.448	13974
867.579	13993
867.71	13902
867.841	13947
867.972	14084
868.103	14092
868.233	14046
868.364	14088
868.495	14172
868.625	14271
868.756	14355
868.886	14229
869.017	14309
869.147	14450
869.278	14495
869.408	14286
869.539	14278
869.669	14362
869.799	14317
869.929	14408
870.06	14347
870.19	14613
870.32	14590
870.45	14629
870.58	14849
870.71	14899
870.84	14819
870.97	14686
871.1	14686
871.23	14834
871.36	14880
871.489	14773
871.619	14826
871.749	14849
871.879	15055
872.008	15036
872.138	14864
872.267	14910
872.397	14705
872.526	14731
872.656	14819
872.785	14754
872.915	14925
873.044	14941
873.173	14925
873.303	15047
873.432	14956
873.561	15028
873.69	14967
873.819	14948
873.948	15051
874.077	15024
874.206	14941
874.335	15028
874.464	15039
874.593	15260
874.722	15161
874.851	15291
874.979	15332
875.108	15317
875.237	15245
875.365	15142
875.494	15321
875.623	15397
875.751	15192
875.88	15272
876.008	15424
876.136	15412
876.265	15618
876.393	15857
876.521	15751
876.65	15709
876.778	15728
876.906	15709
877.034	15610
877.162	15682
877.29	15644
877.418	15694
877.546	15789
877.674	15686
877.802	15637
877.93	15682
878.058	15656
878.185	15603
878.313	15576
878.441	15705
878.568	15549
878.696	15564
878.824	15793
878.951	15739
879.079	15759
879.206	16021
879.333	15838
879.461	15774
879.588	15846
879.715	15960
879.842	15915
879.97	15800
880.097	15496
880.224	15587
880.351	15564
880.478	15564
880.605	15530
880.732	15523
880.859	15812
880.986	15660
881.112	15477
881.239	15405
881.366	15214
881.493	15165
881.619	15173
881.746	15169
881.872	15146
881.999	15146
882.125	15047
882.252	15294
882.378	15264
882.505	15252
882.631	15150
882.757	14982
882.883	15089
883.01	15024
883.136	15005
883.262	14853
883.388	14731
883.514	15081
883.64	15119
883.766	14963
883.892	14838
884.018	14769
884.143	15043
884.269	15081
884.395	14891
884.52	14727
884.646	14674
884.772	14746
884.897	14610
885.023	14720
885.148	14819
885.274	14887
885.399	14952
885.524	14773
885.65	14743
885.775	14686
885.9	14731
886.025	14849
886.15	14781
886.275	14697
886.4	14712
886.525	14712
886.65	14583
886.775	14598
886.9	14777
887.025	14990
887.149	14815
887.274	14495
887.399	14465
887.523	14511
887.648	14499
887.773	14442
887.897	14571
888.021	14556
888.146	14423
888.27	14583
888.395	14602
888.519	14625
888.643	14587
888.767	14640
888.891	14484
889.015	14355
889.139	14415
889.263	14457
889.387	14541
889.511	14625
889.635	14568
889.759	14438
889.883	14431
890.006	14431
890.13	14518
890.254	14320
890.377	14313
890.501	14248
890.624	14161
890.748	14240
890.871	14138
890.995	14050
891.118	13967
891.241	14145
891.364	14111
891.488	14210
891.611	14054
891.734	14210
891.857	14233
891.98	14134
892.103	14157
892.226	14119
892.349	14054
892.471	13989
892.594	14062
892.717	14134
892.839	14050
892.962	14153
893.085	14199
893.207	14092
893.33	14005
893.452	14058
893.575	14218
893.697	14031
893.819	14301
893.941	14358
894.064	14294
894.186	14031
894.308	14111
894.43	14252
894.552	14339
894.674	14244
894.796	14069
894.918	14199
895.04	14168
895.161	14328
895.283	14237
895.405	14210
895.526	14282
895.648	14248
895.769	14233
895.891	14328
896.012	14415
896.134	14309
896.255	14195
896.376	14187
896.498	14286
896.619	14328
896.74	14275
896.861	14400
896.982	14663
897.103	14731
897.224	14499
897.345	14484
897.466	14469
897.587	14602
897.708	14667
897.828	14625
897.949	14522
898.07	14385
898.19	14663
898.311	14674
898.431	14587
898.552	14579
898.672	14621
898.792	14640
898.913	14651
899.033	14503
899.153	14514
899.273	14404
899.393	14629
899.513	14503
899.633	14492
899.753	14427
899.873	14438
899.993	14545
900.113	14442
900.232	14594
900.352	14480
900.472	14404
900.591	14339
900.711	14404
900.83	14343
900.95	14480
901.069	14560
901.189	14301
901.308	14126
901.427	14092
901.546	13967
901.665	14088
901.784	14054
901.904	13868
902.023	13818
902.141	13639
902.26	13636
902.379	13651
902.498	13628
902.617	13552
902.735	13636
902.854	13483
902.973	13506
903.091	13259
903.21	13339
903.328	13373
903.446	13278
903.565	13179
903.683	13190
903.801	13103
903.919	13183
904.038	13202
904.156	13008
904.274	13095
904.392	12989
904.51	12920
904.627	12905
904.745	13065
904.863	13103
904.981	12741
905.098	12692
905.216	12669
905.334	12791
905.451	12802
905.569	12681
905.686	12757
905.803	12684
905.921	12429
906.038	12566
906.155	12486
906.272	12369
906.389	12384
906.506	12289
906.623	12300
906.74	12270
906.857	12148
906.974	12186
907.091	12376
907.208	12365
907.324	12350
907.441	12152
907.557	12057
907.674	12038
907.79	11916
907.907	11897
908.023	12095
908.139	12030
908.256	11984
908.372	12022
908.488	11855
908.604	11828
908.72	11809
908.836	11817
908.952	11802
909.068	11802
909.184	11824
909.3	11870
909.415	11798
909.531	11786
909.647	11589
909.762	11554
909.878	11478
909.993	11596
910.108	11535
910.224	11520
910.339	11630
910.454	11505
910.57	11322
910.685	11334
910.8	11581
910.915	11596
911.03	11391
911.145	11307
911.259	11178
911.374	11265
911.489	11124
911.604	11128
911.718	11029
911.833	11029
911.947	10946
912.062	10877
912.176	11029
912.291	11037
912.405	11048
912.519	11147
912.633	11273
912.748	11113
912.862	11010
912.976	10923
913.09	10812
913.204	10771
913.318	10854
913.431	10915
913.545	10938
913.659	10980
913.772	10889
913.886	10710
914	10736
914.113	10824
914.226	10866
914.34	10824
914.453	10660
914.566	10801
914.68	10744
914.793	10683
914.906	10558
915.019	10554
915.132	10485
915.245	10485
915.358	10535
915.47	10466
915.583	10577
915.696	10558
915.809	10729
915.921	10634
916.034	10538
916.146	10436
916.259	10371
916.371	10561
916.483	10504
916.595	10462
916.708	10451
916.82	10382
916.932	10474
917.044	10402
917.156	10402
917.268	10280
917.38	10287
917.491	10329
917.603	10333
917.715	10352
917.826	10413
917.938	10325
918.049	10246
918.161	10337
918.272	10459
918.384	10447
918.495	10390
918.606	10249
918.717	10181
918.828	10230
918.939	10249
919.05	10166
919.161	10196
919.272	10006
919.383	10093
919.494	10287
919.604	10390
919.715	10200
919.826	10177
919.936	10211
920.047	10284
920.157	10253
920.267	10478
920.378	10207
920.488	10242
920.598	10356
920.708	10573
920.818	10424
920.928	10497
921.038	10584
921.148	10508
921.258	10276
921.368	10185
921.477	10093
921.587	10078
921.697	9983
921.806	10029
921.916	9991
922.025	9823
922.134	9819
922.244	9831
922.353	9884
922.462	9732
922.571	9671
922.68	9420
922.789	9447
922.898	9492
923.007	9492
923.116	9469
923.224	9450
923.333	9473
923.442	9363
923.55	9291
923.659	9412
923.767	9424
923.876	9340
923.984	9454
924.092	9264
924.201	9397
924.309	9329
924.417	9367
924.525	9268
924.633	9279
924.741	10310
924.849	9108
924.956	9230
925.064	9116
925.172	9017
925.279	9062
925.387	9173
925.494	9222
925.602	9218
925.709	9211
925.816	9039
925.924	9104
926.031	9249
926.138	9154
926.245	9260
926.352	9055
926.459	9173
926.566	9264
926.673	9150
926.779	8960
926.886	9017
926.993	8861
927.099	8883
927.206	8845
927.312	8804
927.419	8838
927.525	8883
927.631	8883
927.737	8815
927.843	8766
927.95	8613
928.056	8750
928.162	8762
928.267	8807
928.373	9439
928.479	8819
928.585	8655
928.69	8716
928.796	8796
928.901	8667
929.007	8499
929.112	8659
929.218	8659
929.323	8575
929.428	8530
929.533	8727
929.638	8492
929.743	8583
929.848	8537
929.953	8530
930.058	8514
930.163	8366
930.267	8332
930.372	8541
930.477	8298
930.581	8549
930.685	8362
930.79	8252
930.894	8309
930.998	8279
931.103	8431
931.207	8031
931.311	7978
931.415	7967
931.519	7727
931.623	7826
