Data from test_V78500241_1819.txt Node
Date: Fri Mar 25 14:46:22 CST 2022
User: usil
Spectrometer: V785-0024
Trigger mode: 0
Integration Time (sec): 4.000000E-1
Scans to average: 1
Nonlinearity correction enabled: false
Boxcar width: 0
Storing dark spectrum: false
XAxis mode: Wavelengths
Number of Pixels in Spectrum: 1024
>>>>>Begin Spectral Data<<<<<
801.071	22017
801.214	22044
801.356	21941
801.499	21766
801.641	21530
801.783	21397
801.926	21469
802.068	21564
802.211	21420
802.353	21355
802.496	21176
802.638	20982
802.78	20929
802.923	21013
803.065	20895
803.208	20868
803.35	20914
803.492	21066
803.635	21108
803.777	20830
803.919	20906
804.061	21256
804.204	20902
804.346	20838
804.488	20686
804.63	20804
804.773	20765
804.915	20754
805.057	20880
805.199	20849
805.341	20792
805.483	20971
805.626	20857
805.768	20724
805.91	20830
806.052	20842
806.194	20727
806.336	20910
806.478	20701
806.62	20838
806.762	20773
806.904	20960
807.046	21089
807.188	21112
807.33	21150
807.472	21173
807.614	20979
807.756	21157
807.898	20944
808.04	20804
808.182	20948
808.324	20807
808.465	20891
808.607	20929
808.749	21230
808.891	21298
809.033	21313
809.174	21207
809.316	21150
809.458	21195
809.6	21138
809.741	21218
809.883	21344
810.025	21466
810.166	21336
810.308	21218
810.45	21370
810.591	21268
810.733	21096
810.875	20876
811.016	20929
811.158	20765
811.299	21070
811.441	21020
811.582	21017
811.724	20895
811.865	20910
812.007	20921
812.148	20998
812.29	20963
812.431	21161
812.573	21237
812.714	21317
812.855	21538
812.997	21519
813.138	21667
813.279	21477
813.421	21507
813.562	21332
813.703	21313
813.845	21074
813.986	20815
814.127	20682
814.268	20602
814.41	20499
814.551	20590
814.692	20495
814.833	20385
814.974	20396
815.115	20533
815.256	20206
815.397	20389
815.539	20286
815.68	20126
815.821	20210
815.962	20187
816.103	20244
816.244	20084
816.385	19947
816.526	19898
816.666	19814
816.807	19700
816.948	19833
817.089	19811
817.23	19662
817.371	19628
817.512	19571
817.653	19597
817.793	19674
817.934	19590
818.075	19586
818.216	19590
818.356	19624
818.497	19487
818.638	19209
818.778	19377
818.919	19400
819.06	19388
819.2	19438
819.341	19525
819.481	19594
819.622	19655
819.762	19769
819.903	19788
820.043	19670
820.184	19696
820.324	19559
820.465	19689
820.605	19620
820.746	19658
820.886	19502
821.026	19571
821.167	19594
821.307	19712
821.447	19487
821.588	19411
821.728	19312
821.868	19145
822.008	19084
822.149	19057
822.289	18928
822.429	18814
822.569	18787
822.709	18612
822.849	18559
822.99	18521
823.13	18445
823.27	18464
823.41	18319
823.55	18232
823.69	18361
823.83	18361
823.97	18186
824.11	18095
824.25	18136
824.389	18038
824.529	18163
824.669	18098
824.809	18190
824.949	18163
825.089	18140
825.228	18121
825.368	17942
825.508	18026
825.648	17950
825.787	17813
825.927	17836
826.067	17889
826.206	17817
826.346	17912
826.485	17977
826.625	17912
826.765	17958
826.904	17950
827.044	17691
827.183	17649
827.323	17505
827.462	17687
827.601	17520
827.741	17661
827.88	17623
828.02	17516
828.159	17532
828.298	17729
828.437	17680
828.577	17482
828.716	17889
828.855	17562
828.994	17421
829.134	17379
829.273	17471
829.412	17326
829.551	17212
829.69	17296
829.829	17406
829.968	17592
830.107	17463
830.246	17280
830.385	17223
830.524	17200
830.663	17170
830.802	17231
830.941	16942
831.08	16942
831.219	17060
831.357	16957
831.496	17155
831.635	16957
831.774	16828
831.913	16881
832.051	16771
832.19	16736
832.329	16778
832.467	16675
832.606	16538
832.744	16698
832.883	16664
833.022	16599
833.16	16653
833.299	16710
833.437	16668
833.576	16793
833.714	16778
833.852	16694
833.991	16782
834.129	16793
834.267	16847
834.406	16710
834.544	16797
834.682	16790
834.821	16592
834.959	16790
835.097	16702
835.235	16809
835.373	16672
835.511	16767
835.65	16664
835.788	16668
835.926	16508
836.064	16375
836.202	16390
836.34	16675
836.478	16675
836.615	16527
836.753	16675
836.891	16713
837.029	16599
837.167	16523
837.305	16523
837.443	16519
837.58	16485
837.718	16489
837.856	16455
837.993	16447
838.131	16386
838.269	16398
838.406	16409
838.544	16257
838.681	16314
838.819	16276
838.956	16067
839.094	16002
839.231	16154
839.369	16188
839.506	16462
839.643	16325
839.781	16124
839.918	15964
840.055	16036
840.193	16048
840.33	16097
840.467	16067
840.604	15968
840.742	16242
840.879	15869
841.016	16032
841.153	15930
841.29	16071
841.427	16090
841.564	16074
841.701	16272
841.838	16082
841.975	15956
842.112	15956
842.249	15869
842.385	15720
842.522	15972
842.659	15842
842.796	15823
842.933	15793
843.069	15789
843.206	15625
843.343	15850
843.479	15736
843.616	15797
843.752	15629
843.889	15675
844.025	15778
844.162	15641
844.298	15736
844.435	15557
844.571	15629
844.708	15606
844.844	15743
844.98	15694
845.117	15789
845.253	15526
845.389	15458
845.525	15523
845.661	15641
845.798	15374
845.934	15340
846.07	15386
846.206	15469
846.342	15553
846.478	15378
846.614	15294
846.75	14990
846.886	15104
847.022	15233
847.158	15138
847.294	15218
847.429	15195
847.565	15116
847.701	15420
847.837	15058
847.972	14956
848.108	14967
848.244	14891
848.379	14902
848.515	14735
848.65	14834
848.786	14830
848.921	14769
849.057	14815
849.192	14864
849.328	14815
849.463	14830
849.598	14625
849.734	14743
849.869	14579
850.004	14568
850.14	14560
850.275	14549
850.41	14518
850.545	14507
850.68	14446
850.815	14526
850.95	14655
851.085	14705
851.22	14560
851.355	14522
851.49	14522
851.625	14423
851.76	14537
851.895	14461
852.03	14465
852.165	14454
852.299	14625
852.434	14621
852.569	14590
852.703	14518
852.838	14621
852.973	14651
853.107	14648
853.242	14473
853.376	14434
853.511	14343
853.645	14347
853.78	14438
853.914	14446
854.048	14320
854.183	14381
854.317	14396
854.451	14594
854.585	14339
854.72	14385
854.854	14404
854.988	14324
855.122	14362
855.256	14278
855.39	14294
855.524	14461
855.658	14457
855.792	14419
855.926	14412
856.06	14492
856.194	14434
856.327	14423
856.461	14336
856.595	14343
856.729	14324
856.862	14419
856.996	14408
857.13	14465
857.263	14571
857.397	14514
857.53	14374
857.664	14404
857.797	14518
857.931	14594
858.064	14457
858.197	14499
858.331	14400
858.464	14336
858.597	14309
858.731	14419
858.864	14343
858.997	14522
859.13	14438
859.263	14393
859.396	14583
859.529	14412
859.662	14336
859.795	14408
859.928	14415
860.061	14533
860.194	14579
860.327	14381
860.46	14351
860.592	14484
860.725	14495
860.858	14465
860.99	14332
861.123	14358
861.256	14396
861.388	14446
861.521	14967
861.653	14328
861.786	14221
861.918	14271
862.05	14313
862.183	14358
862.315	14347
862.447	14450
862.58	14309
862.712	14134
862.844	14202
862.976	14259
863.108	14183
863.24	14514
863.372	14111
863.504	14111
863.636	14092
863.768	14237
863.9	14130
864.032	14138
864.164	14157
864.296	14176
864.428	14324
864.559	14244
864.691	14343
864.823	14252
864.954	14180
865.086	14180
865.217	14176
865.349	13993
865.48	14164
865.612	14161
865.743	14278
865.875	14168
866.006	14092
866.137	14259
866.269	14172
866.4	14145
866.531	14046
866.662	14138
866.793	14111
866.924	14088
867.055	14180
867.186	14107
867.317	14077
867.448	14126
867.579	14069
867.71	14016
867.841	14096
867.972	14142
868.103	14142
868.233	14149
868.364	14111
868.495	14240
868.625	14461
868.756	14446
868.886	14339
869.017	14332
869.147	14492
869.278	14537
869.408	14423
869.539	14370
869.669	14442
869.799	14480
869.929	14503
870.06	14492
870.19	14712
870.32	14716
870.45	14792
870.58	14781
870.71	14914
870.84	14804
870.97	14834
871.1	14746
871.23	14948
871.36	14963
871.489	14956
871.619	14952
871.749	15017
871.879	15058
872.008	15062
872.138	15020
872.267	14990
872.397	14895
872.526	14906
872.656	14842
872.785	14899
872.915	14914
873.044	15142
873.173	15116
873.303	15184
873.432	15051
873.561	15192
873.69	15009
873.819	15024
873.948	15085
874.077	15169
874.206	15055
874.335	15173
874.464	15306
874.593	15393
874.722	15230
874.851	15458
874.979	15462
875.108	15420
875.237	15272
875.365	15283
875.494	15317
875.623	15538
875.751	15283
875.88	15367
876.008	15534
876.136	15633
876.265	15717
876.393	15934
876.521	15880
876.65	15857
876.778	15797
876.906	15739
877.034	15671
877.162	15709
877.29	15717
877.418	15648
877.546	15819
877.674	15728
877.802	15827
877.93	15717
878.058	15736
878.185	15686
878.313	15667
878.441	15816
878.568	15656
878.696	15850
878.824	15701
878.951	15876
879.079	15903
879.206	16109
879.333	16048
879.461	15827
879.588	15880
879.715	15960
879.842	16109
879.97	15903
880.097	15671
880.224	15656
880.351	15671
880.478	15652
880.605	15690
880.732	15614
880.859	15934
880.986	15595
881.112	15705
881.239	15557
881.366	15405
881.493	15431
881.619	15256
881.746	15222
881.872	15279
881.999	15237
882.125	15154
882.252	15306
882.378	15275
882.505	15370
882.631	15173
882.757	15062
882.883	15192
883.01	15146
883.136	15097
883.262	14982
883.388	14937
883.514	15051
883.64	15100
883.766	15009
883.892	14902
884.018	15039
884.143	15043
884.269	15199
884.395	14895
884.52	14811
884.646	14815
884.772	14743
884.897	14735
885.023	14777
885.148	14853
885.274	15005
885.399	14960
885.524	14853
885.65	14834
885.775	14883
885.9	14781
886.025	14960
886.15	14887
886.275	14663
886.4	14663
886.525	14693
886.65	14678
886.775	14731
886.9	14910
887.025	14952
887.149	14853
887.274	14655
887.399	14670
887.523	14644
887.648	14518
887.773	14507
887.897	14724
888.021	14598
888.146	14533
888.27	14781
888.395	14796
888.519	14716
888.643	14621
888.767	14746
888.891	14594
889.015	14442
889.139	14514
889.263	14438
889.387	14568
889.511	14720
889.635	14629
889.759	14476
889.883	14419
890.006	14511
890.13	14640
890.254	14393
890.377	14454
890.501	14362
890.624	14385
890.748	14351
890.871	14332
890.995	14096
891.118	14069
891.241	14172
891.364	14149
891.488	14256
891.611	14142
891.734	14180
891.857	14278
891.98	14202
892.103	14172
892.226	14267
892.349	14050
892.471	14008
892.594	14081
892.717	14221
892.839	14119
892.962	14183
893.085	14259
893.207	14214
893.33	14096
893.452	14145
893.575	14199
893.697	14218
893.819	14381
893.941	14275
894.064	14286
894.186	14202
894.308	14218
894.43	14294
894.552	14385
894.674	14278
894.796	14240
894.918	14199
895.04	14252
895.161	14332
895.283	14225
895.405	14233
895.526	14202
895.648	14324
895.769	14248
895.891	14377
896.012	14442
896.134	14370
896.255	14347
896.376	14366
896.498	14385
896.619	14404
896.74	14412
896.861	14442
896.982	14670
897.103	14861
897.224	14701
897.345	14644
897.466	14511
897.587	14629
897.708	14708
897.828	14720
897.949	14629
898.07	14526
898.19	14629
898.311	14705
898.431	14678
898.552	14625
898.672	14800
898.792	14895
898.913	14708
899.033	14636
899.153	14503
899.273	14537
899.393	14583
899.513	14640
899.633	14556
899.753	14507
899.873	14499
899.993	14625
900.113	14552
900.232	14651
900.352	14602
900.472	14469
900.591	14385
900.711	14469
900.83	14400
900.95	14549
901.069	14590
901.189	14336
901.308	14138
901.427	14130
901.546	14096
901.665	14180
901.784	14153
901.904	14016
902.023	13921
902.141	13738
902.26	13666
902.379	13761
902.498	13605
902.617	13613
902.735	13791
902.854	13655
902.973	13586
903.091	13537
903.21	13388
903.328	13365
903.446	13327
903.565	13206
903.683	13194
903.801	13137
903.919	13209
904.038	13114
904.156	13084
904.274	13118
904.392	13053
904.51	13008
904.627	13072
904.745	13046
904.863	12996
904.981	12814
905.098	12817
905.216	12787
905.334	12760
905.451	12734
905.569	12707
905.686	12772
905.803	12745
905.921	12585
906.038	12620
906.155	12570
906.272	12445
906.389	12547
906.506	12407
906.623	12281
906.74	12319
906.857	12175
906.974	12239
907.091	12369
907.208	12532
907.324	12281
907.441	12235
907.557	12045
907.674	12129
907.79	11916
907.907	12022
908.023	12076
908.139	12011
908.256	11923
908.372	11984
908.488	11889
908.604	11874
908.72	11828
908.836	11771
908.952	11821
909.068	11832
909.184	11927
909.3	11851
909.415	11859
909.531	11847
909.647	11718
909.762	11596
909.878	11589
909.993	11672
910.108	11562
910.224	11562
910.339	11570
910.454	11474
910.57	11471
910.685	11356
910.8	11566
910.915	11528
911.03	11471
911.145	11318
911.259	11356
911.374	11326
911.489	11242
911.604	11208
911.718	10938
911.833	11136
911.947	10930
912.062	10930
912.176	11067
912.291	11014
912.405	11064
912.519	11223
912.633	11162
912.748	11079
912.862	11086
912.976	10915
913.09	10915
913.204	10858
913.318	10915
913.431	10961
913.545	11060
913.659	11071
913.772	10946
913.886	10892
914	10866
914.113	10892
914.226	10908
914.34	10835
914.453	10790
914.566	10869
914.68	10774
914.793	10816
914.906	10550
915.019	10497
915.132	10428
915.245	10550
915.358	10599
915.47	10622
915.583	10607
915.696	10497
915.809	10656
915.921	10664
916.034	10455
916.146	10554
916.259	10500
916.371	10554
916.483	10497
916.595	10455
916.708	10538
916.82	10497
916.932	10440
917.044	10337
917.156	10455
917.268	10314
917.38	10409
917.491	10314
917.603	10417
917.715	10402
917.826	10516
917.938	10352
918.049	10299
918.161	10348
918.272	10474
918.384	10504
918.495	10341
918.606	10211
918.717	10200
918.828	10325
918.939	10352
919.05	10139
919.161	10257
919.272	10006
919.383	10093
919.494	10337
919.604	10466
919.715	10318
919.826	10200
919.936	10177
920.047	10417
920.157	10276
920.267	10447
920.378	10337
920.488	10246
920.598	10554
920.708	10641
920.818	10523
920.928	10440
921.038	10599
921.148	10592
921.258	10344
921.368	10227
921.477	10169
921.587	10154
921.697	10078
921.806	10150
921.916	10059
922.025	9899
922.134	9831
922.244	9808
922.353	9816
922.462	9671
922.571	9614
922.68	9454
922.789	9572
922.898	9466
923.007	9466
923.116	9507
923.224	9412
923.333	9492
923.442	9367
923.55	9450
923.659	9462
923.767	9386
923.876	9367
923.984	9416
924.092	9325
924.201	9340
924.309	9458
924.417	9412
924.525	9317
924.633	9348
924.741	10280
924.849	9146
924.956	9332
925.064	9188
925.172	9104
925.279	9127
925.387	9176
925.494	9222
925.602	9294
925.709	9275
925.816	9138
925.924	9184
926.031	9332
926.138	9142
926.245	9283
926.352	9123
926.459	9306
926.566	9275
926.673	9157
926.779	9062
926.886	9074
926.993	8948
927.099	8823
927.206	8864
927.312	8800
927.419	8902
927.525	8906
927.631	8902
927.737	8792
927.843	8823
927.95	8655
928.056	8834
928.162	8766
928.267	8811
928.373	9507
928.479	8918
928.585	8610
928.69	8758
928.796	8785
928.901	8686
929.007	8693
929.112	8716
929.218	8705
929.323	8606
929.428	8598
929.533	8682
929.638	8526
929.743	8594
929.848	8640
929.953	8625
930.058	8495
930.163	8366
930.267	8339
930.372	8503
930.477	8366
930.581	8571
930.685	8465
930.79	8290
930.894	8396
930.998	8355
931.103	8488
931.207	8126
931.311	8081
931.415	8020
931.519	7750
931.623	7849
