Data from test_V78500241_1262.txt Node
Date: Fri Mar 25 14:42:30 CST 2022
User: usil
Spectrometer: V785-0024
Trigger mode: 0
Integration Time (sec): 4.000000E-1
Scans to average: 1
Nonlinearity correction enabled: false
Boxcar width: 0
Storing dark spectrum: false
XAxis mode: Wavelengths
Number of Pixels in Spectrum: 1024
>>>>>Begin Spectral Data<<<<<
801.071	22440
801.214	22192
801.356	22082
801.499	21876
801.641	21732
801.783	21797
801.926	21762
802.068	21686
802.211	21660
802.353	21526
802.496	21302
802.638	21237
802.78	21317
802.923	21195
803.065	21074
803.208	21024
803.35	21150
803.492	21184
803.635	21161
803.777	21184
803.919	21146
804.061	21466
804.204	21119
804.346	21032
804.488	21005
804.63	20971
804.773	20891
804.915	20990
805.057	21192
805.199	21024
805.341	21157
805.483	21062
805.626	21024
805.768	20971
805.91	20906
806.052	20937
806.194	20925
806.336	21074
806.478	20967
806.62	20956
806.762	21127
806.904	21146
807.046	21443
807.188	21268
807.33	21275
807.472	21397
807.614	21294
807.756	21336
807.898	21161
808.04	21127
808.182	21142
808.324	21104
808.465	21230
808.607	21363
808.749	21447
808.891	21591
809.033	21656
809.174	21595
809.316	21435
809.458	21412
809.6	21450
809.741	21466
809.883	21485
810.025	21496
810.166	21568
810.308	21500
810.45	21515
810.591	21405
810.733	21291
810.875	21249
811.016	21013
811.158	21112
811.299	21207
811.441	21321
811.582	21329
811.724	21085
811.865	21180
812.007	21150
812.148	21203
812.29	21203
812.431	21344
812.573	21401
812.714	21583
812.855	21720
812.997	21759
813.138	21812
813.279	21831
813.421	21747
813.562	21454
813.703	21405
813.845	21488
813.986	21051
814.127	20804
814.268	20773
814.41	20689
814.551	20667
814.692	20773
814.833	20545
814.974	20617
815.115	20541
815.256	20461
815.397	20659
815.539	20674
815.68	20476
815.821	20389
815.962	20492
816.103	20358
816.244	20286
816.385	20176
816.526	20282
816.666	20077
816.807	19890
816.948	19986
817.089	20035
817.23	19993
817.371	19837
817.512	19860
817.653	19841
817.793	19826
817.934	19902
818.075	19917
818.216	19856
818.356	19780
818.497	19734
818.638	19483
818.778	19559
818.919	19624
819.06	19537
819.2	19757
819.341	19776
819.481	19723
819.622	19955
819.762	20050
819.903	19955
820.043	19917
820.184	19753
820.324	19925
820.465	19864
820.605	19860
820.746	19723
820.886	19742
821.026	19772
821.167	19772
821.307	19974
821.447	19712
821.588	19674
821.728	19502
821.868	19499
822.008	19133
822.149	19232
822.289	19129
822.429	19012
822.569	19042
822.709	18985
822.849	18798
822.99	18745
823.13	18677
823.27	18635
823.41	18551
823.55	18627
823.69	18616
823.83	18551
823.97	18509
824.11	18319
824.25	18281
824.389	18494
824.529	18369
824.669	18369
824.809	18350
824.949	18391
825.089	18273
825.228	18403
825.368	18213
825.508	18110
825.648	18243
825.787	18243
825.927	18251
826.067	18045
826.206	18022
826.346	18087
826.485	18041
826.625	18064
826.765	18239
826.904	18091
827.044	17927
827.183	17912
827.323	17832
827.462	17969
827.601	17893
827.741	17756
827.88	17824
828.02	17687
828.159	17809
828.298	17874
828.437	17878
828.577	17882
828.716	17977
828.855	17805
828.994	17676
829.134	17562
829.273	17604
829.412	17589
829.551	17528
829.69	17509
829.829	17600
829.968	17764
830.107	17604
830.246	17562
830.385	17493
830.524	17547
830.663	17299
830.802	17387
830.941	17227
831.08	17094
831.219	17231
831.357	17181
831.496	17482
831.635	17178
831.774	17140
831.913	16999
832.051	17064
832.19	16900
832.329	17136
832.467	16908
832.606	16866
832.744	16885
832.883	16957
833.022	16942
833.16	16877
833.299	16923
833.437	16938
833.576	16980
833.714	16934
833.852	17094
833.991	17006
834.129	16908
834.267	16968
834.406	16934
834.544	17029
834.682	16961
834.821	16972
834.959	17136
835.097	16885
835.235	16900
835.373	16892
835.511	16938
835.65	16984
835.788	16896
835.926	16713
836.064	16744
836.202	16733
836.34	16862
836.478	16927
836.615	16809
836.753	16862
836.891	16938
837.029	16953
837.167	16877
837.305	16717
837.443	16736
837.58	16626
837.718	16839
837.856	16721
837.993	16584
838.131	16793
838.269	16706
838.406	16622
838.544	16535
838.681	16478
838.819	16417
838.956	16246
839.094	16276
839.231	16352
839.369	16462
839.506	16668
839.643	16554
839.781	16337
839.918	16337
840.055	16398
840.193	16295
840.33	16303
840.467	16291
840.604	16261
840.742	16474
840.879	16200
841.016	16234
841.153	16177
841.29	16424
841.427	16268
841.564	16249
841.701	16306
841.838	16226
841.975	16158
842.112	16200
842.249	16131
842.385	16059
842.522	16173
842.659	16051
842.796	16051
842.933	16074
843.069	15926
843.206	16063
843.343	16067
843.479	16112
843.616	16124
843.752	15835
843.889	15800
844.025	15983
844.162	15823
844.298	15934
844.435	15831
844.571	15797
844.708	15785
844.844	15983
844.98	15941
845.117	15953
845.253	15823
845.389	15762
845.525	15827
845.661	15705
845.798	15739
845.934	15812
846.07	15686
846.206	15835
846.342	15949
846.478	15759
846.614	15515
846.75	15405
846.886	15317
847.022	15519
847.158	15477
847.294	15408
847.429	15469
847.565	15359
847.701	15720
847.837	15176
847.972	15074
848.108	15256
848.244	15294
848.379	15085
848.515	14982
848.65	14891
848.786	14963
848.921	14979
849.057	15116
849.192	15062
849.328	14956
849.463	15074
849.598	14967
849.734	14971
849.869	14952
850.004	14762
850.14	14834
850.275	14899
850.41	14625
850.545	14811
850.68	14705
850.815	14811
850.95	14773
851.085	15028
851.22	14823
851.355	14830
851.49	14807
851.625	14758
851.76	14697
851.895	14632
852.03	14670
852.165	14807
852.299	14765
852.434	14880
852.569	14834
852.703	14792
852.838	14861
852.973	14861
853.107	14861
853.242	14785
853.376	14705
853.511	14552
853.645	14606
853.78	14697
853.914	14590
854.048	14678
854.183	14648
854.317	14678
854.451	14804
854.585	14571
854.72	14644
854.854	14678
854.988	14541
855.122	14712
855.256	14484
855.39	14541
855.524	14769
855.658	14720
855.792	14606
855.926	14792
856.06	14785
856.194	14819
856.327	14495
856.461	14613
856.595	14648
856.729	14617
856.862	14781
856.996	14594
857.13	14670
857.263	14693
857.397	14819
857.53	14750
857.664	14697
857.797	14655
857.931	14781
858.064	14651
858.197	14800
858.331	14674
858.464	14579
858.597	14526
858.731	14632
858.864	14670
858.997	14514
859.13	14705
859.263	14727
859.396	14727
859.529	14617
859.662	14678
859.795	14636
859.928	14663
860.061	14853
860.194	14788
860.327	14655
860.46	14629
860.592	14644
860.725	14773
860.858	14811
860.99	14697
861.123	14629
861.256	14636
861.388	14636
861.521	15359
861.653	14503
861.786	14480
861.918	14511
862.05	14606
862.183	14602
862.315	14583
862.447	14602
862.58	14518
862.712	14484
862.844	14347
862.976	14537
863.108	14465
863.24	14929
863.372	14343
863.504	14404
863.636	14347
863.768	14533
863.9	14419
864.032	14351
864.164	14355
864.296	14465
864.428	14465
864.559	14533
864.691	14556
864.823	14415
864.954	14507
865.086	14423
865.217	14396
865.349	14366
865.48	14446
865.612	14423
865.743	14629
865.875	14396
866.006	14389
866.137	14412
866.269	14412
866.4	14366
866.531	14324
866.662	14366
866.793	14309
866.924	14278
867.055	14408
867.186	14389
867.317	14358
867.448	14332
867.579	14358
867.71	14301
867.841	14332
867.972	14355
868.103	14381
868.233	14419
868.364	14385
868.495	14389
868.625	14720
868.756	14701
868.886	14693
869.017	14602
869.147	14712
869.278	14804
869.408	14697
869.539	14670
869.669	14811
869.799	14708
869.929	14861
870.06	14682
870.19	14849
870.32	14811
870.45	14948
870.58	14982
870.71	15036
870.84	15176
870.97	14998
871.1	14986
871.23	15211
871.36	15256
871.489	15077
871.619	15302
871.749	15199
871.879	15230
872.008	15294
872.138	15241
872.267	15203
872.397	15142
872.526	15047
872.656	15043
872.785	15051
872.915	15313
873.044	15245
873.173	15363
873.303	15332
873.432	15310
873.561	15249
873.69	15329
873.819	15268
873.948	15370
874.077	15272
874.206	15268
874.335	15298
874.464	15458
874.593	15603
874.722	15572
874.851	15572
874.979	15580
875.108	15663
875.237	15492
875.365	15500
875.494	15534
875.623	15713
875.751	15561
875.88	15656
876.008	15781
876.136	15808
876.265	15998
876.393	16150
876.521	16067
876.65	16055
876.778	16040
876.906	16025
877.034	16013
877.162	15987
877.29	15934
877.418	15926
877.546	15998
877.674	16036
877.802	16093
877.93	16086
878.058	15968
878.185	15861
878.313	16059
878.441	16044
878.568	15797
878.696	15979
878.824	16059
878.951	16105
879.079	16219
879.206	16367
879.333	16276
879.461	16074
879.588	16120
879.715	16261
879.842	16363
879.97	16131
880.097	15956
880.224	15823
880.351	15876
880.478	15835
880.605	15869
880.732	15804
880.859	16097
880.986	15857
881.112	15876
881.239	15774
881.366	15701
881.493	15553
881.619	15473
881.746	15504
881.872	15481
881.999	15435
882.125	15515
882.252	15595
882.378	15591
882.505	15686
882.631	15447
882.757	15382
882.883	15378
883.01	15211
883.136	15336
883.262	15291
883.388	15184
883.514	15462
883.64	15393
883.766	15306
883.892	15100
884.018	15199
884.143	15306
884.269	15473
884.395	15081
884.52	15058
884.646	14944
884.772	14982
884.897	14994
885.023	15036
885.148	15119
885.274	15085
885.399	15184
885.524	15039
885.65	15070
885.775	15077
885.9	15104
886.025	15146
886.15	15138
886.275	14944
886.4	14994
886.525	14880
886.65	14967
886.775	15001
886.9	15146
887.025	15268
887.149	15051
887.274	14925
887.399	14937
887.523	14769
887.648	14807
887.773	14788
887.897	14883
888.021	14895
888.146	14925
888.27	14956
888.395	14979
888.519	14921
888.643	15009
888.767	14819
888.891	14788
889.015	14792
889.139	14651
889.263	14667
889.387	14834
889.511	14868
889.635	14967
889.759	14739
889.883	14708
890.006	14712
890.13	14804
890.254	14693
890.377	14712
890.501	14503
890.624	14507
890.748	14564
890.871	14499
890.995	14408
891.118	14324
891.241	14434
891.364	14415
891.488	14583
891.611	14434
891.734	14347
891.857	14514
891.98	14454
892.103	14499
892.226	14465
892.349	14362
892.471	14324
892.594	14275
892.717	14423
892.839	14431
892.962	14503
893.085	14613
893.207	14461
893.33	14244
893.452	14324
893.575	14533
893.697	14381
893.819	14556
893.941	14552
894.064	14587
894.186	14423
894.308	14317
894.43	14564
894.552	14648
894.674	14590
894.796	14305
894.918	14427
895.04	14423
895.161	14514
895.283	14476
895.405	14454
895.526	14511
895.648	14552
895.769	14518
895.891	14571
896.012	14632
896.134	14556
896.255	14495
896.376	14507
896.498	14533
896.619	14651
896.74	14552
896.861	14659
896.982	14868
897.103	14948
897.224	14899
897.345	14834
897.466	14697
897.587	14773
897.708	15013
897.828	14914
897.949	14716
898.07	14617
898.19	14853
898.311	14906
898.431	14891
898.552	14861
898.672	14918
898.792	15058
898.913	14979
899.033	14895
899.153	14655
899.273	14670
899.393	14739
899.513	14670
899.633	14777
899.753	14758
899.873	14705
899.993	14834
900.113	14743
900.232	14758
900.352	14678
900.472	14640
900.591	14568
900.711	14629
900.83	14552
900.95	14712
901.069	14708
901.189	14579
901.308	14298
901.427	14381
901.546	14259
901.665	14332
901.784	14229
901.904	14187
902.023	14081
902.141	13875
902.26	13845
902.379	13864
902.498	13841
902.617	13894
902.735	13830
902.854	13700
902.973	13841
903.091	13575
903.21	13590
903.328	13597
903.446	13441
903.565	13400
903.683	13453
903.801	13358
903.919	13362
904.038	13346
904.156	13240
904.274	13358
904.392	13198
904.51	13225
904.627	13282
904.745	13301
904.863	13259
904.981	13034
905.098	12928
905.216	12875
905.334	13008
905.451	12901
905.569	12817
905.686	12905
905.803	12897
905.921	12791
906.038	12916
906.155	12810
906.272	12639
906.389	12566
906.506	12521
906.623	12460
906.74	12525
906.857	12346
906.974	12407
907.091	12525
907.208	12582
907.324	12502
907.441	12414
907.557	12258
907.674	12311
907.79	12205
907.907	12247
908.023	12338
908.139	12251
908.256	12175
908.372	12216
908.488	12235
908.604	11958
908.72	11965
908.836	12038
908.952	11908
909.068	12003
909.184	12098
909.3	11988
909.415	12057
909.531	12076
909.647	11828
909.762	11790
909.878	11741
909.993	11809
910.108	11821
910.224	11699
910.339	11847
910.454	11646
910.57	11695
910.685	11604
910.8	11897
910.915	11752
911.03	11608
911.145	11463
911.259	11532
911.374	11421
911.489	11379
911.604	11353
911.718	11242
911.833	11185
911.947	11212
912.062	11094
912.176	11159
912.291	11250
912.405	11212
912.519	11436
912.633	11436
912.748	11387
912.862	11269
912.976	11105
913.09	10995
913.204	11079
913.318	11052
913.431	11246
913.545	11208
913.659	11235
913.772	11029
913.886	11025
914	10953
914.113	11048
914.226	11113
914.34	11147
914.453	10934
914.566	11052
914.68	10927
914.793	10934
914.906	10694
915.019	10748
915.132	10675
915.245	10687
915.358	10790
915.47	10714
915.583	10748
915.696	10816
915.809	10858
915.921	10862
916.034	10744
916.146	10615
916.259	10611
916.371	10778
916.483	10691
916.595	10645
916.708	10706
916.82	10611
916.932	10668
917.044	10592
917.156	10622
917.268	10531
917.38	10504
917.491	10584
917.603	10485
917.715	10653
917.826	10565
917.938	10512
918.049	10455
918.161	10580
918.272	10698
918.384	10641
918.495	10542
918.606	10440
918.717	10386
918.828	10421
918.939	10409
919.05	10375
919.161	10325
919.272	10215
919.383	10261
919.494	10440
919.604	10630
919.715	10455
919.826	10382
919.936	10436
920.047	10493
920.157	10443
920.267	10558
920.378	10470
920.488	10413
920.598	10672
920.708	10790
920.818	10634
920.928	10599
921.038	10729
921.148	10736
921.258	10447
921.368	10344
921.477	10265
921.587	10227
921.697	10185
921.806	10360
921.916	10116
922.025	10025
922.134	9937
922.244	9861
922.353	10051
922.462	9850
922.571	9705
922.68	9660
922.789	9595
922.898	9679
923.007	9663
923.116	9755
923.224	9701
923.333	9698
923.442	9587
923.55	9523
923.659	9523
923.767	9561
923.876	9500
923.984	9652
924.092	9507
924.201	9534
924.309	9534
924.417	9568
924.525	9435
924.633	9488
924.741	10265
924.849	9313
924.956	9496
925.064	9359
925.172	9287
925.279	9306
925.387	9287
925.494	9287
925.602	9454
925.709	9462
925.816	9287
925.924	9279
926.031	9340
926.138	9302
926.245	9321
926.352	9249
926.459	9344
926.566	9397
926.673	9332
926.779	9199
926.886	9169
926.993	9055
927.099	9055
927.206	8998
927.312	8971
927.419	9165
927.525	8990
927.631	9138
927.737	8910
927.843	8921
927.95	8834
928.056	8967
928.162	8899
928.267	9005
928.373	9568
928.479	9013
928.585	8792
928.69	8899
928.796	8979
928.901	8876
929.007	8712
929.112	8891
929.218	8785
929.323	8712
929.428	8811
929.533	8834
929.638	8670
929.743	8712
929.848	8697
929.953	8682
930.058	8674
930.163	8488
930.267	8484
930.372	8651
930.477	8518
930.581	8743
930.685	8575
930.79	8461
930.894	8461
930.998	8442
931.103	8556
931.207	8286
931.311	8195
931.415	8134
931.519	7875
931.623	7936
