Data from test_V78500241_1790.txt Node
Date: Fri Mar 25 14:46:10 CST 2022
User: usil
Spectrometer: V785-0024
Trigger mode: 0
Integration Time (sec): 4.000000E-1
Scans to average: 1
Nonlinearity correction enabled: false
Boxcar width: 0
Storing dark spectrum: false
XAxis mode: Wavelengths
Number of Pixels in Spectrum: 1024
>>>>>Begin Spectral Data<<<<<
801.071	22215
801.214	22021
801.356	21945
801.499	21656
801.641	21500
801.783	21458
801.926	21564
802.068	21428
802.211	21355
802.353	21374
802.496	21123
802.638	20975
802.78	21070
802.923	20826
803.065	20838
803.208	20800
803.35	20845
803.492	20811
803.635	20883
803.777	20777
803.919	20906
804.061	21146
804.204	20914
804.346	20773
804.488	20815
804.63	20830
804.773	20682
804.915	20811
805.057	20925
805.199	20819
805.341	20933
805.483	20952
805.626	20804
805.768	20769
805.91	20773
806.052	20887
806.194	20720
806.336	20963
806.478	20682
806.62	20724
806.762	20758
806.904	21009
807.046	21226
807.188	21131
807.33	21093
807.472	21112
807.614	21005
807.756	21051
807.898	20952
808.04	20880
808.182	20758
808.324	20929
808.465	20883
808.607	21055
808.749	21207
808.891	21222
809.033	21378
809.174	21226
809.316	21066
809.458	21226
809.6	21142
809.741	21195
809.883	21230
810.025	21348
810.166	21359
810.308	21443
810.45	21325
810.591	21108
810.733	21104
810.875	20819
811.016	20891
811.158	20754
811.299	20944
811.441	21203
811.582	21146
811.724	20963
811.865	21013
812.007	20876
812.148	20876
812.29	20826
812.431	21104
812.573	21321
812.714	21332
812.855	21458
812.997	21572
813.138	21618
813.279	21614
813.421	21454
813.562	21382
813.703	21211
813.845	21203
813.986	20785
814.127	20712
814.268	20492
814.41	20617
814.551	20602
814.692	20629
814.833	20564
814.974	20518
815.115	20518
815.256	20298
815.397	20404
815.539	20324
815.68	20202
815.821	20172
815.962	20244
816.103	20210
816.244	20115
816.385	19967
816.526	19944
816.666	19814
816.807	19772
816.948	19742
817.089	19727
817.23	19620
817.371	19685
817.512	19670
817.653	19544
817.793	19693
817.934	19734
818.075	19715
818.216	19575
818.356	19441
818.497	19464
818.638	19365
818.778	19339
818.919	19460
819.06	19285
819.2	19381
819.341	19510
819.481	19533
819.622	19647
819.762	19909
819.903	19799
820.043	19639
820.184	19514
820.324	19594
820.465	19635
820.605	19715
820.746	19601
820.886	19472
821.026	19525
821.167	19563
821.307	19666
821.447	19453
821.588	19480
821.728	19160
821.868	19266
822.008	18962
822.149	18970
822.289	18981
822.429	18787
822.569	18745
822.709	18612
822.849	18570
822.99	18540
823.13	18532
823.27	18460
823.41	18350
823.55	18194
823.69	18376
823.83	18228
823.97	18304
824.11	18110
824.25	18155
824.389	18034
824.529	18228
824.669	18098
824.809	18243
824.949	18220
825.089	18152
825.228	18079
825.368	17958
825.508	17851
825.648	17920
825.787	17927
825.927	17821
826.067	17916
826.206	17764
826.346	17828
826.485	17832
826.625	17878
826.765	17992
826.904	17946
827.044	17608
827.183	17615
827.323	17558
827.462	17497
827.601	17589
827.741	17482
827.88	17668
828.02	17501
828.159	17657
828.298	17573
828.437	17665
828.577	17474
828.716	17657
828.855	17493
828.994	17356
829.134	17353
829.273	17322
829.412	17277
829.551	17235
829.69	17231
829.829	17341
829.968	17417
830.107	17391
830.246	17341
830.385	17140
830.524	17178
830.663	17193
830.802	16991
830.941	16953
831.08	16828
831.219	17098
831.357	16968
831.496	17098
831.635	16896
831.774	16759
831.913	16820
832.051	16729
832.19	16637
832.329	16725
832.467	16660
832.606	16664
832.744	16679
832.883	16656
833.022	16668
833.16	16641
833.299	16691
833.437	16618
833.576	16733
833.714	16694
833.852	16649
833.991	16630
834.129	16706
834.267	16793
834.406	16660
834.544	16778
834.682	16774
834.821	16668
834.959	16904
835.097	16668
835.235	16744
835.373	16592
835.511	16683
835.65	16710
835.788	16645
835.926	16489
836.064	16390
836.202	16409
836.34	16637
836.478	16725
836.615	16561
836.753	16607
836.891	16561
837.029	16607
837.167	16573
837.305	16550
837.443	16459
837.58	16367
837.718	16577
837.856	16516
837.993	16352
838.131	16474
838.269	16443
838.406	16382
838.544	16341
838.681	16207
838.819	16067
838.956	16044
839.094	15907
839.231	16078
839.369	16200
839.506	16329
839.643	16265
839.781	15907
839.918	16021
840.055	16150
840.193	15968
840.33	15979
840.467	16105
840.604	16029
840.742	16177
840.879	15823
841.016	15865
841.153	15964
841.29	16177
841.427	15941
841.564	16036
841.701	16090
841.838	15949
841.975	15975
842.112	15941
842.249	15835
842.385	15690
842.522	15953
842.659	15743
842.796	15747
842.933	15781
843.069	15739
843.206	15679
843.343	15774
843.479	15823
843.616	15812
843.752	15557
843.889	15507
844.025	15663
844.162	15603
844.298	15591
844.435	15542
844.571	15572
844.708	15667
844.844	15724
844.98	15682
845.117	15778
845.253	15466
845.389	15443
845.525	15572
845.661	15466
845.798	15302
845.934	15443
846.07	15420
846.206	15424
846.342	15507
846.478	15443
846.614	15146
846.75	15009
846.886	15093
847.022	15195
847.158	15146
847.294	15150
847.429	15230
847.565	15123
847.701	15298
847.837	14883
847.972	14834
848.108	15062
848.244	14971
848.379	14743
848.515	14781
848.65	14632
848.786	14743
848.921	14716
849.057	14807
849.192	14929
849.328	14720
849.463	14712
849.598	14651
849.734	14682
849.869	14610
850.004	14594
850.14	14571
850.275	14484
850.41	14427
850.545	14438
850.68	14533
850.815	14507
850.95	14431
851.085	14712
851.22	14579
851.355	14499
851.49	14385
851.625	14476
851.76	14423
851.895	14377
852.03	14362
852.165	14377
852.299	14552
852.434	14503
852.569	14495
852.703	14457
852.838	14587
852.973	14636
853.107	14541
853.242	14621
853.376	14393
853.511	14275
853.645	14313
853.78	14412
853.914	14313
854.048	14347
854.183	14362
854.317	14412
854.451	14610
854.585	14358
854.72	14332
854.854	14427
854.988	14282
855.122	14225
855.256	14195
855.39	14343
855.524	14438
855.658	14324
855.792	14404
855.926	14374
856.06	14480
856.194	14499
856.327	14313
856.461	14336
856.595	14225
856.729	14317
856.862	14488
856.996	14381
857.13	14457
857.263	14545
857.397	14564
857.53	14332
857.664	14396
857.797	14469
857.931	14434
858.064	14423
858.197	14571
858.331	14339
858.464	14317
858.597	14271
858.731	14396
858.864	14396
858.997	14324
859.13	14393
859.263	14393
859.396	14415
859.529	14347
859.662	14370
859.795	14362
859.928	14488
860.061	14545
860.194	14598
860.327	14377
860.46	14377
860.592	14377
860.725	14564
860.858	14530
860.99	14431
861.123	14290
861.256	14419
861.388	14385
861.521	15036
861.653	14237
861.786	14145
861.918	14229
862.05	14263
862.183	14396
862.315	14362
862.447	14484
862.58	14336
862.712	14195
862.844	14054
862.976	14210
863.108	14275
863.24	14564
863.372	14073
863.504	14153
863.636	14115
863.768	14134
863.9	14077
864.032	14176
864.164	14164
864.296	14214
864.428	14267
864.559	14202
864.691	14267
864.823	14168
864.954	14096
865.086	14305
865.217	14134
865.349	14039
865.48	14100
865.612	14221
865.743	14282
865.875	14065
866.006	14164
866.137	14218
866.269	14142
866.4	14077
866.531	14096
866.662	14084
866.793	14119
866.924	14153
867.055	14180
867.186	14073
867.317	14134
867.448	14054
867.579	14107
867.71	14062
867.841	14035
867.972	14183
868.103	14100
868.233	14172
868.364	14145
868.495	14214
868.625	14431
868.756	14492
868.886	14320
869.017	14351
869.147	14564
869.278	14461
869.408	14339
869.539	14385
869.669	14503
869.799	14499
869.929	14499
870.06	14537
870.19	14667
870.32	14659
870.45	14697
870.58	14777
870.71	14880
870.84	14899
870.97	14735
871.1	14773
871.23	14986
871.36	14929
871.489	14872
871.619	14895
871.749	15039
871.879	15001
872.008	15043
872.138	15028
872.267	14861
872.397	14842
872.526	14807
872.656	14788
872.785	14788
872.915	15051
873.044	15169
873.173	15089
873.303	15070
873.432	15135
873.561	15180
873.69	15058
873.819	15070
873.948	15070
874.077	15005
874.206	14998
874.335	15108
874.464	15146
874.593	15340
874.722	15325
874.851	15458
874.979	15378
875.108	15450
875.237	15218
875.365	15237
875.494	15272
875.623	15393
875.751	15245
875.88	15408
876.008	15431
876.136	15622
876.265	15918
876.393	15918
876.521	15785
876.65	15903
876.778	15759
876.906	15713
877.034	15667
877.162	15709
877.29	15732
877.418	15717
877.546	15797
877.674	15755
877.802	15728
877.93	15819
878.058	15732
878.185	15641
878.313	15686
878.441	15831
878.568	15625
878.696	15686
878.824	15751
878.951	15789
879.079	15994
879.206	16063
879.333	15922
879.461	15842
879.588	15861
879.715	15975
879.842	16063
879.97	15884
880.097	15675
880.224	15584
880.351	15663
880.478	15686
880.605	15660
880.732	15587
880.859	15899
880.986	15633
881.112	15701
881.239	15576
881.366	15336
881.493	15351
881.619	15287
881.746	15325
881.872	15336
881.999	15237
882.125	15233
882.252	15340
882.378	15340
882.505	15458
882.631	15211
882.757	14971
882.883	15131
883.01	15112
883.136	15070
883.262	14826
883.388	15005
883.514	15104
883.64	15169
883.766	14975
883.892	14910
884.018	14929
884.143	15013
884.269	15157
884.395	14815
884.52	14739
884.646	14773
884.772	14773
884.897	14701
885.023	14800
885.148	14868
885.274	14960
885.399	14948
885.524	14708
885.65	14758
885.775	14807
885.9	14716
886.025	14880
886.15	14838
886.275	14651
886.4	14659
886.525	14724
886.65	14670
886.775	14750
886.9	14967
887.025	14975
887.149	14777
887.274	14651
887.399	14602
887.523	14583
887.648	14629
887.773	14598
887.897	14674
888.021	14670
888.146	14648
888.27	14663
888.395	14697
888.519	14727
888.643	14678
888.767	14758
888.891	14533
889.015	14408
889.139	14537
889.263	14503
889.387	14556
889.511	14629
889.635	14632
889.759	14465
889.883	14522
890.006	14583
890.13	14587
890.254	14313
890.377	14495
890.501	14332
890.624	14271
890.748	14393
890.871	14244
890.995	14134
891.118	14115
891.241	14168
891.364	14168
891.488	14229
891.611	14244
891.734	14221
891.857	14301
891.98	14248
892.103	14336
892.226	14195
892.349	14263
892.471	14020
892.594	14206
892.717	14214
892.839	14123
892.962	14263
893.085	14275
893.207	14191
893.33	14073
893.452	14073
893.575	14210
893.697	14172
893.819	14396
893.941	14423
894.064	14317
894.186	14202
894.308	14214
894.43	14199
894.552	14396
894.674	14328
894.796	14123
894.918	14214
895.04	14240
895.161	14252
895.283	14252
895.405	14214
895.526	14313
895.648	14240
895.769	14244
895.891	14317
896.012	14450
896.134	14362
896.255	14317
896.376	14320
896.498	14400
896.619	14385
896.74	14423
896.861	14473
896.982	14667
897.103	14838
897.224	14655
897.345	14613
897.466	14518
897.587	14617
897.708	14754
897.828	14674
897.949	14537
898.07	14488
898.19	14667
898.311	14731
898.431	14575
898.552	14720
898.672	14853
898.792	14731
898.913	14743
899.033	14541
899.153	14541
899.273	14419
899.393	14606
899.513	14602
899.633	14560
899.753	14651
899.873	14575
899.993	14697
900.113	14492
900.232	14560
900.352	14484
900.472	14461
900.591	14396
900.711	14385
900.83	14370
900.95	14457
901.069	14511
901.189	14286
901.308	14065
901.427	14005
901.546	14043
901.665	14123
901.784	14084
901.904	13951
902.023	13890
902.141	13738
902.26	13605
902.379	13795
902.498	13620
902.617	13597
902.735	13738
902.854	13662
902.973	13616
903.091	13388
903.21	13339
903.328	13339
903.446	13358
903.565	13156
903.683	13247
903.801	13069
903.919	13175
904.038	13168
904.156	13050
904.274	13110
904.392	12962
904.51	12989
904.627	13008
904.745	13061
904.863	13171
904.981	12802
905.098	12665
905.216	12776
905.334	12749
905.451	12795
905.569	12700
905.686	12760
905.803	12776
905.921	12578
906.038	12688
906.155	12506
906.272	12456
906.389	12437
906.506	12296
906.623	12327
906.74	12300
906.857	12148
906.974	12163
907.091	12479
907.208	12448
907.324	12338
907.441	12228
907.557	12144
907.674	12057
907.79	11931
907.907	12030
908.023	12114
908.139	12091
908.256	11984
908.372	11927
908.488	12019
908.604	11817
908.72	11813
908.836	11878
908.952	11707
909.068	11790
909.184	11912
909.3	11828
909.415	11939
909.531	11840
909.647	11638
909.762	11596
909.878	11585
909.993	11653
910.108	11543
910.224	11562
910.339	11577
910.454	11486
910.57	11482
910.685	11280
910.8	11672
910.915	11615
911.03	11417
911.145	11277
911.259	11242
911.374	11417
911.489	11246
911.604	11174
911.718	11041
911.833	11170
911.947	10900
912.062	10972
912.176	10987
912.291	11033
912.405	11018
912.519	11231
912.633	11254
912.748	11064
912.862	11033
912.976	10885
913.09	10839
913.204	10892
913.318	10915
913.431	11048
913.545	11060
913.659	11098
913.772	10911
913.886	10782
914	10786
914.113	10866
914.226	10900
914.34	10953
914.453	10748
914.566	10946
914.68	10782
914.793	10729
914.906	10577
915.019	10459
915.132	10481
915.245	10527
915.358	10584
915.47	10558
915.583	10565
915.696	10630
915.809	10687
915.921	10755
916.034	10489
916.146	10466
916.259	10474
916.371	10626
916.483	10611
916.595	10405
916.708	10440
916.82	10493
916.932	10531
917.044	10409
917.156	10516
917.268	10352
917.38	10265
917.491	10337
917.603	10325
917.715	10504
917.826	10451
917.938	10394
918.049	10306
918.161	10344
918.272	10535
918.384	10459
918.495	10405
918.606	10280
918.717	10177
918.828	10227
918.939	10246
919.05	10196
919.161	10268
919.272	10063
919.383	10044
919.494	10333
919.604	10421
919.715	10322
919.826	10147
919.936	10185
920.047	10352
920.157	10287
920.267	10554
920.378	10310
920.488	10284
920.598	10417
920.708	10584
920.818	10493
920.928	10417
921.038	10618
921.148	10546
921.258	10211
921.368	10169
921.477	10166
921.587	10120
921.697	9956
921.806	10158
921.916	10013
922.025	9812
922.134	9895
922.244	9781
922.353	9793
922.462	9755
922.571	9682
922.68	9519
922.789	9530
922.898	9447
923.007	9492
923.116	9534
923.224	9492
923.333	9412
923.442	9351
923.55	9363
923.659	9412
923.767	9500
923.876	9332
923.984	9481
924.092	9336
924.201	9401
924.309	9405
924.417	9492
924.525	9302
924.633	9325
924.741	10219
924.849	9199
924.956	9313
925.064	9173
925.172	9077
925.279	9173
925.387	9123
925.494	9146
925.602	9325
925.709	9256
925.816	9085
925.924	9195
926.031	9264
926.138	9245
926.245	9218
926.352	9150
926.459	9161
926.566	9256
926.673	9104
926.779	9085
926.886	9028
926.993	8910
927.099	8830
927.206	8845
927.312	8811
927.419	8929
927.525	8887
927.631	8971
927.737	8777
927.843	8792
927.95	8659
928.056	8708
928.162	8792
928.267	8785
928.373	9416
928.479	8887
928.585	8571
928.69	8651
928.796	8682
928.901	8693
929.007	8549
929.112	8754
929.218	8712
929.323	8613
929.428	8598
929.533	8762
929.638	8556
929.743	8526
929.848	8659
929.953	8625
930.058	8587
930.163	8309
930.267	8339
930.372	8484
930.477	8317
930.581	8621
930.685	8507
930.79	8362
930.894	8385
930.998	8271
931.103	8427
931.207	8092
931.311	8012
931.415	7982
931.519	7799
931.623	7772
