Data from test_V78500241_2220.txt Node
Date: Fri Mar 25 14:49:10 CST 2022
User: usil
Spectrometer: V785-0024
Trigger mode: 0
Integration Time (sec): 4.000000E-1
Scans to average: 1
Nonlinearity correction enabled: false
Boxcar width: 0
Storing dark spectrum: false
XAxis mode: Wavelengths
Number of Pixels in Spectrum: 1024
>>>>>Begin Spectral Data<<<<<
801.071	22238
801.214	22082
801.356	21816
801.499	21690
801.641	21675
801.783	21606
801.926	21679
802.068	21469
802.211	21367
802.353	21321
802.496	21131
802.638	21116
802.78	20880
802.923	20944
803.065	20830
803.208	20971
803.35	20895
803.492	21039
803.635	20998
803.777	20880
803.919	21074
804.061	21241
804.204	20830
804.346	20815
804.488	20849
804.63	20948
804.773	20632
804.915	20887
805.057	20876
805.199	20811
805.341	20918
805.483	20986
805.626	20838
805.768	20731
805.91	20811
806.052	20830
806.194	20796
806.336	20952
806.478	20792
806.62	20727
806.762	20697
806.904	20967
807.046	21252
807.188	21233
807.33	21203
807.472	21211
807.614	21020
807.756	20952
807.898	20994
808.04	20773
808.182	20933
808.324	20921
808.465	21001
808.607	21165
808.749	21165
808.891	21317
809.033	21317
809.174	21195
809.316	21074
809.458	21192
809.6	21260
809.741	21241
809.883	21283
810.025	21367
810.166	21306
810.308	21374
810.45	21264
810.591	21294
810.733	21096
810.875	21093
811.016	20868
811.158	20815
811.299	20998
811.441	21058
811.582	21100
811.724	20963
811.865	20929
812.007	20925
812.148	20952
812.29	21028
812.431	21131
812.573	21199
812.714	21359
812.855	21412
812.997	21618
813.138	21732
813.279	21644
813.421	21488
813.562	21420
813.703	21203
813.845	21070
813.986	20815
814.127	20587
814.268	20640
814.41	20640
814.551	20465
814.692	20587
814.833	20526
814.974	20427
815.115	20526
815.256	20320
815.397	20370
815.539	20393
815.68	20225
815.821	20145
815.962	20199
816.103	20225
816.244	20103
816.385	20111
816.526	20005
816.666	19780
816.807	19674
816.948	19765
817.089	19723
817.23	19696
817.371	19635
817.512	19563
817.653	19689
817.793	19533
817.934	19670
818.075	19609
818.216	19681
818.356	19537
818.497	19381
818.638	19301
818.778	19293
818.919	19430
819.06	19400
819.2	19464
819.341	19457
819.481	19597
819.622	19761
819.762	19856
819.903	19708
820.043	19719
820.184	19647
820.324	19609
820.465	19624
820.605	19670
820.746	19499
820.886	19476
821.026	19518
821.167	19590
821.307	19841
821.447	19510
821.588	19449
821.728	19270
821.868	19046
822.008	18989
822.149	18901
822.289	19046
822.429	18749
822.569	18719
822.709	18570
822.849	18566
822.99	18544
823.13	18467
823.27	18506
823.41	18277
823.55	18308
823.69	18433
823.83	18384
823.97	18270
824.11	18019
824.25	18045
824.389	18003
824.529	18087
824.669	18098
824.809	18205
824.949	18129
825.089	18209
825.228	18049
825.368	17939
825.508	17897
825.648	17958
825.787	17912
825.927	17828
826.067	17866
826.206	17760
826.346	17965
826.485	17828
826.625	17832
826.765	18022
826.904	18026
827.044	17642
827.183	17638
827.323	17532
827.462	17661
827.601	17524
827.741	17482
827.88	17611
828.02	17444
828.159	17535
828.298	17577
828.437	17512
828.577	17615
828.716	17714
828.855	17547
828.994	17364
829.134	17337
829.273	17311
829.412	17235
829.551	17254
829.69	17254
829.829	17239
829.968	17493
830.107	17265
830.246	17265
830.385	17311
830.524	17166
830.663	17178
830.802	17041
830.941	16873
831.08	16900
831.219	17006
831.357	16976
831.496	17098
831.635	16927
831.774	16790
831.913	16759
832.051	16767
832.19	16634
832.329	16771
832.467	16630
832.606	16508
832.744	16531
832.883	16565
833.022	16538
833.16	16664
833.299	16626
833.437	16561
833.576	16573
833.714	16550
833.852	16683
833.991	16664
834.129	16687
834.267	16759
834.406	16550
834.544	16611
834.682	16577
834.821	16565
834.959	16824
835.097	16580
835.235	16729
835.373	16584
835.511	16630
835.65	16542
835.788	16550
835.926	16398
836.064	16436
836.202	16375
836.34	16546
836.478	16653
836.615	16508
836.753	16531
836.891	16607
837.029	16630
837.167	16474
837.305	16382
837.443	16493
837.58	16455
837.718	16466
837.856	16466
837.993	16322
838.131	16382
838.269	16314
838.406	16230
838.544	16226
838.681	16109
838.819	16158
838.956	16021
839.094	15934
839.231	15987
839.369	16158
839.506	16440
839.643	16242
839.781	15987
839.918	15956
840.055	15911
840.193	15911
840.33	15831
840.467	15903
840.604	15983
840.742	16166
840.879	15812
841.016	15956
841.153	15846
841.29	16093
841.427	15953
841.564	16040
841.701	15994
841.838	15835
841.975	15800
842.112	15827
842.249	15774
842.385	15682
842.522	15838
842.659	15778
842.796	15720
842.933	15736
843.069	15641
843.206	15701
843.343	15774
843.479	15789
843.616	15827
843.752	15530
843.889	15534
844.025	15701
844.162	15530
844.298	15580
844.435	15481
844.571	15458
844.708	15515
844.844	15660
844.98	15648
845.117	15641
845.253	15477
845.389	15439
845.525	15439
845.661	15420
845.798	15272
845.934	15397
846.07	15173
846.206	15355
846.342	15408
846.478	15260
846.614	15169
846.75	15032
846.886	15032
847.022	15184
847.158	15169
847.294	15074
847.429	15211
847.565	14880
847.701	15294
847.837	14895
847.972	14777
848.108	14845
848.244	14887
848.379	14655
848.515	14697
848.65	14636
848.786	14651
848.921	14735
849.057	14765
849.192	14724
849.328	14701
849.463	14678
849.598	14674
849.734	14533
849.869	14492
850.004	14480
850.14	14514
850.275	14446
850.41	14271
850.545	14358
850.68	14355
850.815	14465
850.95	14438
851.085	14537
851.22	14507
851.355	14484
851.49	14465
851.625	14393
851.76	14438
851.895	14298
852.03	14332
852.165	14427
852.299	14522
852.434	14450
852.569	14488
852.703	14469
852.838	14511
852.973	14663
853.107	14568
853.242	14511
853.376	14442
853.511	14164
853.645	14218
853.78	14389
853.914	14374
854.048	14244
854.183	14214
854.317	14370
854.451	14564
854.585	14419
854.72	14317
854.854	14434
854.988	14142
855.122	14332
855.256	14191
855.39	14271
855.524	14419
855.658	14336
855.792	14328
855.926	14412
856.06	14366
856.194	14404
856.327	14343
856.461	14244
856.595	14282
856.729	14248
856.862	14381
856.996	14252
857.13	14408
857.263	14438
857.397	14400
857.53	14347
857.664	14381
857.797	14537
857.931	14412
858.064	14313
858.197	14427
858.331	14328
858.464	14221
858.597	14252
858.731	14286
858.864	14301
858.997	14218
859.13	14305
859.263	14259
859.396	14393
859.529	14320
859.662	14366
859.795	14180
859.928	14336
860.061	14419
860.194	14549
860.327	14332
860.46	14313
860.592	14309
860.725	14423
860.858	14339
860.99	14290
861.123	14214
861.256	14351
861.388	14400
861.521	14941
861.653	14191
861.786	14138
861.918	14130
862.05	14180
862.183	14252
862.315	14206
862.447	14263
862.58	14263
862.712	14054
862.844	14043
862.976	14119
863.108	14180
863.24	14431
863.372	14020
863.504	14100
863.636	14039
863.768	14183
863.9	14115
864.032	14058
864.164	14092
864.296	14172
864.428	14103
864.559	14164
864.691	14130
864.823	14145
864.954	14168
865.086	14081
865.217	14077
865.349	14065
865.48	14005
865.612	13970
865.743	14225
865.875	14103
866.006	14020
866.137	14054
866.269	14039
866.4	14043
866.531	14012
866.662	13951
866.793	13917
866.924	14065
867.055	14058
867.186	14081
867.317	14046
867.448	13974
867.579	13982
867.71	13906
867.841	13890
867.972	14081
868.103	13986
868.233	14119
868.364	14088
868.495	14119
868.625	14282
868.756	14381
868.886	14225
869.017	14214
869.147	14450
869.278	14450
869.408	14332
869.539	14278
869.669	14396
869.799	14332
869.929	14385
870.06	14457
870.19	14579
870.32	14636
870.45	14743
870.58	14735
870.71	14777
870.84	14788
870.97	14781
871.1	14670
871.23	14937
871.36	14918
871.489	14815
871.619	14842
871.749	14956
871.879	15013
872.008	14979
872.138	14891
872.267	15001
872.397	14705
872.526	14667
872.656	14876
872.785	14743
872.915	15112
873.044	14902
873.173	14929
873.303	14948
873.432	14971
873.561	15020
873.69	14956
873.819	14979
873.948	15077
874.077	14963
874.206	14956
874.335	15020
874.464	15150
874.593	15317
874.722	15195
874.851	15344
874.979	15275
875.108	15367
875.237	15272
875.365	15104
875.494	15245
875.623	15420
875.751	15249
875.88	15306
876.008	15473
876.136	15466
876.265	15724
876.393	15812
876.521	15785
876.65	15781
876.778	15785
876.906	15724
877.034	15633
877.162	15701
877.29	15515
877.418	15629
877.546	15705
877.674	15667
877.802	15724
877.93	15679
878.058	15625
878.185	15481
878.313	15671
878.441	15728
878.568	15511
878.696	15625
878.824	15656
878.951	15762
879.079	15850
879.206	15983
879.333	15861
879.461	15625
879.588	15709
879.715	15808
879.842	15854
879.97	15873
880.097	15610
880.224	15485
880.351	15633
880.478	15557
880.605	15557
880.732	15511
880.859	15880
880.986	15633
881.112	15576
881.239	15389
881.366	15329
881.493	15272
881.619	15272
881.746	15146
881.872	15169
881.999	15100
882.125	15150
882.252	15325
882.378	15302
882.505	15283
882.631	15146
882.757	14971
882.883	15017
883.01	15051
883.136	14952
883.262	14918
883.388	14792
883.514	15013
883.64	15039
883.766	14963
883.892	14746
884.018	14883
884.143	15039
884.269	15009
884.395	14815
884.52	14731
884.646	14708
884.772	14655
884.897	14667
885.023	14724
885.148	14727
885.274	14906
885.399	14815
885.524	14762
885.65	14727
885.775	14716
885.9	14697
886.025	14804
886.15	14861
886.275	14640
886.4	14735
886.525	14693
886.65	14731
886.775	14724
886.9	14842
887.025	14967
887.149	14674
887.274	14613
887.399	14579
887.523	14393
887.648	14385
887.773	14454
887.897	14621
888.021	14610
888.146	14438
888.27	14644
888.395	14640
888.519	14499
888.643	14545
888.767	14594
888.891	14507
889.015	14374
889.139	14385
889.263	14381
889.387	14507
889.511	14545
889.635	14465
889.759	14400
889.883	14419
890.006	14469
890.13	14632
890.254	14347
890.377	14282
890.501	14210
890.624	14221
890.748	14256
890.871	14168
890.995	14164
891.118	14020
891.241	14043
891.364	13989
891.488	14271
891.611	14111
891.734	14062
891.857	14142
891.98	14084
892.103	14031
892.226	14210
892.349	13970
892.471	13955
892.594	14058
892.717	14138
892.839	14031
892.962	14111
893.085	14214
893.207	14119
893.33	14001
893.452	14081
893.575	14252
893.697	14043
893.819	14240
893.941	14366
894.064	14332
894.186	14134
894.308	14100
894.43	14218
894.552	14393
894.674	14229
894.796	14157
894.918	14111
895.04	14161
895.161	14233
895.283	14199
895.405	14088
895.526	14183
895.648	14172
895.769	14248
895.891	14317
896.012	14225
896.134	14362
896.255	14267
896.376	14290
896.498	14229
896.619	14275
896.74	14263
896.861	14347
896.982	14579
897.103	14762
897.224	14503
897.345	14522
897.466	14427
897.587	14575
897.708	14705
897.828	14655
897.949	14511
898.07	14434
898.19	14454
898.311	14708
898.431	14560
898.552	14693
898.672	14769
898.792	14693
898.913	14750
899.033	14632
899.153	14499
899.273	14450
899.393	14423
899.513	14530
899.633	14552
899.753	14545
899.873	14454
899.993	14514
900.113	14514
900.232	14545
900.352	14442
900.472	14415
900.591	14339
900.711	14442
900.83	14381
900.95	14552
901.069	14400
901.189	14221
901.308	14111
901.427	14020
901.546	14043
901.665	14058
901.784	14142
901.904	13852
902.023	13807
902.141	13670
902.26	13594
902.379	13620
902.498	13537
902.617	13567
902.735	13700
902.854	13506
902.973	13537
903.091	13263
903.21	13362
903.328	13301
903.446	13168
903.565	13149
903.683	13091
903.801	13072
903.919	13145
904.038	13141
904.156	12996
904.274	12977
904.392	12878
904.51	12973
904.627	12913
904.745	12970
904.863	13129
904.981	12810
905.098	12684
905.216	12681
905.334	12768
905.451	12681
905.569	12642
905.686	12734
905.803	12692
905.921	12395
906.038	12646
906.155	12502
906.272	12414
906.389	12330
906.506	12289
906.623	12285
906.74	12247
906.857	12201
906.974	12220
907.091	12353
907.208	12350
907.324	12277
907.441	12213
907.557	12045
907.674	12068
907.79	11969
907.907	12026
908.023	12076
908.139	12045
908.256	11916
908.372	11901
908.488	11882
908.604	11756
908.72	11707
908.836	11813
908.952	11764
909.068	11809
909.184	11836
909.3	11729
909.415	11726
909.531	11828
909.647	11539
909.762	11520
909.878	11528
909.993	11596
910.108	11562
910.224	11463
910.339	11516
910.454	11349
910.57	11349
910.685	11254
910.8	11532
910.915	11474
911.03	11448
911.145	11326
911.259	11284
911.374	11273
911.489	11223
911.604	11060
911.718	11052
911.833	10980
911.947	10869
912.062	10816
912.176	10995
912.291	11041
912.405	10972
912.519	11162
912.633	11132
912.748	11136
912.862	11003
912.976	10896
913.09	10759
913.204	10820
913.318	10877
913.431	10968
913.545	11014
913.659	11010
913.772	10927
913.886	10771
914	10664
914.113	10831
914.226	10919
914.34	10812
914.453	10710
914.566	10831
914.68	10733
914.793	10675
914.906	10512
915.019	10508
915.132	10417
915.245	10432
915.358	10508
915.47	10382
915.583	10542
915.696	10523
915.809	10698
915.921	10687
916.034	10462
916.146	10447
916.259	10421
916.371	10508
916.483	10474
916.595	10470
916.708	10382
916.82	10398
916.932	10459
917.044	10421
917.156	10428
917.268	10299
917.38	10394
917.491	10329
917.603	10356
917.715	10405
917.826	10451
917.938	10310
918.049	10219
918.161	10322
918.272	10493
918.384	10466
918.495	10291
918.606	10211
918.717	10147
918.828	10150
918.939	10185
919.05	10105
919.161	10120
919.272	9987
919.383	10063
919.494	10234
919.604	10443
919.715	10257
919.826	10139
919.936	10120
920.047	10299
920.157	10230
920.267	10459
920.378	10242
920.488	10211
920.598	10459
920.708	10535
920.818	10382
920.928	10322
921.038	10618
921.148	10443
921.258	10291
921.368	10207
921.477	10116
921.587	10025
921.697	9876
921.806	10109
921.916	9956
922.025	9857
922.134	9766
922.244	9709
922.353	9915
922.462	9648
922.571	9584
922.68	9500
922.789	9515
922.898	9382
923.007	9431
923.116	9545
923.224	9485
923.333	9473
923.442	9363
923.55	9306
923.659	9412
923.767	9431
923.876	9332
923.984	9382
924.092	9367
924.201	9302
924.309	9374
924.417	9389
924.525	9313
924.633	9302
924.741	10329
924.849	9142
924.956	9245
925.064	9131
925.172	9058
925.279	9119
925.387	9203
925.494	9108
925.602	9188
925.709	9222
925.816	9066
925.924	9077
926.031	9245
926.138	9146
926.245	9100
926.352	9081
926.459	9222
926.566	9154
926.673	9108
926.779	8998
926.886	8979
926.993	8910
927.099	8868
927.206	8826
927.312	8781
927.419	8891
927.525	8800
927.631	8857
927.737	8762
927.843	8610
927.95	8640
928.056	8720
928.162	8777
928.267	8830
928.373	9420
928.479	8777
928.585	8530
928.69	8750
928.796	8739
928.901	8674
929.007	8507
929.112	8564
929.218	8644
929.323	8583
929.428	8556
929.533	8663
929.638	8473
929.743	8473
929.848	8598
929.953	8583
930.058	8499
930.163	8271
930.267	8355
930.372	8454
930.477	8301
930.581	8579
930.685	8370
930.79	8244
930.894	8336
930.998	8286
931.103	8434
931.207	8107
931.311	7986
931.415	7936
931.519	7780
931.623	7723
