Data from test_V78500241_3419.txt Node
Date: Fri Mar 25 14:57:31 CST 2022
User: usil
Spectrometer: V785-0024
Trigger mode: 0
Integration Time (sec): 4.000000E-1
Scans to average: 1
Nonlinearity correction enabled: false
Boxcar width: 0
Storing dark spectrum: false
XAxis mode: Wavelengths
Number of Pixels in Spectrum: 1024
>>>>>Begin Spectral Data<<<<<
801.071	21960
801.214	21846
801.356	21606
801.499	21488
801.641	21408
801.783	21268
801.926	21454
802.068	21241
802.211	21173
802.353	21062
802.496	20895
802.638	20697
802.78	20701
802.923	20716
803.065	20556
803.208	20705
803.35	20667
803.492	20636
803.635	20701
803.777	20609
803.919	20743
804.061	21043
804.204	20670
804.346	20526
804.488	20480
804.63	20587
804.773	20530
804.915	20549
805.057	20708
805.199	20446
805.341	20564
805.483	20564
805.626	20644
805.768	20343
805.91	20446
806.052	20594
806.194	20450
806.336	20705
806.478	20522
806.62	20473
806.762	20579
806.904	20724
807.046	20819
807.188	20876
807.33	20815
807.472	20796
807.614	20796
807.756	20792
807.898	20667
808.04	20598
808.182	20594
808.324	20693
808.465	20629
808.607	20769
808.749	20864
808.891	21043
809.033	20967
809.174	21036
809.316	20819
809.458	20800
809.6	20838
809.741	20857
809.883	20937
810.025	20960
810.166	20921
810.308	21001
810.45	21070
810.591	20758
810.733	20682
810.875	20636
811.016	20488
811.158	20571
811.299	20613
811.441	20667
811.582	20739
811.724	20617
811.865	20648
812.007	20602
812.148	20579
812.29	20594
812.431	20781
812.573	20933
812.714	21032
812.855	21070
812.997	21085
813.138	21351
813.279	21142
813.421	21180
813.562	21089
813.703	20883
813.845	20739
813.986	20434
814.127	20454
814.268	20199
814.41	20157
814.551	20164
814.692	20256
814.833	20168
814.974	20043
815.115	20149
815.256	20069
815.397	20016
815.539	19955
815.68	19925
815.821	19852
815.962	19974
816.103	19947
816.244	19715
816.385	19655
816.526	19438
816.666	19434
816.807	19221
816.948	19316
817.089	19411
817.23	19392
817.371	19270
817.512	19247
817.653	19251
817.793	19263
817.934	19240
818.075	19228
818.216	19270
818.356	19141
818.497	19194
818.638	19053
818.778	18932
818.919	19148
819.06	19027
819.2	19027
819.341	19164
819.481	19228
819.622	19320
819.762	19449
819.903	19407
820.043	19381
820.184	19343
820.324	19308
820.465	19460
820.605	19217
820.746	19240
820.886	19152
821.026	19198
821.167	19202
821.307	19411
821.447	19255
821.588	19076
821.728	18996
821.868	18814
822.008	18631
822.149	18856
822.289	18650
822.429	18327
822.569	18384
822.709	18391
822.849	18232
822.99	18220
823.13	18182
823.27	18060
823.41	18076
823.55	17859
823.69	18007
823.83	17897
823.97	17882
824.11	17741
824.25	17794
824.389	17824
824.529	17939
824.669	17855
824.809	17821
824.949	17866
825.089	17752
825.228	17722
825.368	17604
825.508	17528
825.648	17547
825.787	17581
825.927	17562
826.067	17600
826.206	17478
826.346	17566
826.485	17570
826.625	17570
826.765	17726
826.904	17562
827.044	17391
827.183	17277
827.323	17231
827.462	17330
827.601	17273
827.741	17162
827.88	17216
828.02	17162
828.159	17151
828.298	17277
828.437	17296
828.577	17258
828.716	17421
828.855	17189
828.994	17052
829.134	16968
829.273	17098
829.412	17018
829.551	16904
829.69	16949
829.829	17010
829.968	17064
830.107	16908
830.246	17045
830.385	16949
830.524	16911
830.663	16843
830.802	16816
830.941	16656
831.08	16577
831.219	16687
831.357	16664
831.496	16828
831.635	16599
831.774	16421
831.913	16493
832.051	16360
832.19	16485
832.329	16504
832.467	16394
832.606	16276
832.744	16230
832.883	16348
833.022	16287
833.16	16352
833.299	16447
833.437	16325
833.576	16356
833.714	16390
833.852	16500
833.991	16363
834.129	16478
834.267	16447
834.406	16424
834.544	16284
834.682	16466
834.821	16402
834.959	16580
835.097	16440
835.235	16360
835.373	16382
835.511	16371
835.65	16390
835.788	16246
835.926	16131
836.064	16131
836.202	16139
836.34	16310
836.478	16265
836.615	16284
836.753	16329
836.891	16436
837.029	16291
837.167	16322
837.305	16101
837.443	16147
837.58	16093
837.718	16238
837.856	16276
837.993	16135
838.131	16093
838.269	16105
838.406	16246
838.544	16158
838.681	15945
838.819	15922
838.956	15736
839.094	15755
839.231	15751
839.369	15789
839.506	16093
839.643	16002
839.781	15759
839.918	15679
840.055	15785
840.193	15743
840.33	15633
840.467	15724
840.604	15736
840.742	16006
840.879	15580
841.016	15682
841.153	15679
841.29	15789
841.427	15671
841.564	15800
841.701	15717
841.838	15701
841.975	15584
842.112	15739
842.249	15545
842.385	15481
842.522	15720
842.659	15606
842.796	15568
842.933	15667
843.069	15439
843.206	15523
843.343	15580
843.479	15488
843.616	15507
843.752	15329
843.889	15302
844.025	15428
844.162	15195
844.298	15443
844.435	15291
844.571	15192
844.708	15393
844.844	15462
844.98	15401
845.117	15424
845.253	15272
845.389	15226
845.525	15287
845.661	15207
845.798	15085
845.934	15142
846.07	15123
846.206	15203
846.342	15272
846.478	15097
846.614	14914
846.75	14830
846.886	14895
847.022	15074
847.158	14868
847.294	14921
847.429	14963
847.565	14868
847.701	15108
847.837	14693
847.972	14644
848.108	14727
848.244	14712
848.379	14568
848.515	14518
848.65	14431
848.786	14587
848.921	14518
849.057	14617
849.192	14636
849.328	14632
849.463	14499
849.598	14450
849.734	14419
849.869	14415
850.004	14351
850.14	14305
850.275	14305
850.41	14313
850.545	14233
850.68	14263
850.815	14370
850.95	14313
851.085	14400
851.22	14427
851.355	14214
851.49	14309
851.625	14282
851.76	14240
851.895	14103
852.03	14180
852.165	14183
852.299	14305
852.434	14305
852.569	14199
852.703	14370
852.838	14377
852.973	14427
853.107	14370
853.242	14298
853.376	14149
853.511	14103
853.645	14134
853.78	14206
853.914	14164
854.048	14149
854.183	14088
854.317	14168
854.451	14278
854.585	14130
854.72	14096
854.854	14225
854.988	14073
855.122	14050
855.256	13982
855.39	14145
855.524	14271
855.658	14210
855.792	14263
855.926	14248
856.06	14168
856.194	14309
856.327	14164
856.461	14065
856.595	14065
856.729	14084
856.862	14294
856.996	14183
857.13	14271
857.263	14343
857.397	14328
857.53	14142
857.664	14256
857.797	14229
857.931	14309
858.064	14248
858.197	14358
858.331	14237
858.464	14134
858.597	14031
858.731	14233
858.864	14225
858.997	14142
859.13	14199
859.263	14248
859.396	14199
859.529	14180
859.662	14161
859.795	14199
859.928	14161
860.061	14423
860.194	14267
860.327	14252
860.46	14157
860.592	14305
860.725	14240
860.858	14206
860.99	14138
861.123	14172
861.256	14142
861.388	14191
861.521	14861
861.653	14081
861.786	14005
861.918	14073
862.05	14126
862.183	14096
862.315	14176
862.447	14214
862.58	14039
862.712	13974
862.844	13833
862.976	14016
863.108	13967
863.24	14351
863.372	13932
863.504	13898
863.636	13951
863.768	14024
863.9	13947
864.032	13814
864.164	13936
864.296	13875
864.428	13959
864.559	14058
864.691	14058
864.823	14058
864.954	13970
865.086	13841
865.217	13967
865.349	13887
865.48	13913
865.612	13940
865.743	14157
865.875	13879
866.006	13909
866.137	13989
866.269	13917
866.4	13932
866.531	13887
866.662	13811
866.793	13871
866.924	13917
867.055	13940
867.186	13890
867.317	13890
867.448	13814
867.579	13902
867.71	13902
867.841	13883
867.972	13967
868.103	13871
868.233	13967
868.364	13868
868.495	14046
868.625	14077
868.756	14206
868.886	14062
869.017	14161
869.147	14278
869.278	14305
869.408	14259
869.539	14301
869.669	14301
869.799	14244
869.929	14267
870.06	14358
870.19	14533
870.32	14488
870.45	14499
870.58	14549
870.71	14659
870.84	14712
870.97	14564
871.1	14503
871.23	14815
871.36	14724
871.489	14773
871.619	14785
871.749	14610
871.879	14781
872.008	14880
872.138	14769
872.267	14697
872.397	14629
872.526	14522
872.656	14632
872.785	14697
872.915	14724
873.044	14891
873.173	14743
873.303	14918
873.432	14842
873.561	14906
873.69	14819
873.819	14876
873.948	14895
874.077	14842
874.206	14762
874.335	14902
874.464	14979
874.593	15176
874.722	15047
874.851	15222
874.979	15135
875.108	15188
875.237	15036
875.365	15097
875.494	15222
875.623	15180
875.751	15097
875.88	15249
876.008	15260
876.136	15374
876.265	15561
876.393	15720
876.521	15652
876.65	15701
876.778	15553
876.906	15496
877.034	15447
877.162	15447
877.29	15447
877.418	15637
877.546	15622
877.674	15557
877.802	15572
877.93	15652
878.058	15561
878.185	15492
878.313	15561
878.441	15561
878.568	15485
878.696	15625
878.824	15515
878.951	15663
879.079	15774
879.206	15895
879.333	15724
879.461	15675
879.588	15622
879.715	15770
879.842	15926
879.97	15660
880.097	15431
880.224	15389
880.351	15329
880.478	15393
880.605	15416
880.732	15408
880.859	15580
880.986	15420
881.112	15408
881.239	15397
881.366	15275
881.493	15180
881.619	15020
881.746	15070
881.872	15104
881.999	15138
882.125	15020
882.252	15108
882.378	15100
882.505	15195
882.631	15039
882.757	14899
882.883	14971
883.01	14971
883.136	14845
883.262	14800
883.388	14708
883.514	14868
883.64	14853
883.766	14906
883.892	14792
884.018	14712
884.143	14773
884.269	14944
884.395	14610
884.52	14663
884.646	14708
884.772	14545
884.897	14526
885.023	14610
885.148	14640
885.274	14754
885.399	14655
885.524	14579
885.65	14670
885.775	14541
885.9	14507
886.025	14644
886.15	14670
886.275	14590
886.4	14522
886.525	14541
886.65	14499
886.775	14495
886.9	14705
887.025	14777
887.149	14621
887.274	14427
887.399	14434
887.523	14374
887.648	14408
887.773	14301
887.897	14503
888.021	14434
888.146	14431
888.27	14495
888.395	14583
888.519	14549
888.643	14549
888.767	14484
888.891	14328
889.015	14256
889.139	14355
889.263	14286
889.387	14301
889.511	14495
889.635	14389
889.759	14313
889.883	14282
890.006	14237
890.13	14389
890.254	14202
890.377	14282
890.501	14168
890.624	14092
890.748	14134
890.871	14016
890.995	14031
891.118	13871
891.241	14008
891.364	14016
891.488	14145
891.611	14005
891.734	13951
891.857	14107
891.98	13936
892.103	14050
892.226	14005
892.349	14020
892.471	13906
892.594	13951
892.717	14035
892.839	13982
892.962	13944
893.085	14111
893.207	14043
893.33	13925
893.452	13940
893.575	14058
893.697	13993
893.819	14199
893.941	14248
894.064	14145
894.186	14005
894.308	14065
894.43	14046
894.552	14256
894.674	14206
894.796	14081
894.918	14024
895.04	13974
895.161	14103
895.283	14153
895.405	14024
895.526	14103
895.648	14046
895.769	14187
895.891	14069
896.012	14229
896.134	14214
896.255	14187
896.376	14123
896.498	14195
896.619	14267
896.74	14134
896.861	14206
896.982	14514
897.103	14708
897.224	14427
897.345	14404
897.466	14377
897.587	14396
897.708	14541
897.828	14438
897.949	14366
898.07	14214
898.19	14370
898.311	14473
898.431	14514
898.552	14461
898.672	14545
898.792	14625
898.913	14549
899.033	14484
899.153	14408
899.273	14263
899.393	14438
899.513	14408
899.633	14374
899.753	14473
899.873	14320
899.993	14438
900.113	14282
900.232	14454
900.352	14343
900.472	14237
900.591	14294
900.711	14320
900.83	14172
900.95	14309
901.069	14408
901.189	14229
901.308	14065
901.427	13795
901.546	13856
901.665	13982
901.784	13917
901.904	13822
902.023	13685
902.141	13525
902.26	13476
902.379	13529
902.498	13518
902.617	13396
902.735	13590
902.854	13460
902.973	13518
903.091	13171
903.21	13225
903.328	13190
903.446	13091
903.565	13061
903.683	13099
903.801	12924
903.919	13027
904.038	13008
904.156	12844
904.274	12958
904.392	12909
904.51	12875
904.627	12935
904.745	12932
904.863	12989
904.981	12646
905.098	12608
905.216	12551
905.334	12677
905.451	12544
905.569	12563
905.686	12684
905.803	12582
905.921	12445
906.038	12448
906.155	12525
906.272	12311
906.389	12350
906.506	12167
906.623	12148
906.74	12106
906.857	12026
906.974	12038
907.091	12232
907.208	12270
907.324	12155
907.441	12114
907.557	12034
907.674	11965
907.79	11908
907.907	11927
908.023	11961
908.139	11931
908.256	11805
908.372	11771
908.488	11931
908.604	11737
908.72	11695
908.836	11688
908.952	11707
909.068	11699
909.184	11798
909.3	11642
909.415	11668
909.531	11718
909.647	11444
909.762	11478
909.878	11387
909.993	11433
910.108	11387
910.224	11425
910.339	11501
910.454	11315
910.57	11341
910.685	11178
910.8	11505
910.915	11436
911.03	11311
911.145	11159
911.259	11113
911.374	11159
911.489	11075
911.604	11064
911.718	10965
911.833	10946
911.947	10790
912.062	10691
912.176	10946
912.291	10923
912.405	10843
912.519	11128
912.633	11170
912.748	10999
912.862	10847
912.976	10786
913.09	10660
913.204	10774
913.318	10748
913.431	10839
913.545	10828
913.659	10896
913.772	10774
913.886	10717
914	10675
914.113	10721
914.226	10782
914.34	10710
914.453	10596
914.566	10717
914.68	10668
914.793	10618
914.906	10436
915.019	10352
915.132	10325
915.245	10394
915.358	10443
915.47	10489
915.583	10466
915.696	10459
915.809	10542
915.921	10561
916.034	10382
916.146	10341
916.259	10348
916.371	10481
916.483	10470
916.595	10405
916.708	10382
916.82	10428
916.932	10348
917.044	10348
917.156	10253
917.268	10272
917.38	10211
917.491	10166
917.603	10268
917.715	10451
917.826	10356
917.938	10318
918.049	10131
918.161	10333
918.272	10413
918.384	10436
918.495	10287
918.606	10120
918.717	10082
918.828	10207
918.939	10215
919.05	10097
919.161	10150
919.272	9953
919.383	9983
919.494	10192
919.604	10314
919.715	10169
919.826	10071
919.936	10082
920.047	10253
920.157	10128
920.267	10299
920.378	10284
920.488	10090
920.598	10371
920.708	10508
920.818	10382
920.928	10333
921.038	10459
921.148	10428
921.258	10166
921.368	10105
921.477	10090
921.587	10017
921.697	9888
921.806	10120
921.916	9930
922.025	9797
922.134	9770
922.244	9675
922.353	9823
922.462	9644
922.571	9656
922.68	9496
922.789	9386
922.898	9447
923.007	9313
923.116	9530
923.224	9443
923.333	9336
923.442	9325
923.55	9275
923.659	9317
923.767	9370
923.876	9211
923.984	9363
924.092	9268
924.201	9230
924.309	9272
924.417	9294
924.525	9272
924.633	9275
924.741	10131
924.849	9058
924.956	9253
925.064	9116
925.172	9009
925.279	9066
925.387	9127
925.494	9131
925.602	9211
925.709	9169
925.816	9047
925.924	9112
926.031	9161
926.138	9089
926.245	9199
926.352	9077
926.459	9131
926.566	9222
926.673	9051
926.779	9005
926.886	8971
926.993	8838
927.099	8796
927.206	8746
927.312	8705
927.419	8902
927.525	8766
927.631	8883
927.737	8746
927.843	8708
927.95	8598
928.056	8716
928.162	8651
928.267	8735
928.373	9359
928.479	8815
928.585	8564
928.69	8701
928.796	8689
928.901	8537
929.007	8431
929.112	8617
929.218	8530
929.323	8514
929.428	8514
929.533	8651
929.638	8499
929.743	8492
929.848	8568
929.953	8587
930.058	8404
930.163	8263
930.267	8298
930.372	8404
930.477	8301
930.581	8533
930.685	8408
930.79	8279
930.894	8301
930.998	8187
931.103	8404
931.207	8107
931.311	7970
931.415	8024
931.519	7685
931.623	7811
