Data from test_V78500241_1214.txt Node
Date: Fri Mar 25 14:42:10 CST 2022
User: usil
Spectrometer: V785-0024
Trigger mode: 0
Integration Time (sec): 4.000000E-1
Scans to average: 1
Nonlinearity correction enabled: false
Boxcar width: 0
Storing dark spectrum: false
XAxis mode: Wavelengths
Number of Pixels in Spectrum: 1024
>>>>>Begin Spectral Data<<<<<
801.071	22402
801.214	22280
801.356	22082
801.499	21979
801.641	21800
801.783	21713
801.926	21682
802.068	21747
802.211	21515
802.353	21481
802.496	21211
802.638	21176
802.78	21378
802.923	21203
803.065	21169
803.208	21138
803.35	21104
803.492	21146
803.635	21188
803.777	21127
803.919	21146
804.061	21450
804.204	21055
804.346	21135
804.488	20956
804.63	21017
804.773	21028
804.915	20998
805.057	21108
805.199	21001
805.341	21009
805.483	21173
805.626	21241
805.768	21013
805.91	21032
806.052	20998
806.194	20910
806.336	21070
806.478	21020
806.62	20963
806.762	21089
806.904	21211
807.046	21321
807.188	21382
807.33	21355
807.472	21428
807.614	21374
807.756	21382
807.898	21211
808.04	21085
808.182	21077
808.324	21112
808.465	21119
808.607	21355
808.749	21515
808.891	21629
809.033	21572
809.174	21595
809.316	21412
809.458	21397
809.6	21340
809.741	21447
809.883	21504
810.025	21656
810.166	21553
810.308	21481
810.45	21485
810.591	21481
810.733	21397
810.875	21211
811.016	21123
811.158	20990
811.299	21146
811.441	21214
811.582	21332
811.724	21135
811.865	21131
812.007	21127
812.148	21169
812.29	21329
812.431	21344
812.573	21405
812.714	21622
812.855	21629
812.997	21720
813.138	21861
813.279	21766
813.421	21644
813.562	21618
813.703	21466
813.845	21405
813.986	21081
814.127	20948
814.268	20830
814.41	20720
814.551	20746
814.692	20777
814.833	20670
814.974	20602
815.115	20674
815.256	20518
815.397	20727
815.539	20427
815.68	20533
815.821	20484
815.962	20583
816.103	20499
816.244	20233
816.385	20271
816.526	20187
816.666	20073
816.807	19845
816.948	19982
817.089	20084
817.23	19871
817.371	19921
817.512	19780
817.653	19791
817.793	19959
817.934	19860
818.075	19890
818.216	19955
818.356	19841
818.497	19750
818.638	19571
818.778	19582
818.919	19594
819.06	19597
819.2	19670
819.341	19635
819.481	19746
819.622	19890
819.762	20122
819.903	20130
820.043	19989
820.184	19871
820.324	19928
820.465	19837
820.605	19951
820.746	19890
820.886	19696
821.026	19822
821.167	19811
821.307	20043
821.447	19856
821.588	19719
821.728	19548
821.868	19346
822.008	19217
822.149	19346
822.289	19187
822.429	19110
822.569	19012
822.709	18993
822.849	18825
822.99	18753
823.13	18722
823.27	18711
823.41	18654
823.55	18570
823.69	18578
823.83	18585
823.97	18544
824.11	18277
824.25	18330
824.389	18414
824.529	18483
824.669	18399
824.809	18399
824.949	18448
825.089	18532
825.228	18300
825.368	18114
825.508	18121
825.648	18205
825.787	18129
825.927	18251
826.067	18129
826.206	18091
826.346	18190
826.485	18239
826.625	18224
826.765	18258
826.904	18273
827.044	17912
827.183	17912
827.323	17897
827.462	17851
827.601	17870
827.741	17710
827.88	17783
828.02	17676
828.159	17676
828.298	17889
828.437	17863
828.577	17855
828.716	17912
828.855	17745
828.994	17539
829.134	17600
829.273	17615
829.412	17532
829.551	17497
829.69	17630
829.829	17596
829.968	17627
830.107	17722
830.246	17638
830.385	17566
830.524	17577
830.663	17463
830.802	17296
830.941	17109
831.08	17246
831.219	17299
831.357	17280
831.496	17353
831.635	17204
831.774	17094
831.913	17136
832.051	16980
832.19	17090
832.329	17132
832.467	16927
832.606	16835
832.744	16889
832.883	16900
833.022	16850
833.16	16869
833.299	17045
833.437	16904
833.576	16968
833.714	16896
833.852	16908
833.991	17022
834.129	17029
834.267	16885
834.406	17003
834.544	17010
834.682	16938
834.821	16904
834.959	17109
835.097	16847
835.235	17025
835.373	17022
835.511	16946
835.65	16934
835.788	16889
835.926	16778
836.064	16710
836.202	16653
836.34	16782
836.478	16923
836.615	16965
836.753	16824
836.891	17022
837.029	16881
837.167	16957
837.305	16736
837.443	16645
837.58	16729
837.718	16778
837.856	16850
837.993	16748
838.131	16729
838.269	16664
838.406	16717
838.544	16637
838.681	16379
838.819	16386
838.956	16150
839.094	16257
839.231	16348
839.369	16459
839.506	16694
839.643	16592
839.781	16356
839.918	16287
840.055	16310
840.193	16272
840.33	16211
840.467	16265
840.604	16314
840.742	16550
840.879	16226
841.016	16166
841.153	16246
841.29	16348
841.427	16348
841.564	16337
841.701	16306
841.838	16287
841.975	16192
842.112	16226
842.249	16143
842.385	16029
842.522	16272
842.659	16109
842.796	16116
842.933	16059
843.069	16025
843.206	16101
843.343	16192
843.479	16131
843.616	16116
843.752	15861
843.889	15888
844.025	16078
844.162	15861
844.298	15926
844.435	15873
844.571	15880
844.708	15812
844.844	15972
844.98	16128
845.117	16029
845.253	15876
845.389	15865
845.525	15895
845.661	15850
845.798	15701
845.934	15869
846.07	15846
846.206	15766
846.342	15861
846.478	15694
846.614	15500
846.75	15458
846.886	15420
847.022	15511
847.158	15443
847.294	15454
847.429	15485
847.565	15412
847.701	15656
847.837	15199
847.972	15051
848.108	15317
848.244	15188
848.379	15108
848.515	15104
848.65	15032
848.786	15013
848.921	15043
849.057	15100
849.192	15222
849.328	14986
849.463	15112
849.598	15062
849.734	14952
849.869	14842
850.004	14807
850.14	14880
850.275	14743
850.41	14773
850.545	14735
850.68	14800
850.815	14758
850.95	14792
851.085	14956
851.22	14899
851.355	14788
851.49	14705
851.625	14796
851.76	14807
851.895	14781
852.03	14693
852.165	14769
852.299	14842
852.434	14868
852.569	14845
852.703	14781
852.838	14880
852.973	14967
853.107	14956
853.242	14781
853.376	14746
853.511	14556
853.645	14731
853.78	14826
853.914	14750
854.048	14686
854.183	14705
854.317	14758
854.451	14868
854.585	14693
854.72	14754
854.854	14655
854.988	14568
855.122	14686
855.256	14583
855.39	14636
855.524	14735
855.658	14667
855.792	14750
855.926	14788
856.06	14670
856.194	14750
856.327	14716
856.461	14602
856.595	14632
856.729	14575
856.862	14735
856.996	14682
857.13	14754
857.263	14765
857.397	14811
857.53	14716
857.664	14670
857.797	14788
857.931	14819
858.064	14651
858.197	14880
858.331	14708
858.464	14640
858.597	14530
858.731	14697
858.864	14613
858.997	14655
859.13	14773
859.263	14655
859.396	14724
859.529	14598
859.662	14632
859.795	14659
859.928	14705
860.061	14857
860.194	14902
860.327	14777
860.46	14602
860.592	14708
860.725	14781
860.858	14746
860.99	14712
861.123	14549
861.256	14636
861.388	14731
861.521	15405
861.653	14476
861.786	14564
861.918	14579
862.05	14590
862.183	14689
862.315	14644
862.447	14663
862.58	14492
862.712	14408
862.844	14393
862.976	14465
863.108	14495
863.24	14826
863.372	14366
863.504	14454
863.636	14442
863.768	14465
863.9	14393
864.032	14294
864.164	14317
864.296	14465
864.428	14514
864.559	14541
864.691	14514
864.823	14495
864.954	14438
865.086	14396
865.217	14389
865.349	14381
865.48	14396
865.612	14446
865.743	14610
865.875	14381
866.006	14362
866.137	14476
866.269	14317
866.4	14309
866.531	14473
866.662	14404
866.793	14324
866.924	14408
867.055	14442
867.186	14469
867.317	14362
867.448	14328
867.579	14374
867.71	14324
867.841	14461
867.972	14278
868.103	14412
868.233	14499
868.364	14537
868.495	14522
868.625	14629
868.756	14754
868.886	14552
869.017	14644
869.147	14826
869.278	14777
869.408	14644
869.539	14705
869.669	14678
869.799	14807
869.929	14826
870.06	14823
870.19	15032
870.32	14933
870.45	15036
870.58	14994
870.71	15203
870.84	15123
870.97	14979
871.1	15157
871.23	15325
871.36	15279
871.489	15176
871.619	15252
871.749	15302
871.879	15264
872.008	15420
872.138	15245
872.267	15173
872.397	15161
872.526	15062
872.656	15013
872.785	15142
872.915	15313
873.044	15469
873.173	15348
873.303	15310
873.432	15340
873.561	15408
873.69	15340
873.819	15264
873.948	15329
874.077	15367
874.206	15294
874.335	15313
874.464	15374
874.593	15679
874.722	15485
874.851	15637
874.979	15587
875.108	15656
875.237	15545
875.365	15610
875.494	15492
875.623	15713
875.751	15545
875.88	15736
876.008	15728
876.136	15812
876.265	16059
876.393	16169
876.521	16112
876.65	16040
876.778	15964
876.906	15922
877.034	15987
877.162	15968
877.29	15934
877.418	16044
877.546	16090
877.674	15956
877.802	16063
877.93	16071
878.058	16036
878.185	15846
878.313	16071
878.441	16010
878.568	16002
878.696	16063
878.824	16124
878.951	16177
879.079	16325
879.206	16390
879.333	16207
879.461	16211
879.588	16230
879.715	16238
879.842	16337
879.97	16139
880.097	16044
880.224	15854
880.351	15953
880.478	15922
880.605	15983
880.732	15918
880.859	16120
880.986	15888
881.112	15945
881.239	15781
881.366	15690
881.493	15641
881.619	15462
881.746	15496
881.872	15469
881.999	15534
882.125	15500
882.252	15576
882.378	15587
882.505	15713
882.631	15454
882.757	15378
882.883	15454
883.01	15447
883.136	15325
883.262	15252
883.388	15241
883.514	15386
883.64	15401
883.766	15252
883.892	15165
884.018	15218
884.143	15466
884.269	15519
884.395	15146
884.52	15020
884.646	15001
884.772	15009
884.897	14971
885.023	15070
885.148	15230
885.274	15150
885.399	15173
885.524	15009
885.65	15085
885.775	14986
885.9	15055
886.025	15218
886.15	15085
886.275	15039
886.4	14979
886.525	15062
886.65	15009
886.775	14979
886.9	15100
887.025	15351
887.149	14941
887.274	14785
887.399	14834
887.523	14925
887.648	14819
887.773	14788
887.897	14826
888.021	14910
888.146	14853
888.27	14921
888.395	15074
888.519	14975
888.643	14960
888.767	14910
888.891	14823
889.015	14739
889.139	14811
889.263	14651
889.387	14864
889.511	14868
889.635	14883
889.759	14800
889.883	14765
890.006	14758
890.13	14864
890.254	14594
890.377	14701
890.501	14613
890.624	14541
890.748	14587
890.871	14541
890.995	14499
891.118	14423
891.241	14423
891.364	14454
891.488	14518
891.611	14461
891.734	14469
891.857	14533
891.98	14427
892.103	14522
892.226	14469
892.349	14434
892.471	14275
892.594	14461
892.717	14320
892.839	14427
892.962	14400
893.085	14579
893.207	14412
893.33	14320
893.452	14347
893.575	14564
893.697	14393
893.819	14526
893.941	14613
894.064	14590
894.186	14442
894.308	14320
894.43	14587
894.552	14583
894.674	14606
894.796	14389
894.918	14552
895.04	14461
895.161	14575
895.283	14503
895.405	14560
895.526	14442
895.648	14545
895.769	14602
895.891	14533
896.012	14663
896.134	14670
896.255	14636
896.376	14621
896.498	14590
896.619	14670
896.74	14606
896.861	14610
896.982	14933
897.103	15154
897.224	14785
897.345	14895
897.466	14712
897.587	14807
897.708	14849
897.828	14887
897.949	14861
898.07	14720
898.19	14842
898.311	14895
898.431	14967
898.552	14872
898.672	15100
898.792	15005
898.913	14960
899.033	14864
899.153	14811
899.273	14686
899.393	14701
899.513	14746
899.633	14712
899.753	14724
899.873	14750
899.993	14796
900.113	14735
900.232	14819
900.352	14716
900.472	14659
900.591	14518
900.711	14640
900.83	14560
900.95	14682
901.069	14689
901.189	14621
901.308	14339
901.427	14221
901.546	14320
901.665	14339
901.784	14248
901.904	14202
902.023	13978
902.141	13940
902.26	13776
902.379	13955
902.498	13818
902.617	13750
902.735	14005
902.854	13822
902.973	13750
903.091	13567
903.21	13578
903.328	13563
903.446	13575
903.565	13354
903.683	13426
903.801	13358
903.919	13422
904.038	13350
904.156	13274
904.274	13259
904.392	13247
904.51	13278
904.627	13194
904.745	13225
904.863	13221
904.981	13091
905.098	12973
905.216	12958
905.334	12970
905.451	12939
905.569	12924
905.686	13015
905.803	12966
905.921	12707
906.038	12935
906.155	12821
906.272	12707
906.389	12669
906.506	12521
906.623	12597
906.74	12517
906.857	12380
906.974	12418
907.091	12589
907.208	12578
907.324	12566
907.441	12479
907.557	12285
907.674	12201
907.79	12224
907.907	12277
908.023	12304
908.139	12300
908.256	12194
908.372	12216
908.488	12182
908.604	12003
908.72	12030
908.836	12129
908.952	12011
909.068	12053
909.184	12155
909.3	12072
909.415	12163
909.531	12041
909.647	11859
909.762	11836
909.878	11870
909.993	11870
910.108	11889
910.224	11767
910.339	11775
910.454	11623
910.57	11676
910.685	11608
910.8	11866
910.915	11843
911.03	11714
911.145	11543
911.259	11543
911.374	11455
911.489	11425
911.604	11330
911.718	11216
911.833	11239
911.947	11147
912.062	11083
912.176	11265
912.291	11250
912.405	11284
912.519	11410
912.633	11535
912.748	11284
912.862	11356
912.976	11090
913.09	10965
913.204	11079
913.318	11212
913.431	11147
913.545	11227
913.659	11178
913.772	11204
913.886	11010
914	10984
914.113	11109
914.226	11105
914.34	11193
914.453	10877
914.566	11109
914.68	11006
914.793	10930
914.906	10733
915.019	10748
915.132	10656
915.245	10740
915.358	10782
915.47	10733
915.583	10782
915.696	10748
915.809	10843
915.921	10923
916.034	10691
916.146	10622
916.259	10615
916.371	10755
916.483	10698
916.595	10626
916.708	10683
916.82	10641
916.932	10622
917.044	10679
917.156	10653
917.268	10478
917.38	10599
917.491	10516
917.603	10607
917.715	10668
917.826	10691
917.938	10554
918.049	10470
918.161	10641
918.272	10664
918.384	10672
918.495	10584
918.606	10375
918.717	10318
918.828	10417
918.939	10417
919.05	10402
919.161	10428
919.272	10124
919.383	10303
919.494	10447
919.604	10603
919.715	10428
919.826	10371
919.936	10466
920.047	10584
920.157	10596
920.267	10645
920.378	10493
920.488	10500
920.598	10630
920.708	10714
920.818	10637
920.928	10694
921.038	10744
921.148	10786
921.258	10573
921.368	10379
921.477	10337
921.587	10268
921.697	10227
921.806	10390
921.916	10204
922.025	10082
922.134	10025
922.244	9930
922.353	9991
922.462	9956
922.571	9812
922.68	9781
922.789	9637
922.898	9747
923.007	9584
923.116	9690
923.224	9682
923.333	9671
923.442	9648
923.55	9538
923.659	9656
923.767	9622
923.876	9549
923.984	9682
924.092	9523
924.201	9584
924.309	9542
924.417	9625
924.525	9473
924.633	9587
924.741	10299
924.849	9298
924.956	9454
925.064	9287
925.172	9176
925.279	9218
925.387	9317
925.494	9332
925.602	9507
925.709	9367
925.816	9291
925.924	9310
926.031	9439
926.138	9317
926.245	9447
926.352	9325
926.459	9367
926.566	9408
926.673	9317
926.779	9123
926.886	9233
926.993	9066
927.099	9051
927.206	8914
927.312	8956
927.419	9036
927.525	9039
927.631	9074
927.737	8963
927.843	8948
927.95	8781
928.056	8918
928.162	8929
928.267	9013
928.373	9519
928.479	9032
928.585	8804
928.69	8872
928.796	8956
928.901	8838
929.007	8720
929.112	8845
929.218	8804
929.323	8674
929.428	8693
929.533	8883
929.638	8674
929.743	8708
929.848	8754
929.953	8708
930.058	8636
930.163	8473
930.267	8526
930.372	8663
930.477	8507
930.581	8648
930.685	8667
930.79	8400
930.894	8511
930.998	8434
931.103	8545
931.207	8351
931.311	8134
931.415	8111
931.519	7917
931.623	7944
