Data from test_V78500241_557.txt Node
Date: Fri Mar 25 14:37:35 CST 2022
User: usil
Spectrometer: V785-0024
Trigger mode: 0
Integration Time (sec): 4.000000E-1
Scans to average: 1
Nonlinearity correction enabled: false
Boxcar width: 0
Storing dark spectrum: false
XAxis mode: Wavelengths
Number of Pixels in Spectrum: 1024
>>>>>Begin Spectral Data<<<<<
801.071	27637
801.214	27553
801.356	27397
801.499	27195
801.641	27291
801.783	27138
801.926	27165
802.068	27085
802.211	26864
802.353	26792
802.496	26636
802.638	26655
802.78	26518
802.923	26556
803.065	26434
803.208	26412
803.35	26533
803.492	26754
803.635	26701
803.777	26613
803.919	26705
804.061	26971
804.204	26762
804.346	26663
804.488	26636
804.63	26648
804.773	26549
804.915	26571
805.057	26876
805.199	26682
805.341	26940
805.483	26868
805.626	26902
805.768	26982
805.91	26963
806.052	26975
806.194	27039
806.336	27477
806.478	27313
806.62	27340
806.762	27606
806.904	27686
807.046	28284
807.188	28249
807.33	28447
807.472	28809
807.614	29052
807.756	29520
807.898	29832
808.04	30707
808.182	31879
808.324	33013
808.465	34478
808.607	35935
808.749	37468
808.891	38278
809.033	38210
809.174	37373
809.316	35832
809.458	34215
809.6	32731
809.741	31369
809.883	30505
810.025	29889
810.166	29353
810.308	29029
810.45	28706
810.591	28261
810.733	28055
810.875	27789
811.016	27705
811.158	27511
811.299	27618
811.441	27690
811.582	27576
811.724	27496
811.865	27222
812.007	27275
812.148	27108
812.29	27272
812.431	27180
812.573	27389
812.714	27485
812.855	27473
812.997	27625
813.138	27732
813.279	27557
813.421	27515
813.562	27431
813.703	27306
813.845	27169
813.986	26655
814.127	26480
814.268	26469
814.41	26415
814.551	26412
814.692	26412
814.833	26336
814.974	26267
815.115	26286
815.256	26145
815.397	26202
815.539	26218
815.68	26077
815.821	26031
815.962	26069
816.103	25959
816.244	25780
816.385	25685
816.526	25624
816.666	25521
816.807	25396
816.948	25483
817.089	25533
817.23	25293
817.371	25369
817.512	25301
817.653	25255
817.793	25270
817.934	25327
818.075	25346
818.216	25293
818.356	25202
818.497	25266
818.638	24981
818.778	25133
818.919	25095
819.06	25110
819.2	25160
819.341	25198
819.481	25251
819.622	25346
819.762	25464
819.903	25445
820.043	25441
820.184	25453
820.324	25358
820.465	25285
820.605	25164
820.746	25145
820.886	25114
821.026	25137
821.167	25088
821.307	25206
821.447	25148
821.588	24996
821.728	24825
821.868	24738
822.008	24437
822.149	24521
822.289	24464
822.429	24300
822.569	24057
822.709	24213
822.849	24057
822.99	23984
823.13	23973
823.27	23843
823.41	23722
823.55	23509
823.69	23745
823.83	23821
823.97	23710
824.11	23452
824.25	23410
824.389	23425
824.529	23623
824.669	23414
824.809	23581
824.949	23425
825.089	23471
825.228	23478
825.368	23353
825.508	23261
825.648	23269
825.787	23307
825.927	23254
826.067	23189
826.206	23311
826.346	23356
826.485	23280
826.625	23258
826.765	23368
826.904	23258
827.044	23079
827.183	23048
827.323	23033
827.462	22984
827.601	22961
827.741	22999
827.88	23048
828.02	22866
828.159	22869
828.298	22976
828.437	22900
828.577	22790
828.716	23052
828.855	22748
828.994	22573
829.134	22618
829.273	22710
829.412	22592
829.551	22637
829.69	22565
829.829	22694
829.968	22733
830.107	22721
830.246	22455
830.385	22466
830.524	22497
830.663	22386
830.802	22272
830.941	22322
831.08	22093
831.219	22352
831.357	22265
831.496	22329
831.635	22272
831.774	22192
831.913	22048
832.051	22040
832.19	22124
832.329	22044
832.467	21915
832.606	21892
832.744	21835
832.883	22029
833.022	22006
833.16	21968
833.299	22101
833.437	22070
833.576	22181
833.714	22268
833.852	22322
833.991	22295
834.129	22584
834.267	22497
834.406	22451
834.544	22432
834.682	22462
834.821	22246
834.959	22226
835.097	22204
835.235	22207
835.373	21964
835.511	22116
835.65	21979
835.788	21960
835.926	21720
836.064	21504
836.202	21564
836.34	21762
836.478	21800
836.615	21690
836.753	21580
836.891	21656
837.029	21660
837.167	21591
837.305	21481
837.443	21507
837.58	21431
837.718	21572
837.856	21412
837.993	21458
838.131	21458
838.269	21386
838.406	21348
838.544	21325
838.681	21157
838.819	20944
838.956	20948
839.094	21043
839.231	20918
839.369	21161
839.506	21207
839.643	21283
839.781	20910
839.918	20792
840.055	20921
840.193	20960
840.33	20777
840.467	20902
840.604	20861
840.742	21154
840.879	20731
841.016	20823
841.153	20765
841.29	20998
841.427	20781
841.564	20887
841.701	20773
841.838	20674
841.975	20629
842.112	20819
842.249	20587
842.385	20598
842.522	20849
842.659	20629
842.796	20590
842.933	20693
843.069	20727
843.206	20549
843.343	20819
843.479	20716
843.616	20663
843.752	20575
843.889	20549
844.025	20705
844.162	20556
844.298	20743
844.435	20708
844.571	20716
844.708	20914
844.844	21062
844.98	21363
845.117	21591
845.253	21960
845.389	22763
845.525	24292
845.661	26971
845.798	30136
845.934	32667
846.07	33709
846.206	33351
846.342	31320
846.478	27911
846.614	24970
846.75	23006
846.886	21865
847.022	21397
847.158	20811
847.294	20484
847.429	20343
847.565	20233
847.701	20362
847.837	19841
847.972	19837
848.108	19856
848.244	19822
848.379	19597
848.515	19510
848.65	19430
848.786	19434
848.921	19472
849.057	19567
849.192	19613
849.328	19445
849.463	19381
849.598	19426
849.734	19312
849.869	19168
850.004	19263
850.14	19194
850.275	19168
850.41	19152
850.545	19141
850.68	19084
850.815	19240
850.95	19171
851.085	19297
851.22	19236
851.355	19187
851.49	19183
851.625	19118
851.76	19126
851.895	18970
852.03	19015
852.165	19091
852.299	19099
852.434	19171
852.569	19236
852.703	19225
852.838	19175
852.973	19266
853.107	19335
853.242	19160
853.376	19103
853.511	18909
853.645	19084
853.78	19225
853.914	19171
854.048	19126
854.183	19129
854.317	19190
854.451	19301
854.585	19148
854.72	19198
854.854	19114
854.988	18943
855.122	19069
855.256	18939
855.39	19126
855.524	19084
855.658	19099
855.792	19012
855.926	19057
856.06	18939
856.194	19065
856.327	18924
856.461	18970
856.595	18905
856.729	18871
856.862	19076
856.996	18924
857.13	18996
857.263	19038
857.397	19061
857.53	18871
857.664	18890
857.797	18939
857.931	19019
858.064	19008
858.197	19072
858.331	18951
858.464	18833
858.597	18707
858.731	18829
858.864	18837
858.997	18837
859.13	18871
859.263	18878
859.396	18825
859.529	18829
859.662	18738
859.795	18817
859.928	18859
860.061	18977
860.194	18958
860.327	18943
860.46	18814
860.592	19008
860.725	18916
860.858	18890
860.99	18795
861.123	18719
861.256	18700
861.388	18844
861.521	19548
861.653	18738
861.786	18757
861.918	18669
862.05	18795
862.183	18772
862.315	18852
862.447	18913
862.58	18741
862.712	18578
862.844	18608
862.976	18646
863.108	18604
863.24	18943
863.372	18528
863.504	18555
863.636	18525
863.768	18555
863.9	18547
864.032	18433
864.164	18494
864.296	18486
864.428	18475
864.559	18540
864.691	18559
864.823	18525
864.954	18422
865.086	18486
865.217	18467
865.349	18433
865.48	18376
865.612	18418
865.743	18589
865.875	18536
866.006	18467
866.137	18410
866.269	18399
866.4	18513
866.531	18498
866.662	18346
866.793	18247
866.924	18376
867.055	18437
867.186	18403
867.317	18232
867.448	18273
867.579	18338
867.71	18209
867.841	18334
867.972	18391
868.103	18506
868.233	18384
868.364	18376
868.495	18361
868.625	18673
868.756	18692
868.886	18448
869.017	18589
869.147	18798
869.278	18760
869.408	18677
869.539	18639
869.669	18764
869.799	18700
869.929	18734
870.06	18745
870.19	18913
870.32	18837
870.45	18825
870.58	19004
870.71	19213
870.84	19232
870.97	19148
871.1	19133
871.23	19198
871.36	19209
871.489	19175
871.619	19236
871.749	19145
871.879	19228
872.008	19354
872.138	19354
872.267	19377
872.397	19110
872.526	19145
872.656	19206
872.785	19179
872.915	19293
873.044	19434
873.173	19339
873.303	19430
873.432	19460
873.561	19529
873.69	19358
873.819	19343
873.948	19613
874.077	19502
874.206	19468
874.335	19449
874.464	19677
874.593	19734
874.722	19769
874.851	19913
874.979	19807
875.108	19788
875.237	19791
875.365	19818
875.494	19856
875.623	19959
875.751	19887
875.88	19906
876.008	20073
876.136	20187
876.265	20366
876.393	20644
876.521	20480
876.65	20583
876.778	20511
876.906	20492
877.034	20533
877.162	20533
877.29	20697
877.418	20590
877.546	20674
877.674	20598
877.802	20811
877.93	20773
878.058	20902
878.185	20883
878.313	21146
878.441	21252
878.568	21336
878.696	21778
878.824	22200
878.951	22721
879.079	23383
879.206	24536
879.333	25460
879.461	26168
879.588	26880
879.715	26773
879.842	26488
879.97	25529
880.097	24224
880.224	23551
880.351	22896
880.478	22531
880.605	22234
880.732	22120
880.859	22284
880.986	21918
881.112	21884
881.239	21637
881.366	21633
881.493	21561
881.619	21386
881.746	21469
881.872	21496
881.999	21393
882.125	21511
882.252	21580
882.378	21477
882.505	21671
882.631	21443
882.757	21306
882.883	21424
883.01	21351
883.136	21207
883.262	21252
883.388	21112
883.514	21374
883.64	21298
883.766	21226
883.892	21005
884.018	21116
884.143	21252
884.269	21287
884.395	21013
884.52	20918
884.646	20990
884.772	20864
884.897	20891
885.023	20960
885.148	21127
885.274	21089
885.399	20918
885.524	20823
885.65	20769
885.775	20746
885.9	20712
886.025	20750
886.15	20549
886.275	20377
886.4	20309
886.525	20400
886.65	20191
886.775	20138
886.9	20419
887.025	20362
887.149	19993
887.274	19898
887.399	19795
887.523	19731
887.648	19738
887.773	19651
887.897	19658
888.021	19693
888.146	19575
888.27	19651
888.395	19742
888.519	19571
888.643	19556
888.767	19601
888.891	19472
889.015	19259
889.139	19183
889.263	19285
889.387	19236
889.511	19411
889.635	19285
889.759	19247
889.883	19175
890.006	19069
890.13	19232
890.254	19061
890.377	19042
890.501	18840
890.624	18726
890.748	18939
890.871	18700
890.995	18654
891.118	18684
891.241	18570
891.364	18551
891.488	18639
891.611	18509
891.734	18555
891.857	18521
891.98	18563
892.103	18528
892.226	18597
892.349	18441
892.471	18277
892.594	18437
892.717	18433
892.839	18342
892.962	18414
893.085	18372
893.207	18315
893.33	18350
893.452	18254
893.575	18391
893.697	18247
893.819	18448
893.941	18452
894.064	18365
894.186	18167
894.308	18155
894.43	18346
894.552	18334
894.674	18262
894.796	18133
894.918	18167
895.04	18308
895.161	18136
895.283	18182
895.405	18163
895.526	18239
895.648	18148
895.769	18079
895.891	18289
896.012	18289
896.134	18216
896.255	18178
896.376	18083
896.498	18216
896.619	18262
896.74	18281
896.861	18304
896.982	18589
897.103	18677
897.224	18376
897.345	18410
897.466	18338
897.587	18448
897.708	18452
897.828	18494
897.949	18289
898.07	18235
898.19	18323
898.311	18475
898.431	18289
898.552	18388
898.672	18521
898.792	18407
898.913	18414
899.033	18361
899.153	18148
899.273	18064
899.393	18232
899.513	18167
899.633	18117
899.753	18300
899.873	18167
899.993	18163
900.113	18125
900.232	18258
900.352	18140
900.472	17965
900.591	17946
900.711	18041
900.83	17901
900.95	17988
901.069	18114
901.189	17878
901.308	17630
901.427	17532
901.546	17615
901.665	17547
901.784	17608
901.904	17402
902.023	17296
902.141	17128
902.26	17033
902.379	17140
902.498	17056
902.617	17033
902.735	17071
902.854	16991
902.973	16892
903.091	16809
903.21	16740
903.328	16771
903.446	16596
903.565	16538
903.683	16421
903.801	16333
903.919	16402
904.038	16455
904.156	16291
904.274	16341
904.392	16310
904.51	16360
904.627	16276
904.745	16280
904.863	16276
904.981	16071
905.098	15964
905.216	15865
905.334	15907
905.451	15949
905.569	15873
905.686	15865
905.803	15930
905.921	15637
906.038	15751
906.155	15747
906.272	15663
906.389	15610
906.506	15469
906.623	15397
906.74	15412
906.857	15256
906.974	15359
907.091	15401
907.208	15671
907.324	15443
907.441	15355
907.557	15142
907.674	15089
907.79	15001
907.907	15131
908.023	15138
908.139	15222
908.256	15070
908.372	14975
908.488	14963
908.604	14853
908.72	14830
908.836	14815
908.952	14857
909.068	14910
909.184	14887
909.3	14785
909.415	14804
909.531	14891
909.647	14598
909.762	14663
909.878	14480
909.993	14537
910.108	14511
910.224	14537
910.339	14484
910.454	14400
910.57	14313
910.685	14343
910.8	14613
910.915	14396
911.03	14343
911.145	14263
911.259	14206
911.374	14134
911.489	14145
911.604	14035
911.718	13868
911.833	13871
911.947	13822
912.062	13753
912.176	13944
912.291	13864
912.405	13890
912.519	14206
912.633	13993
912.748	13978
912.862	13864
912.976	13769
913.09	13624
913.204	13616
913.318	13750
913.431	13814
913.545	13803
913.659	13795
913.772	13677
913.886	13647
914	13559
914.113	13681
914.226	13674
914.34	13708
914.453	13400
914.566	13537
914.68	13533
914.793	13464
914.906	13320
915.019	13327
915.132	13232
915.245	13346
915.358	13263
915.47	13282
915.583	13343
915.696	13324
915.809	13381
915.921	13400
916.034	13187
916.146	13228
916.259	13149
916.371	13251
916.483	13289
916.595	13179
916.708	13103
916.82	13156
916.932	13168
917.044	13118
917.156	13053
917.268	13008
917.38	13061
917.491	12947
917.603	12973
917.715	12962
917.826	13088
917.938	12905
918.049	12859
918.161	12875
918.272	13187
918.384	13084
918.495	12882
918.606	12741
918.717	12753
918.828	12776
918.939	12798
919.05	12635
919.161	12715
919.272	12483
919.383	12544
919.494	12787
919.604	12943
919.715	12738
919.826	12662
919.936	12700
920.047	12688
920.157	12787
920.267	12920
920.378	12741
920.488	12738
920.598	12878
920.708	12962
920.818	12901
920.928	12837
921.038	13072
921.148	13023
921.258	12688
921.368	12578
921.477	12528
921.587	12467
921.697	12384
921.806	12540
921.916	12369
922.025	12247
922.134	12083
922.244	12083
922.353	12235
922.462	11996
922.571	11950
922.68	11843
922.789	11733
922.898	11828
923.007	11741
923.116	11802
923.224	11767
923.333	11771
923.442	11748
923.55	11604
923.659	11710
923.767	11756
923.876	11600
923.984	11718
924.092	11505
924.201	11630
924.309	11547
924.417	11566
924.525	11524
924.633	11520
924.741	12243
924.849	11379
924.956	11398
925.064	11273
925.172	11189
925.279	11299
925.387	11299
925.494	11322
925.602	11444
925.709	11421
925.816	11151
925.924	11277
926.031	11433
926.138	11307
926.245	11326
926.352	11231
926.459	11318
926.566	11383
926.673	11261
926.779	11075
926.886	11025
926.993	10987
927.099	10900
927.206	10930
927.312	10904
927.419	10953
927.525	10904
927.631	10942
927.737	10919
927.843	10843
927.95	10698
928.056	10672
928.162	10805
928.267	10862
928.373	11414
928.479	10911
928.585	10698
928.69	10786
928.796	10790
928.901	10656
929.007	10558
929.112	10752
929.218	10588
929.323	10660
929.428	10561
929.533	10634
929.638	10523
929.743	10497
929.848	10569
929.953	10573
930.058	10455
930.163	10227
930.267	10322
930.372	10489
930.477	10291
930.581	10500
930.685	10280
930.79	10112
930.894	10204
930.998	10188
931.103	10363
931.207	9873
931.311	9854
931.415	9762
931.519	9656
931.623	9637
