Data from test_V78500241_2205.txt Node
Date: Fri Mar 25 14:49:03 CST 2022
User: usil
Spectrometer: V785-0024
Trigger mode: 0
Integration Time (sec): 4.000000E-1
Scans to average: 1
Nonlinearity correction enabled: false
Boxcar width: 0
Storing dark spectrum: false
XAxis mode: Wavelengths
Number of Pixels in Spectrum: 1024
>>>>>Begin Spectral Data<<<<<
801.071	22291
801.214	22044
801.356	21922
801.499	21827
801.641	21538
801.783	21545
801.926	21519
802.068	21473
802.211	21397
802.353	21310
802.496	21203
802.638	21032
802.78	20986
802.923	20975
803.065	20883
803.208	20925
803.35	20861
803.492	20982
803.635	20937
803.777	20921
803.919	21036
804.061	21154
804.204	21074
804.346	20853
804.488	20819
804.63	20807
804.773	20872
804.915	20777
805.057	20982
805.199	20880
805.341	20994
805.483	20914
805.626	20887
805.768	20754
805.91	20800
806.052	20750
806.194	20746
806.336	20918
806.478	20925
806.62	20929
806.762	20914
806.904	20986
807.046	21203
807.188	21154
807.33	21036
807.472	21245
807.614	21123
807.756	21108
807.898	21036
808.04	20864
808.182	20937
808.324	20918
808.465	20979
808.607	21112
808.749	21256
808.891	21275
809.033	21416
809.174	21256
809.316	21161
809.458	21138
809.6	21131
809.741	21260
809.883	21275
810.025	21374
810.166	21306
810.308	21340
810.45	21302
810.591	21256
810.733	21161
810.875	20956
811.016	20918
811.158	20796
811.299	20937
811.441	21020
811.582	21070
811.724	21024
811.865	20906
812.007	20880
812.148	20986
812.29	20937
812.431	21184
812.573	21294
812.714	21382
812.855	21332
812.997	21564
813.138	21671
813.279	21618
813.421	21408
813.562	21435
813.703	21279
813.845	21104
813.986	20857
814.127	20758
814.268	20636
814.41	20594
814.551	20522
814.692	20564
814.833	20434
814.974	20484
815.115	20469
815.256	20320
815.397	20465
815.539	20400
815.68	20164
815.821	20130
815.962	20271
816.103	20134
816.244	20187
816.385	19982
816.526	19902
816.666	19875
816.807	19746
816.948	19685
817.089	19780
817.23	19719
817.371	19658
817.512	19601
817.653	19594
817.793	19662
817.934	19563
818.075	19696
818.216	19616
818.356	19514
818.497	19396
818.638	19301
818.778	19411
818.919	19308
819.06	19346
819.2	19434
819.341	19518
819.481	19525
819.622	19666
819.762	19776
819.903	19696
820.043	19791
820.184	19662
820.324	19677
820.465	19597
820.605	19510
820.746	19639
820.886	19495
821.026	19670
821.167	19632
821.307	19613
821.447	19559
821.588	19502
821.728	19308
821.868	19095
822.008	19023
822.149	19046
822.289	19034
822.429	18814
822.569	18604
822.709	18677
822.849	18509
822.99	18471
823.13	18486
823.27	18399
823.41	18365
823.55	18262
823.69	18209
823.83	18361
823.97	18254
824.11	18106
824.25	18121
824.389	18083
824.529	18083
824.669	18064
824.809	18117
824.949	18121
825.089	18049
825.228	18125
825.368	17931
825.508	17878
825.648	17931
825.787	17961
825.927	17935
826.067	17870
826.206	17889
826.346	17874
826.485	17843
826.625	17817
826.765	17878
826.904	17882
827.044	17611
827.183	17630
827.323	17429
827.462	17535
827.601	17493
827.741	17611
827.88	17623
828.02	17505
828.159	17501
828.298	17528
828.437	17676
828.577	17448
828.716	17665
828.855	17467
828.994	17258
829.134	17273
829.273	17334
829.412	17345
829.551	17162
829.69	17155
829.829	17356
829.968	17368
830.107	17387
830.246	17349
830.385	17299
830.524	17261
830.663	17056
830.802	17010
830.941	17010
831.08	16820
831.219	17098
831.357	17029
831.496	17151
831.635	16828
831.774	16835
831.913	16850
832.051	16736
832.19	16687
832.329	16653
832.467	16653
832.606	16538
832.744	16546
832.883	16573
833.022	16618
833.16	16622
833.299	16580
833.437	16668
833.576	16698
833.714	16683
833.852	16641
833.991	16698
834.129	16717
834.267	16744
834.406	16645
834.544	16649
834.682	16637
834.821	16672
834.959	16744
835.097	16626
835.235	16793
835.373	16535
835.511	16607
835.65	16554
835.788	16599
835.926	16436
836.064	16371
836.202	16443
836.34	16664
836.478	16584
836.615	16516
836.753	16535
836.891	16599
837.029	16607
837.167	16462
837.305	16493
837.443	16436
837.58	16417
837.718	16413
837.856	16337
837.993	16466
838.131	16421
838.269	16325
838.406	16265
838.544	16181
838.681	16112
838.819	16078
838.956	15960
839.094	15869
839.231	16002
839.369	16101
839.506	16314
839.643	16246
839.781	15983
839.918	15937
840.055	16055
840.193	15941
840.33	15876
840.467	15968
840.604	15975
840.742	16135
840.879	15892
841.016	15739
841.153	15884
841.29	16048
841.427	16025
841.564	15979
841.701	15949
841.838	15888
841.975	15895
842.112	15869
842.249	15690
842.385	15671
842.522	15972
842.659	15747
842.796	15694
842.933	15804
843.069	15652
843.206	15701
843.343	15766
843.479	15709
843.616	15808
843.752	15553
843.889	15466
844.025	15622
844.162	15420
844.298	15606
844.435	15564
844.571	15469
844.708	15549
844.844	15633
844.98	15622
845.117	15606
845.253	15568
845.389	15329
845.525	15428
845.661	15351
845.798	15260
845.934	15431
846.07	15214
846.206	15317
846.342	15481
846.478	15329
846.614	14990
846.75	15032
846.886	14998
847.022	15260
847.158	15112
847.294	15081
847.429	15131
847.565	15036
847.701	15329
847.837	14804
847.972	14796
848.108	14773
848.244	14880
848.379	14785
848.515	14663
848.65	14613
848.786	14750
848.921	14625
849.057	14826
849.192	14838
849.328	14693
849.463	14807
849.598	14674
849.734	14651
849.869	14507
850.004	14457
850.14	14427
850.275	14469
850.41	14362
850.545	14358
850.68	14431
850.815	14484
850.95	14484
851.085	14590
851.22	14602
851.355	14556
851.49	14476
851.625	14389
851.76	14374
851.895	14339
852.03	14355
852.165	14408
852.299	14514
852.434	14568
852.569	14492
852.703	14450
852.838	14518
852.973	14564
853.107	14545
853.242	14488
853.376	14248
853.511	14233
853.645	14381
853.78	14492
853.914	14412
854.048	14218
854.183	14347
854.317	14294
854.451	14537
854.585	14317
854.72	14370
854.854	14389
854.988	14225
855.122	14271
855.256	14130
855.39	14282
855.524	14309
855.658	14419
855.792	14374
855.926	14286
856.06	14377
856.194	14465
856.327	14282
856.461	14221
856.595	14256
856.729	14259
856.862	14427
856.996	14282
857.13	14454
857.263	14461
857.397	14404
857.53	14366
857.664	14408
857.797	14404
857.931	14355
858.064	14301
858.197	14434
858.331	14366
858.464	14244
858.597	14237
858.731	14309
858.864	14374
858.997	14362
859.13	14248
859.263	14317
859.396	14328
859.529	14313
859.662	14313
859.795	14336
859.928	14237
860.061	14514
860.194	14549
860.327	14328
860.46	14328
860.592	14408
860.725	14415
860.858	14336
860.99	14320
861.123	14286
861.256	14328
861.388	14339
861.521	14857
861.653	14221
861.786	14020
861.918	14248
862.05	14256
862.183	14256
862.315	14256
862.447	14286
862.58	14229
862.712	14107
862.844	14005
862.976	14115
863.108	14130
863.24	14454
863.372	14050
863.504	14123
863.636	14164
863.768	14134
863.9	14123
864.032	14024
864.164	13978
864.296	14142
864.428	14168
864.559	14336
864.691	14225
864.823	14103
864.954	14142
865.086	14142
865.217	14035
865.349	13967
865.48	14138
865.612	14077
865.743	14202
865.875	14161
866.006	13986
866.137	14107
866.269	14043
866.4	14039
866.531	14142
866.662	13959
866.793	13997
866.924	13982
867.055	13982
867.186	14058
867.317	13951
867.448	13986
867.579	14069
867.71	14001
867.841	14046
867.972	14046
868.103	14073
868.233	14077
868.364	14164
868.495	14103
868.625	14286
868.756	14434
868.886	14290
869.017	14298
869.147	14552
869.278	14457
869.408	14347
869.539	14396
869.669	14412
869.799	14423
869.929	14366
870.06	14290
870.19	14693
870.32	14632
870.45	14674
870.58	14701
870.71	14895
870.84	14864
870.97	14670
871.1	14651
871.23	14853
871.36	14872
871.489	14811
871.619	14861
871.749	14933
871.879	14937
872.008	14971
872.138	14925
872.267	14796
872.397	14880
872.526	14716
872.656	14743
872.785	14746
872.915	14876
873.044	14933
873.173	15020
873.303	15017
873.432	14994
873.561	15100
873.69	14929
873.819	14979
873.948	15085
874.077	15013
874.206	14994
874.335	15009
874.464	15214
874.593	15336
874.722	15222
874.851	15332
874.979	15367
875.108	15233
875.237	15176
875.365	15119
875.494	15355
875.623	15424
875.751	15252
875.88	15298
876.008	15492
876.136	15507
876.265	15644
876.393	15869
876.521	15895
876.65	15713
876.778	15675
876.906	15614
877.034	15614
877.162	15675
877.29	15667
877.418	15747
877.546	15682
877.674	15690
877.802	15663
877.93	15705
878.058	15705
878.185	15553
878.313	15682
878.441	15667
878.568	15519
878.696	15629
878.824	15682
878.951	15785
879.079	15831
879.206	15991
879.333	15915
879.461	15717
879.588	15823
879.715	15861
879.842	16055
879.97	15747
880.097	15572
880.224	15538
880.351	15614
880.478	15610
880.605	15523
880.732	15485
880.859	15671
880.986	15622
881.112	15538
881.239	15473
881.366	15287
881.493	15260
881.619	15161
881.746	15154
881.872	15188
881.999	15207
882.125	15184
882.252	15321
882.378	15230
882.505	15431
882.631	15192
882.757	14925
882.883	15055
883.01	15051
883.136	15013
883.262	14887
883.388	14906
883.514	15081
883.64	15085
883.766	15020
883.892	14724
884.018	14914
884.143	14941
884.269	15093
884.395	14845
884.52	14697
884.646	14807
884.772	14590
884.897	14606
885.023	14762
885.148	14921
885.274	14842
885.399	14823
885.524	14788
885.65	14830
885.775	14781
885.9	14644
886.025	14819
886.15	14788
886.275	14636
886.4	14663
886.525	14712
886.65	14697
886.775	14697
886.9	14804
887.025	14952
887.149	14659
887.274	14473
887.399	14522
887.523	14564
887.648	14480
887.773	14507
887.897	14602
888.021	14598
888.146	14541
888.27	14549
888.395	14708
888.519	14632
888.643	14670
888.767	14629
888.891	14526
889.015	14362
889.139	14431
889.263	14393
889.387	14412
889.511	14621
889.635	14465
889.759	14393
889.883	14408
890.006	14438
890.13	14530
890.254	14400
890.377	14396
890.501	14225
890.624	14305
890.748	14377
890.871	14180
890.995	14008
891.118	14031
891.241	14111
891.364	14058
891.488	14164
891.611	14107
891.734	14134
891.857	14069
891.98	14100
892.103	14225
892.226	14043
892.349	14035
892.471	13951
892.594	14077
892.717	14149
892.839	14001
892.962	14138
893.085	14161
893.207	14119
893.33	13894
893.452	14012
893.575	14065
893.697	14142
893.819	14218
893.941	14336
894.064	14282
894.186	14046
894.308	14161
894.43	14305
894.552	14324
894.674	14309
894.796	14103
894.918	14168
895.04	14210
895.161	14225
895.283	14164
895.405	14199
895.526	14191
895.648	14233
895.769	14240
895.891	14256
896.012	14370
896.134	14290
896.255	14324
896.376	14267
896.498	14317
896.619	14290
896.74	14252
896.861	14408
896.982	14537
897.103	14754
897.224	14560
897.345	14549
897.466	14499
897.587	14568
897.708	14670
897.828	14587
897.949	14537
898.07	14457
898.19	14518
898.311	14670
898.431	14575
898.552	14655
898.672	14724
898.792	14762
898.913	14632
899.033	14537
899.153	14465
899.273	14400
899.393	14480
899.513	14556
899.633	14484
899.753	14488
899.873	14514
899.993	14556
900.113	14461
900.232	14571
900.352	14461
900.472	14396
900.591	14358
900.711	14438
900.83	14366
900.95	14446
901.069	14446
901.189	14339
901.308	14157
901.427	14016
901.546	14027
901.665	14058
901.784	14130
901.904	13925
902.023	13780
902.141	13689
902.26	13628
902.379	13647
902.498	13605
902.617	13601
902.735	13616
902.854	13575
902.973	13540
903.091	13434
903.21	13365
903.328	13365
903.446	13236
903.565	13217
903.683	13080
903.801	13122
903.919	13198
904.038	13110
904.156	13034
904.274	13012
904.392	12993
904.51	12878
904.627	13072
904.745	13069
904.863	13023
904.981	12810
905.098	12719
905.216	12692
905.334	12757
905.451	12738
905.569	12601
905.686	12757
905.803	12688
905.921	12479
906.038	12601
906.155	12532
906.272	12403
906.389	12403
906.506	12273
906.623	12216
906.74	12182
906.857	12117
906.974	12216
907.091	12418
907.208	12323
907.324	12296
907.441	12228
907.557	12011
907.674	11961
907.79	11866
907.907	11961
908.023	12087
908.139	12045
908.256	12019
908.372	11961
908.488	11961
908.604	11767
908.72	11809
908.836	11775
908.952	11729
909.068	11783
909.184	11923
909.3	11836
909.415	11885
909.531	11691
909.647	11596
909.762	11600
909.878	11520
909.993	11547
910.108	11528
910.224	11505
910.339	11497
910.454	11501
910.57	11364
910.685	11326
910.8	11691
910.915	11596
911.03	11410
911.145	11258
911.259	11220
911.374	11246
911.489	11174
911.604	11124
911.718	11041
911.833	11079
911.947	10873
912.062	10881
912.176	10953
912.291	11006
912.405	11060
912.519	11102
912.633	11227
912.748	11086
912.862	10938
912.976	10809
913.09	10793
913.204	10858
913.318	10900
913.431	10957
913.545	10995
913.659	10961
913.772	10904
913.886	10759
914	10763
914.113	10942
914.226	10927
914.34	10873
914.453	10752
914.566	10793
914.68	10793
914.793	10714
914.906	10519
915.019	10447
915.132	10367
915.245	10481
915.358	10535
915.47	10580
915.583	10550
915.696	10577
915.809	10649
915.921	10706
916.034	10421
916.146	10443
916.259	10382
916.371	10584
916.483	10519
916.595	10424
916.708	10405
916.82	10386
916.932	10428
917.044	10375
917.156	10447
917.268	10272
917.38	10310
917.491	10356
917.603	10291
917.715	10451
917.826	10417
917.938	10310
918.049	10223
918.161	10261
918.272	10508
918.384	10451
918.495	10443
918.606	10223
918.717	10166
918.828	10185
918.939	10230
919.05	10173
919.161	10185
919.272	10017
919.383	10093
919.494	10223
919.604	10466
919.715	10238
919.826	10181
919.936	10166
920.047	10341
920.157	10246
920.267	10436
920.378	10333
920.488	10204
920.598	10493
920.708	10580
920.818	10394
920.928	10402
921.038	10588
921.148	10504
921.258	10280
921.368	10188
921.477	10116
921.587	10044
921.697	10002
921.806	10112
921.916	9949
922.025	9728
922.134	9751
922.244	9701
922.353	9846
922.462	9728
922.571	9652
922.68	9530
922.789	9504
922.898	9542
923.007	9466
923.116	9576
923.224	9477
923.333	9469
923.442	9355
923.55	9397
923.659	9462
923.767	9401
923.876	9310
923.984	9363
924.092	9294
924.201	9370
924.309	9389
924.417	9355
924.525	9264
924.633	9302
924.741	10333
924.849	9108
924.956	9275
925.064	9127
925.172	9039
925.279	9127
925.387	9135
925.494	9077
925.602	9275
925.709	9241
925.816	9051
925.924	9157
926.031	9214
926.138	9070
926.245	9154
926.352	8990
926.459	9222
926.566	9256
926.673	9100
926.779	8990
926.886	8902
926.993	8849
927.099	8819
927.206	8769
927.312	8811
927.419	8952
927.525	8899
927.631	8975
927.737	8773
927.843	8678
927.95	8610
928.056	8693
928.162	8796
928.267	8796
928.373	9473
928.479	8834
928.585	8594
928.69	8785
928.796	8766
928.901	8727
929.007	8575
929.112	8682
929.218	8651
929.323	8640
929.428	8568
929.533	8701
929.638	8526
929.743	8492
929.848	8579
929.953	8590
930.058	8465
930.163	8301
930.267	8370
930.372	8480
930.477	8343
930.581	8514
930.685	8454
930.79	8271
930.894	8328
930.998	8248
931.103	8454
931.207	8062
931.311	8046
931.415	8001
931.519	7788
931.623	7803
