Data from test_V78500241_2011.txt Node
Date: Fri Mar 25 14:47:42 CST 2022
User: usil
Spectrometer: V785-0024
Trigger mode: 0
Integration Time (sec): 4.000000E-1
Scans to average: 1
Nonlinearity correction enabled: false
Boxcar width: 0
Storing dark spectrum: false
XAxis mode: Wavelengths
Number of Pixels in Spectrum: 1024
>>>>>Begin Spectral Data<<<<<
801.071	22105
801.214	22013
801.356	21766
801.499	21660
801.641	21564
801.783	21439
801.926	21428
802.068	21504
802.211	21420
802.353	21294
802.496	21070
802.638	20933
802.78	20956
802.923	20979
803.065	20849
803.208	20792
803.35	20925
803.492	20845
803.635	20967
803.777	20845
803.919	20906
804.061	21127
804.204	20929
804.346	20720
804.488	20830
804.63	20769
804.773	20667
804.915	20773
805.057	20769
805.199	20674
805.341	20842
805.483	20914
805.626	20830
805.768	20663
805.91	20754
806.052	20762
806.194	20826
806.336	20967
806.478	20750
806.62	20575
806.762	20906
806.904	21020
807.046	21378
807.188	21043
807.33	21055
807.472	21138
807.614	20914
807.756	20914
807.898	20929
808.04	20735
808.182	20746
808.324	20937
808.465	20853
808.607	21062
808.749	21123
808.891	21188
809.033	21386
809.174	21188
809.316	21077
809.458	21017
809.6	21028
809.741	21165
809.883	21230
810.025	21374
810.166	21306
810.308	21135
810.45	21214
810.591	21089
810.733	21039
810.875	20868
811.016	20781
811.158	20655
811.299	21032
811.441	20952
811.582	20910
811.724	21001
811.865	20876
812.007	20762
812.148	20941
812.29	20929
812.431	21062
812.573	21150
812.714	21195
812.855	21420
812.997	21447
813.138	21641
813.279	21450
813.421	21291
813.562	21329
813.703	21173
813.845	21112
813.986	20701
814.127	20651
814.268	20594
814.41	20408
814.551	20415
814.692	20377
814.833	20404
814.974	20450
815.115	20415
815.256	20237
815.397	20267
815.539	20370
815.68	20252
815.821	20027
815.962	20199
816.103	20103
816.244	19986
816.385	19932
816.526	19993
816.666	19677
816.807	19525
816.948	19693
817.089	19696
817.23	19559
817.371	19548
817.512	19525
817.653	19540
817.793	19510
817.934	19605
818.075	19548
818.216	19521
818.356	19563
818.497	19327
818.638	19445
818.778	19217
818.919	19221
819.06	19339
819.2	19354
819.341	19430
819.481	19476
819.622	19609
819.762	19788
819.903	19761
820.043	19639
820.184	19594
820.324	19502
820.465	19655
820.605	19533
820.746	19632
820.886	19358
821.026	19544
821.167	19453
821.307	19628
821.447	19430
821.588	19419
821.728	19175
821.868	19164
822.008	18890
822.149	18909
822.289	18935
822.429	18703
822.569	18631
822.709	18688
822.849	18407
822.99	18464
823.13	18315
823.27	18384
823.41	18311
823.55	18182
823.69	18285
823.83	18270
823.97	18216
824.11	18034
824.25	17980
824.389	18072
824.529	18129
824.669	18095
824.809	18064
824.949	18232
825.089	18015
825.228	18133
825.368	17832
825.508	17805
825.648	17878
825.787	17752
825.927	17851
826.067	17771
826.206	17809
826.346	17882
826.485	17923
826.625	17840
826.765	17878
826.904	17912
827.044	17615
827.183	17592
827.323	17395
827.462	17562
827.601	17493
827.741	17497
827.88	17463
828.02	17345
828.159	17478
828.298	17474
828.437	17566
828.577	17440
828.716	17573
828.855	17478
828.994	17273
829.134	17250
829.273	17250
829.412	17235
829.551	17216
829.69	17151
829.829	17341
829.968	17368
830.107	17330
830.246	17269
830.385	17181
830.524	17132
830.663	17083
830.802	16930
830.941	16877
831.08	16987
831.219	16934
831.357	16938
831.496	17132
831.635	16828
831.774	16820
831.913	16805
832.051	16668
832.19	16637
832.329	16736
832.467	16641
832.606	16561
832.744	16531
832.883	16618
833.022	16459
833.16	16565
833.299	16698
833.437	16558
833.576	16634
833.714	16599
833.852	16523
833.991	16687
834.129	16698
834.267	16675
834.406	16531
834.544	16702
834.682	16656
834.821	16641
834.959	16824
835.097	16649
835.235	16694
835.373	16736
835.511	16736
835.65	16546
835.788	16432
835.926	16481
836.064	16440
836.202	16398
836.34	16637
836.478	16637
836.615	16599
836.753	16599
836.891	16607
837.029	16588
837.167	16421
837.305	16519
837.443	16462
837.58	16386
837.718	16451
837.856	16398
837.993	16265
838.131	16455
838.269	16226
838.406	16394
838.544	16306
838.681	16261
838.819	16120
838.956	15949
839.094	15937
839.231	16013
839.369	16207
839.506	16405
839.643	16139
839.781	16017
839.918	15945
840.055	16036
840.193	16044
840.33	15850
840.467	15937
840.604	15934
840.742	16196
840.879	15762
841.016	15892
841.153	15865
841.29	16010
841.427	15960
841.564	16017
841.701	16013
841.838	15884
841.975	15903
842.112	15941
842.249	15812
842.385	15808
842.522	15903
842.659	15800
842.796	15671
842.933	15774
843.069	15713
843.206	15641
843.343	15789
843.479	15656
843.616	15869
843.752	15553
843.889	15644
844.025	15671
844.162	15458
844.298	15633
844.435	15450
844.571	15473
844.708	15515
844.844	15671
844.98	15694
845.117	15622
845.253	15412
845.389	15397
845.525	15412
845.661	15389
845.798	15291
845.934	15351
846.07	15222
846.206	15321
846.342	15492
846.478	15363
846.614	15157
846.75	15157
846.886	15161
847.022	15112
847.158	15009
847.294	15142
847.429	15051
847.565	15032
847.701	15321
847.837	14819
847.972	14811
848.108	14929
848.244	14864
848.379	14819
848.515	14663
848.65	14670
848.786	14697
848.921	14674
849.057	14762
849.192	14796
849.328	14689
849.463	14670
849.598	14762
849.734	14621
849.869	14556
850.004	14461
850.14	14571
850.275	14495
850.41	14347
850.545	14377
850.68	14537
850.815	14560
850.95	14454
851.085	14617
851.22	14492
851.355	14461
851.49	14324
851.625	14499
851.76	14385
851.895	14393
852.03	14275
852.165	14393
852.299	14495
852.434	14522
852.569	14488
852.703	14503
852.838	14526
852.973	14621
853.107	14632
853.242	14347
853.376	14431
853.511	14248
853.645	14210
853.78	14526
853.914	14336
854.048	14187
854.183	14301
854.317	14324
854.451	14408
854.585	14351
854.72	14393
854.854	14415
854.988	14252
855.122	14275
855.256	14107
855.39	14271
855.524	14454
855.658	14385
855.792	14351
855.926	14408
856.06	14518
856.194	14495
856.327	14347
856.461	14282
856.595	14271
856.729	14332
856.862	14419
856.996	14415
857.13	14396
857.263	14469
857.397	14526
857.53	14389
857.664	14336
857.797	14431
857.931	14404
858.064	14309
858.197	14347
858.331	14408
858.464	14271
858.597	14199
858.731	14313
858.864	14351
858.997	14309
859.13	14419
859.263	14393
859.396	14377
859.529	14286
859.662	14301
859.795	14221
859.928	14374
860.061	14427
860.194	14476
860.327	14317
860.46	14339
860.592	14381
860.725	14495
860.858	14431
860.99	14317
861.123	14271
861.256	14237
861.388	14324
861.521	15020
861.653	14176
861.786	14202
861.918	14259
862.05	14195
862.183	14301
862.315	14336
862.447	14355
862.58	14210
862.712	14172
862.844	14077
862.976	14161
863.108	14206
863.24	14408
863.372	13997
863.504	14142
863.636	13967
863.768	14214
863.9	14183
864.032	14027
864.164	14054
864.296	14195
864.428	14244
864.559	14138
864.691	14210
864.823	14199
864.954	14145
865.086	14252
865.217	14073
865.349	14081
865.48	14073
865.612	14103
865.743	14256
865.875	14027
866.006	14062
866.137	14088
866.269	14001
866.4	14035
866.531	14001
866.662	14005
866.793	14058
866.924	14092
867.055	14161
867.186	14183
867.317	14046
867.448	13967
867.579	14039
867.71	13951
867.841	13967
867.972	14058
868.103	14035
868.233	14115
868.364	14153
868.495	14199
868.625	14301
868.756	14469
868.886	14221
869.017	14294
869.147	14412
869.278	14446
869.408	14351
869.539	14347
869.669	14393
869.799	14305
869.929	14530
870.06	14415
870.19	14727
870.32	14648
870.45	14640
870.58	14762
870.71	14811
870.84	14834
870.97	14724
871.1	14632
871.23	14914
871.36	14914
871.489	14785
871.619	14853
871.749	14979
871.879	14899
872.008	15013
872.138	14952
872.267	14944
872.397	14857
872.526	14762
872.656	14754
872.785	14823
872.915	14914
873.044	15028
873.173	15001
873.303	15028
873.432	15108
873.561	15097
873.69	15051
873.819	15013
873.948	15093
874.077	14899
874.206	14914
874.335	15051
874.464	15077
874.593	15256
874.722	15108
874.851	15344
874.979	15367
875.108	15351
875.237	15241
875.365	15249
875.494	15317
875.623	15298
875.751	15291
875.88	15272
876.008	15420
876.136	15606
876.265	15759
876.393	15884
876.521	15720
876.65	15694
876.778	15720
876.906	15682
877.034	15618
877.162	15660
877.29	15667
877.418	15720
877.546	15686
877.674	15804
877.802	15743
877.93	15663
878.058	15724
878.185	15591
878.313	15614
878.441	15789
878.568	15576
878.696	15675
878.824	15739
878.951	15911
879.079	15876
879.206	16036
879.333	15766
879.461	15728
879.588	15797
879.715	15789
879.842	15994
879.97	15774
880.097	15515
880.224	15431
880.351	15584
880.478	15526
880.605	15450
880.732	15538
880.859	15804
880.986	15614
881.112	15580
881.239	15530
881.366	15397
881.493	15218
881.619	15211
881.746	15233
881.872	15176
881.999	15245
882.125	15214
882.252	15332
882.378	15211
882.505	15344
882.631	15138
882.757	15127
882.883	15017
883.01	15005
883.136	14990
883.262	14921
883.388	14887
883.514	15085
883.64	15100
883.766	14929
883.892	14800
884.018	14868
884.143	15024
884.269	15058
884.395	14830
884.52	14743
884.646	14659
884.772	14659
884.897	14651
885.023	14720
885.148	14777
885.274	14853
885.399	14880
885.524	14746
885.65	14750
885.775	14712
885.9	14731
886.025	14967
886.15	14777
886.275	14762
886.4	14708
886.525	14712
886.65	14674
886.775	14739
886.9	14872
887.025	14941
887.149	14670
887.274	14579
887.399	14575
887.523	14545
887.648	14526
887.773	14473
887.897	14640
888.021	14629
888.146	14613
888.27	14716
888.395	14731
888.519	14644
888.643	14568
888.767	14541
888.891	14579
889.015	14317
889.139	14484
889.263	14408
889.387	14537
889.511	14708
889.635	14537
889.759	14412
889.883	14438
890.006	14511
890.13	14564
890.254	14362
890.377	14465
890.501	14153
890.624	14157
890.748	14267
890.871	14119
890.995	14111
891.118	14020
891.241	14130
891.364	14092
891.488	14275
891.611	14214
891.734	14130
891.857	14176
891.98	14187
892.103	14111
892.226	14191
892.349	14176
892.471	13989
892.594	14073
892.717	14210
892.839	14069
892.962	14119
893.085	14187
893.207	14176
893.33	14024
893.452	14027
893.575	14199
893.697	14153
893.819	14267
893.941	14229
894.064	14282
894.186	14123
894.308	14088
894.43	14240
894.552	14465
894.674	14195
894.796	14096
894.918	14176
895.04	14187
895.161	14362
895.283	14218
895.405	14176
895.526	14267
895.648	14195
895.769	14286
895.891	14324
896.012	14396
896.134	14290
896.255	14278
896.376	14309
896.498	14313
896.619	14355
896.74	14298
896.861	14423
896.982	14648
897.103	14785
897.224	14644
897.345	14640
897.466	14473
897.587	14667
897.708	14705
897.828	14594
897.949	14590
898.07	14374
898.19	14511
898.311	14712
898.431	14602
898.552	14731
898.672	14686
898.792	14777
898.913	14667
899.033	14495
899.153	14473
899.273	14385
899.393	14476
899.513	14511
899.633	14545
899.753	14590
899.873	14522
899.993	14610
900.113	14495
900.232	14575
900.352	14381
900.472	14423
900.591	14358
900.711	14370
900.83	14339
900.95	14454
901.069	14457
901.189	14282
901.308	14142
901.427	14008
901.546	14016
901.665	14115
901.784	14039
901.904	13986
902.023	13928
902.141	13613
902.26	13636
902.379	13719
902.498	13502
902.617	13605
902.735	13651
902.854	13616
902.973	13487
903.091	13316
903.21	13373
903.328	13335
903.446	13312
903.565	13145
903.683	13152
903.801	13110
903.919	13129
904.038	13187
904.156	12954
904.274	13046
904.392	12970
904.51	12943
904.627	13031
904.745	13061
904.863	13065
904.981	12711
905.098	12635
905.216	12696
905.334	12776
905.451	12681
905.569	12620
905.686	12795
905.803	12719
905.921	12536
906.038	12642
906.155	12544
906.272	12475
906.389	12452
906.506	12247
906.623	12350
906.74	12281
906.857	12148
906.974	12228
907.091	12353
907.208	12464
907.324	12232
907.441	12266
907.557	11988
907.674	12076
907.79	11946
907.907	11992
908.023	12015
908.139	12079
908.256	11923
908.372	12022
908.488	11855
908.604	11828
908.72	11722
908.836	11813
908.952	11783
909.068	11821
909.184	11942
909.3	11832
909.415	11779
909.531	11817
909.647	11581
909.762	11543
909.878	11474
909.993	11551
910.108	11539
910.224	11520
910.339	11520
910.454	11505
910.57	11402
910.685	11368
910.8	11611
910.915	11528
911.03	11402
911.145	11288
911.259	11239
911.374	11254
911.489	11189
911.604	11117
911.718	11041
911.833	10995
911.947	10900
912.062	10850
912.176	11060
912.291	11022
912.405	10961
912.519	11227
912.633	11136
912.748	11105
912.862	10991
912.976	10843
913.09	10778
913.204	10824
913.318	10881
913.431	10968
913.545	10923
913.659	11052
913.772	10816
913.886	10774
914	10714
914.113	10850
914.226	10930
914.34	10881
914.453	10622
914.566	10816
914.68	10714
914.793	10733
914.906	10489
915.019	10538
915.132	10386
915.245	10500
915.358	10489
915.47	10508
915.583	10569
915.696	10618
915.809	10618
915.921	10626
916.034	10455
916.146	10440
916.259	10428
916.371	10561
916.483	10546
916.595	10394
916.708	10428
916.82	10367
916.932	10481
917.044	10394
917.156	10360
917.268	10382
917.38	10363
917.491	10284
917.603	10333
917.715	10402
917.826	10440
917.938	10360
918.049	10249
918.161	10356
918.272	10535
918.384	10413
918.495	10360
918.606	10169
918.717	10204
918.828	10219
918.939	10261
919.05	10150
919.161	10093
919.272	10021
919.383	10090
919.494	10246
919.604	10447
919.715	10249
919.826	10185
919.936	10223
920.047	10265
920.157	10185
920.267	10409
920.378	10287
920.488	10242
920.598	10371
920.708	10535
920.818	10436
920.928	10375
921.038	10599
921.148	10538
921.258	10303
921.368	10227
921.477	10112
921.587	10105
921.697	10002
921.806	10147
921.916	9991
922.025	9827
922.134	9835
922.244	9781
922.353	9831
922.462	9675
922.571	9614
922.68	9458
922.789	9488
922.898	9481
923.007	9454
923.116	9576
923.224	9428
923.333	9511
923.442	9355
923.55	9374
923.659	9367
923.767	9496
923.876	9329
923.984	9397
924.092	9249
924.201	9302
924.309	9378
924.417	9431
924.525	9321
924.633	9317
924.741	10185
924.849	9135
924.956	9226
925.064	9180
925.172	9074
925.279	9100
925.387	9138
925.494	9123
925.602	9298
925.709	9226
925.816	9047
925.924	9127
926.031	9188
926.138	9135
926.245	9275
926.352	9093
926.459	9203
926.566	9203
926.673	9055
926.779	9051
926.886	8975
926.993	8941
927.099	8849
927.206	8845
927.312	8769
927.419	8899
927.525	8861
927.631	8937
927.737	8815
927.843	8712
927.95	8644
928.056	8663
928.162	8758
928.267	8872
928.373	9389
928.479	8830
928.585	8617
928.69	8743
928.796	8746
928.901	8674
929.007	8560
929.112	8670
929.218	8648
929.323	8590
929.428	8587
929.533	8705
929.638	8492
929.743	8492
929.848	8602
929.953	8545
930.058	8530
930.163	8324
930.267	8404
930.372	8480
930.477	8351
930.581	8621
930.685	8427
930.79	8332
930.894	8294
930.998	8218
931.103	8374
931.207	8062
931.311	8005
931.415	7890
931.519	7788
931.623	7761
