Data from test_V78500241_1693.txt Node
Date: Fri Mar 25 14:45:30 CST 2022
User: usil
Spectrometer: V785-0024
Trigger mode: 0
Integration Time (sec): 4.000000E-1
Scans to average: 1
Nonlinearity correction enabled: false
Boxcar width: 0
Storing dark spectrum: false
XAxis mode: Wavelengths
Number of Pixels in Spectrum: 1024
>>>>>Begin Spectral Data<<<<<
801.071	22341
801.214	22109
801.356	21755
801.499	21755
801.641	21511
801.783	21682
801.926	21743
802.068	21545
802.211	21538
802.353	21355
802.496	21123
802.638	21112
802.78	21058
802.923	20902
803.065	20845
803.208	20853
803.35	20918
803.492	20998
803.635	21077
803.777	20941
803.919	20982
804.061	21264
804.204	21135
804.346	20975
804.488	20902
804.63	20853
804.773	20716
804.915	20941
805.057	20891
805.199	20845
805.341	21024
805.483	21017
805.626	21119
805.768	20868
805.91	20986
806.052	20876
806.194	20720
806.336	20998
806.478	20971
806.62	20804
806.762	20979
806.904	21066
807.046	21294
807.188	21173
807.33	21226
807.472	21211
807.614	21085
807.756	21184
807.898	21017
808.04	20986
808.182	20857
808.324	21104
808.465	21039
808.607	21207
808.749	21325
808.891	21378
809.033	21447
809.174	21435
809.316	21268
809.458	21222
809.6	21207
809.741	21420
809.883	21260
810.025	21340
810.166	21431
810.308	21389
810.45	21374
810.591	21188
810.733	21249
810.875	21119
811.016	20929
811.158	20998
811.299	21207
811.441	21165
811.582	21138
811.724	21169
811.865	20994
812.007	21070
812.148	20998
812.29	20986
812.431	21142
812.573	21317
812.714	21469
812.855	21599
812.997	21485
813.138	21675
813.279	21679
813.421	21576
813.562	21443
813.703	21386
813.845	21203
813.986	20914
814.127	20773
814.268	20670
814.41	20602
814.551	20590
814.692	20724
814.833	20552
814.974	20495
815.115	20552
815.256	20366
815.397	20530
815.539	20495
815.68	20278
815.821	20290
815.962	20396
816.103	20267
816.244	20115
816.385	20031
816.526	20016
816.666	19845
816.807	19727
816.948	19811
817.089	19879
817.23	19666
817.371	19750
817.512	19750
817.653	19674
817.793	19772
817.934	19734
818.075	19719
818.216	19757
818.356	19670
818.497	19556
818.638	19453
818.778	19422
818.919	19377
819.06	19472
819.2	19571
819.341	19464
819.481	19525
819.622	19814
819.762	20027
819.903	19925
820.043	19723
820.184	19704
820.324	19704
820.465	19879
820.605	19601
820.746	19780
820.886	19480
821.026	19601
821.167	19639
821.307	19658
821.447	19590
821.588	19506
821.728	19304
821.868	19282
822.008	19168
822.149	19126
822.289	19118
822.429	18837
822.569	18757
822.709	18837
822.849	18547
822.99	18631
823.13	18540
823.27	18582
823.41	18399
823.55	18418
823.69	18311
823.83	18338
823.97	18422
824.11	18235
824.25	18136
824.389	18197
824.529	18315
824.669	18201
824.809	18289
824.949	18262
825.089	18178
825.228	18155
825.368	18053
825.508	17961
825.648	18098
825.787	18034
825.927	18034
826.067	17996
826.206	17882
826.346	17946
826.485	17893
826.625	17897
826.765	18049
826.904	17984
827.044	17642
827.183	17684
827.323	17638
827.462	17790
827.601	17627
827.741	17699
827.88	17623
828.02	17436
828.159	17615
828.298	17680
828.437	17661
828.577	17589
828.716	17786
828.855	17505
828.994	17326
829.134	17440
829.273	17493
829.412	17311
829.551	17356
829.69	17395
829.829	17444
829.968	17493
830.107	17478
830.246	17474
830.385	17425
830.524	17326
830.663	17197
830.802	17121
830.941	17056
831.08	16984
831.219	17105
831.357	17143
831.496	17318
831.635	16976
831.774	16999
831.913	16976
832.051	16733
832.19	16793
832.329	16938
832.467	16653
832.606	16660
832.744	16733
832.883	16702
833.022	16675
833.16	16755
833.299	16778
833.437	16694
833.576	16713
833.714	16736
833.852	16831
833.991	16790
834.129	16824
834.267	16809
834.406	16809
834.544	16805
834.682	16706
834.821	16729
834.959	16938
835.097	16740
835.235	16847
835.373	16763
835.511	16820
835.65	16752
835.788	16653
835.926	16440
836.064	16443
836.202	16432
836.34	16531
836.478	16733
836.615	16611
836.753	16759
836.891	16733
837.029	16649
837.167	16607
837.305	16611
837.443	16554
837.58	16489
837.718	16573
837.856	16504
837.993	16573
838.131	16462
838.269	16421
838.406	16432
838.544	16386
838.681	16223
838.819	16169
838.956	16006
839.094	16112
839.231	16131
839.369	16147
839.506	16504
839.643	16287
839.781	16086
839.918	16013
840.055	16048
840.193	15979
840.33	16025
840.467	16067
840.604	16032
840.742	16402
840.879	15934
841.016	15915
841.153	15922
841.29	16109
841.427	16150
841.564	16131
841.701	16177
841.838	15991
841.975	16036
842.112	15895
842.249	15800
842.385	15751
842.522	15987
842.659	15724
842.796	15865
842.933	15827
843.069	15808
843.206	15728
843.343	15838
843.479	15892
843.616	15907
843.752	15663
843.889	15557
844.025	15774
844.162	15644
844.298	15747
844.435	15724
844.571	15629
844.708	15694
844.844	15762
844.98	15876
845.117	15781
845.253	15603
845.389	15572
845.525	15705
845.661	15466
845.798	15435
845.934	15587
846.07	15378
846.206	15526
846.342	15614
846.478	15397
846.614	15291
846.75	15169
846.886	15207
847.022	15233
847.158	15222
847.294	15169
847.429	15245
847.565	15218
847.701	15428
847.837	14982
847.972	14880
848.108	15131
848.244	14982
848.379	14830
848.515	14785
848.65	14762
848.786	14735
848.921	14807
849.057	14845
849.192	14796
849.328	14868
849.463	14777
849.598	14769
849.734	14693
849.869	14670
850.004	14617
850.14	14606
850.275	14606
850.41	14514
850.545	14526
850.68	14511
850.815	14617
850.95	14507
851.085	14754
851.22	14636
851.355	14583
851.49	14632
851.625	14537
851.76	14507
851.895	14526
852.03	14374
852.165	14400
852.299	14533
852.434	14545
852.569	14636
852.703	14556
852.838	14587
852.973	14644
853.107	14693
853.242	14488
853.376	14473
853.511	14305
853.645	14328
853.78	14556
853.914	14427
854.048	14454
854.183	14396
854.317	14450
854.451	14537
854.585	14317
854.72	14457
854.854	14545
854.988	14313
855.122	14374
855.256	14180
855.39	14374
855.524	14537
855.658	14396
855.792	14423
855.926	14385
856.06	14442
856.194	14476
856.327	14328
856.461	14419
856.595	14393
856.729	14374
856.862	14476
856.996	14442
857.13	14602
857.263	14560
857.397	14590
857.53	14423
857.664	14408
857.797	14484
857.931	14530
858.064	14446
858.197	14552
858.331	14473
858.464	14336
858.597	14347
858.731	14476
858.864	14446
858.997	14415
859.13	14393
859.263	14533
859.396	14537
859.529	14309
859.662	14320
859.795	14301
859.928	14393
860.061	14533
860.194	14640
860.327	14480
860.46	14454
860.592	14545
860.725	14571
860.858	14549
860.99	14396
861.123	14332
861.256	14404
861.388	14473
861.521	14944
861.653	14275
861.786	14317
861.918	14282
862.05	14301
862.183	14450
862.315	14396
862.447	14442
862.58	14336
862.712	14237
862.844	14244
862.976	14263
863.108	14187
863.24	14659
863.372	14229
863.504	14183
863.636	14237
863.768	14343
863.9	14164
864.032	14157
864.164	14176
864.296	14157
864.428	14267
864.559	14252
864.691	14313
864.823	14305
864.954	14221
865.086	14275
865.217	14126
865.349	14126
865.48	14206
865.612	14161
865.743	14351
865.875	14153
866.006	14164
866.137	14294
866.269	14225
866.4	14244
866.531	14168
866.662	14130
866.793	14183
866.924	14096
867.055	14240
867.186	14210
867.317	14168
867.448	14153
867.579	14153
867.71	14145
867.841	14062
867.972	14100
868.103	14153
868.233	14153
868.364	14225
868.495	14252
868.625	14400
868.756	14461
868.886	14298
869.017	14320
869.147	14549
869.278	14545
869.408	14473
869.539	14488
869.669	14549
869.799	14438
869.929	14537
870.06	14610
870.19	14712
870.32	14686
870.45	14743
870.58	14876
870.71	14967
870.84	14887
870.97	14857
871.1	14758
871.23	14994
871.36	14963
871.489	14864
871.619	15055
871.749	14990
871.879	15051
872.008	15161
872.138	15062
872.267	15036
872.397	14914
872.526	14845
872.656	14823
872.785	15001
872.915	15097
873.044	15176
873.173	15039
873.303	15135
873.432	15127
873.561	15123
873.69	15085
873.819	15180
873.948	15097
874.077	15039
874.206	15093
874.335	15085
874.464	15306
874.593	15397
874.722	15340
874.851	15473
874.979	15351
875.108	15561
875.237	15363
875.365	15310
875.494	15405
875.623	15515
875.751	15291
875.88	15351
876.008	15542
876.136	15561
876.265	15812
876.393	16013
876.521	15895
876.65	15945
876.778	15732
876.906	15808
877.034	15709
877.162	15781
877.29	15751
877.418	15819
877.546	15869
877.674	15785
877.802	15694
877.93	15838
878.058	15667
878.185	15804
878.313	15789
878.441	15755
878.568	15663
878.696	15724
878.824	15903
878.951	15907
879.079	15983
879.206	16143
879.333	15869
879.461	15842
879.588	15991
879.715	16048
879.842	16105
879.97	15964
880.097	15618
880.224	15686
880.351	15705
880.478	15637
880.605	15564
880.732	15675
880.859	15884
880.986	15698
881.112	15766
881.239	15515
881.366	15344
881.493	15443
881.619	15363
881.746	15287
881.872	15241
881.999	15275
882.125	15252
882.252	15401
882.378	15454
882.505	15511
882.631	15249
882.757	15127
882.883	15104
883.01	15089
883.136	15108
883.262	15047
883.388	14956
883.514	15138
883.64	15241
883.766	15077
883.892	14941
884.018	14929
884.143	15256
884.269	15161
884.395	14880
884.52	14861
884.646	14834
884.772	14823
884.897	14720
885.023	14868
885.148	14918
885.274	14963
885.399	14902
885.524	14864
885.65	14807
885.775	14845
885.9	14895
886.025	14914
886.15	14910
886.275	14762
886.4	14731
886.525	14861
886.65	14807
886.775	14785
886.9	14994
887.025	15039
887.149	14937
887.274	14769
887.399	14640
887.523	14651
887.648	14594
887.773	14526
887.897	14712
888.021	14762
888.146	14507
888.27	14708
888.395	14735
888.519	14686
888.643	14670
888.767	14724
888.891	14564
889.015	14461
889.139	14659
889.263	14507
889.387	14587
889.511	14735
889.635	14644
889.759	14488
889.883	14606
890.006	14602
890.13	14625
890.254	14431
890.377	14446
890.501	14343
890.624	14278
890.748	14343
890.871	14259
890.995	14191
891.118	14123
891.241	14267
891.364	14328
891.488	14332
891.611	14119
891.734	14278
891.857	14229
891.98	14161
892.103	14286
892.226	14199
892.349	14153
892.471	14062
892.594	14172
892.717	14214
892.839	14256
892.962	14202
893.085	14282
893.207	14305
893.33	14024
893.452	14199
893.575	14275
893.697	14176
893.819	14286
893.941	14351
894.064	14324
894.186	14161
894.308	14138
894.43	14301
894.552	14347
894.674	14324
894.796	14145
894.918	14275
895.04	14183
895.161	14362
895.283	14298
895.405	14294
895.526	14317
895.648	14377
895.769	14408
895.891	14434
896.012	14457
896.134	14465
896.255	14408
896.376	14385
896.498	14282
896.619	14503
896.74	14476
896.861	14457
896.982	14697
897.103	14830
897.224	14644
897.345	14590
897.466	14556
897.587	14754
897.708	14849
897.828	14739
897.949	14587
898.07	14587
898.19	14568
898.311	14762
898.431	14629
898.552	14785
898.672	14792
898.792	14819
898.913	14834
899.033	14556
899.153	14617
899.273	14533
899.393	14632
899.513	14613
899.633	14621
899.753	14629
899.873	14651
899.993	14705
900.113	14594
900.232	14606
900.352	14545
900.472	14541
900.591	14396
900.711	14427
900.83	14412
900.95	14518
901.069	14644
901.189	14366
901.308	14176
901.427	14043
901.546	14126
901.665	14199
901.784	14134
901.904	14020
902.023	13963
902.141	13666
902.26	13719
902.379	13723
902.498	13696
902.617	13734
902.735	13780
902.854	13742
902.973	13658
903.091	13491
903.21	13533
903.328	13362
903.446	13301
903.565	13225
903.683	13278
903.801	13175
903.919	13171
904.038	13293
904.156	13076
904.274	13183
904.392	13042
904.51	13027
904.627	13065
904.745	13084
904.863	13160
904.981	12901
905.098	12795
905.216	12798
905.334	12715
905.451	12741
905.569	12783
905.686	12856
905.803	12745
905.921	12559
906.038	12692
906.155	12612
906.272	12471
906.389	12551
906.506	12361
906.623	12399
906.74	12437
906.857	12292
906.974	12273
907.091	12338
907.208	12456
907.324	12384
907.441	12277
907.557	12194
907.674	12110
907.79	11999
907.907	12060
908.023	12117
908.139	12045
908.256	11984
908.372	12114
908.488	12053
908.604	11855
908.72	11817
908.836	11927
908.952	11756
909.068	11885
909.184	11969
909.3	11931
909.415	11885
909.531	11882
909.647	11615
909.762	11615
909.878	11539
909.993	11581
910.108	11608
910.224	11642
910.339	11596
910.454	11532
910.57	11505
910.685	11337
910.8	11611
910.915	11547
911.03	11543
911.145	11349
911.259	11353
911.374	11356
911.489	11254
911.604	11261
911.718	11132
911.833	11113
911.947	10927
912.062	10957
912.176	11079
912.291	11090
912.405	11064
912.519	11330
912.633	11250
912.748	11159
912.862	11121
912.976	10984
913.09	10824
913.204	10946
913.318	10927
913.431	11003
913.545	11022
913.659	11105
913.772	10961
913.886	10847
914	10812
914.113	10930
914.226	10961
914.34	10866
914.453	10729
914.566	10972
914.68	10782
914.793	10767
914.906	10603
915.019	10550
915.132	10542
915.245	10474
915.358	10584
915.47	10558
915.583	10618
915.696	10588
915.809	10733
915.921	10759
916.034	10516
916.146	10478
916.259	10504
916.371	10519
916.483	10637
916.595	10493
916.708	10519
916.82	10474
916.932	10390
917.044	10455
917.156	10478
917.268	10341
917.38	10424
917.491	10356
917.603	10352
917.715	10428
917.826	10519
917.938	10417
918.049	10238
918.161	10329
918.272	10504
918.384	10493
918.495	10447
918.606	10390
918.717	10215
918.828	10284
918.939	10352
919.05	10238
919.161	10287
919.272	10040
919.383	10207
919.494	10268
919.604	10504
919.715	10230
919.826	10257
919.936	10265
920.047	10329
920.157	10219
920.267	10538
920.378	10356
920.488	10360
920.598	10417
920.708	10660
920.818	10504
920.928	10478
921.038	10618
921.148	10573
921.258	10276
921.368	10246
921.477	10177
921.587	10169
921.697	10147
921.806	10097
921.916	10120
922.025	9869
922.134	9884
922.244	9827
922.353	9911
922.462	9713
922.571	9705
922.68	9561
922.789	9500
922.898	9564
923.007	9538
923.116	9614
923.224	9572
923.333	9595
923.442	9481
923.55	9401
923.659	9469
923.767	9488
923.876	9355
923.984	9488
924.092	9378
924.201	9469
924.309	9408
924.417	9393
924.525	9374
924.633	9374
924.741	10257
924.849	9184
924.956	9272
925.064	9230
925.172	9051
925.279	9146
925.387	9230
925.494	9237
925.602	9359
925.709	9306
925.816	9127
925.924	9211
926.031	9291
926.138	9214
926.245	9199
926.352	9119
926.459	9348
926.566	9306
926.673	9135
926.779	9024
926.886	8998
926.993	8975
927.099	8986
927.206	8891
927.312	8853
927.419	8952
927.525	8944
927.631	8921
927.737	8857
927.843	8826
927.95	8727
928.056	8773
928.162	8845
928.267	8849
928.373	9313
928.479	8925
928.585	8724
928.69	8754
928.796	8838
928.901	8716
929.007	8632
929.112	8758
929.218	8724
929.323	8670
929.428	8682
929.533	8746
929.638	8583
929.743	8560
929.848	8659
929.953	8636
930.058	8629
930.163	8374
930.267	8347
930.372	8511
930.477	8396
930.581	8549
930.685	8518
930.79	8336
930.894	8385
930.998	8377
931.103	8530
931.207	8126
931.311	8100
931.415	8065
931.519	7837
931.623	7902
