Data from test_V78500241_1143.txt Node
Date: Fri Mar 25 14:41:40 CST 2022
User: usil
Spectrometer: V785-0024
Trigger mode: 0
Integration Time (sec): 4.000000E-1
Scans to average: 1
Nonlinearity correction enabled: false
Boxcar width: 0
Storing dark spectrum: false
XAxis mode: Wavelengths
Number of Pixels in Spectrum: 1024
>>>>>Begin Spectral Data<<<<<
801.071	22725
801.214	22485
801.356	22333
801.499	22105
801.641	21941
801.783	21915
801.926	22025
802.068	21941
802.211	21781
802.353	21603
802.496	21515
802.638	21469
802.78	21275
802.923	21363
803.065	21431
803.208	21260
803.35	21332
803.492	21313
803.635	21469
803.777	21294
803.919	21408
804.061	21599
804.204	21393
804.346	21268
804.488	21138
804.63	21226
804.773	21161
804.915	21245
805.057	21279
805.199	21252
805.341	21237
805.483	21317
805.626	21272
805.768	21222
805.91	21211
806.052	21199
806.194	21131
806.336	21310
806.478	21199
806.62	21260
806.762	21298
806.904	21363
807.046	21713
807.188	21603
807.33	21515
807.472	21622
807.614	21401
807.756	21534
807.898	21405
808.04	21473
808.182	21416
808.324	21481
808.465	21485
808.607	21599
808.749	21823
808.891	21876
809.033	22032
809.174	21903
809.316	21762
809.458	21743
809.6	21701
809.741	21736
809.883	21812
810.025	21873
810.166	21953
810.308	21720
810.45	21789
810.591	21789
810.733	21431
810.875	21420
811.016	21268
811.158	21469
811.299	21488
811.441	21485
811.582	21564
811.724	21389
811.865	21348
812.007	21473
812.148	21408
812.29	21466
812.431	21500
812.573	21724
812.714	21892
812.855	21835
812.997	21979
813.138	22093
813.279	21979
813.421	22032
813.562	21869
813.703	21747
813.845	21618
813.986	21310
814.127	21161
814.268	20941
814.41	20899
814.551	20967
814.692	21039
814.833	20899
814.974	20902
815.115	20948
815.256	20769
815.397	20880
815.539	20785
815.68	20686
815.821	20636
815.962	20640
816.103	20590
816.244	20454
816.385	20473
816.526	20328
816.666	20240
816.807	20126
816.948	20119
817.089	20248
817.23	20225
817.371	20012
817.512	20027
817.653	20069
817.793	20035
817.934	20035
818.075	20240
818.216	20138
818.356	19970
818.497	19913
818.638	19807
818.778	19807
818.919	19875
819.06	19894
819.2	19894
819.341	20035
819.481	19890
819.622	20020
819.762	20263
819.903	20275
820.043	20111
820.184	20130
820.324	20031
820.465	20103
820.605	20157
820.746	20058
820.886	20027
821.026	19936
821.167	20168
821.307	20092
821.447	19967
821.588	19970
821.728	19738
821.868	19601
822.008	19525
822.149	19563
822.289	19392
822.429	19156
822.569	19148
822.709	19156
822.849	18894
822.99	18943
823.13	19031
823.27	18909
823.41	18806
823.55	18749
823.69	18825
823.83	18875
823.97	18623
824.11	18464
824.25	18391
824.389	18566
824.529	18551
824.669	18410
824.809	18627
824.949	18681
825.089	18631
825.228	18521
825.368	18353
825.508	18281
825.648	18369
825.787	18353
825.927	18452
826.067	18433
826.206	18353
826.346	18365
826.485	18395
826.625	18308
826.765	18410
826.904	18323
827.044	18114
827.183	18057
827.323	18045
827.462	18087
827.601	17935
827.741	17916
827.88	17977
828.02	17889
828.159	18095
828.298	18194
828.437	18007
828.577	17958
828.716	18072
828.855	17961
828.994	17870
829.134	17843
829.273	17817
829.412	17653
829.551	17729
829.69	17912
829.829	17859
829.968	17832
830.107	17798
830.246	17794
830.385	17699
830.524	17714
830.663	17611
830.802	17463
830.941	17322
831.08	17387
831.219	17467
831.357	17387
831.496	17524
831.635	17372
831.774	17334
831.913	17337
832.051	17299
832.19	17136
832.329	17296
832.467	16999
832.606	17006
832.744	17117
832.883	17124
833.022	16987
833.16	17128
833.299	17140
833.437	17231
833.576	17143
833.714	17235
833.852	17174
833.991	17124
834.129	17246
834.267	17109
834.406	17113
834.544	17185
834.682	17181
834.821	17166
834.959	17322
835.097	17113
835.235	17220
835.373	17220
835.511	17064
835.65	17018
835.788	17136
835.926	16927
836.064	16835
836.202	16843
836.34	17090
836.478	17010
836.615	16953
836.753	17117
836.891	17151
837.029	17098
837.167	17045
837.305	17006
837.443	16976
837.58	16873
837.718	16961
837.856	16934
837.993	16949
838.131	16869
838.269	16835
838.406	16854
838.544	16858
838.681	16630
838.819	16653
838.956	16478
839.094	16500
839.231	16535
839.369	16516
839.506	16889
839.643	16729
839.781	16478
839.918	16542
840.055	16474
840.193	16497
840.33	16409
840.467	16455
840.604	16481
840.742	16698
840.879	16344
841.016	16409
841.153	16333
841.29	16611
841.427	16382
841.564	16474
841.701	16504
841.838	16424
841.975	16459
842.112	16398
842.249	16242
842.385	16265
842.522	16440
842.659	16299
842.796	16246
842.933	16322
843.069	16246
843.206	16192
843.343	16428
843.479	16318
843.616	16276
843.752	16086
843.889	15983
844.025	16048
844.162	15987
844.298	16139
844.435	16097
844.571	15998
844.708	16124
844.844	16162
844.98	16116
845.117	16166
845.253	15998
845.389	15930
845.525	16044
845.661	16032
845.798	16067
845.934	16139
846.07	16128
846.206	16154
846.342	16177
846.478	16147
846.614	15755
846.75	15660
846.886	15561
847.022	15701
847.158	15542
847.294	15713
847.429	15747
847.565	15481
847.701	15838
847.837	15313
847.972	15298
848.108	15477
848.244	15450
848.379	15249
848.515	15207
848.65	15154
848.786	15081
848.921	15154
849.057	15264
849.192	15245
849.328	15157
849.463	15233
849.598	15184
849.734	15123
849.869	15062
850.004	14952
850.14	15051
850.275	15009
850.41	14918
850.545	14952
850.68	14883
850.815	14960
850.95	14994
851.085	15188
851.22	14948
851.355	14952
851.49	14899
851.625	14975
851.76	14956
851.895	14845
852.03	14880
852.165	14883
852.299	15013
852.434	15009
852.569	14971
852.703	14982
852.838	15036
852.973	15119
853.107	15039
853.242	14948
853.376	14804
853.511	14636
853.645	14853
853.78	14937
853.914	14842
854.048	14853
854.183	14792
854.317	14781
854.451	14941
854.585	14796
854.72	14804
854.854	14963
854.988	14705
855.122	14769
855.256	14720
855.39	14716
855.524	14823
855.658	14906
855.792	14937
855.926	14883
856.06	14918
856.194	15001
856.327	14834
856.461	14693
856.595	14720
856.729	14727
856.862	14986
856.996	14883
857.13	15001
857.263	14975
857.397	14925
857.53	14785
857.664	14826
857.797	14864
857.931	14902
858.064	14872
858.197	14849
858.331	14773
858.464	14792
858.597	14705
858.731	14868
858.864	14792
858.997	14788
859.13	14792
859.263	14739
859.396	15001
859.529	14712
859.662	14788
859.795	14712
859.928	14880
860.061	14975
860.194	14998
860.327	14842
860.46	14777
860.592	14960
860.725	14941
860.858	14853
860.99	14765
861.123	14754
861.256	14842
861.388	14849
861.521	15530
861.653	14708
861.786	14693
861.918	14651
862.05	14708
862.183	14823
862.315	14838
862.447	14765
862.58	14792
862.712	14587
862.844	14518
862.976	14533
863.108	14613
863.24	15017
863.372	14446
863.504	14663
863.636	14598
863.768	14667
863.9	14556
864.032	14473
864.164	14518
864.296	14469
864.428	14735
864.559	14743
864.691	14781
864.823	14659
864.954	14632
865.086	14644
865.217	14556
865.349	14473
865.48	14564
865.612	14587
865.743	14705
865.875	14640
866.006	14583
866.137	14594
866.269	14434
866.4	14530
866.531	14564
866.662	14499
866.793	14495
866.924	14518
867.055	14522
867.186	14564
867.317	14545
867.448	14457
867.579	14530
867.71	14476
867.841	14476
867.972	14644
868.103	14571
868.233	14541
868.364	14530
868.495	14617
868.625	14758
868.756	14807
868.886	14769
869.017	14750
869.147	14910
869.278	14857
869.408	14834
869.539	14689
869.669	14830
869.799	14868
869.929	14861
870.06	14861
870.19	15119
870.32	15097
870.45	15135
870.58	15199
870.71	15363
870.84	15317
870.97	15199
871.1	15218
871.23	15359
871.36	15325
871.489	15298
871.619	15363
871.749	15450
871.879	15279
872.008	15420
872.138	15386
872.267	15382
872.397	15272
872.526	15233
872.656	15218
872.785	15272
872.915	15389
873.044	15469
873.173	15466
873.303	15534
873.432	15625
873.561	15526
873.69	15561
873.819	15564
873.948	15492
874.077	15370
874.206	15348
874.335	15576
874.464	15595
874.593	15732
874.722	15736
874.851	15759
874.979	15766
875.108	15846
875.237	15633
875.365	15774
875.494	15751
875.623	15827
875.751	15747
875.88	15854
876.008	15903
876.136	15915
876.265	16158
876.393	16333
876.521	16284
876.65	16280
876.778	16207
876.906	16150
877.034	16067
877.162	16234
877.29	16169
877.418	16169
877.546	16162
877.674	16265
877.802	16135
877.93	16192
878.058	16109
878.185	16150
878.313	16135
878.441	16242
878.568	16036
878.696	16204
878.824	16211
878.951	16223
879.079	16299
879.206	16599
879.333	16440
879.461	16306
879.588	16481
879.715	16462
879.842	16622
879.97	16379
880.097	16181
880.224	15994
880.351	16143
880.478	16109
880.605	16029
880.732	16071
880.859	16333
880.986	16048
881.112	16082
881.239	15884
881.366	15770
881.493	15778
881.619	15633
881.746	15705
881.872	15606
881.999	15625
882.125	15652
882.252	15774
882.378	15732
882.505	15876
882.631	15587
882.757	15542
882.883	15538
883.01	15545
883.136	15424
883.262	15393
883.388	15306
883.514	15587
883.64	15584
883.766	15473
883.892	15340
884.018	15454
884.143	15431
884.269	15530
884.395	15287
884.52	15272
884.646	15272
884.772	15173
884.897	15203
885.023	15272
885.148	15336
885.274	15359
885.399	15237
885.524	15237
885.65	15233
885.775	15291
885.9	15116
886.025	15313
886.15	15268
886.275	15138
886.4	15169
886.525	15154
886.65	15097
886.775	15070
886.9	15306
887.025	15382
887.149	15275
887.274	15013
887.399	14979
887.523	15020
887.648	14910
887.773	14937
887.897	14971
888.021	15047
888.146	15028
888.27	15146
888.395	15237
888.519	15104
888.643	15074
888.767	15123
888.891	14887
889.015	14895
889.139	14819
889.263	14838
889.387	14971
889.511	14990
889.635	14967
889.759	14857
889.883	14891
890.006	14925
890.13	14937
890.254	14864
890.377	14765
890.501	14602
890.624	14659
890.748	14705
890.871	14568
890.995	14526
891.118	14469
891.241	14492
891.364	14606
891.488	14686
891.611	14537
891.734	14613
891.857	14606
891.98	14560
892.103	14724
892.226	14530
892.349	14446
892.471	14370
892.594	14533
892.717	14549
892.839	14530
892.962	14495
893.085	14625
893.207	14606
893.33	14415
893.452	14457
893.575	14663
893.697	14442
893.819	14648
893.941	14792
894.064	14712
894.186	14518
894.308	14473
894.43	14705
894.552	14712
894.674	14636
894.796	14473
894.918	14674
895.04	14571
895.161	14629
895.283	14678
895.405	14602
895.526	14686
895.648	14667
895.769	14701
895.891	14731
896.012	14765
896.134	14632
896.255	14762
896.376	14644
896.498	14651
896.619	14670
896.74	14724
896.861	14815
896.982	15093
897.103	15180
897.224	14982
897.345	14956
897.466	14891
897.587	14941
897.708	15112
897.828	15058
897.949	14826
898.07	14746
898.19	14937
898.311	15039
898.431	14975
898.552	15043
898.672	15218
898.792	15039
898.913	15097
899.033	15013
899.153	14933
899.273	14826
899.393	14861
899.513	14807
899.633	14883
899.753	14853
899.873	14880
899.993	14857
900.113	14849
900.232	14929
900.352	14842
900.472	14842
900.591	14731
900.711	14823
900.83	14613
900.95	14895
901.069	14853
901.189	14682
901.308	14480
901.427	14343
901.546	14400
901.665	14507
901.784	14427
901.904	14278
902.023	14237
902.141	14024
902.26	13913
902.379	14096
902.498	13970
902.617	13963
902.735	14081
902.854	13947
902.973	13951
903.091	13818
903.21	13685
903.328	13582
903.446	13552
903.565	13643
903.683	13502
903.801	13476
903.919	13453
904.038	13514
904.156	13358
904.274	13422
904.392	13377
904.51	13354
904.627	13324
904.745	13403
904.863	13434
904.981	13232
905.098	13004
905.216	13019
905.334	13008
905.451	12985
905.569	13027
905.686	13015
905.803	13031
905.921	12806
906.038	12996
906.155	12852
906.272	12783
906.389	12798
906.506	12646
906.623	12589
906.74	12631
906.857	12410
906.974	12551
907.091	12623
907.208	12696
907.324	12711
907.441	12464
907.557	12414
907.674	12388
907.79	12365
907.907	12330
908.023	12414
908.139	12365
908.256	12292
908.372	12266
908.488	12369
908.604	12182
908.72	12163
908.836	12186
908.952	12159
909.068	12133
909.184	12220
909.3	12171
909.415	12182
909.531	12076
909.647	11901
909.762	11912
909.878	11893
909.993	11901
910.108	11946
910.224	11836
910.339	11897
910.454	11817
910.57	11748
910.685	11691
910.8	11916
910.915	11821
911.03	11729
911.145	11668
911.259	11577
911.374	11516
911.489	11509
911.604	11425
911.718	11337
911.833	11334
911.947	11258
912.062	11090
912.176	11337
912.291	11296
912.405	11360
912.519	11471
912.633	11543
912.748	11360
912.862	11364
912.976	11261
913.09	11109
913.204	11185
913.318	11178
913.431	11299
913.545	11311
913.659	11311
913.772	11246
913.886	11018
914	11113
914.113	11170
914.226	11296
914.34	11185
914.453	11029
914.566	11147
914.68	11052
914.793	10915
914.906	10816
915.019	10809
915.132	10649
915.245	10797
915.358	10850
915.47	10919
915.583	10824
915.696	10908
915.809	10995
915.921	10961
916.034	10714
916.146	10831
916.259	10714
916.371	10763
916.483	10782
916.595	10645
916.708	10672
916.82	10717
916.932	10733
917.044	10733
917.156	10759
917.268	10611
917.38	10607
917.491	10592
917.603	10656
917.715	10649
917.826	10725
917.938	10649
918.049	10580
918.161	10622
918.272	10805
918.384	10805
918.495	10653
918.606	10558
918.717	10398
918.828	10592
918.939	10493
919.05	10466
919.161	10462
919.272	10265
919.383	10344
919.494	10641
919.604	10778
919.715	10519
919.826	10432
919.936	10417
920.047	10535
920.157	10535
920.267	10740
920.378	10508
920.488	10451
920.598	10668
920.708	10866
920.818	10725
920.928	10653
921.038	10885
921.148	10885
921.258	10516
921.368	10451
921.477	10402
921.587	10348
921.697	10276
921.806	10379
921.916	10306
922.025	10109
922.134	10082
922.244	9972
922.353	10109
922.462	9857
922.571	9819
922.68	9808
922.789	9774
922.898	9778
923.007	9667
923.116	9865
923.224	9701
923.333	9709
923.442	9660
923.55	9629
923.659	9698
923.767	9743
923.876	9564
923.984	9709
924.092	9534
924.201	9580
924.309	9538
924.417	9625
924.525	9515
924.633	9595
924.741	10295
924.849	9382
924.956	9576
925.064	9389
925.172	9264
925.279	9382
925.387	9431
925.494	9351
925.602	9515
925.709	9443
925.816	9344
925.924	9488
926.031	9481
926.138	9370
926.245	9424
926.352	9348
926.459	9454
926.566	9393
926.673	9420
926.779	9241
926.886	9260
926.993	9070
927.099	9051
927.206	9001
927.312	9058
927.419	9154
927.525	9131
927.631	9161
927.737	8986
927.843	8948
927.95	8834
928.056	8975
928.162	9028
928.267	9055
928.373	9660
928.479	9081
928.585	8861
928.69	9013
928.796	9001
928.901	8929
929.007	8773
929.112	8895
929.218	8868
929.323	8857
929.428	8777
929.533	8918
929.638	8727
929.743	8807
929.848	8811
929.953	8781
930.058	8655
930.163	8533
930.267	8575
930.372	8724
930.477	8556
930.581	8689
930.685	8610
930.79	8476
930.894	8423
930.998	8408
931.103	8648
931.207	8271
931.311	8191
931.415	8191
931.519	8050
931.623	7989
