Data from test_V78500241_3719.txt Node
Date: Fri Mar 25 14:59:37 CST 2022
User: usil
Spectrometer: V785-0024
Trigger mode: 0
Integration Time (sec): 4.000000E-1
Scans to average: 1
Nonlinearity correction enabled: false
Boxcar width: 0
Storing dark spectrum: false
XAxis mode: Wavelengths
Number of Pixels in Spectrum: 1024
>>>>>Begin Spectral Data<<<<<
801.071	21888
801.214	21701
801.356	21591
801.499	21542
801.641	21344
801.783	21184
801.926	21294
802.068	21138
802.211	21233
802.353	21028
802.496	20963
802.638	20716
802.78	20659
802.923	20575
803.065	20571
803.208	20549
803.35	20598
803.492	20739
803.635	20724
803.777	20598
803.919	20788
804.061	20899
804.204	20663
804.346	20484
804.488	20415
804.63	20625
804.773	20473
804.915	20423
805.057	20545
805.199	20461
805.341	20545
805.483	20648
805.626	20583
805.768	20374
805.91	20530
806.052	20511
806.194	20495
806.336	20617
806.478	20541
806.62	20427
806.762	20564
806.904	20697
807.046	20819
807.188	20765
807.33	20845
807.472	20933
807.614	20727
807.756	20731
807.898	20644
808.04	20351
808.182	20564
808.324	20651
808.465	20598
808.607	20720
808.749	20842
808.891	20933
809.033	21001
809.174	20826
809.316	20921
809.458	20746
809.6	20693
809.741	20815
809.883	20823
810.025	20944
810.166	21020
810.308	20941
810.45	20906
810.591	20853
810.733	20705
810.875	20613
811.016	20590
811.158	20476
811.299	20602
811.441	20746
811.582	20636
811.724	20651
811.865	20465
812.007	20617
812.148	20507
812.29	20617
812.431	20697
812.573	20941
812.714	20880
812.855	20967
812.997	21287
813.138	21252
813.279	21203
813.421	21131
813.562	21013
813.703	20887
813.845	20785
813.986	20457
814.127	20305
814.268	20180
814.41	20199
814.551	20263
814.692	20237
814.833	20065
814.974	20050
815.115	20202
815.256	20046
815.397	20111
815.539	20119
815.68	19955
815.821	19807
815.962	19849
816.103	19788
816.244	19696
816.385	19715
816.526	19620
816.666	19438
816.807	19213
816.948	19449
817.089	19396
817.23	19297
817.371	19335
817.512	19274
817.653	19251
817.793	19175
817.934	19164
818.075	19301
818.216	19156
818.356	19331
818.497	18989
818.638	18970
818.778	18958
818.919	19038
819.06	19000
819.2	19103
819.341	19190
819.481	19114
819.622	19369
819.762	19457
819.903	19304
820.043	19324
820.184	19335
820.324	19263
820.465	19346
820.605	19278
820.746	19236
820.886	19148
821.026	19107
821.167	19217
821.307	19324
821.447	19213
821.588	19133
821.728	18924
821.868	18848
822.008	18646
822.149	18700
822.289	18779
822.429	18399
822.569	18384
822.709	18342
822.849	18133
822.99	18216
823.13	18129
823.27	18194
823.41	17984
823.55	17969
823.69	17950
823.83	18019
823.97	17859
824.11	17710
824.25	17722
824.389	17737
824.529	17760
824.669	17729
824.809	17821
824.949	17859
825.089	17821
825.228	17764
825.368	17573
825.508	17596
825.648	17551
825.787	17497
825.927	17566
826.067	17406
826.206	17402
826.346	17642
826.485	17474
826.625	17493
826.765	17600
826.904	17463
827.044	17254
827.183	17288
827.323	17204
827.462	17265
827.601	17178
827.741	17242
827.88	17280
828.02	17162
828.159	17136
828.298	17204
828.437	17337
828.577	17250
828.716	17307
828.855	17216
828.994	16911
829.134	16972
829.273	17052
829.412	16946
829.551	16892
829.69	17025
829.829	16957
829.968	17086
830.107	17075
830.246	16999
830.385	16877
830.524	16987
830.663	16816
830.802	16672
830.941	16645
831.08	16611
831.219	16675
831.357	16637
831.496	16812
831.635	16573
831.774	16405
831.913	16436
832.051	16512
832.19	16375
832.329	16363
832.467	16265
832.606	16329
832.744	16207
832.883	16219
833.022	16295
833.16	16284
833.299	16322
833.437	16291
833.576	16329
833.714	16325
833.852	16428
833.991	16382
834.129	16440
834.267	16451
834.406	16360
834.544	16443
834.682	16436
834.821	16265
834.959	16504
835.097	16367
835.235	16371
835.373	16379
835.511	16356
835.65	16226
835.788	16344
835.926	16101
836.064	16128
836.202	16051
836.34	16280
836.478	16318
836.615	16265
836.753	16329
836.891	16432
837.029	16333
837.167	16181
837.305	16276
837.443	16109
837.58	15972
837.718	16181
837.856	16188
837.993	16128
838.131	16105
838.269	16055
838.406	16128
838.544	16017
838.681	15865
838.819	15892
838.956	15751
839.094	15717
839.231	15682
839.369	15759
839.506	16147
839.643	15930
839.781	15709
839.918	15580
840.055	15720
840.193	15705
840.33	15576
840.467	15724
840.604	15762
840.742	15861
840.879	15526
841.016	15682
841.153	15686
841.29	15831
841.427	15751
841.564	15755
841.701	15774
841.838	15580
841.975	15473
842.112	15587
842.249	15488
842.385	15469
842.522	15675
842.659	15485
842.796	15412
842.933	15477
843.069	15435
843.206	15473
843.343	15580
843.479	15492
843.616	15458
843.752	15268
843.889	15233
844.025	15477
844.162	15340
844.298	15287
844.435	15207
844.571	15180
844.708	15275
844.844	15458
844.98	15485
845.117	15348
845.253	15222
845.389	15112
845.525	15154
845.661	15211
845.798	15051
845.934	15131
846.07	14956
846.206	15036
846.342	15188
846.478	15001
846.614	14868
846.75	14830
846.886	14944
847.022	14986
847.158	14823
847.294	14891
847.429	14933
847.565	14823
847.701	15062
847.837	14579
847.972	14598
848.108	14682
848.244	14667
848.379	14415
848.515	14499
848.65	14370
848.786	14457
848.921	14450
849.057	14571
849.192	14552
849.328	14549
849.463	14454
849.598	14415
849.734	14404
849.869	14309
850.004	14176
850.14	14267
850.275	14305
850.41	14153
850.545	14237
850.68	14286
850.815	14229
850.95	14183
851.085	14377
851.22	14313
851.355	14134
851.49	14202
851.625	14225
851.76	14218
851.895	14145
852.03	13986
852.165	14191
852.299	14271
852.434	14339
852.569	14256
852.703	14244
852.838	14305
852.973	14381
853.107	14351
853.242	14267
853.376	14077
853.511	14046
853.645	14001
853.78	14263
853.914	14039
854.048	14054
854.183	14043
854.317	14119
854.451	14210
854.585	14065
854.72	14039
854.854	14130
854.988	13967
855.122	14092
855.256	13963
855.39	14073
855.524	14191
855.658	14069
855.792	14237
855.926	14123
856.06	14134
856.194	14191
856.327	14065
856.461	14020
856.595	14062
856.729	14058
856.862	14256
856.996	14180
857.13	14130
857.263	14187
857.397	14164
857.53	14103
857.664	14153
857.797	14073
857.931	14145
858.064	14012
858.197	14161
858.331	14100
858.464	14138
858.597	13974
858.731	14130
858.864	14149
858.997	14084
859.13	14111
859.263	14035
859.396	14130
859.529	14077
859.662	14142
859.795	14027
859.928	14164
860.061	14149
860.194	14225
860.327	14065
860.46	14119
860.592	14183
860.725	14206
860.858	14256
860.99	14065
861.123	14043
861.256	14031
861.388	14134
861.521	14758
861.653	13978
861.786	13925
861.918	13989
862.05	14008
862.183	14031
862.315	14103
862.447	14191
862.58	13978
862.712	13917
862.844	13909
862.976	14001
863.108	13940
863.24	14305
863.372	13788
863.504	13860
863.636	13879
863.768	13902
863.9	13894
864.032	13811
864.164	13757
864.296	13894
864.428	13936
864.559	13974
864.691	14050
864.823	13959
864.954	13955
865.086	13898
865.217	13841
865.349	13837
865.48	13833
865.612	13841
865.743	14012
865.875	13841
866.006	13875
866.137	13807
866.269	13826
866.4	13868
866.531	13833
866.662	13715
866.793	13738
866.924	13830
867.055	13830
867.186	13822
867.317	13856
867.448	13742
867.579	13807
867.71	13856
867.841	13700
867.972	13852
868.103	13818
868.233	13753
868.364	13803
868.495	13894
868.625	14027
868.756	14111
868.886	13921
869.017	14119
869.147	14225
869.278	14298
869.408	14149
869.539	14176
869.669	14244
869.799	14221
869.929	14244
870.06	14267
870.19	14434
870.32	14427
870.45	14450
870.58	14621
870.71	14667
870.84	14495
870.97	14571
871.1	14511
871.23	14735
871.36	14727
871.489	14716
871.619	14682
871.749	14712
871.879	14815
872.008	14868
872.138	14663
872.267	14727
872.397	14587
872.526	14511
872.656	14514
872.785	14617
872.915	14689
873.044	14899
873.173	14815
873.303	14823
873.432	14743
873.561	14868
873.69	14788
873.819	14727
873.948	14800
874.077	14750
874.206	14758
874.335	14842
874.464	14921
874.593	14941
874.722	15081
874.851	15184
874.979	15055
875.108	15097
875.237	15009
875.365	15013
875.494	15104
875.623	15142
875.751	15039
875.88	15230
876.008	15260
876.136	15325
876.265	15538
876.393	15622
876.521	15587
876.65	15660
876.778	15530
876.906	15519
877.034	15466
877.162	15473
877.29	15386
877.418	15458
877.546	15443
877.674	15439
877.802	15462
877.93	15462
878.058	15458
878.185	15435
878.313	15469
878.441	15500
878.568	15329
878.696	15496
878.824	15538
878.951	15671
879.079	15698
879.206	15743
879.333	15709
879.461	15568
879.588	15511
879.715	15667
879.842	15778
879.97	15561
880.097	15355
880.224	15374
880.351	15412
880.478	15306
880.605	15340
880.732	15313
880.859	15747
880.986	15428
881.112	15386
881.239	15279
881.366	15119
881.493	15055
881.619	15051
881.746	15066
881.872	15001
881.999	14971
882.125	15024
882.252	15119
882.378	15070
882.505	15154
882.631	14963
882.757	14811
882.883	14819
883.01	14864
883.136	14857
883.262	14678
883.388	14636
883.514	14929
883.64	14883
883.766	14815
883.892	14602
884.018	14636
884.143	14765
884.269	14861
884.395	14583
884.52	14484
884.646	14568
884.772	14389
884.897	14461
885.023	14568
885.148	14720
885.274	14743
885.399	14655
885.524	14507
885.65	14522
885.775	14507
885.9	14518
886.025	14716
886.15	14613
886.275	14533
886.4	14484
886.525	14495
886.65	14552
886.775	14579
886.9	14617
887.025	14762
887.149	14492
887.274	14389
887.399	14294
887.523	14336
887.648	14393
887.773	14301
887.897	14396
888.021	14423
888.146	14290
888.27	14568
888.395	14415
888.519	14389
888.643	14434
888.767	14431
888.891	14336
889.015	14248
889.139	14225
889.263	14248
889.387	14317
889.511	14473
889.635	14343
889.759	14256
889.883	14187
890.006	14256
890.13	14366
890.254	14111
890.377	14176
890.501	14054
890.624	14024
890.748	14050
890.871	14020
890.995	13902
891.118	13811
891.241	13932
891.364	13921
891.488	14092
891.611	13982
891.734	13997
891.857	13982
891.98	13978
892.103	14024
892.226	13982
892.349	13925
892.471	13807
892.594	13871
892.717	13887
892.839	13837
892.962	13978
893.085	14008
893.207	14020
893.33	13753
893.452	13898
893.575	14016
893.697	13898
893.819	14157
893.941	14157
894.064	14043
894.186	13925
894.308	13951
894.43	14069
894.552	14100
894.674	14008
894.796	14001
894.918	13967
895.04	14031
895.161	14119
895.283	14050
895.405	14016
895.526	14100
895.648	14100
895.769	14035
895.891	14058
896.012	14088
896.134	14142
896.255	14073
896.376	14088
896.498	14145
896.619	14195
896.74	14073
896.861	14191
896.982	14412
897.103	14602
897.224	14495
897.345	14328
897.466	14229
897.587	14412
897.708	14480
897.828	14473
897.949	14427
898.07	14278
898.19	14267
898.311	14499
898.431	14446
898.552	14408
898.672	14560
898.792	14552
898.913	14533
899.033	14396
899.153	14210
899.273	14187
899.393	14301
899.513	14317
899.633	14256
899.753	14328
899.873	14282
899.993	14339
900.113	14343
900.232	14370
900.352	14221
900.472	14259
900.591	14107
900.711	14221
900.83	14149
900.95	14328
901.069	14195
901.189	14081
901.308	13868
901.427	13871
901.546	13814
901.665	13887
901.784	13830
901.904	13658
902.023	13571
902.141	13487
902.26	13411
902.379	13487
902.498	13388
902.617	13358
902.735	13525
902.854	13445
902.973	13472
903.091	13304
903.21	13152
903.328	13141
903.446	13000
903.565	12993
903.683	12943
903.801	12875
903.919	12951
904.038	13034
904.156	12886
904.274	12932
904.392	12817
904.51	12772
904.627	12677
904.745	12768
904.863	12920
904.981	12532
905.098	12464
905.216	12494
905.334	12467
905.451	12502
905.569	12555
905.686	12528
905.803	12464
905.921	12376
906.038	12403
906.155	12346
906.272	12201
906.389	12338
906.506	12079
906.623	12133
906.74	12224
906.857	12030
906.974	11999
907.091	12289
907.208	12273
907.324	12114
907.441	12060
907.557	11824
907.674	11832
907.79	11824
907.907	11939
908.023	11901
908.139	11779
908.256	11779
908.372	11790
908.488	11760
908.604	11566
908.72	11642
908.836	11619
908.952	11596
909.068	11676
909.184	11745
909.3	11596
909.415	11729
909.531	11710
909.647	11334
909.762	11467
909.878	11387
909.993	11440
910.108	11429
910.224	11436
910.339	11391
910.454	11296
910.57	11185
910.685	11250
910.8	11490
910.915	11341
911.03	11349
911.145	11071
911.259	11128
911.374	11105
911.489	11151
911.604	10995
911.718	10824
911.833	10869
911.947	10729
912.062	10626
912.176	10752
912.291	10828
912.405	10843
912.519	10961
912.633	11071
912.748	10953
912.862	10934
912.976	10679
913.09	10683
913.204	10725
913.318	10782
913.431	10809
913.545	10885
913.659	10854
913.772	10809
913.886	10611
914	10607
914.113	10706
914.226	10763
914.34	10714
914.453	10531
914.566	10615
914.68	10691
914.793	10535
914.906	10360
915.019	10291
915.132	10352
915.245	10352
915.358	10447
915.47	10462
915.583	10299
915.696	10402
915.809	10603
915.921	10500
916.034	10394
916.146	10253
916.259	10280
916.371	10417
916.483	10443
916.595	10291
916.708	10386
916.82	10318
916.932	10329
917.044	10227
917.156	10291
917.268	10177
917.38	10261
917.491	10173
917.603	10261
917.715	10261
917.826	10318
917.938	10253
918.049	10166
918.161	10227
918.272	10341
918.384	10261
918.495	10150
918.606	10124
918.717	9991
918.828	10040
918.939	10131
919.05	10059
919.161	10116
919.272	9903
919.383	9915
919.494	10139
919.604	10382
919.715	10185
919.826	10025
919.936	10097
920.047	10162
920.157	10109
920.267	10204
920.378	10143
920.488	10120
920.598	10325
920.708	10417
920.818	10363
920.928	10299
921.038	10531
921.148	10417
921.258	10230
921.368	10044
921.477	10010
921.587	9884
921.697	9850
921.806	9934
921.916	9861
922.025	9759
922.134	9637
922.244	9614
922.353	9709
922.462	9591
922.571	9485
922.68	9412
922.789	9367
922.898	9416
923.007	9325
923.116	9405
923.224	9306
923.333	9397
923.442	9226
923.55	9226
923.659	9317
923.767	9260
923.876	9192
923.984	9249
924.092	9142
924.201	9241
924.309	9203
924.417	9291
924.525	9268
924.633	9169
924.741	10097
924.849	9051
924.956	9142
925.064	8998
925.172	8880
925.279	8929
925.387	8994
925.494	8971
925.602	9146
925.709	9116
925.816	8963
925.924	9013
926.031	9089
926.138	9077
926.245	9036
926.352	9001
926.459	9058
926.566	9142
926.673	8979
926.779	8819
926.886	8880
926.993	8823
927.099	8792
927.206	8689
927.312	8724
927.419	8750
927.525	8735
927.631	8796
927.737	8629
927.843	8640
927.95	8549
928.056	8575
928.162	8621
928.267	8697
928.373	9222
928.479	8788
928.585	8434
928.69	8655
928.796	8674
928.901	8533
929.007	8381
929.112	8594
929.218	8518
929.323	8476
929.428	8465
929.533	8545
929.638	8408
929.743	8408
929.848	8461
929.953	8427
930.058	8343
930.163	8233
930.267	8202
930.372	8309
930.477	8225
930.581	8404
930.685	8286
930.79	8107
930.894	8191
930.998	8195
931.103	8309
931.207	7925
931.311	7890
931.415	7883
931.519	7708
931.623	7651
