Data from test_V78500241_3590.txt Node
Date: Fri Mar 25 14:58:42 CST 2022
User: usil
Spectrometer: V785-0024
Trigger mode: 0
Integration Time (sec): 4.000000E-1
Scans to average: 1
Nonlinearity correction enabled: false
Boxcar width: 0
Storing dark spectrum: false
XAxis mode: Wavelengths
Number of Pixels in Spectrum: 1024
>>>>>Begin Spectral Data<<<<<
801.071	21975
801.214	21812
801.356	21568
801.499	21401
801.641	21439
801.783	21294
801.926	21279
802.068	21298
802.211	21192
802.353	21119
802.496	20918
802.638	20716
802.78	20762
802.923	20648
803.065	20568
803.208	20564
803.35	20678
803.492	20785
803.635	20716
803.777	20602
803.919	20670
804.061	20876
804.204	20697
804.346	20560
804.488	20370
804.63	20648
804.773	20511
804.915	20560
805.057	20655
805.199	20545
805.341	20587
805.483	20712
805.626	20579
805.768	20507
805.91	20575
806.052	20522
806.194	20450
806.336	20579
806.478	20415
806.62	20598
806.762	20518
806.904	20689
807.046	20921
807.188	20925
807.33	20781
807.472	20967
807.614	20617
807.756	20720
807.898	20609
808.04	20590
808.182	20659
808.324	20560
808.465	20648
808.607	20838
808.749	20834
808.891	20994
809.033	20918
809.174	20948
809.316	20849
809.458	20826
809.6	20857
809.741	20899
809.883	20952
810.025	20937
810.166	21020
810.308	21036
810.45	21009
810.591	20895
810.733	20686
810.875	20682
811.016	20648
811.158	20568
811.299	20746
811.441	20910
811.582	20644
811.724	20594
811.865	20625
812.007	20575
812.148	20674
812.29	20678
812.431	20785
812.573	20933
812.714	21051
812.855	21089
812.997	21348
813.138	21313
813.279	21275
813.421	21077
813.562	21047
813.703	20861
813.845	20758
813.986	20492
814.127	20252
814.268	20233
814.41	20294
814.551	20126
814.692	20294
814.833	20130
814.974	20084
815.115	20069
815.256	20001
815.397	20050
815.539	20012
815.68	19864
815.821	19894
815.962	19833
816.103	19932
816.244	19780
816.385	19647
816.526	19510
816.666	19403
816.807	19373
816.948	19324
817.089	19506
817.23	19449
817.371	19308
817.512	19183
817.653	19301
817.793	19293
817.934	19263
818.075	19339
818.216	19244
818.356	19228
818.497	19046
818.638	18989
818.778	18951
818.919	19034
819.06	18947
819.2	19152
819.341	19137
819.481	19114
819.622	19278
819.762	19476
819.903	19419
820.043	19297
820.184	19377
820.324	19297
820.465	19396
820.605	19339
820.746	19274
820.886	19164
821.026	19301
821.167	19240
821.307	19354
821.447	19255
821.588	19069
821.728	18913
821.868	18905
822.008	18722
822.149	18795
822.289	18677
822.429	18330
822.569	18410
822.709	18388
822.849	18155
822.99	18148
823.13	18140
823.27	18209
823.41	18091
823.55	17939
823.69	18114
823.83	17961
823.97	17942
824.11	17707
824.25	17726
824.389	17710
824.529	17695
824.669	17760
824.809	17885
824.949	17885
825.089	17878
825.228	17718
825.368	17585
825.508	17543
825.648	17577
825.787	17592
825.927	17596
826.067	17459
826.206	17467
826.346	17596
826.485	17630
826.625	17581
826.765	17600
826.904	17551
827.044	17261
827.183	17258
827.323	17261
827.462	17341
827.601	17181
827.741	17117
827.88	17288
828.02	17185
828.159	17227
828.298	17223
828.437	17364
828.577	17216
828.716	17341
828.855	17155
828.994	16968
829.134	17064
829.273	17014
829.412	16987
829.551	17048
829.69	16976
829.829	17003
829.968	17109
830.107	17010
830.246	17029
830.385	16949
830.524	16854
830.663	16847
830.802	16710
830.941	16664
831.08	16592
831.219	16759
831.357	16694
831.496	16869
831.635	16611
831.774	16550
831.913	16626
832.051	16405
832.19	16417
832.329	16466
832.467	16382
832.606	16287
832.744	16276
832.883	16306
833.022	16360
833.16	16386
833.299	16341
833.437	16310
833.576	16310
833.714	16386
833.852	16405
833.991	16417
834.129	16504
834.267	16386
834.406	16405
834.544	16382
834.682	16398
834.821	16375
834.959	16584
835.097	16356
835.235	16470
835.373	16443
835.511	16542
835.65	16322
835.788	16253
835.926	16234
836.064	16128
836.202	16071
836.34	16242
836.478	16421
836.615	16261
836.753	16352
836.891	16375
837.029	16325
837.167	16322
837.305	16154
837.443	16101
837.58	16143
837.718	16230
837.856	16154
837.993	16211
838.131	16162
838.269	16086
838.406	16120
838.544	15956
838.681	16013
838.819	15873
838.956	15739
839.094	15789
839.231	15819
839.369	15835
839.506	16097
839.643	15968
839.781	15774
839.918	15747
840.055	15804
840.193	15747
840.33	15701
840.467	15698
840.604	15778
840.742	16044
840.879	15644
841.016	15644
841.153	15667
841.29	15838
841.427	15774
841.564	15701
841.701	15660
841.838	15675
841.975	15641
842.112	15656
842.249	15545
842.385	15507
842.522	15717
842.659	15549
842.796	15477
842.933	15599
843.069	15420
843.206	15515
843.343	15606
843.479	15477
843.616	15641
843.752	15313
843.889	15405
844.025	15462
844.162	15287
844.298	15367
844.435	15386
844.571	15260
844.708	15340
844.844	15545
844.98	15576
845.117	15454
845.253	15256
845.389	15226
845.525	15192
845.661	15108
845.798	15138
845.934	15112
846.07	15112
846.206	15100
846.342	15272
846.478	15077
846.614	14845
846.75	14876
846.886	14815
847.022	15047
847.158	14906
847.294	14914
847.429	14910
847.565	14914
847.701	15093
847.837	14625
847.972	14545
848.108	14826
848.244	14701
848.379	14503
848.515	14434
848.65	14492
848.786	14438
848.921	14438
849.057	14564
849.192	14602
849.328	14549
849.463	14469
849.598	14556
849.734	14423
849.869	14343
850.004	14309
850.14	14339
850.275	14229
850.41	14233
850.545	14240
850.68	14248
850.815	14199
850.95	14172
851.085	14415
851.22	14339
851.355	14332
851.49	14233
851.625	14259
851.76	14206
851.895	14142
852.03	14149
852.165	14248
852.299	14320
852.434	14290
852.569	14259
852.703	14282
852.838	14309
852.973	14412
853.107	14408
853.242	14336
853.376	14145
853.511	13993
853.645	14123
853.78	14218
853.914	14084
854.048	14039
854.183	14050
854.317	14202
854.451	14202
854.585	14149
854.72	14069
854.854	14126
854.988	14054
855.122	14153
855.256	14024
855.39	14035
855.524	14263
855.658	14115
855.792	14202
855.926	14195
856.06	14123
856.194	14161
856.327	14069
856.461	14092
856.595	14065
856.729	14096
856.862	14263
856.996	14199
857.13	14240
857.263	14149
857.397	14324
857.53	14161
857.664	14214
857.797	14221
857.931	14286
858.064	14172
858.197	14278
858.331	14138
858.464	14008
858.597	13986
858.731	14103
858.864	14183
858.997	14096
859.13	14176
859.263	14130
859.396	14142
859.529	14115
859.662	13917
859.795	14020
859.928	14123
860.061	14263
860.194	14221
860.327	14088
860.46	14081
860.592	14286
860.725	14214
860.858	14278
860.99	14130
861.123	14058
861.256	14043
861.388	14020
861.521	14914
861.653	13986
861.786	13967
861.918	13944
862.05	14005
862.183	14020
862.315	14035
862.447	14149
862.58	14005
862.712	13909
862.844	13784
862.976	14001
863.108	13894
863.24	14210
863.372	13852
863.504	13932
863.636	13837
863.768	13978
863.9	13788
864.032	13860
864.164	13921
864.296	13864
864.428	14088
864.559	13993
864.691	14058
864.823	13909
864.954	13963
865.086	13898
865.217	13928
865.349	13856
865.48	13955
865.612	13864
865.743	13963
865.875	13841
866.006	13887
866.137	13879
866.269	13868
866.4	13871
866.531	13791
866.662	13772
866.793	13830
866.924	13849
867.055	13879
867.186	13887
867.317	13845
867.448	13822
867.579	13780
867.71	13811
867.841	13837
867.972	13894
868.103	13890
868.233	13887
868.364	13936
868.495	13951
868.625	14012
868.756	14142
868.886	14077
869.017	14046
869.147	14233
869.278	14290
869.408	14081
869.539	14126
869.669	14271
869.799	14271
869.929	14282
870.06	14328
870.19	14514
870.32	14423
870.45	14381
870.58	14518
870.71	14598
870.84	14640
870.97	14552
871.1	14537
871.23	14705
871.36	14773
871.489	14716
871.619	14602
871.749	14659
871.879	14796
872.008	14853
872.138	14792
872.267	14765
872.397	14457
872.526	14598
872.656	14530
872.785	14606
872.915	14758
873.044	14826
873.173	14830
873.303	14823
873.432	14758
873.561	14891
873.69	14830
873.819	14785
873.948	14830
874.077	14834
874.206	14746
874.335	14777
874.464	15020
874.593	15089
874.722	14929
874.851	15195
874.979	15173
875.108	15135
875.237	15043
875.365	15024
875.494	15062
875.623	15264
875.751	15085
875.88	15165
876.008	15264
876.136	15294
876.265	15591
876.393	15679
876.521	15557
876.65	15610
876.778	15603
876.906	15526
877.034	15359
877.162	15473
877.29	15389
877.418	15507
877.546	15485
877.674	15462
877.802	15515
877.93	15481
878.058	15523
878.185	15420
878.313	15462
878.441	15488
878.568	15363
878.696	15416
878.824	15485
878.951	15561
879.079	15694
879.206	15857
879.333	15667
879.461	15584
879.588	15648
879.715	15698
879.842	15747
879.97	15603
880.097	15332
880.224	15321
880.351	15443
880.478	15435
880.605	15340
880.732	15443
880.859	15641
880.986	15317
881.112	15428
881.239	15214
881.366	15192
881.493	15104
881.619	15028
881.746	15100
881.872	15055
881.999	14979
882.125	14971
882.252	15146
882.378	15062
882.505	15161
882.631	15013
882.757	14891
882.883	14941
883.01	14921
883.136	14834
883.262	14739
883.388	14686
883.514	14906
883.64	14914
883.766	14895
883.892	14617
884.018	14727
884.143	14750
884.269	14910
884.395	14625
884.52	14473
884.646	14613
884.772	14446
884.897	14495
885.023	14522
885.148	14602
885.274	14724
885.399	14632
885.524	14590
885.65	14560
885.775	14610
885.9	14552
886.025	14560
886.15	14579
886.275	14552
886.4	14526
886.525	14549
886.65	14358
886.775	14518
886.9	14640
887.025	14781
887.149	14492
887.274	14358
887.399	14469
887.523	14461
887.648	14305
887.773	14324
887.897	14431
888.021	14431
888.146	14343
888.27	14473
888.395	14526
888.519	14469
888.643	14495
888.767	14457
888.891	14355
889.015	14221
889.139	14240
889.263	14278
889.387	14374
889.511	14503
889.635	14408
889.759	14225
889.883	14282
890.006	14267
890.13	14396
890.254	14237
890.377	14229
890.501	14008
890.624	13974
890.748	14149
890.871	13951
890.995	13757
891.118	13845
891.241	13963
891.364	13989
891.488	13982
891.611	13898
891.734	13944
891.857	14031
891.98	13989
892.103	14046
892.226	13997
892.349	14008
892.471	13845
892.594	13917
892.717	13963
892.839	13845
892.962	14008
893.085	13951
893.207	13944
893.33	13898
893.452	13925
893.575	13967
893.697	13993
893.819	14210
893.941	14225
894.064	14024
894.186	13967
894.308	13936
894.43	13944
894.552	14115
894.674	14054
894.796	13921
894.918	13925
895.04	13967
895.161	14142
895.283	14138
895.405	14031
895.526	14035
895.648	13982
895.769	14081
895.891	14092
896.012	14191
896.134	14161
896.255	14073
896.376	14130
896.498	14126
896.619	14183
896.74	14153
896.861	14195
896.982	14492
897.103	14663
897.224	14434
897.345	14431
897.466	14324
897.587	14404
897.708	14419
897.828	14446
897.949	14362
898.07	14301
898.19	14332
898.311	14530
898.431	14476
898.552	14473
898.672	14648
898.792	14526
898.913	14514
899.033	14408
899.153	14385
899.273	14298
899.393	14244
899.513	14362
899.633	14404
899.753	14446
899.873	14286
899.993	14347
900.113	14187
900.232	14336
900.352	14290
900.472	14218
900.591	14172
900.711	14233
900.83	14096
900.95	14206
901.069	14271
901.189	14107
901.308	13978
901.427	13826
901.546	13811
901.665	13970
901.784	13852
901.904	13708
902.023	13590
902.141	13499
902.26	13502
902.379	13491
902.498	13472
902.617	13373
902.735	13499
902.854	13400
902.973	13381
903.091	13110
903.21	13145
903.328	13263
903.446	13171
903.565	12966
903.683	13084
903.801	12966
903.919	12993
904.038	12993
904.156	12901
904.274	12970
904.392	12806
904.51	12798
904.627	12703
904.745	12894
904.863	12909
904.981	12650
905.098	12513
905.216	12532
905.334	12601
905.451	12593
905.569	12483
905.686	12623
905.803	12589
905.921	12384
906.038	12456
906.155	12353
906.272	12266
906.389	12315
906.506	12064
906.623	12076
906.74	12110
906.857	11988
906.974	11980
907.091	12266
907.208	12327
907.324	12197
907.441	12038
907.557	11904
907.674	11874
907.79	11798
907.907	11870
908.023	11999
908.139	11851
908.256	11771
908.372	11745
908.488	11737
908.604	11665
908.72	11615
908.836	11600
908.952	11589
909.068	11672
909.184	11752
909.3	11611
909.415	11703
909.531	11691
909.647	11406
909.762	11345
909.878	11368
909.993	11482
910.108	11315
910.224	11337
910.339	11356
910.454	11383
910.57	11170
910.685	11181
910.8	11448
910.915	11433
911.03	11296
911.145	11056
911.259	11117
911.374	11113
911.489	11083
911.604	10991
911.718	10797
911.833	10896
911.947	10774
912.062	10733
912.176	10786
912.291	10946
912.405	10892
912.519	11033
912.633	11079
912.748	10911
912.862	10892
912.976	10733
913.09	10569
913.204	10672
913.318	10725
913.431	10968
913.545	10889
913.659	10782
913.772	10797
913.886	10675
914	10603
914.113	10714
914.226	10740
914.34	10755
914.453	10645
914.566	10748
914.68	10504
914.793	10580
914.906	10432
915.019	10367
915.132	10367
915.245	10443
915.358	10379
915.47	10379
915.583	10421
915.696	10440
915.809	10455
915.921	10489
916.034	10398
916.146	10322
916.259	10310
916.371	10390
916.483	10424
916.595	10238
916.708	10257
916.82	10318
916.932	10295
917.044	10238
917.156	10188
917.268	10169
917.38	10322
917.491	10207
917.603	10284
917.715	10314
917.826	10352
917.938	10185
918.049	10090
918.161	10188
918.272	10314
918.384	10310
918.495	10207
918.606	10166
918.717	10036
918.828	10074
918.939	10116
919.05	10006
919.161	10112
919.272	9846
919.383	10006
919.494	10147
919.604	10318
919.715	10181
919.826	10032
919.936	10139
920.047	10139
920.157	10116
920.267	10314
920.378	10150
920.488	10059
920.598	10230
920.708	10462
920.818	10272
920.928	10303
921.038	10379
921.148	10500
921.258	10173
921.368	10063
921.477	10032
921.587	9956
921.697	9873
921.806	9983
921.916	9907
922.025	9770
922.134	9652
922.244	9629
922.353	9755
922.462	9500
922.571	9572
922.68	9447
922.789	9348
922.898	9340
923.007	9336
923.116	9329
923.224	9405
923.333	9302
923.442	9386
923.55	9291
923.659	9253
923.767	9279
923.876	9222
923.984	9336
924.092	9142
924.201	9283
924.309	9207
924.417	9245
924.525	9214
924.633	9264
924.741	9994
924.849	9036
924.956	9211
925.064	8967
925.172	8899
925.279	9028
925.387	9020
925.494	9066
925.602	9184
925.709	9150
925.816	9047
925.924	9039
926.031	9138
926.138	9017
926.245	9043
926.352	8960
926.459	9093
926.566	9173
926.673	8948
926.779	8895
926.886	8906
926.993	8766
927.099	8754
927.206	8792
927.312	8697
927.419	8762
927.525	8796
927.631	8853
927.737	8613
927.843	8598
927.95	8530
928.056	8651
928.162	8667
928.267	8613
928.373	9260
928.479	8724
928.585	8518
928.69	8571
928.796	8678
928.901	8571
929.007	8454
929.112	8575
929.218	8492
929.323	8533
929.428	8537
929.533	8613
929.638	8438
929.743	8454
929.848	8507
929.953	8465
930.058	8427
930.163	8225
930.267	8259
930.372	8423
930.477	8176
930.581	8427
930.685	8305
930.79	8240
930.894	8252
930.998	8187
931.103	8328
931.207	7997
931.311	7917
931.415	7875
931.519	7746
931.623	7655
