Data from test_V78500241_1176.txt Node
Date: Fri Mar 25 14:41:54 CST 2022
User: usil
Spectrometer: V785-0024
Trigger mode: 0
Integration Time (sec): 4.000000E-1
Scans to average: 1
Nonlinearity correction enabled: false
Boxcar width: 0
Storing dark spectrum: false
XAxis mode: Wavelengths
Number of Pixels in Spectrum: 1024
>>>>>Begin Spectral Data<<<<<
801.071	22557
801.214	22375
801.356	22219
801.499	22181
801.641	21941
801.783	21850
801.926	21873
802.068	21743
802.211	21759
802.353	21679
802.496	21435
802.638	21317
802.78	21405
802.923	21214
803.065	21260
803.208	21116
803.35	21116
803.492	21249
803.635	21344
803.777	21165
803.919	21230
804.061	21526
804.204	21287
804.346	21154
804.488	21142
804.63	21131
804.773	20986
804.915	21062
805.057	21252
805.199	21112
805.341	21161
805.483	21268
805.626	21214
805.768	20971
805.91	21074
806.052	21089
806.194	20967
806.336	21081
806.478	21188
806.62	21108
806.762	21298
806.904	21397
807.046	21599
807.188	21553
807.33	21447
807.472	21443
807.614	21435
807.756	21450
807.898	21359
808.04	21165
808.182	21230
808.324	21355
808.465	21291
808.607	21507
808.749	21599
808.891	21633
809.033	21892
809.174	21599
809.316	21564
809.458	21504
809.6	21667
809.741	21614
809.883	21675
810.025	21648
810.166	21789
810.308	21698
810.45	21663
810.591	21511
810.733	21367
810.875	21363
811.016	21302
811.158	21222
811.299	21389
811.441	21367
811.582	21291
811.724	21370
811.865	21302
812.007	21252
812.148	21344
812.29	21397
812.431	21355
812.573	21599
812.714	21713
812.855	21690
812.997	21975
813.138	21949
813.279	21880
813.421	21797
813.562	21732
813.703	21625
813.845	21454
813.986	21161
814.127	21070
814.268	20918
814.41	20880
814.551	20651
814.692	20918
814.833	20845
814.974	20842
815.115	20944
815.256	20659
815.397	20606
815.539	20849
815.68	20549
815.821	20621
815.962	20465
816.103	20617
816.244	20404
816.385	20290
816.526	20244
816.666	20142
816.807	19986
816.948	20107
817.089	20119
817.23	20111
817.371	19989
817.512	20058
817.653	19978
817.793	19906
817.934	20081
818.075	20134
818.216	20020
818.356	19909
818.497	19700
818.638	19677
818.778	19605
818.919	19761
819.06	19677
819.2	19875
819.341	19860
819.481	19849
819.622	20024
819.762	20164
819.903	20229
820.043	20073
820.184	19986
820.324	19982
820.465	20100
820.605	20012
820.746	20035
820.886	19833
821.026	19906
821.167	19898
821.307	19959
821.447	19906
821.588	19795
821.728	19674
821.868	19632
822.008	19392
822.149	19350
822.289	19434
822.429	19194
822.569	19091
822.709	19053
822.849	18817
822.99	18859
823.13	18951
823.27	18882
823.41	18703
823.55	18722
823.69	18802
823.83	18783
823.97	18745
824.11	18525
824.25	18361
824.389	18452
824.529	18559
824.669	18403
824.809	18616
824.949	18517
825.089	18490
825.228	18555
825.368	18330
825.508	18319
825.648	18285
825.787	18232
825.927	18357
826.067	18239
826.206	18228
826.346	18254
826.485	18311
826.625	18243
826.765	18319
826.904	18266
827.044	17992
827.183	18034
827.323	18007
827.462	18034
827.601	17885
827.741	17973
827.88	18026
828.02	17813
828.159	17870
828.298	17950
828.437	17977
828.577	17931
828.716	18026
828.855	17901
828.994	17745
829.134	17642
829.273	17699
829.412	17623
829.551	17562
829.69	17813
829.829	17710
829.968	17828
830.107	17779
830.246	17714
830.385	17653
830.524	17615
830.663	17440
830.802	17387
830.941	17387
831.08	17345
831.219	17383
831.357	17471
831.496	17535
831.635	17315
831.774	17166
831.913	17299
832.051	17071
832.19	17128
832.329	17151
832.467	17041
832.606	16991
832.744	16965
832.883	17041
833.022	16968
833.16	17048
833.299	17022
833.437	17124
833.576	17140
833.714	17041
833.852	17022
833.991	17075
834.129	17117
834.267	17121
834.406	17064
834.544	17105
834.682	17045
834.821	17166
834.959	17208
835.097	17056
835.235	17170
835.373	17159
835.511	17109
835.65	16919
835.788	17014
835.926	16930
836.064	16812
836.202	16877
836.34	17006
836.478	17033
836.615	17132
836.753	17056
836.891	17079
837.029	17056
837.167	16915
837.305	16980
837.443	16809
837.58	16866
837.718	16965
837.856	16881
837.993	16797
838.131	16782
838.269	16778
838.406	16774
838.544	16763
838.681	16672
838.819	16550
838.956	16409
839.094	16363
839.231	16500
839.369	16592
839.506	16869
839.643	16641
839.781	16508
839.918	16348
840.055	16386
840.193	16493
840.33	16421
840.467	16325
840.604	16588
840.742	16752
840.879	16299
841.016	16329
841.153	16352
841.29	16535
841.427	16466
841.564	16443
841.701	16466
841.838	16436
841.975	16344
842.112	16367
842.249	16200
842.385	16253
842.522	16447
842.659	16223
842.796	16147
842.933	16131
843.069	16067
843.206	16173
843.343	16211
843.479	16143
843.616	16120
843.752	16013
843.889	16006
844.025	16135
844.162	15960
844.298	16032
844.435	16025
844.571	15888
844.708	15983
844.844	16097
844.98	16177
845.117	16128
845.253	15880
845.389	15778
845.525	16029
845.661	16017
845.798	15842
845.934	16051
846.07	15972
846.206	15941
846.342	16048
846.478	15892
846.614	15644
846.75	15507
846.886	15580
847.022	15610
847.158	15652
847.294	15564
847.429	15584
847.565	15641
847.701	15705
847.837	15230
847.972	15268
848.108	15378
848.244	15363
848.379	15207
848.515	15184
848.65	15100
848.786	15188
848.921	15131
849.057	15218
849.192	15233
849.328	15150
849.463	15173
849.598	15154
849.734	15017
849.869	14925
850.004	14880
850.14	14838
850.275	14906
850.41	14750
850.545	14876
850.68	14834
850.815	14933
850.95	14876
851.085	15013
851.22	14975
851.355	14826
851.49	14842
851.625	14819
851.76	14902
851.895	14689
852.03	14777
852.165	14807
852.299	14921
852.434	15028
852.569	14937
852.703	14899
852.838	14933
852.973	14979
853.107	15097
853.242	14872
853.376	14800
853.511	14602
853.645	14708
853.78	14853
853.914	14849
854.048	14663
854.183	14750
854.317	14861
854.451	14826
854.585	14785
854.72	14678
854.854	14819
854.988	14731
855.122	14788
855.256	14556
855.39	14811
855.524	14807
855.658	14838
855.792	14682
855.926	14705
856.06	14826
856.194	14845
856.327	14705
856.461	14701
856.595	14678
856.729	14777
856.862	14921
856.996	14765
857.13	14891
857.263	14811
857.397	14845
857.53	14823
857.664	14804
857.797	14773
857.931	14838
858.064	14830
858.197	15028
858.331	14731
858.464	14724
858.597	14720
858.731	14815
858.864	14845
858.997	14815
859.13	14693
859.263	14788
859.396	14910
859.529	14754
859.662	14659
859.795	14724
859.928	14773
860.061	14872
860.194	14963
860.327	14819
860.46	14758
860.592	14857
860.725	14845
860.858	14842
860.99	14644
861.123	14705
861.256	14746
861.388	14804
861.521	15504
861.653	14606
861.786	14674
861.918	14693
862.05	14678
862.183	14727
862.315	14724
862.447	14899
862.58	14667
862.712	14518
862.844	14374
862.976	14598
863.108	14518
863.24	15028
863.372	14423
863.504	14492
863.636	14610
863.768	14549
863.9	14545
864.032	14507
864.164	14473
864.296	14560
864.428	14579
864.559	14667
864.691	14659
864.823	14556
864.954	14648
865.086	14621
865.217	14476
865.349	14415
865.48	14537
865.612	14336
865.743	14693
865.875	14511
866.006	14530
866.137	14541
866.269	14537
866.4	14514
866.531	14503
866.662	14431
866.793	14434
866.924	14473
867.055	14492
867.186	14522
867.317	14457
867.448	14469
867.579	14476
867.71	14469
867.841	14465
867.972	14457
868.103	14446
868.233	14549
868.364	14560
868.495	14556
868.625	14754
868.756	14765
868.886	14587
869.017	14746
869.147	14895
869.278	14883
869.408	14819
869.539	14762
869.669	14872
869.799	14823
869.929	14861
870.06	14807
870.19	15074
870.32	15009
870.45	15112
870.58	15161
870.71	15298
870.84	15214
870.97	15138
871.1	15195
871.23	15313
871.36	15336
871.489	15203
871.619	15252
871.749	15329
871.879	15370
872.008	15428
872.138	15439
872.267	15329
872.397	15192
872.526	15279
872.656	15207
872.785	15146
872.915	15393
873.044	15454
873.173	15367
873.303	15435
873.432	15504
873.561	15511
873.69	15336
873.819	15416
873.948	15564
874.077	15420
874.206	15431
874.335	15450
874.464	15507
874.593	15641
874.722	15595
874.851	15720
874.979	15812
875.108	15812
875.237	15641
875.365	15709
875.494	15686
875.623	15785
875.751	15713
875.88	15861
876.008	15800
876.136	15907
876.265	16101
876.393	16234
876.521	16158
876.65	16242
876.778	16204
876.906	16169
877.034	16112
877.162	16063
877.29	15972
877.418	16048
877.546	16029
877.674	16071
877.802	16082
877.93	16177
878.058	16051
878.185	15968
878.313	16223
878.441	16116
878.568	16021
878.696	16154
878.824	16150
878.951	16272
879.079	16367
879.206	16436
879.333	16402
879.461	16185
879.588	16284
879.715	16329
879.842	16516
879.97	16287
880.097	16101
880.224	15953
880.351	15983
880.478	15907
880.605	15968
880.732	15930
880.859	16299
880.986	15991
881.112	16006
881.239	15964
881.366	15770
881.493	15675
881.619	15694
881.746	15644
881.872	15614
881.999	15728
882.125	15720
882.252	15682
882.378	15701
882.505	15812
882.631	15545
882.757	15378
882.883	15530
883.01	15462
883.136	15424
883.262	15291
883.388	15310
883.514	15545
883.64	15515
883.766	15424
883.892	15283
884.018	15367
884.143	15530
884.269	15561
884.395	15199
884.52	15207
884.646	15256
884.772	15100
884.897	15024
885.023	15195
885.148	15272
885.274	15298
885.399	15283
885.524	15028
885.65	15211
885.775	15135
885.9	15195
886.025	15272
886.15	15176
886.275	15112
886.4	15024
886.525	15116
886.65	15165
886.775	15051
886.9	15306
887.025	15378
887.149	15176
887.274	15028
887.399	14967
887.523	14883
887.648	14891
887.773	14842
887.897	15077
888.021	15074
888.146	14842
888.27	15180
888.395	15013
888.519	15005
888.643	15066
888.767	14986
888.891	14815
889.015	14868
889.139	14857
889.263	14762
889.387	14902
889.511	15104
889.635	14933
889.759	14807
889.883	14815
890.006	14887
890.13	14933
890.254	14777
890.377	14720
890.501	14613
890.624	14670
890.748	14765
890.871	14587
890.995	14457
891.118	14423
891.241	14511
891.364	14571
891.488	14617
891.611	14511
891.734	14514
891.857	14571
891.98	14533
892.103	14537
892.226	14617
892.349	14514
892.471	14450
892.594	14575
892.717	14511
892.839	14469
892.962	14476
893.085	14602
893.207	14587
893.33	14377
893.452	14469
893.575	14530
893.697	14518
893.819	14674
893.941	14670
894.064	14549
894.186	14495
894.308	14488
894.43	14670
894.552	14701
894.674	14541
894.796	14549
894.918	14442
895.04	14556
895.161	14648
895.283	14564
895.405	14526
895.526	14617
895.648	14568
895.769	14625
895.891	14659
896.012	14777
896.134	14686
896.255	14625
896.376	14625
896.498	14651
896.619	14705
896.74	14590
896.861	14701
896.982	15131
897.103	15138
897.224	14921
897.345	14891
897.466	14754
897.587	14971
897.708	15024
897.828	14948
897.949	14906
898.07	14765
898.19	14876
898.311	15074
898.431	14933
898.552	14975
898.672	15119
898.792	15135
898.913	15017
899.033	15017
899.153	14887
899.273	14697
899.393	14777
899.513	14956
899.633	14891
899.753	14902
899.873	14769
899.993	14864
900.113	14933
900.232	14880
900.352	14754
900.472	14777
900.591	14625
900.711	14750
900.83	14648
900.95	14804
901.069	14819
901.189	14594
901.308	14461
901.427	14263
901.546	14461
901.665	14408
901.784	14480
901.904	14267
902.023	14187
902.141	14088
902.26	13959
902.379	14024
902.498	13928
902.617	13959
902.735	13921
902.854	13951
902.973	13875
903.091	13601
903.21	13662
903.328	13674
903.446	13563
903.565	13582
903.683	13544
903.801	13324
903.919	13457
904.038	13430
904.156	13282
904.274	13449
904.392	13308
904.51	13339
904.627	13373
904.745	13346
904.863	13362
904.981	13152
905.098	12958
905.216	12973
905.334	13046
905.451	12993
905.569	13042
905.686	13050
905.803	13053
905.921	12928
906.038	12954
906.155	12844
906.272	12776
906.389	12692
906.506	12566
906.623	12620
906.74	12597
906.857	12528
906.974	12525
907.091	12658
907.208	12700
907.324	12547
907.441	12494
907.557	12380
907.674	12384
907.79	12258
907.907	12273
908.023	12403
908.139	12311
908.256	12304
908.372	12350
908.488	12216
908.604	12216
908.72	12068
908.836	12159
908.952	12064
909.068	12091
909.184	12178
909.3	12102
909.415	12140
909.531	12098
909.647	11840
909.762	11817
909.878	11855
909.993	11901
910.108	11863
910.224	11904
910.339	11897
910.454	11741
910.57	11688
910.685	11634
910.8	11893
910.915	11885
911.03	11722
911.145	11634
911.259	11592
911.374	11524
911.489	11486
911.604	11425
911.718	11261
911.833	11284
911.947	11277
912.062	11086
912.176	11239
912.291	11265
912.405	11250
912.519	11535
912.633	11471
912.748	11398
912.862	11258
912.976	11201
913.09	11109
913.204	11151
913.318	11162
913.431	11269
913.545	11223
913.659	11212
913.772	11109
913.886	11029
914	11022
914.113	11117
914.226	11201
914.34	11121
914.453	10957
914.566	11128
914.68	10976
914.793	11006
914.906	10805
915.019	10790
915.132	10797
915.245	10831
915.358	10835
915.47	10714
915.583	10828
915.696	10881
915.809	10934
915.921	10957
916.034	10744
916.146	10710
916.259	10790
916.371	10835
916.483	10812
916.595	10736
916.708	10774
916.82	10694
916.932	10721
917.044	10656
917.156	10694
917.268	10573
917.38	10626
917.491	10584
917.603	10634
917.715	10668
917.826	10668
917.938	10584
918.049	10497
918.161	10577
918.272	10755
918.384	10725
918.495	10626
918.606	10500
918.717	10527
918.828	10455
918.939	10588
919.05	10367
919.161	10519
919.272	10265
919.383	10291
919.494	10554
919.604	10691
919.715	10596
919.826	10443
919.936	10478
920.047	10588
920.157	10523
920.267	10721
920.378	10615
920.488	10641
920.598	10763
920.708	10805
920.818	10725
920.928	10790
921.038	10782
921.148	10778
921.258	10573
921.368	10451
921.477	10409
921.587	10295
921.697	10284
921.806	10310
921.916	10265
922.025	10109
922.134	10128
922.244	10032
922.353	10067
922.462	9838
922.571	9907
922.68	9743
922.789	9686
922.898	9698
923.007	9701
923.116	9766
923.224	9644
923.333	9682
923.442	9595
923.55	9564
923.659	9629
923.767	9720
923.876	9549
923.984	9698
924.092	9530
924.201	9637
924.309	9530
924.417	9576
924.525	9622
924.633	9526
924.741	10303
924.849	9386
924.956	9526
925.064	9367
925.172	9264
925.279	9378
925.387	9408
925.494	9435
925.602	9515
925.709	9450
925.816	9344
925.924	9340
926.031	9447
926.138	9370
926.245	9370
926.352	9241
926.459	9405
926.566	9492
926.673	9321
926.779	9233
926.886	9260
926.993	9055
927.099	9100
927.206	9043
927.312	8998
927.419	9093
927.525	9085
927.631	9127
927.737	9070
927.843	8956
927.95	8857
928.056	8929
928.162	8990
928.267	9043
928.373	9599
928.479	9085
928.585	8864
928.69	8956
928.796	9017
928.901	8864
929.007	8788
929.112	8883
929.218	8857
929.323	8807
929.428	8762
929.533	8944
929.638	8788
929.743	8819
929.848	8788
929.953	8777
930.058	8621
930.163	8549
930.267	8610
930.372	8735
930.477	8476
930.581	8861
930.685	8670
930.79	8499
930.894	8465
930.998	8446
931.103	8648
931.207	8377
931.311	8210
931.415	8092
931.519	7967
931.623	7955
