Data from test_V78500241_3010.txt Node
Date: Fri Mar 25 14:54:40 CST 2022
User: usil
Spectrometer: V785-0024
Trigger mode: 0
Integration Time (sec): 4.000000E-1
Scans to average: 1
Nonlinearity correction enabled: false
Boxcar width: 0
Storing dark spectrum: false
XAxis mode: Wavelengths
Number of Pixels in Spectrum: 1024
>>>>>Begin Spectral Data<<<<<
801.071	22215
801.214	21922
801.356	21819
801.499	21515
801.641	21500
801.783	21447
801.926	21603
802.068	21439
802.211	21458
802.353	21260
802.496	21036
802.638	20963
802.78	21020
802.923	20788
803.065	20758
803.208	20773
803.35	20739
803.492	20845
803.635	20986
803.777	20708
803.919	20891
804.061	21184
804.204	20853
804.346	20785
804.488	20727
804.63	20712
804.773	20549
804.915	20686
805.057	20861
805.199	20689
805.341	20777
805.483	20826
805.626	20758
805.768	20689
805.91	20701
806.052	20606
806.194	20697
806.336	20910
806.478	20712
806.62	20735
806.762	20819
806.904	20864
807.046	21188
807.188	21055
807.33	21077
807.472	21005
807.614	21024
807.756	20967
807.898	20815
808.04	20674
808.182	20693
808.324	20861
808.465	20754
808.607	20815
808.749	21093
808.891	21192
809.033	21214
809.174	21199
809.316	21127
809.458	21100
809.6	21096
809.741	21127
809.883	21161
810.025	21275
810.166	21230
810.308	21237
810.45	21169
810.591	21184
810.733	21119
810.875	20845
811.016	20804
811.158	20914
811.299	20986
811.441	20937
811.582	20872
811.724	20811
811.865	20693
812.007	20754
812.148	20975
812.29	20899
812.431	21028
812.573	21165
812.714	21405
812.855	21386
812.997	21428
813.138	21534
813.279	21648
813.421	21389
813.562	21279
813.703	21104
813.845	21043
813.986	20872
814.127	20495
814.268	20454
814.41	20495
814.551	20366
814.692	20446
814.833	20415
814.974	20301
815.115	20305
815.256	20153
815.397	20161
815.539	20145
815.68	20225
815.821	20119
815.962	20168
816.103	20081
816.244	20115
816.385	19845
816.526	19925
816.666	19613
816.807	19533
816.948	19616
817.089	19681
817.23	19571
817.371	19548
817.512	19491
817.653	19407
817.793	19422
817.934	19586
818.075	19495
818.216	19472
818.356	19449
818.497	19335
818.638	19209
818.778	19110
818.919	19297
819.06	19270
819.2	19346
819.341	19358
819.481	19301
819.622	19533
819.762	19731
819.903	19575
820.043	19594
820.184	19510
820.324	19373
820.465	19616
820.605	19483
820.746	19453
820.886	19365
821.026	19495
821.167	19514
821.307	19514
821.447	19480
821.588	19316
821.728	19308
821.868	19103
822.008	18886
822.149	18856
822.289	18837
822.429	18585
822.569	18684
822.709	18585
822.849	18338
822.99	18376
823.13	18391
823.27	18243
823.41	18201
823.55	18186
823.69	18216
823.83	18213
823.97	18167
824.11	17973
824.25	17939
824.389	18034
824.529	17969
824.669	17885
824.809	18057
824.949	18098
825.089	18049
825.228	17931
825.368	17771
825.508	17779
825.648	17794
825.787	17904
825.927	17794
826.067	17737
826.206	17684
826.346	17726
826.485	17824
826.625	17638
826.765	17824
826.904	17764
827.044	17482
827.183	17539
827.323	17345
827.462	17497
827.601	17414
827.741	17368
827.88	17501
828.02	17353
828.159	17398
828.298	17459
828.437	17558
828.577	17315
828.716	17657
828.855	17345
828.994	17166
829.134	17185
829.273	17235
829.412	17269
829.551	17083
829.69	17155
829.829	17208
829.968	17143
830.107	17250
830.246	17128
830.385	17178
830.524	17025
830.663	16999
830.802	16877
830.941	16778
831.08	16740
831.219	16847
831.357	16915
831.496	17048
831.635	16710
831.774	16668
831.913	16694
832.051	16550
832.19	16500
832.329	16599
832.467	16516
832.606	16432
832.744	16344
832.883	16504
833.022	16447
833.16	16508
833.299	16451
833.437	16421
833.576	16417
833.714	16596
833.852	16596
833.991	16531
834.129	16588
834.267	16527
834.406	16527
834.544	16569
834.682	16596
834.821	16455
834.959	16733
835.097	16405
835.235	16622
835.373	16588
835.511	16500
835.65	16440
835.788	16462
835.926	16284
836.064	16223
836.202	16200
836.34	16489
836.478	16447
836.615	16462
836.753	16398
836.891	16443
837.029	16325
837.167	16398
837.305	16318
837.443	16234
837.58	16276
837.718	16398
837.856	16188
837.993	16234
838.131	16379
838.269	16284
838.406	16128
838.544	16147
838.681	16017
838.819	15922
838.956	15797
839.094	15873
839.231	15861
839.369	16006
839.506	16306
839.643	16013
839.781	15812
839.918	15785
840.055	15800
840.193	15838
840.33	15808
840.467	15793
840.604	15789
840.742	16071
840.879	15694
841.016	15720
841.153	15644
841.29	15994
841.427	15812
841.564	15975
841.701	15888
841.838	15690
841.975	15732
842.112	15709
842.249	15606
842.385	15690
842.522	15755
842.659	15701
842.796	15496
842.933	15720
843.069	15557
843.206	15435
843.343	15663
843.479	15580
843.616	15641
843.752	15389
843.889	15401
844.025	15545
844.162	15355
844.298	15545
844.435	15386
844.571	15481
844.708	15424
844.844	15572
844.98	15447
845.117	15416
845.253	15302
845.389	15302
845.525	15306
845.661	15405
845.798	15138
845.934	15233
846.07	15062
846.206	15188
846.342	15268
846.478	15203
846.614	14994
846.75	14887
846.886	14864
847.022	15047
847.158	15013
847.294	14963
847.429	14902
847.565	14925
847.701	15150
847.837	14834
847.972	14594
848.108	14701
848.244	14785
848.379	14629
848.515	14488
848.65	14514
848.786	14625
848.921	14518
849.057	14632
849.192	14602
849.328	14571
849.463	14606
849.598	14583
849.734	14488
849.869	14343
850.004	14339
850.14	14355
850.275	14351
850.41	14256
850.545	14317
850.68	14252
850.815	14275
850.95	14240
851.085	14560
851.22	14450
851.355	14248
851.49	14343
851.625	14263
851.76	14339
851.895	14172
852.03	14252
852.165	14248
852.299	14351
852.434	14457
852.569	14282
852.703	14339
852.838	14473
852.973	14469
853.107	14438
853.242	14275
853.376	14145
853.511	14164
853.645	14096
853.78	14298
853.914	14233
854.048	14134
854.183	14172
854.317	14145
854.451	14385
854.585	14142
854.72	14107
854.854	14263
854.988	14119
855.122	14278
855.256	14073
855.39	14176
855.524	14301
855.658	14278
855.792	14202
855.926	14218
856.06	14161
856.194	14309
856.327	14180
856.461	14100
856.595	14214
856.729	14210
856.862	14309
856.996	14191
857.13	14248
857.263	14275
857.397	14225
857.53	14180
857.664	14263
857.797	14259
857.931	14370
858.064	14233
858.197	14320
858.331	14138
858.464	14096
858.597	14153
858.731	14161
858.864	14111
858.997	14180
859.13	14210
859.263	14199
859.396	14237
859.529	14168
859.662	14157
859.795	14138
859.928	14161
860.061	14286
860.194	14396
860.327	14237
860.46	14180
860.592	14328
860.725	14408
860.858	14301
860.99	14210
861.123	14069
861.256	14183
861.388	14149
861.521	14910
861.653	14096
861.786	13986
861.918	14043
862.05	14130
862.183	14088
862.315	14210
862.447	14263
862.58	14142
862.712	13940
862.844	13963
862.976	13993
863.108	13970
863.24	14503
863.372	13841
863.504	13989
863.636	13936
863.768	14027
863.9	13932
864.032	13894
864.164	13928
864.296	14001
864.428	14157
864.559	14100
864.691	14054
864.823	14046
864.954	13978
865.086	13890
865.217	13970
865.349	13917
865.48	13940
865.612	13921
865.743	14054
865.875	13959
866.006	13928
866.137	13921
866.269	13970
866.4	13940
866.531	13890
866.662	13955
866.793	13932
866.924	13875
867.055	13970
867.186	13928
867.317	13887
867.448	13951
867.579	13871
867.71	13849
867.841	13784
867.972	14058
868.103	13928
868.233	13890
868.364	13970
868.495	14031
868.625	14153
868.756	14317
868.886	14149
869.017	14214
869.147	14195
869.278	14336
869.408	14202
869.539	14252
869.669	14229
869.799	14271
869.929	14347
870.06	14271
870.19	14590
870.32	14488
870.45	14556
870.58	14579
870.71	14682
870.84	14689
870.97	14602
871.1	14522
871.23	14750
871.36	14811
871.489	14735
871.619	14769
871.749	14788
871.879	14819
872.008	14956
872.138	14823
872.267	14716
872.397	14602
872.526	14644
872.656	14613
872.785	14602
872.915	14891
873.044	14826
873.173	14864
873.303	14895
873.432	14849
873.561	14864
873.69	14960
873.819	14807
873.948	14929
874.077	14876
874.206	14823
874.335	14956
874.464	14960
874.593	15192
874.722	15119
874.851	15237
874.979	15283
875.108	15252
875.237	15097
875.365	15062
875.494	15203
875.623	15291
875.751	15131
875.88	15203
876.008	15272
876.136	15408
876.265	15485
876.393	15728
876.521	15595
876.65	15675
876.778	15671
876.906	15648
877.034	15553
877.162	15488
877.29	15538
877.418	15496
877.546	15492
877.674	15557
877.802	15557
877.93	15625
878.058	15584
878.185	15496
878.313	15504
878.441	15580
878.568	15576
878.696	15500
878.824	15500
878.951	15553
879.079	15720
879.206	15937
879.333	15808
879.461	15622
879.588	15751
879.715	15781
879.842	15926
879.97	15667
880.097	15393
880.224	15458
880.351	15382
880.478	15454
880.605	15424
880.732	15462
880.859	15644
880.986	15450
881.112	15370
881.239	15310
881.366	15146
881.493	15039
881.619	15146
881.746	15104
881.872	15093
881.999	15222
882.125	15024
882.252	15131
882.378	15188
882.505	15150
882.631	15020
882.757	14864
882.883	14864
883.01	14834
883.136	14872
883.262	14777
883.388	14785
883.514	14853
883.64	14975
883.766	14845
883.892	14594
884.018	14727
884.143	14925
884.269	15017
884.395	14598
884.52	14568
884.646	14610
884.772	14575
884.897	14492
885.023	14511
885.148	14667
885.274	14705
885.399	14705
885.524	14663
885.65	14568
885.775	14632
885.9	14636
886.025	14758
886.15	14602
886.275	14488
886.4	14480
886.525	14629
886.65	14518
886.775	14473
886.9	14777
887.025	14948
887.149	14617
887.274	14385
887.399	14377
887.523	14412
887.648	14336
887.773	14286
887.897	14522
888.021	14514
888.146	14415
888.27	14533
888.395	14579
888.519	14552
888.643	14537
888.767	14476
888.891	14415
889.015	14221
889.139	14358
889.263	14240
889.387	14336
889.511	14457
889.635	14412
889.759	14381
889.883	14290
890.006	14313
890.13	14412
890.254	14256
890.377	14161
890.501	14202
890.624	14012
890.748	14126
890.871	14069
890.995	13928
891.118	13902
891.241	14020
891.364	14073
891.488	14058
891.611	13970
891.734	14008
891.857	14062
891.98	14020
892.103	14050
892.226	14008
892.349	14084
892.471	13909
892.594	13986
892.717	13974
892.839	13944
892.962	14058
893.085	14065
893.207	13970
893.33	13906
893.452	13906
893.575	14100
893.697	13982
893.819	14100
893.941	14229
894.064	14218
894.186	14077
894.308	13989
894.43	14153
894.552	14218
894.674	14168
894.796	13978
894.918	14062
895.04	14039
895.161	14081
895.283	14119
895.405	14107
895.526	14111
895.648	14073
895.769	14195
895.891	14164
896.012	14278
896.134	14153
896.255	14164
896.376	14119
896.498	14172
896.619	14229
896.74	14145
896.861	14191
896.982	14488
897.103	14629
897.224	14465
897.345	14393
897.466	14309
897.587	14412
897.708	14541
897.828	14450
897.949	14495
898.07	14309
898.19	14473
898.311	14598
898.431	14457
898.552	14492
898.672	14606
898.792	14587
898.913	14636
899.033	14465
899.153	14408
899.273	14328
899.393	14427
899.513	14351
899.633	14374
899.753	14404
899.873	14362
899.993	14377
900.113	14415
900.232	14415
900.352	14324
900.472	14294
900.591	14187
900.711	14339
900.83	14275
900.95	14221
901.069	14358
901.189	14233
901.308	14016
901.427	13890
901.546	14016
901.665	13982
901.784	14008
901.904	13833
902.023	13693
902.141	13559
902.26	13537
902.379	13620
902.498	13514
902.617	13365
902.735	13548
902.854	13559
902.973	13438
903.091	13190
903.21	13270
903.328	13236
903.446	13133
903.565	13099
903.683	13065
903.801	12981
903.919	13072
904.038	12977
904.156	12848
904.274	13023
904.392	12890
904.51	12825
904.627	12890
904.745	12985
904.863	12939
904.981	12760
905.098	12574
905.216	12635
905.334	12696
905.451	12570
905.569	12570
905.686	12623
905.803	12665
905.921	12285
906.038	12506
906.155	12410
906.272	12319
906.389	12300
906.506	12167
906.623	12205
906.74	12155
906.857	12072
906.974	12072
907.091	12270
907.208	12266
907.324	12330
907.441	12098
907.557	11977
907.674	11927
907.79	11874
907.907	11870
908.023	11999
908.139	11874
908.256	11893
908.372	11855
908.488	11809
908.604	11661
908.72	11642
908.836	11783
908.952	11649
909.068	11737
909.184	11817
909.3	11756
909.415	11680
909.531	11688
909.647	11516
909.762	11414
909.878	11429
909.993	11387
910.108	11440
910.224	11433
910.339	11493
910.454	11337
910.57	11296
910.685	11208
910.8	11532
910.915	11520
911.03	11410
911.145	11117
911.259	11208
911.374	11193
911.489	11079
911.604	11060
911.718	10866
911.833	10862
911.947	10869
912.062	10740
912.176	10908
912.291	10980
912.405	10885
912.519	11113
912.633	11048
912.748	10968
912.862	10850
912.976	10786
913.09	10702
913.204	10725
913.318	10767
913.431	10896
913.545	10927
913.659	10869
913.772	10858
913.886	10672
914	10634
914.113	10790
914.226	10790
914.34	10790
914.453	10535
914.566	10683
914.68	10592
914.793	10622
914.906	10470
915.019	10409
915.132	10398
915.245	10363
915.358	10470
915.47	10531
915.583	10443
915.696	10478
915.809	10500
915.921	10573
916.034	10382
916.146	10394
916.259	10367
916.371	10443
916.483	10325
916.595	10329
916.708	10375
916.82	10348
916.932	10356
917.044	10268
917.156	10310
917.268	10253
917.38	10257
917.491	10246
917.603	10207
917.715	10341
917.826	10295
917.938	10219
918.049	10032
918.161	10322
918.272	10375
918.384	10436
918.495	10295
918.606	10173
918.717	10059
918.828	10200
918.939	10211
919.05	10048
919.161	10074
919.272	9911
919.383	9983
919.494	10192
919.604	10390
919.715	10086
919.826	10040
919.936	10131
920.047	10204
920.157	10093
920.267	10314
920.378	10200
920.488	10101
920.598	10337
920.708	10523
920.818	10405
920.928	10284
921.038	10527
921.148	10432
921.258	10204
921.368	10173
921.477	10010
921.587	9994
921.697	9895
921.806	10029
921.916	9953
922.025	9637
922.134	9732
922.244	9606
922.353	9705
922.462	9595
922.571	9561
922.68	9408
922.789	9439
922.898	9424
923.007	9329
923.116	9443
923.224	9408
923.333	9469
923.442	9351
923.55	9287
923.659	9344
923.767	9336
923.876	9237
923.984	9378
924.092	9237
924.201	9313
924.309	9340
924.417	9287
924.525	9218
924.633	9256
924.741	10188
924.849	9058
924.956	9195
925.064	9097
925.172	8960
925.279	9032
925.387	9066
925.494	9074
925.602	9214
925.709	9180
925.816	8979
925.924	9138
926.031	9157
926.138	9142
926.245	9131
926.352	9043
926.459	9173
926.566	9180
926.673	9097
926.779	8971
926.886	8876
926.993	8811
927.099	8842
927.206	8781
927.312	8739
927.419	8876
927.525	8766
927.631	8845
927.737	8773
927.843	8708
927.95	8590
928.056	8720
928.162	8777
928.267	8796
928.373	9306
928.479	8876
928.585	8541
928.69	8674
928.796	8735
928.901	8651
929.007	8488
929.112	8564
929.218	8678
929.323	8511
929.428	8461
929.533	8735
929.638	8492
929.743	8579
929.848	8545
929.953	8549
930.058	8393
930.163	8332
930.267	8332
930.372	8434
930.477	8332
930.581	8537
930.685	8465
930.79	8294
930.894	8317
930.998	8248
931.103	8374
931.207	8001
931.311	8077
931.415	7997
931.519	7738
931.623	7807
