Data from test_V78500241_2840.txt Node
Date: Fri Mar 25 14:53:29 CST 2022
User: usil
Spectrometer: V785-0024
Trigger mode: 0
Integration Time (sec): 4.000000E-1
Scans to average: 1
Nonlinearity correction enabled: false
Boxcar width: 0
Storing dark spectrum: false
XAxis mode: Wavelengths
Number of Pixels in Spectrum: 1024
>>>>>Begin Spectral Data<<<<<
801.071	22105
801.214	22006
801.356	21743
801.499	21606
801.641	21580
801.783	21424
801.926	21507
802.068	21348
802.211	21230
802.353	21332
802.496	21024
802.638	20887
802.78	20826
802.923	20857
803.065	20762
803.208	20731
803.35	20750
803.492	20811
803.635	20941
803.777	20845
803.919	20868
804.061	21089
804.204	20914
804.346	20792
804.488	20629
804.63	20750
804.773	20712
804.915	20819
805.057	20853
805.199	20682
805.341	20773
805.483	20739
805.626	20792
805.768	20556
805.91	20758
806.052	20701
806.194	20598
806.336	20804
806.478	20587
806.62	20617
806.762	20792
806.904	20853
807.046	21096
807.188	21066
807.33	20975
807.472	21116
807.614	20876
807.756	20883
807.898	20762
808.04	20549
808.182	20792
808.324	20830
808.465	20762
808.607	20876
808.749	21108
808.891	21070
809.033	21157
809.174	21245
809.316	21032
809.458	20975
809.6	20998
809.741	21116
809.883	21100
810.025	21237
810.166	21226
810.308	21127
810.45	21214
810.591	21055
810.733	20918
810.875	20777
811.016	20693
811.158	20800
811.299	20804
811.441	21089
811.582	20914
811.724	20849
811.865	20876
812.007	20762
812.148	20735
812.29	20800
812.431	20925
812.573	21058
812.714	21112
812.855	21382
812.997	21485
813.138	21450
813.279	21473
813.421	21370
813.562	21154
813.703	21036
813.845	20941
813.986	20785
814.127	20465
814.268	20332
814.41	20358
814.551	20377
814.692	20469
814.833	20347
814.974	20275
815.115	20431
815.256	20317
815.397	20145
815.539	20214
815.68	20103
815.821	20050
815.962	20043
816.103	19993
816.244	19959
816.385	19902
816.526	19734
816.666	19601
816.807	19472
816.948	19537
817.089	19647
817.23	19559
817.371	19582
817.512	19525
817.653	19468
817.793	19480
817.934	19396
818.075	19358
818.216	19365
818.356	19544
818.497	19293
818.638	19091
818.778	19122
818.919	19225
819.06	19129
819.2	19270
819.341	19411
819.481	19335
819.622	19453
819.762	19677
819.903	19693
820.043	19647
820.184	19480
820.324	19468
820.465	19460
820.605	19521
820.746	19499
820.886	19282
821.026	19407
821.167	19308
821.307	19426
821.447	19358
821.588	19270
821.728	19103
821.868	18985
822.008	18954
822.149	18878
822.289	18871
822.429	18540
822.569	18555
822.709	18578
822.849	18327
822.99	18323
823.13	18414
823.27	18380
823.41	18235
823.55	18186
823.69	18186
823.83	18072
823.97	18114
824.11	17984
824.25	17942
824.389	18015
824.529	18057
824.669	17996
824.809	17988
824.949	18091
825.089	17901
825.228	17965
825.368	17752
825.508	17726
825.648	17821
825.787	17760
825.927	17817
826.067	17619
826.206	17653
826.346	17729
826.485	17775
826.625	17672
826.765	17851
826.904	17756
827.044	17497
827.183	17425
827.323	17425
827.462	17471
827.601	17490
827.741	17334
827.88	17364
828.02	17261
828.159	17391
828.298	17421
828.437	17490
828.577	17353
828.716	17562
828.855	17440
828.994	17143
829.134	17212
829.273	17178
829.412	17018
829.551	17162
829.69	17189
829.829	17235
829.968	17185
830.107	17189
830.246	17239
830.385	17079
830.524	17075
830.663	16904
830.802	16839
830.941	16801
831.08	16805
831.219	16782
831.357	16816
831.496	16965
831.635	16763
831.774	16710
831.913	16649
832.051	16554
832.19	16573
832.329	16531
832.467	16504
832.606	16569
832.744	16447
832.883	16421
833.022	16474
833.16	16436
833.299	16470
833.437	16565
833.576	16558
833.714	16523
833.852	16481
833.991	16538
834.129	16622
834.267	16535
834.406	16489
834.544	16550
834.682	16577
834.821	16542
834.959	16687
835.097	16390
835.235	16660
835.373	16504
835.511	16504
835.65	16402
835.788	16432
835.926	16261
836.064	16143
836.202	16341
836.34	16455
836.478	16592
836.615	16459
836.753	16432
836.891	16478
837.029	16447
837.167	16413
837.305	16390
837.443	16363
837.58	16238
837.718	16386
837.856	16299
837.993	16101
838.131	16333
838.269	16234
838.406	16211
838.544	16234
838.681	15983
838.819	16036
838.956	15865
839.094	15876
839.231	15869
839.369	15998
839.506	16204
839.643	16166
839.781	15895
839.918	15785
840.055	15739
840.193	15873
840.33	15823
840.467	15755
840.604	15857
840.742	16048
840.879	15793
841.016	15789
841.153	15709
841.29	15979
841.427	15892
841.564	15899
841.701	15888
841.838	15854
841.975	15747
842.112	15667
842.249	15561
842.385	15564
842.522	15755
842.659	15587
842.796	15637
842.933	15591
843.069	15485
843.206	15587
843.343	15641
843.479	15660
843.616	15660
843.752	15450
843.889	15450
844.025	15500
844.162	15367
844.298	15450
844.435	15348
844.571	15344
844.708	15431
844.844	15682
844.98	15538
845.117	15526
845.253	15412
845.389	15306
845.525	15359
845.661	15249
845.798	15085
845.934	15237
846.07	15233
846.206	15249
846.342	15336
846.478	15195
846.614	15108
846.75	14963
846.886	14967
847.022	15032
847.158	14910
847.294	15017
847.429	15009
847.565	14990
847.701	15157
847.837	14735
847.972	14621
848.108	14857
848.244	14830
848.379	14568
848.515	14606
848.65	14575
848.786	14651
848.921	14648
849.057	14648
849.192	14651
849.328	14590
849.463	14644
849.598	14507
849.734	14545
849.869	14492
850.004	14396
850.14	14301
850.275	14301
850.41	14370
850.545	14286
850.68	14427
850.815	14336
850.95	14389
851.085	14499
851.22	14476
851.355	14381
851.49	14229
851.625	14237
851.76	14332
851.895	14252
852.03	14191
852.165	14298
852.299	14328
852.434	14400
852.569	14400
852.703	14294
852.838	14393
852.973	14610
853.107	14476
853.242	14328
853.376	14244
853.511	14096
853.645	14126
853.78	14267
853.914	14332
854.048	14202
854.183	14153
854.317	14164
854.451	14343
854.585	14153
854.72	14210
854.854	14301
854.988	14081
855.122	14233
855.256	14115
855.39	14237
855.524	14301
855.658	14202
855.792	14259
855.926	14225
856.06	14256
856.194	14317
856.327	14195
856.461	14161
856.595	14244
856.729	14187
856.862	14343
856.996	14278
857.13	14305
857.263	14282
857.397	14370
857.53	14355
857.664	14343
857.797	14240
857.931	14332
858.064	14298
858.197	14298
858.331	14100
858.464	14161
858.597	14153
858.731	14252
858.864	14123
858.997	14119
859.13	14164
859.263	14286
859.396	14278
859.529	14206
859.662	14210
859.795	14195
859.928	14168
860.061	14385
860.194	14377
860.327	14244
860.46	14176
860.592	14355
860.725	14336
860.858	14298
860.99	14168
861.123	14107
861.256	14183
861.388	14286
861.521	14891
861.653	14054
861.786	14039
861.918	13989
862.05	14054
862.183	14111
862.315	14271
862.447	14294
862.58	14187
862.712	13932
862.844	14005
862.976	13989
863.108	14065
863.24	14351
863.372	13909
863.504	14016
863.636	13978
863.768	14016
863.9	13993
864.032	14024
864.164	13902
864.296	14012
864.428	14107
864.559	14111
864.691	14096
864.823	13986
864.954	13959
865.086	14027
865.217	14012
865.349	13978
865.48	14031
865.612	14111
865.743	14065
865.875	13997
866.006	13940
866.137	13913
866.269	13955
866.4	13967
866.531	13909
866.662	13890
866.793	13955
866.924	13940
867.055	13906
867.186	14008
867.317	13906
867.448	13871
867.579	13970
867.71	13841
867.841	13841
867.972	14031
868.103	13894
868.233	13944
868.364	13978
868.495	14027
868.625	14168
868.756	14328
868.886	14240
869.017	14157
869.147	14362
869.278	14309
869.408	14210
869.539	14225
869.669	14309
869.799	14240
869.929	14400
870.06	14381
870.19	14552
870.32	14469
870.45	14575
870.58	14621
870.71	14739
870.84	14739
870.97	14640
871.1	14594
871.23	14769
871.36	14807
871.489	14610
871.619	14670
871.749	14815
871.879	14815
872.008	14956
872.138	14979
872.267	14788
872.397	14743
872.526	14678
872.656	14739
872.785	14663
872.915	14929
873.044	14986
873.173	14952
873.303	14823
873.432	14960
873.561	14918
873.69	14891
873.819	14921
873.948	14933
874.077	14979
874.206	14929
874.335	14861
874.464	14998
874.593	15233
874.722	15154
874.851	15279
874.979	15226
875.108	15176
875.237	15074
875.365	15123
875.494	15119
875.623	15298
875.751	15275
875.88	15184
876.008	15363
876.136	15428
876.265	15526
876.393	15774
876.521	15667
876.65	15667
876.778	15675
876.906	15553
877.034	15633
877.162	15580
877.29	15576
877.418	15587
877.546	15568
877.674	15603
877.802	15507
877.93	15686
878.058	15618
878.185	15481
878.313	15568
878.441	15622
878.568	15443
878.696	15564
878.824	15652
878.951	15759
879.079	15907
879.206	15934
879.333	15778
879.461	15622
879.588	15705
879.715	15804
879.842	15964
879.97	15637
880.097	15485
880.224	15454
880.351	15469
880.478	15572
880.605	15469
880.732	15332
880.859	15682
880.986	15428
881.112	15485
881.239	15302
881.366	15252
881.493	15169
881.619	15108
881.746	15097
881.872	15154
881.999	15020
882.125	15028
882.252	15176
882.378	15161
882.505	15256
882.631	15100
882.757	15062
882.883	14963
883.01	15028
883.136	14921
883.262	14811
883.388	14792
883.514	14979
883.64	15089
883.766	14899
883.892	14781
884.018	14788
884.143	14906
884.269	14960
884.395	14804
884.52	14629
884.646	14621
884.772	14564
884.897	14651
885.023	14621
885.148	14788
885.274	14758
885.399	14819
885.524	14659
885.65	14507
885.775	14659
885.9	14617
886.025	14777
886.15	14796
886.275	14549
886.4	14564
886.525	14602
886.65	14492
886.775	14583
886.9	14663
887.025	14842
887.149	14610
887.274	14560
887.399	14450
887.523	14503
887.648	14400
887.773	14362
887.897	14530
888.021	14450
888.146	14541
888.27	14552
888.395	14556
888.519	14446
888.643	14541
888.767	14537
888.891	14355
889.015	14336
889.139	14396
889.263	14259
889.387	14404
889.511	14537
889.635	14389
889.759	14259
889.883	14355
890.006	14396
890.13	14469
890.254	14259
890.377	14221
890.501	14164
890.624	14123
890.748	14214
890.871	14107
890.995	13993
891.118	13955
891.241	13997
891.364	13959
891.488	14134
891.611	13974
891.734	14069
891.857	14088
891.98	14084
892.103	14130
892.226	14088
892.349	14005
892.471	13860
892.594	14031
892.717	14077
892.839	14069
892.962	14020
893.085	14172
893.207	14001
893.33	13921
893.452	13894
893.575	14062
893.697	14005
893.819	14187
893.941	14336
894.064	14123
894.186	13883
894.308	14046
894.43	14092
894.552	14202
894.674	14153
894.796	14016
894.918	14111
895.04	14035
895.161	14218
895.283	14115
895.405	14050
895.526	14191
895.648	14145
895.769	14134
895.891	14309
896.012	14282
896.134	14263
896.255	14202
896.376	14259
896.498	14221
896.619	14339
896.74	14168
896.861	14309
896.982	14545
897.103	14667
897.224	14522
897.345	14503
897.466	14438
897.587	14419
897.708	14514
897.828	14552
897.949	14522
898.07	14393
898.19	14457
898.311	14727
898.431	14488
898.552	14503
898.672	14625
898.792	14655
898.913	14674
899.033	14568
899.153	14404
899.273	14301
899.393	14332
899.513	14415
899.633	14438
899.753	14431
899.873	14385
899.993	14400
900.113	14370
900.232	14431
900.352	14370
900.472	14370
900.591	14332
900.711	14282
900.83	14233
900.95	14400
901.069	14374
901.189	14278
901.308	13986
901.427	13940
901.546	13986
901.665	13982
901.784	14001
901.904	13856
902.023	13738
902.141	13578
902.26	13502
902.379	13632
902.498	13540
902.617	13514
902.735	13594
902.854	13533
902.973	13449
903.091	13179
903.21	13236
903.328	13145
903.446	13236
903.565	13091
903.683	13129
903.801	13027
903.919	13107
904.038	13118
904.156	12890
904.274	12943
904.392	12901
904.51	12970
904.627	12844
904.745	12951
904.863	12996
904.981	12783
905.098	12616
905.216	12597
905.334	12654
905.451	12620
905.569	12650
905.686	12684
905.803	12673
905.921	12391
906.038	12445
906.155	12422
906.272	12391
906.389	12445
906.506	12163
906.623	12285
906.74	12114
906.857	12019
906.974	12072
907.091	12266
907.208	12433
907.324	12266
907.441	12121
907.557	11988
907.674	11908
907.79	11901
907.907	11920
908.023	12030
908.139	11988
908.256	11859
908.372	11897
908.488	11885
908.604	11737
908.72	11699
908.836	11668
908.952	11672
909.068	11688
909.184	11775
909.3	11688
909.415	11756
909.531	11737
909.647	11455
909.762	11455
909.878	11410
909.993	11543
910.108	11482
910.224	11490
910.339	11455
910.454	11349
910.57	11376
910.685	11311
910.8	11535
910.915	11520
911.03	11311
911.145	11242
911.259	11170
911.374	11216
911.489	11083
911.604	11060
911.718	10885
911.833	10934
911.947	10900
912.062	10805
912.176	10908
912.291	10923
912.405	10930
912.519	11048
912.633	11193
912.748	11045
912.862	10972
912.976	10866
913.09	10717
913.204	10801
913.318	10793
913.431	10927
913.545	10957
913.659	10911
913.772	10877
913.886	10786
914	10660
914.113	10824
914.226	10805
914.34	10778
914.453	10592
914.566	10858
914.68	10717
914.793	10683
914.906	10443
915.019	10474
915.132	10295
915.245	10352
915.358	10512
915.47	10478
915.583	10451
915.696	10428
915.809	10596
915.921	10561
916.034	10375
916.146	10402
916.259	10314
916.371	10527
916.483	10447
916.595	10428
916.708	10398
916.82	10394
916.932	10474
917.044	10394
917.156	10318
917.268	10249
917.38	10303
917.491	10234
917.603	10303
917.715	10363
917.826	10386
917.938	10272
918.049	10181
918.161	10287
918.272	10417
918.384	10417
918.495	10280
918.606	10192
918.717	10093
918.828	10158
918.939	10219
919.05	10048
919.161	10101
919.272	9934
919.383	10067
919.494	10162
919.604	10287
919.715	10147
919.826	10071
919.936	10158
920.047	10242
920.157	10147
920.267	10451
920.378	10211
920.488	10109
920.598	10379
920.708	10546
920.818	10436
920.928	10333
921.038	10550
921.148	10504
921.258	10249
921.368	10181
921.477	10002
921.587	10025
921.697	9979
921.806	10025
921.916	9915
922.025	9778
922.134	9781
922.244	9747
922.353	9751
922.462	9633
922.571	9610
922.68	9443
922.789	9416
922.898	9458
923.007	9386
923.116	9481
923.224	9466
923.333	9435
923.442	9302
923.55	9253
923.659	9351
923.767	9374
923.876	9336
923.984	9367
924.092	9203
924.201	9237
924.309	9302
924.417	9268
924.525	9283
924.633	9226
924.741	10242
924.849	9085
924.956	9241
925.064	9123
925.172	9005
925.279	9074
925.387	9100
925.494	9043
925.602	9211
925.709	9154
925.816	8998
925.924	9077
926.031	9222
926.138	9077
926.245	9180
926.352	9017
926.459	9233
926.566	9256
926.673	9039
926.779	8963
926.886	8944
926.993	8743
927.099	8883
927.206	8735
927.312	8766
927.419	8834
927.525	8792
927.631	8838
927.737	8724
927.843	8758
927.95	8648
928.056	8682
928.162	8682
928.267	8750
928.373	9317
928.479	8823
928.585	8571
928.69	8655
928.796	8739
928.901	8659
929.007	8526
929.112	8632
929.218	8568
929.323	8549
929.428	8461
929.533	8693
929.638	8450
929.743	8568
929.848	8556
929.953	8530
930.058	8393
930.163	8267
930.267	8290
930.372	8423
930.477	8259
930.581	8537
930.685	8347
930.79	8225
930.894	8290
930.998	8240
931.103	8415
931.207	8016
931.311	7936
931.415	7928
931.519	7700
931.623	7742
