Data from test_V78500241_820.txt Node
Date: Fri Mar 25 14:39:25 CST 2022
User: usil
Spectrometer: V785-0024
Trigger mode: 0
Integration Time (sec): 4.000000E-1
Scans to average: 1
Nonlinearity correction enabled: false
Boxcar width: 0
Storing dark spectrum: false
XAxis mode: Wavelengths
Number of Pixels in Spectrum: 1024
>>>>>Begin Spectral Data<<<<<
801.071	26355
801.214	26218
801.356	25951
801.499	25894
801.641	25662
801.783	25594
801.926	25689
802.068	25499
802.211	25445
802.353	25400
802.496	25232
802.638	25251
802.78	25118
802.923	25069
803.065	24981
803.208	25152
803.35	25004
803.492	25217
803.635	25236
803.777	25232
803.919	25259
804.061	25518
804.204	25194
804.346	25266
804.488	25202
804.63	25320
804.773	25217
804.915	25369
805.057	25388
805.199	25407
805.341	25510
805.483	25700
805.626	25552
805.768	25609
805.91	25689
806.052	25826
806.194	25769
806.336	26134
806.478	26210
806.62	26275
806.762	26530
806.904	26697
807.046	27275
807.188	27431
807.33	27747
807.472	28112
807.614	28675
807.756	29402
807.898	30060
808.04	31023
808.182	32450
808.324	34318
808.465	36593
808.607	38845
808.749	41014
808.891	42125
809.033	42262
809.174	41044
809.316	38937
809.458	36593
809.6	34200
809.741	32221
809.883	30776
810.025	29668
810.166	29006
810.308	28337
810.45	27960
810.591	27496
810.733	27203
810.875	26906
811.016	26465
811.158	26313
811.299	26389
811.441	26290
811.582	26161
811.724	25913
811.865	25917
812.007	25868
812.148	25799
812.29	25658
812.431	25887
812.573	26024
812.714	26046
812.855	26229
812.997	26202
813.138	26328
813.279	26126
813.421	26039
813.562	26035
813.703	25681
813.845	25468
813.986	25304
814.127	24996
814.268	24966
814.41	25050
814.551	24867
814.692	24989
814.833	24791
814.974	24764
815.115	24848
815.256	24734
815.397	24536
815.539	24544
815.68	24563
815.821	24433
815.962	24380
816.103	24330
816.244	24289
816.385	24213
816.526	24155
816.666	23783
816.807	23809
816.948	23912
817.089	23805
817.23	23695
817.371	23748
817.512	23767
817.653	23741
817.793	23687
817.934	23821
818.075	23733
818.216	23649
818.356	23627
818.497	23478
818.638	23368
818.778	23334
818.919	23372
819.06	23509
819.2	23516
819.341	23642
819.481	23589
819.622	23581
819.762	23920
819.903	23756
820.043	23642
820.184	23608
820.324	23585
820.465	23665
820.605	23642
820.746	23455
820.886	23566
821.026	23505
821.167	23558
821.307	23707
821.447	23528
821.588	23303
821.728	23280
821.868	23044
822.008	22930
822.149	22881
822.289	22790
822.429	22694
822.569	22573
822.709	22470
822.849	22310
822.99	22417
823.13	22333
823.27	22303
823.41	22120
823.55	22002
823.69	22105
823.83	22177
823.97	22143
824.11	21911
824.25	21956
824.389	21873
824.529	21949
824.669	21884
824.809	22017
824.949	21953
825.089	21934
825.228	22002
825.368	21804
825.508	21701
825.648	21728
825.787	21720
825.927	21736
826.067	21633
826.206	21713
826.346	21743
826.485	21713
826.625	21625
826.765	21728
826.904	21644
827.044	21477
827.183	21412
827.323	21283
827.462	21367
827.601	21272
827.741	21359
827.88	21329
828.02	21176
828.159	21222
828.298	21340
828.437	21355
828.577	21252
828.716	21279
828.855	21252
828.994	20971
829.134	21028
829.273	20994
829.412	21062
829.551	20921
829.69	20994
829.829	21009
829.968	20982
830.107	21066
830.246	20963
830.385	20971
830.524	20857
830.663	20792
830.802	20617
830.941	20724
831.08	20552
831.219	20781
831.357	20640
831.496	20853
831.635	20609
831.774	20446
831.913	20415
832.051	20404
832.19	20400
832.329	20602
832.467	20423
832.606	20412
832.744	20339
832.883	20450
833.022	20423
833.16	20552
833.299	20823
833.437	20655
833.576	20823
833.714	21058
833.852	21096
833.991	21176
834.129	21161
834.267	21294
834.406	21173
834.544	21157
834.682	20990
834.821	20876
834.959	20914
835.097	20746
835.235	20701
835.373	20636
835.511	20499
835.65	20415
835.788	20305
835.926	20286
836.064	20103
836.202	20084
836.34	20290
836.478	20252
836.615	20035
836.753	20252
836.891	20138
837.029	20199
837.167	20016
837.305	20020
837.443	19978
837.58	19913
837.718	19982
837.856	20020
837.993	19925
838.131	20073
838.269	19841
838.406	19871
838.544	19871
838.681	19616
838.819	19556
838.956	19430
839.094	19343
839.231	19464
839.369	19601
839.506	19841
839.643	19704
839.781	19407
839.918	19365
840.055	19449
840.193	19354
840.33	19350
840.467	19411
840.604	19419
840.742	19666
840.879	19247
841.016	19365
841.153	19354
841.29	19521
841.427	19365
841.564	19350
841.701	19354
841.838	19133
841.975	19362
842.112	19339
842.249	19251
842.385	19137
842.522	19369
842.659	19293
842.796	19198
842.933	19190
843.069	19152
843.206	19217
843.343	19346
843.479	19350
843.616	19369
843.752	19042
843.889	19034
844.025	19289
844.162	19297
844.298	19457
844.435	19278
844.571	19548
844.708	19696
844.844	20062
844.98	20317
845.117	20849
845.253	21382
845.389	22538
845.525	25015
845.661	28984
845.798	33766
845.934	37506
846.07	39043
846.206	38206
846.342	35140
846.478	30330
846.614	26035
846.75	23185
846.886	21549
847.022	20716
847.158	19883
847.294	19571
847.429	19301
847.565	19034
847.701	19236
847.837	18585
847.972	18506
848.108	18540
848.244	18433
848.379	18296
848.515	18243
848.65	18167
848.786	18239
848.921	18262
849.057	18159
849.192	18194
849.328	18235
849.463	17988
849.598	18015
849.734	17927
849.869	17874
850.004	17824
850.14	17908
850.275	17710
850.41	17726
850.545	17710
850.68	17885
850.815	17821
850.95	17874
851.085	18007
851.22	17821
851.355	17771
851.49	17840
851.625	17707
851.76	17748
851.895	17707
852.03	17699
852.165	17805
852.299	17931
852.434	17889
852.569	17821
852.703	17973
852.838	17912
852.973	18003
853.107	18015
853.242	17942
853.376	17737
853.511	17748
853.645	17828
853.78	17969
853.914	17885
854.048	17878
854.183	17878
854.317	17923
854.451	18133
854.585	17813
854.72	17836
854.854	17965
854.988	17805
855.122	17794
855.256	17623
855.39	17783
855.524	17699
855.658	17901
855.792	17726
855.926	17745
856.06	17760
856.194	17813
856.327	17634
856.461	17474
856.595	17490
856.729	17539
856.862	17627
856.996	17642
857.13	17684
857.263	17718
857.397	17741
857.53	17516
857.664	17653
857.797	17718
857.931	17805
858.064	17638
858.197	17741
858.331	17524
858.464	17486
858.597	17459
858.731	17486
858.864	17547
858.997	17497
859.13	17512
859.263	17516
859.396	17657
859.529	17471
859.662	17551
859.795	17566
859.928	17482
860.061	17611
860.194	17623
860.327	17543
860.46	17585
860.592	17539
860.725	17608
860.858	17585
860.99	17520
861.123	17383
861.256	17452
861.388	17478
861.521	18041
861.653	17402
861.786	17220
861.918	17292
862.05	17376
862.183	17463
862.315	17433
862.447	17326
862.58	17493
862.712	17212
862.844	17193
862.976	17258
863.108	17223
863.24	17611
863.372	17170
863.504	17189
863.636	17151
863.768	17216
863.9	17204
864.032	17094
864.164	17117
864.296	17261
864.428	17337
864.559	17113
864.691	17254
864.823	17246
864.954	17250
865.086	17220
865.217	17250
865.349	17014
865.48	17105
865.612	17155
865.743	17311
865.875	17067
866.006	17067
866.137	17128
866.269	17121
866.4	17132
866.531	17052
866.662	16961
866.793	17174
866.924	16984
867.055	17128
867.186	17208
867.317	17003
867.448	17037
867.579	16995
867.71	17003
867.841	17022
867.972	17113
868.103	17197
868.233	17045
868.364	17052
868.495	17136
868.625	17227
868.756	17444
868.886	17216
869.017	17349
869.147	17509
869.278	17528
869.408	17368
869.539	17379
869.669	17471
869.799	17387
869.929	17543
870.06	17440
870.19	17661
870.32	17699
870.45	17615
870.58	17828
870.71	17786
870.84	17851
870.97	17760
871.1	17904
871.23	17935
871.36	17901
871.489	17927
871.619	17984
871.749	18064
871.879	18083
872.008	18209
872.138	18030
872.267	17988
872.397	17931
872.526	17863
872.656	17969
872.785	17851
872.915	18190
873.044	18232
873.173	18110
873.303	18178
873.432	18197
873.561	18338
873.69	18285
873.819	18216
873.948	18445
874.077	18235
874.206	18300
874.335	18361
874.464	18536
874.593	18536
874.722	18654
874.851	18730
874.979	18612
875.108	18715
875.237	18635
875.365	18783
875.494	18738
875.623	18958
875.751	18730
875.88	18966
876.008	18954
876.136	19080
876.265	19365
876.393	19499
876.521	19548
876.65	19457
876.778	19540
876.906	19464
877.034	19586
877.162	19635
877.29	19529
877.418	19765
877.546	19890
877.674	19917
877.802	19993
877.93	20046
878.058	20164
878.185	20267
878.313	20442
878.441	20750
878.568	20941
878.696	21325
878.824	21983
878.951	22824
879.079	23939
879.206	25575
879.333	26925
879.461	27964
879.588	28820
879.715	28862
879.842	28257
879.97	26914
880.097	25312
880.224	24072
880.351	23067
880.478	22683
880.605	22135
880.732	21907
880.859	21987
880.986	21743
881.112	21705
881.239	21412
881.366	21340
881.493	21256
881.619	21138
881.746	21184
881.872	21302
881.999	21222
882.125	21241
882.252	21310
882.378	21264
882.505	21549
882.631	21264
882.757	21222
882.883	21150
883.01	21192
883.136	21119
883.262	21104
883.388	21055
883.514	21096
883.64	21237
883.766	20994
883.892	20937
884.018	21001
884.143	21066
884.269	21127
884.395	20925
884.52	20769
884.646	20796
884.772	20758
884.897	20659
885.023	20823
885.148	20857
885.274	20845
885.399	20811
885.524	20640
885.65	20621
885.775	20488
885.9	20377
886.025	20457
886.15	20180
886.275	20039
886.4	19913
886.525	19894
886.65	19818
886.775	19734
886.9	19746
887.025	19776
887.149	19567
887.274	19369
887.399	19202
887.523	19156
887.648	18962
887.773	18947
887.897	18981
888.021	19065
888.146	18814
888.27	18890
888.395	18886
888.519	18852
888.643	18764
888.767	18829
888.891	18616
889.015	18467
889.139	18483
889.263	18448
889.387	18448
889.511	18696
889.635	18460
889.759	18304
889.883	18445
890.006	18365
890.13	18304
890.254	18148
890.377	18178
890.501	18030
890.624	17965
890.748	17977
890.871	17920
890.995	17737
891.118	17764
891.241	17726
891.364	17794
891.488	17840
891.611	17634
891.734	17630
891.857	17718
891.98	17703
892.103	17608
892.226	17653
892.349	17444
892.471	17421
892.594	17554
892.717	17391
892.839	17448
892.962	17516
893.085	17444
893.207	17406
893.33	17227
893.452	17258
893.575	17273
893.697	17364
893.819	17452
893.941	17497
894.064	17402
894.186	17242
894.308	17197
894.43	17280
894.552	17322
894.674	17212
894.796	17060
894.918	17200
895.04	17132
895.161	17299
895.283	17227
895.405	17071
895.526	17231
895.648	17140
895.769	17242
895.891	17147
896.012	17216
896.134	17083
896.255	17223
896.376	17132
896.498	17136
896.619	17075
896.74	17159
896.861	17155
896.982	17433
897.103	17638
897.224	17376
897.345	17292
897.466	17292
897.587	17296
897.708	17410
897.828	17402
897.949	17250
898.07	17246
898.19	17231
898.311	17406
898.431	17258
898.552	17349
898.672	17414
898.792	17360
898.913	17345
899.033	17151
899.153	17212
899.273	17075
899.393	17090
899.513	17280
899.633	17181
899.753	17223
899.873	17140
899.993	17197
900.113	17124
900.232	17216
900.352	17071
900.472	17094
900.591	16934
900.711	16968
900.83	16847
900.95	17083
901.069	17033
901.189	17025
901.308	16713
901.427	16637
901.546	16474
901.665	16649
901.784	16603
901.904	16508
902.023	16382
902.141	16131
902.26	16135
902.379	16147
902.498	16090
902.617	15926
902.735	16044
902.854	16116
902.973	15972
903.091	15732
903.21	15701
903.328	15698
903.446	15595
903.565	15561
903.683	15526
903.801	15401
903.919	15603
904.038	15500
904.156	15260
904.274	15336
904.392	15302
904.51	15252
904.627	15241
904.745	15332
904.863	15283
904.981	15085
905.098	14868
905.216	14960
905.334	14914
905.451	14887
905.569	14906
905.686	15020
905.803	14941
905.921	14819
906.038	14804
906.155	14705
906.272	14583
906.389	14689
906.506	14560
906.623	14533
906.74	14503
906.857	14309
906.974	14408
907.091	14503
907.208	14606
907.324	14473
907.441	14305
907.557	14229
907.674	14229
907.79	14100
907.907	14202
908.023	14214
908.139	14100
908.256	14168
908.372	14065
908.488	13978
908.604	13986
908.72	13833
908.836	13856
908.952	13864
909.068	13868
909.184	13875
909.3	13887
909.415	13967
909.531	13856
909.647	13666
909.762	13685
909.878	13556
909.993	13715
910.108	13624
910.224	13616
910.339	13590
910.454	13495
910.57	13518
910.685	13403
910.8	13727
910.915	13628
911.03	13392
911.145	13297
911.259	13236
911.374	13289
911.489	13194
911.604	13042
911.718	13042
911.833	13053
911.947	13050
912.062	12890
912.176	12890
912.291	13069
912.405	13114
912.519	13236
912.633	13187
912.748	13099
912.862	13004
912.976	12859
913.09	12673
913.204	12840
913.318	12856
913.431	12905
913.545	13008
913.659	13000
913.772	12852
913.886	12665
914	12768
914.113	12772
914.226	12840
914.34	12844
914.453	12662
914.566	12768
914.68	12623
914.793	12673
914.906	12361
915.019	12464
915.132	12323
915.245	12407
915.358	12513
915.47	12486
915.583	12452
915.696	12452
915.809	12570
915.921	12669
916.034	12494
916.146	12429
916.259	12346
916.371	12540
916.483	12513
916.595	12361
916.708	12273
916.82	12376
916.932	12376
917.044	12391
917.156	12323
917.268	12205
917.38	12270
917.491	12266
917.603	12243
917.715	12197
917.826	12311
917.938	12182
918.049	12114
918.161	12205
918.272	12296
918.384	12323
918.495	12159
918.606	12030
918.717	11912
918.828	12095
918.939	12019
919.05	11977
919.161	11958
919.272	11828
919.383	11843
919.494	11988
919.604	12194
919.715	11999
919.826	11912
919.936	11870
920.047	11977
920.157	12079
920.267	12163
920.378	11996
920.488	11973
920.598	12106
920.708	12171
920.818	12197
920.928	12095
921.038	12304
921.148	12239
921.258	11950
921.368	11882
921.477	11771
921.587	11745
921.697	11573
921.806	11756
921.916	11577
922.025	11497
922.134	11421
922.244	11368
922.353	11497
922.462	11269
922.571	11273
922.68	11105
922.789	11121
922.898	11117
923.007	11018
923.116	11181
923.224	11159
923.333	11105
923.442	10987
923.55	10980
923.659	10987
923.767	11037
923.876	10915
923.984	11018
924.092	10908
924.201	10923
924.309	10984
924.417	10991
924.525	10839
924.633	10892
924.741	11836
924.849	10653
924.956	10892
925.064	10694
925.172	10596
925.279	10603
925.387	10733
925.494	10649
925.602	10862
925.709	10698
925.816	10588
925.924	10672
926.031	10714
926.138	10607
926.245	10656
926.352	10508
926.459	10641
926.566	10797
926.673	10500
926.779	10500
926.886	10500
926.993	10409
927.099	10318
927.206	10211
927.312	10310
927.419	10375
927.525	10287
927.631	10394
927.737	10223
927.843	10219
927.95	10128
928.056	10196
928.162	10181
928.267	10200
928.373	10877
928.479	10234
928.585	9994
928.69	10150
928.796	10166
928.901	10025
929.007	9934
929.112	10044
929.218	10082
929.323	9934
929.428	9991
929.533	10143
929.638	10044
929.743	9975
929.848	9979
929.953	9953
930.058	9808
930.163	9724
930.267	9675
930.372	9838
930.477	9641
930.581	9956
930.685	9778
930.79	9656
930.894	9625
930.998	9568
931.103	9808
931.207	9397
931.311	9344
931.415	9306
931.519	9020
931.623	9066
