Data from test_V78500241_2990.txt Node
Date: Fri Mar 25 14:54:32 CST 2022
User: usil
Spectrometer: V785-0024
Trigger mode: 0
Integration Time (sec): 4.000000E-1
Scans to average: 1
Nonlinearity correction enabled: false
Boxcar width: 0
Storing dark spectrum: false
XAxis mode: Wavelengths
Number of Pixels in Spectrum: 1024
>>>>>Begin Spectral Data<<<<<
801.071	22112
801.214	21930
801.356	21751
801.499	21720
801.641	21485
801.783	21439
801.926	21359
802.068	21420
802.211	21367
802.353	21283
802.496	21001
802.638	20895
802.78	20979
802.923	20876
803.065	20727
803.208	20659
803.35	20929
803.492	20960
803.635	20891
803.777	20842
803.919	20815
804.061	21157
804.204	20773
804.346	20815
804.488	20651
804.63	20800
804.773	20701
804.915	20651
805.057	20819
805.199	20667
805.341	20693
805.483	20773
805.626	20777
805.768	20602
805.91	20648
806.052	20815
806.194	20545
806.336	20910
806.478	20583
806.62	20724
806.762	20861
806.904	20979
807.046	21036
807.188	20960
807.33	20956
807.472	20979
807.614	21051
807.756	20872
807.898	20921
808.04	20743
808.182	20701
808.324	20853
808.465	20792
808.607	20994
808.749	21020
808.891	21329
809.033	21298
809.174	21146
809.316	21100
809.458	21081
809.6	20883
809.741	21131
809.883	21089
810.025	21195
810.166	21298
810.308	21374
810.45	21165
810.591	21176
810.733	20952
810.875	20819
811.016	20712
811.158	20720
811.299	20960
811.441	21024
811.582	21036
811.724	20796
811.865	20838
812.007	20796
812.148	20910
812.29	20880
812.431	21013
812.573	21192
812.714	21233
812.855	21389
812.997	21466
813.138	21549
813.279	21454
813.421	21367
813.562	21298
813.703	21089
813.845	21001
813.986	20701
814.127	20606
814.268	20381
814.41	20465
814.551	20465
814.692	20438
814.833	20183
814.974	20374
815.115	20412
815.256	20309
815.397	20161
815.539	20221
815.68	20187
815.821	20081
815.962	20153
816.103	20100
816.244	19982
816.385	19890
816.526	19856
816.666	19670
816.807	19639
816.948	19689
817.089	19635
817.23	19540
817.371	19563
817.512	19575
817.653	19514
817.793	19563
817.934	19556
818.075	19559
818.216	19582
818.356	19525
818.497	19365
818.638	19213
818.778	19198
818.919	19316
819.06	19206
819.2	19362
819.341	19346
819.481	19480
819.622	19590
819.762	19674
819.903	19681
820.043	19506
820.184	19597
820.324	19540
820.465	19571
820.605	19464
820.746	19445
820.886	19304
821.026	19426
821.167	19434
821.307	19510
821.447	19350
821.588	19381
821.728	19327
821.868	18890
822.008	18924
822.149	18977
822.289	18932
822.429	18715
822.569	18604
822.709	18612
822.849	18429
822.99	18429
823.13	18395
823.27	18346
823.41	18144
823.55	18178
823.69	18327
823.83	18171
823.97	18072
824.11	17992
824.25	18003
824.389	18076
824.529	18034
824.669	18015
824.809	18026
824.949	18007
825.089	17980
825.228	17958
825.368	17756
825.508	17710
825.648	17741
825.787	17805
825.927	17790
826.067	17646
826.206	17691
826.346	17767
826.485	17764
826.625	17779
826.765	17790
826.904	17745
827.044	17509
827.183	17558
827.323	17376
827.462	17516
827.601	17368
827.741	17421
827.88	17463
828.02	17254
828.159	17421
828.298	17433
828.437	17566
828.577	17372
828.716	17505
828.855	17318
828.994	17193
829.134	17178
829.273	17117
829.412	17071
829.551	17113
829.69	17010
829.829	17147
829.968	17223
830.107	17147
830.246	17231
830.385	17121
830.524	17128
830.663	17006
830.802	16980
830.941	16881
831.08	16679
831.219	16850
831.357	16771
831.496	16972
831.635	16774
831.774	16797
831.913	16801
832.051	16588
832.19	16618
832.329	16603
832.467	16504
832.606	16466
832.744	16493
832.883	16440
833.022	16447
833.16	16478
833.299	16527
833.437	16409
833.576	16592
833.714	16512
833.852	16577
833.991	16474
834.129	16656
834.267	16580
834.406	16470
834.544	16577
834.682	16615
834.821	16565
834.959	16687
835.097	16523
835.235	16618
835.373	16584
835.511	16512
835.65	16356
835.788	16371
835.926	16238
836.064	16268
836.202	16371
836.34	16455
836.478	16459
836.615	16390
836.753	16382
836.891	16569
837.029	16459
837.167	16360
837.305	16344
837.443	16257
837.58	16284
837.718	16261
837.856	16306
837.993	16280
838.131	16291
838.269	16181
838.406	16147
838.544	16086
838.681	16044
838.819	15918
838.956	15743
839.094	15747
839.231	15941
839.369	16040
839.506	16219
839.643	16055
839.781	15823
839.918	15808
840.055	15907
840.193	15804
840.33	15751
840.467	15812
840.604	15846
840.742	16059
840.879	15644
841.016	15755
841.153	15694
841.29	15899
841.427	15911
841.564	15861
841.701	15930
841.838	15728
841.975	15808
842.112	15842
842.249	15584
842.385	15622
842.522	15713
842.659	15625
842.796	15633
842.933	15625
843.069	15538
843.206	15622
843.343	15732
843.479	15576
843.616	15637
843.752	15355
843.889	15325
844.025	15625
844.162	15351
844.298	15603
844.435	15405
844.571	15401
844.708	15488
844.844	15538
844.98	15545
845.117	15496
845.253	15367
845.389	15184
845.525	15363
845.661	15283
845.798	15192
845.934	15188
846.07	15207
846.206	15203
846.342	15325
846.478	15310
846.614	15062
846.75	15001
846.886	14967
847.022	15093
847.158	14990
847.294	15039
847.429	14967
847.565	14933
847.701	15116
847.837	14750
847.972	14735
848.108	14746
848.244	14815
848.379	14514
848.515	14530
848.65	14454
848.786	14651
848.921	14651
849.057	14602
849.192	14629
849.328	14583
849.463	14537
849.598	14549
849.734	14473
849.869	14473
850.004	14446
850.14	14343
850.275	14305
850.41	14237
850.545	14282
850.68	14278
850.815	14301
850.95	14267
851.085	14442
851.22	14362
851.355	14339
851.49	14374
851.625	14366
851.76	14271
851.895	14130
852.03	14107
852.165	14385
852.299	14328
852.434	14396
852.569	14404
852.703	14267
852.838	14343
852.973	14446
853.107	14450
853.242	14347
853.376	14256
853.511	14069
853.645	14111
853.78	14248
853.914	14248
854.048	14233
854.183	14103
854.317	14214
854.451	14358
854.585	14240
854.72	14103
854.854	14172
854.988	14115
855.122	14191
855.256	14081
855.39	14134
855.524	14195
855.658	14244
855.792	14218
855.926	14248
856.06	14168
856.194	14377
856.327	14244
856.461	14142
856.595	14145
856.729	14103
856.862	14218
856.996	14301
857.13	14317
857.263	14317
857.397	14442
857.53	14180
857.664	14225
857.797	14290
857.931	14332
858.064	14206
858.197	14328
858.331	14161
858.464	14172
858.597	14073
858.731	14164
858.864	14218
858.997	14168
859.13	14263
859.263	14225
859.396	14225
859.529	14183
859.662	14145
859.795	14138
859.928	14168
860.061	14412
860.194	14317
860.327	14301
860.46	14256
860.592	14290
860.725	14408
860.858	14317
860.99	14107
861.123	14069
861.256	14183
861.388	14134
861.521	14941
861.653	14088
861.786	14020
861.918	14058
862.05	14103
862.183	14145
862.315	14164
862.447	14187
862.58	14161
862.712	14005
862.844	13909
862.976	14005
863.108	14008
863.24	14495
863.372	13868
863.504	13913
863.636	14084
863.768	14058
863.9	13993
864.032	13970
864.164	13902
864.296	14054
864.428	14065
864.559	14092
864.691	14058
864.823	14039
864.954	14008
865.086	14005
865.217	13974
865.349	13890
865.48	13921
865.612	13993
865.743	14134
865.875	13963
866.006	13883
866.137	13997
866.269	13955
866.4	13947
866.531	13890
866.662	13906
866.793	13906
866.924	13856
867.055	13951
867.186	13963
867.317	13913
867.448	13830
867.579	13906
867.71	13925
867.841	13887
867.972	13936
868.103	13997
868.233	13959
868.364	14039
868.495	14119
868.625	14252
868.756	14225
868.886	14103
869.017	14103
869.147	14240
869.278	14195
869.408	14225
869.539	14176
869.669	14370
869.799	14259
869.929	14301
870.06	14317
870.19	14533
870.32	14419
870.45	14560
870.58	14522
870.71	14655
870.84	14716
870.97	14530
871.1	14571
871.23	14811
871.36	14781
871.489	14762
871.619	14781
871.749	14872
871.879	14781
872.008	14937
872.138	14830
872.267	14842
872.397	14602
872.526	14594
872.656	14686
872.785	14659
872.915	14887
873.044	14876
873.173	14765
873.303	14864
873.432	14921
873.561	14876
873.69	14887
873.819	14887
873.948	14899
874.077	14811
874.206	14849
874.335	14941
874.464	15020
874.593	15131
874.722	15039
874.851	15207
874.979	15195
875.108	15272
875.237	15119
875.365	15089
875.494	15218
875.623	15230
875.751	15146
875.88	15233
876.008	15264
876.136	15393
876.265	15614
876.393	15709
876.521	15629
876.65	15770
876.778	15549
876.906	15549
877.034	15477
877.162	15599
877.29	15500
877.418	15587
877.546	15534
877.674	15641
877.802	15576
877.93	15542
878.058	15454
878.185	15500
878.313	15545
878.441	15564
878.568	15481
878.696	15534
878.824	15610
878.951	15667
879.079	15869
879.206	15983
879.333	15660
879.461	15606
879.588	15766
879.715	15751
879.842	15857
879.97	15595
880.097	15488
880.224	15363
880.351	15454
880.478	15519
880.605	15344
880.732	15367
880.859	15652
880.986	15450
881.112	15428
881.239	15256
881.366	15279
881.493	15165
881.619	15089
881.746	14998
881.872	15020
881.999	15100
882.125	15135
882.252	15135
882.378	15207
882.505	15260
882.631	15020
882.757	14933
882.883	14960
883.01	14982
883.136	14819
883.262	14804
883.388	14804
883.514	14994
883.64	14990
883.766	14826
883.892	14834
884.018	14705
884.143	14948
884.269	15062
884.395	14712
884.52	14621
884.646	14549
884.772	14556
884.897	14518
885.023	14636
885.148	14689
885.274	14773
885.399	14716
885.524	14648
885.65	14678
885.775	14590
885.9	14621
886.025	14712
886.15	14697
886.275	14579
886.4	14514
886.525	14640
886.65	14514
886.775	14476
886.9	14686
887.025	14830
887.149	14545
887.274	14541
887.399	14366
887.523	14419
887.648	14385
887.773	14298
887.897	14533
888.021	14495
888.146	14396
888.27	14560
888.395	14621
888.519	14541
888.643	14598
888.767	14537
888.891	14339
889.015	14389
889.139	14305
889.263	14324
889.387	14336
889.511	14476
889.635	14434
889.759	14305
889.883	14278
890.006	14328
890.13	14271
890.254	14298
890.377	14259
890.501	14054
890.624	14096
890.748	14180
890.871	14084
890.995	13993
891.118	13955
891.241	14024
891.364	14069
891.488	14100
891.611	13970
891.734	13997
891.857	14088
891.98	14062
892.103	14123
892.226	14031
892.349	13967
892.471	13925
892.594	13974
892.717	14073
892.839	13997
892.962	13974
893.085	14043
893.207	14084
893.33	13906
893.452	13894
893.575	14054
893.697	13978
893.819	14138
893.941	14199
894.064	14199
894.186	13940
894.308	13951
894.43	14111
894.552	14214
894.674	14195
894.796	13963
894.918	14069
895.04	13986
895.161	14164
895.283	14107
895.405	13944
895.526	14039
895.648	14153
895.769	14069
895.891	14126
896.012	14267
896.134	14240
896.255	14214
896.376	14157
896.498	14149
896.619	14240
896.74	14221
896.861	14320
896.982	14583
897.103	14682
897.224	14533
897.345	14404
897.466	14290
897.587	14476
897.708	14545
897.828	14552
897.949	14404
898.07	14332
898.19	14484
898.311	14568
898.431	14457
898.552	14590
898.672	14674
898.792	14670
898.913	14556
899.033	14526
899.153	14400
899.273	14237
899.393	14465
899.513	14549
899.633	14358
899.753	14484
899.873	14358
899.993	14408
900.113	14446
900.232	14514
900.352	14377
900.472	14313
900.591	14256
900.711	14347
900.83	14187
900.95	14362
901.069	14454
901.189	14176
901.308	13989
901.427	13913
901.546	13928
901.665	14027
901.784	13974
901.904	13788
902.023	13723
902.141	13575
902.26	13457
902.379	13609
902.498	13449
902.617	13521
902.735	13525
902.854	13499
902.973	13468
903.091	13247
903.21	13343
903.328	13156
903.446	13225
903.565	13160
903.683	13160
903.801	13008
903.919	13015
904.038	13072
904.156	12905
904.274	12962
904.392	12890
904.51	12787
904.627	12844
904.745	12996
904.863	12924
904.981	12764
905.098	12578
905.216	12635
905.334	12650
905.451	12509
905.569	12528
905.686	12677
905.803	12559
905.921	12460
906.038	12395
906.155	12410
906.272	12296
906.389	12334
906.506	12232
906.623	12262
906.74	12144
906.857	12030
906.974	12087
907.091	12330
907.208	12289
907.324	12129
907.441	12121
907.557	12019
907.674	11946
907.79	11882
907.907	11961
908.023	11965
908.139	11893
908.256	11790
908.372	11859
908.488	11874
908.604	11688
908.72	11722
908.836	11661
908.952	11703
909.068	11699
909.184	11703
909.3	11699
909.415	11809
909.531	11646
909.647	11471
909.762	11512
909.878	11372
909.993	11535
910.108	11459
910.224	11410
910.339	11463
910.454	11376
910.57	11334
910.685	11136
910.8	11562
910.915	11512
911.03	11318
911.145	11235
911.259	11193
911.374	11151
911.489	11136
911.604	11010
911.718	10938
911.833	10873
911.947	10877
912.062	10763
912.176	10961
912.291	10869
912.405	10911
912.519	11136
912.633	11162
912.748	11060
912.862	10850
912.976	10778
913.09	10736
913.204	10828
913.318	10782
913.431	10790
913.545	10847
913.659	10976
913.772	10744
913.886	10668
914	10634
914.113	10721
914.226	10774
914.34	10816
914.453	10664
914.566	10736
914.68	10626
914.793	10611
914.906	10504
915.019	10344
915.132	10341
915.245	10398
915.358	10398
915.47	10440
915.583	10466
915.696	10558
915.809	10558
915.921	10603
916.034	10379
916.146	10405
916.259	10348
916.371	10436
916.483	10466
916.595	10318
916.708	10421
916.82	10398
916.932	10318
917.044	10268
917.156	10223
917.268	10211
917.38	10253
917.491	10265
917.603	10329
917.715	10310
917.826	10375
917.938	10314
918.049	10109
918.161	10257
918.272	10436
918.384	10443
918.495	10303
918.606	10120
918.717	10120
918.828	10158
918.939	10105
919.05	10071
919.161	10131
919.272	9934
919.383	9991
919.494	10150
919.604	10337
919.715	10154
919.826	10086
919.936	10086
920.047	10207
920.157	10147
920.267	10341
920.378	10204
920.488	10162
920.598	10386
920.708	10440
920.818	10291
920.928	10295
921.038	10531
921.148	10417
921.258	10223
921.368	10166
921.477	10021
921.587	9930
921.697	9838
921.806	10029
921.916	9918
922.025	9778
922.134	9785
922.244	9663
922.353	9778
922.462	9595
922.571	9492
922.68	9424
922.789	9431
922.898	9393
923.007	9370
923.116	9526
923.224	9363
923.333	9302
923.442	9321
923.55	9325
923.659	9393
923.767	9306
923.876	9317
923.984	9344
924.092	9176
924.201	9310
924.309	9325
924.417	9287
924.525	9256
924.633	9253
924.741	10166
924.849	9043
924.956	9195
925.064	9093
925.172	9036
925.279	8982
925.387	9104
925.494	9039
925.602	9279
925.709	9161
925.816	9009
925.924	9074
926.031	9157
926.138	9100
926.245	9085
926.352	9009
926.459	9097
926.566	9188
926.673	8982
926.779	8925
926.886	8960
926.993	8857
927.099	8701
927.206	8686
927.312	8777
927.419	8796
927.525	8815
927.631	8815
927.737	8735
927.843	8659
927.95	8560
928.056	8659
928.162	8674
928.267	8762
928.373	9249
928.479	8754
928.585	8549
928.69	8644
928.796	8727
928.901	8594
929.007	8461
929.112	8625
929.218	8575
929.323	8526
929.428	8473
929.533	8678
929.638	8473
929.743	8495
929.848	8545
929.953	8533
930.058	8381
930.163	8275
930.267	8282
930.372	8484
930.477	8225
930.581	8484
930.685	8385
930.79	8199
930.894	8252
930.998	8187
931.103	8355
931.207	8031
931.311	7940
931.415	7963
931.519	7788
931.623	7685
