Data from test_V78500241_2328.txt Node
Date: Fri Mar 25 14:49:55 CST 2022
User: usil
Spectrometer: V785-0024
Trigger mode: 0
Integration Time (sec): 4.000000E-1
Scans to average: 1
Nonlinearity correction enabled: false
Boxcar width: 0
Storing dark spectrum: false
XAxis mode: Wavelengths
Number of Pixels in Spectrum: 1024
>>>>>Begin Spectral Data<<<<<
801.071	22223
801.214	22051
801.356	21751
801.499	21652
801.641	21450
801.783	21534
801.926	21587
802.068	21557
802.211	21447
802.353	21420
802.496	21161
802.638	21131
802.78	21096
802.923	20921
803.065	20777
803.208	20929
803.35	20952
803.492	20925
803.635	20895
803.777	20857
803.919	21013
804.061	21154
804.204	21108
804.346	20849
804.488	20762
804.63	20887
804.773	20807
804.915	20773
805.057	20941
805.199	20834
805.341	20906
805.483	20899
805.626	20883
805.768	20693
805.91	20720
806.052	20815
806.194	20754
806.336	20880
806.478	20830
806.62	20845
806.762	20891
806.904	20834
807.046	21222
807.188	21157
807.33	21192
807.472	21279
807.614	21085
807.756	21116
807.898	20929
808.04	20796
808.182	20883
808.324	20941
808.465	20986
808.607	21138
808.749	21237
808.891	21329
809.033	21363
809.174	21367
809.316	21154
809.458	21123
809.6	21317
809.741	21195
809.883	21249
810.025	21340
810.166	21401
810.308	21386
810.45	21245
810.591	21169
810.733	21005
810.875	20956
811.016	20967
811.158	20815
811.299	20948
811.441	20975
811.582	21032
811.724	20895
811.865	20956
812.007	20982
812.148	20849
812.29	20952
812.431	21096
812.573	21272
812.714	21252
812.855	21511
812.997	21553
813.138	21732
813.279	21587
813.421	21511
813.562	21408
813.703	21192
813.845	21116
813.986	20830
814.127	20689
814.268	20590
814.41	20545
814.551	20598
814.692	20667
814.833	20393
814.974	20442
815.115	20560
815.256	20393
815.397	20370
815.539	20377
815.68	20309
815.821	20256
815.962	20336
816.103	20191
816.244	20050
816.385	19928
816.526	19879
816.666	19811
816.807	19613
816.948	19757
817.089	19700
817.23	19693
817.371	19624
817.512	19567
817.653	19658
817.793	19586
817.934	19719
818.075	19575
818.216	19662
818.356	19582
818.497	19354
818.638	19304
818.778	19304
818.919	19335
819.06	19320
819.2	19472
819.341	19540
819.481	19525
819.622	19662
819.762	19860
819.903	19746
820.043	19643
820.184	19719
820.324	19624
820.465	19704
820.605	19632
820.746	19594
820.886	19506
821.026	19605
821.167	19613
821.307	19651
821.447	19430
821.588	19419
821.728	19343
821.868	19209
822.008	19034
822.149	19031
822.289	19038
822.429	18753
822.569	18658
822.709	18635
822.849	18570
822.99	18547
823.13	18467
823.27	18479
823.41	18433
823.55	18262
823.69	18342
823.83	18292
823.97	18304
824.11	18091
824.25	18106
824.389	18110
824.529	18136
824.669	18068
824.809	18102
824.949	18239
825.089	18174
825.228	17999
825.368	18057
825.508	17939
825.648	17889
825.787	17923
825.927	18038
826.067	17790
826.206	17783
826.346	17935
826.485	17939
826.625	17828
826.765	17939
826.904	17897
827.044	17687
827.183	17714
827.323	17573
827.462	17509
827.601	17585
827.741	17478
827.88	17573
828.02	17463
828.159	17611
828.298	17634
828.437	17638
828.577	17554
828.716	17585
828.855	17600
828.994	17311
829.134	17334
829.273	17410
829.412	17280
829.551	17208
829.69	17303
829.829	17379
829.968	17417
830.107	17433
830.246	17250
830.385	17277
830.524	17189
830.663	17086
830.802	16976
830.941	16946
831.08	16862
831.219	16938
831.357	17010
831.496	17098
831.635	16927
831.774	16816
831.913	16824
832.051	16683
832.19	16736
832.329	16717
832.467	16683
832.606	16675
832.744	16622
832.883	16622
833.022	16569
833.16	16729
833.299	16637
833.437	16653
833.576	16710
833.714	16611
833.852	16698
833.991	16706
834.129	16687
834.267	16687
834.406	16607
834.544	16691
834.682	16725
834.821	16675
834.959	16835
835.097	16622
835.235	16763
835.373	16683
835.511	16736
835.65	16478
835.788	16569
835.926	16489
836.064	16253
836.202	16413
836.34	16683
836.478	16717
836.615	16535
836.753	16558
836.891	16577
837.029	16592
837.167	16531
837.305	16413
837.443	16481
837.58	16348
837.718	16478
837.856	16542
837.993	16356
838.131	16421
838.269	16295
838.406	16367
838.544	16215
838.681	16124
838.819	16021
838.956	15991
839.094	16025
839.231	16036
839.369	16078
839.506	16428
839.643	16150
839.781	15998
839.918	15949
840.055	15945
840.193	15998
840.33	15994
840.467	15934
840.604	15956
840.742	16268
840.879	15808
841.016	15854
841.153	15842
841.29	16051
841.427	15934
841.564	15975
841.701	16036
841.838	15911
841.975	15937
842.112	15823
842.249	15717
842.385	15797
842.522	15934
842.659	15701
842.796	15705
842.933	15701
843.069	15698
843.206	15644
843.343	15899
843.479	15778
843.616	15770
843.752	15576
843.889	15492
844.025	15698
844.162	15538
844.298	15625
844.435	15374
844.571	15492
844.708	15637
844.844	15584
844.98	15622
845.117	15553
845.253	15481
845.389	15287
845.525	15416
845.661	15283
845.798	15249
845.934	15416
846.07	15272
846.206	15370
846.342	15485
846.478	15245
846.614	15203
846.75	15093
846.886	15058
847.022	15047
847.158	15165
847.294	15074
847.429	15131
847.565	15089
847.701	15260
847.837	14883
847.972	14788
848.108	14880
848.244	14880
848.379	14777
848.515	14640
848.65	14727
848.786	14651
848.921	14758
849.057	14739
849.192	14697
849.328	14655
849.463	14678
849.598	14670
849.734	14621
849.869	14545
850.004	14377
850.14	14499
850.275	14518
850.41	14343
850.545	14320
850.68	14351
850.815	14427
850.95	14412
851.085	14651
851.22	14492
851.355	14465
851.49	14408
851.625	14336
851.76	14415
851.895	14263
852.03	14419
852.165	14404
852.299	14541
852.434	14659
852.569	14412
852.703	14393
852.838	14522
852.973	14655
853.107	14564
853.242	14434
853.376	14313
853.511	14233
853.645	14206
853.78	14396
853.914	14355
854.048	14271
854.183	14286
854.317	14290
854.451	14431
854.585	14294
854.72	14259
854.854	14366
854.988	14210
855.122	14240
855.256	14145
855.39	14320
855.524	14434
855.658	14358
855.792	14309
855.926	14358
856.06	14351
856.194	14450
856.327	14377
856.461	14210
856.595	14317
856.729	14248
856.862	14526
856.996	14374
857.13	14442
857.263	14450
857.397	14431
857.53	14278
857.664	14408
857.797	14393
857.931	14492
858.064	14461
858.197	14385
858.331	14294
858.464	14324
858.597	14259
858.731	14313
858.864	14259
858.997	14278
859.13	14290
859.263	14358
859.396	14271
859.529	14259
859.662	14180
859.795	14301
859.928	14366
860.061	14461
860.194	14450
860.327	14362
860.46	14290
860.592	14366
860.725	14412
860.858	14412
860.99	14176
861.123	14301
861.256	14180
861.388	14358
861.521	14952
861.653	14244
861.786	14115
861.918	14092
862.05	14233
862.183	14275
862.315	14366
862.447	14263
862.58	14240
862.712	14046
862.844	14020
862.976	14145
863.108	14176
863.24	14423
863.372	14096
863.504	14111
863.636	14077
863.768	14195
863.9	14050
864.032	14043
864.164	14088
864.296	14054
864.428	14164
864.559	14149
864.691	14263
864.823	14164
864.954	14157
865.086	14103
865.217	14088
865.349	13970
865.48	14103
865.612	14130
865.743	14305
865.875	14100
866.006	14096
866.137	14077
866.269	14027
866.4	14046
866.531	13947
866.662	14081
866.793	13986
866.924	14020
867.055	14103
867.186	14103
867.317	14020
867.448	13982
867.579	13997
867.71	13917
867.841	13978
867.972	14043
868.103	14069
868.233	14142
868.364	14039
868.495	14065
868.625	14218
868.756	14324
868.886	14248
869.017	14343
869.147	14377
869.278	14396
869.408	14328
869.539	14271
869.669	14476
869.799	14362
869.929	14419
870.06	14343
870.19	14610
870.32	14640
870.45	14598
870.58	14743
870.71	14708
870.84	14788
870.97	14682
871.1	14746
871.23	14933
871.36	14910
871.489	14826
871.619	14918
871.749	14857
871.879	15005
872.008	15047
872.138	14868
872.267	14868
872.397	14796
872.526	14796
872.656	14613
872.785	14712
872.915	14948
873.044	14921
873.173	14823
873.303	14975
873.432	15055
873.561	14971
873.69	14956
873.819	14944
873.948	15009
874.077	14902
874.206	14906
874.335	14956
874.464	15089
874.593	15252
874.722	15154
874.851	15287
874.979	15264
875.108	15313
875.237	15291
875.365	15256
875.494	15302
875.623	15245
875.751	15321
875.88	15405
876.008	15428
876.136	15431
876.265	15690
876.393	15774
876.521	15720
876.65	15800
876.778	15739
876.906	15660
877.034	15511
877.162	15736
877.29	15610
877.418	15705
877.546	15641
877.674	15648
877.802	15755
877.93	15603
878.058	15622
878.185	15519
878.313	15690
878.441	15625
878.568	15584
878.696	15667
878.824	15671
878.951	15675
879.079	15907
879.206	15949
879.333	15835
879.461	15606
879.588	15789
879.715	15854
879.842	15972
879.97	15732
880.097	15618
880.224	15625
880.351	15526
880.478	15542
880.605	15519
880.732	15538
880.859	15705
880.986	15561
881.112	15618
881.239	15515
881.366	15405
881.493	15161
881.619	15199
881.746	15138
881.872	15123
881.999	15116
882.125	15097
882.252	15275
882.378	15226
882.505	15302
882.631	15097
882.757	15028
882.883	15036
883.01	15032
883.136	14944
883.262	14883
883.388	14868
883.514	14960
883.64	15100
883.766	14956
883.892	14743
884.018	14796
884.143	15032
884.269	15005
884.395	14762
884.52	14697
884.646	14670
884.772	14552
884.897	14568
885.023	14697
885.148	14785
885.274	14853
885.399	14796
885.524	14788
885.65	14765
885.775	14731
885.9	14720
886.025	14864
886.15	14845
886.275	14663
886.4	14667
886.525	14610
886.65	14644
886.775	14598
886.9	14739
887.025	14986
887.149	14705
887.274	14530
887.399	14476
887.523	14545
887.648	14423
887.773	14446
887.897	14564
888.021	14568
888.146	14423
888.27	14678
888.395	14670
888.519	14594
888.643	14655
888.767	14632
888.891	14419
889.015	14419
889.139	14423
889.263	14362
889.387	14564
889.511	14648
889.635	14503
889.759	14393
889.883	14377
890.006	14514
890.13	14358
890.254	14393
890.377	14396
890.501	14229
890.624	14111
890.748	14294
890.871	14001
890.995	14123
891.118	13947
891.241	14161
891.364	14058
891.488	14233
891.611	14039
891.734	14168
891.857	14130
891.98	14119
892.103	14161
892.226	14073
892.349	13989
892.471	13894
892.594	14084
892.717	14096
892.839	14035
892.962	14088
893.085	14115
893.207	14100
893.33	14016
893.452	14020
893.575	14221
893.697	14126
893.819	14221
893.941	14400
894.064	14233
894.186	14012
894.308	14039
894.43	14218
894.552	14305
894.674	14199
894.796	14062
894.918	14100
895.04	14164
895.161	14275
895.283	14229
895.405	14153
895.526	14187
895.648	14134
895.769	14187
895.891	14358
896.012	14374
896.134	14271
896.255	14221
896.376	14187
896.498	14176
896.619	14233
896.74	14210
896.861	14396
896.982	14693
897.103	14849
897.224	14617
897.345	14476
897.466	14381
897.587	14518
897.708	14750
897.828	14587
897.949	14454
898.07	14355
898.19	14537
898.311	14663
898.431	14518
898.552	14617
898.672	14651
898.792	14727
898.913	14636
899.033	14594
899.153	14533
899.273	14381
899.393	14564
899.513	14499
899.633	14522
899.753	14423
899.873	14488
899.993	14545
900.113	14362
900.232	14526
900.352	14336
900.472	14282
900.591	14362
900.711	14320
900.83	14320
900.95	14446
901.069	14492
901.189	14317
901.308	14065
901.427	14012
901.546	13959
901.665	14077
901.784	14020
901.904	13822
902.023	13845
902.141	13696
902.26	13704
902.379	13674
902.498	13666
902.617	13533
902.735	13613
902.854	13552
902.973	13552
903.091	13320
903.21	13278
903.328	13278
903.446	13274
903.565	13274
903.683	13274
903.801	13084
903.919	13145
904.038	13137
904.156	12928
904.274	13046
904.392	12901
904.51	12943
904.627	12981
904.745	13072
904.863	13038
904.981	12825
905.098	12627
905.216	12555
905.334	12745
905.451	12635
905.569	12631
905.686	12681
905.803	12635
905.921	12441
906.038	12593
906.155	12585
906.272	12323
906.389	12304
906.506	12273
906.623	12190
906.74	12239
906.857	12148
906.974	12182
907.091	12330
907.208	12319
907.324	12304
907.441	12117
907.557	12148
907.674	11908
907.79	11996
907.907	11920
908.023	11969
908.139	12045
908.256	11931
908.372	11935
908.488	11912
908.604	11726
908.72	11775
908.836	11722
908.952	11859
909.068	11684
909.184	11935
909.3	11688
909.415	11760
909.531	11802
909.647	11623
909.762	11562
909.878	11512
909.993	11539
910.108	11501
910.224	11501
910.339	11410
910.454	11482
910.57	11307
910.685	11235
910.8	11551
910.915	11535
911.03	11463
911.145	11227
911.259	11246
911.374	11162
911.489	11151
911.604	11121
911.718	11010
911.833	11022
911.947	10866
912.062	10809
912.176	10949
912.291	10957
912.405	10942
912.519	11128
912.633	11235
912.748	11056
912.862	10991
912.976	10801
913.09	10736
913.204	10782
913.318	10873
913.431	10953
913.545	10934
913.659	11010
913.772	10889
913.886	10733
914	10653
914.113	10790
914.226	10866
914.34	10858
914.453	10588
914.566	10877
914.68	10721
914.793	10714
914.906	10519
915.019	10485
915.132	10356
915.245	10451
915.358	10497
915.47	10531
915.583	10493
915.696	10615
915.809	10577
915.921	10641
916.034	10459
916.146	10367
916.259	10413
916.371	10478
916.483	10512
916.595	10462
916.708	10432
916.82	10367
916.932	10363
917.044	10398
917.156	10402
917.268	10299
917.38	10325
917.491	10306
917.603	10367
917.715	10379
917.826	10382
917.938	10287
918.049	10265
918.161	10405
918.272	10421
918.384	10489
918.495	10276
918.606	10200
918.717	10116
918.828	10169
918.939	10238
919.05	10109
919.161	10124
919.272	9983
919.383	10063
919.494	10272
919.604	10344
919.715	10249
919.826	10124
919.936	10128
920.047	10325
920.157	10223
920.267	10481
920.378	10242
920.488	10200
920.598	10379
920.708	10508
920.818	10440
920.928	10398
921.038	10485
921.148	10538
921.258	10268
921.368	10051
921.477	10093
921.587	10059
921.697	9915
921.806	10090
921.916	10017
922.025	9850
922.134	9835
922.244	9755
922.353	9781
922.462	9637
922.571	9568
922.68	9485
922.789	9443
922.898	9485
923.007	9401
923.116	9473
923.224	9500
923.333	9469
923.442	9294
923.55	9336
923.659	9405
923.767	9450
923.876	9260
923.984	9370
924.092	9321
924.201	9325
924.309	9279
924.417	9340
924.525	9313
924.633	9310
924.741	10059
924.849	9077
924.956	9237
925.064	9138
925.172	9028
925.279	9036
925.387	9131
925.494	9131
925.602	9279
925.709	9176
925.816	9043
925.924	9070
926.031	9142
926.138	9135
926.245	9188
926.352	9020
926.459	9211
926.566	9230
926.673	9055
926.779	8952
926.886	9009
926.993	8849
927.099	8830
927.206	8830
927.312	8735
927.419	8864
927.525	8811
927.631	8941
927.737	8800
927.843	8766
927.95	8587
928.056	8819
928.162	8724
928.267	8807
928.373	9370
928.479	8838
928.585	8636
928.69	8686
928.796	8735
928.901	8651
929.007	8571
929.112	8644
929.218	8610
929.323	8549
929.428	8507
929.533	8746
929.638	8442
929.743	8514
929.848	8499
929.953	8590
930.058	8454
930.163	8320
930.267	8351
930.372	8438
930.477	8324
930.581	8507
930.685	8404
930.79	8279
930.894	8279
930.998	8298
931.103	8385
931.207	8008
931.311	7982
931.415	7890
931.519	7795
931.623	7776
