Data from test_V78500241_732.txt Node
Date: Fri Mar 25 14:38:48 CST 2022
User: usil
Spectrometer: V785-0024
Trigger mode: 0
Integration Time (sec): 4.000000E-1
Scans to average: 1
Nonlinearity correction enabled: false
Boxcar width: 0
Storing dark spectrum: false
XAxis mode: Wavelengths
Number of Pixels in Spectrum: 1024
>>>>>Begin Spectral Data<<<<<
801.071	27416
801.214	27310
801.356	27017
801.499	27077
801.641	26925
801.783	26914
801.926	26750
802.068	26739
802.211	26549
802.353	26488
802.496	26431
802.638	26298
802.78	26176
802.923	26149
803.065	26229
803.208	26168
803.35	26195
803.492	26514
803.635	26370
803.777	26301
803.919	26511
804.061	26868
804.204	26644
804.346	26427
804.488	26419
804.63	26648
804.773	26530
804.915	26758
805.057	26758
805.199	26823
805.341	26906
805.483	26986
805.626	27131
805.768	26944
805.91	27203
806.052	27351
806.194	27237
806.336	27720
806.478	27800
806.62	27994
806.762	28306
806.904	28862
807.046	29151
807.188	29543
807.33	30072
807.472	30658
807.614	31346
807.756	32233
807.898	33389
808.04	35014
808.182	37050
808.324	39797
808.465	42897
808.607	46348
808.749	49533
808.891	51256
809.033	51294
809.174	49578
809.316	46843
809.458	43369
809.6	39378
809.741	36700
809.883	34417
810.025	32910
810.166	31833
810.308	30738
810.45	30155
810.591	29672
810.733	29113
810.875	28641
811.016	28303
811.158	28021
811.299	28021
811.441	27907
811.582	27698
811.724	27511
811.865	27416
812.007	27363
812.148	27165
812.29	27192
812.431	27127
812.573	27332
812.714	27397
812.855	27420
812.997	27378
813.138	27656
813.279	27302
813.421	27055
813.562	27180
813.703	26872
813.845	26708
813.986	26362
814.127	26202
814.268	26035
814.41	25974
814.551	26024
814.692	26035
814.833	25909
814.974	25852
815.115	25757
815.256	25814
815.397	25647
815.539	25765
815.68	25525
815.821	25419
815.962	25525
816.103	25449
816.244	25270
816.385	25080
816.526	25198
816.666	24996
816.807	24958
816.948	24905
817.089	24951
817.23	24928
817.371	24817
817.512	24783
817.653	24661
817.793	24700
817.934	24669
818.075	24779
818.216	24798
818.356	24616
818.497	24566
818.638	24437
818.778	24334
818.919	24467
819.06	24384
819.2	24532
819.341	24536
819.481	24559
819.622	24741
819.762	24962
819.903	24772
820.043	24616
820.184	24570
820.324	24452
820.465	24589
820.605	24521
820.746	24388
820.886	24372
821.026	24574
821.167	24388
821.307	24513
821.447	24254
821.588	24365
821.728	24110
821.868	23992
822.008	23691
822.149	23832
822.289	23809
822.429	23505
822.569	23414
822.709	23452
822.849	23151
822.99	23311
823.13	23090
823.27	23159
823.41	23044
823.55	22934
823.69	22984
823.83	22904
823.97	23025
824.11	22930
824.25	22729
824.389	22713
824.529	22854
824.669	22683
824.809	22847
824.949	22736
825.089	22858
825.228	22824
825.368	22736
825.508	22569
825.648	22630
825.787	22687
825.927	22531
826.067	22462
826.206	22470
826.346	22489
826.485	22516
826.625	22504
826.765	22668
826.904	22622
827.044	22325
827.183	22238
827.323	22287
827.462	22166
827.601	22280
827.741	22131
827.88	22105
828.02	22029
828.159	22116
828.298	22143
828.437	22169
828.577	22032
828.716	22238
828.855	22131
828.994	21903
829.134	21895
829.273	21998
829.412	21819
829.551	21869
829.69	21854
829.829	21869
829.968	21743
830.107	21937
830.246	21732
830.385	21759
830.524	21671
830.663	21641
830.802	21610
830.941	21545
831.08	21435
831.219	21622
831.357	21603
831.496	21599
831.635	21485
831.774	21393
831.913	21504
832.051	21294
832.19	21283
832.329	21332
832.467	21291
832.606	21275
832.744	21306
832.883	21526
833.022	21553
833.16	21637
833.299	21698
833.437	21876
833.576	22074
833.714	22006
833.852	22093
833.991	22436
834.129	22645
834.267	22527
834.406	22462
834.544	22470
834.682	22280
834.821	22086
834.959	22238
835.097	21736
835.235	21926
835.373	21660
835.511	21648
835.65	21344
835.788	21355
835.926	21135
836.064	21043
836.202	20998
836.34	21138
836.478	21169
836.615	20971
836.753	21020
836.891	21020
837.029	21013
837.167	20990
837.305	20895
837.443	21020
837.58	20842
837.718	20914
837.856	20853
837.993	20724
838.131	20792
838.269	20648
838.406	20853
838.544	20598
838.681	20362
838.819	20454
838.956	20374
839.094	20142
839.231	20347
839.369	20347
839.506	20686
839.643	20320
839.781	20237
839.918	20191
840.055	20180
840.193	20237
840.33	20202
840.467	20229
840.604	20313
840.742	20469
840.879	20050
841.016	20157
841.153	20149
841.29	20320
841.427	20161
841.564	20271
841.701	20180
841.838	20199
841.975	20081
842.112	20092
842.249	19963
842.385	19967
842.522	20183
842.659	20058
842.796	20115
842.933	20062
843.069	20084
843.206	20103
843.343	20202
843.479	20157
843.616	20294
843.752	19993
843.889	20073
844.025	20244
844.162	20202
844.298	20473
844.435	20461
844.571	20743
844.708	21070
844.844	21443
844.98	21876
845.117	22687
845.253	23501
845.389	25666
845.525	29436
845.661	35516
845.798	42764
845.934	47984
846.07	50005
846.206	48509
846.342	43381
846.478	36224
846.614	30091
846.75	26073
846.886	23821
847.022	22310
847.158	21473
847.294	20678
847.429	20579
847.565	20180
847.701	20206
847.837	19613
847.972	19502
848.108	19453
848.244	19343
848.379	19240
848.515	19175
848.65	19095
848.786	19050
848.921	19095
849.057	19145
849.192	19080
849.328	19031
849.463	18859
849.598	18928
849.734	18920
849.869	18730
850.004	18646
850.14	18722
850.275	18681
850.41	18570
850.545	18612
850.68	18528
850.815	18715
850.95	18627
851.085	18738
851.22	18741
851.355	18635
851.49	18604
851.625	18627
851.76	18654
851.895	18532
852.03	18502
852.165	18646
852.299	18627
852.434	18764
852.569	18700
852.703	18764
852.838	18863
852.973	18852
853.107	18875
853.242	18661
853.376	18703
853.511	18483
853.645	18753
853.78	18939
853.914	18886
854.048	18776
854.183	18894
854.317	18909
854.451	19084
854.585	18981
854.72	18791
854.854	18935
854.988	18715
855.122	18768
855.256	18635
855.39	18597
855.524	18673
855.658	18623
855.792	18646
855.926	18536
856.06	18566
856.194	18661
856.327	18517
856.461	18327
856.595	18471
856.729	18494
856.862	18585
856.996	18475
857.13	18483
857.263	18593
857.397	18669
857.53	18422
857.664	18391
857.797	18509
857.931	18475
858.064	18490
858.197	18521
858.331	18429
858.464	18247
858.597	18091
858.731	18311
858.864	18338
858.997	18289
859.13	18376
859.263	18498
859.396	18460
859.529	18330
859.662	18190
859.795	18315
859.928	18254
860.061	18410
860.194	18589
860.327	18289
860.46	18441
860.592	18418
860.725	18380
860.858	18490
860.99	18239
861.123	18220
861.256	18247
861.388	18247
861.521	18951
861.653	18068
861.786	18224
861.918	18102
862.05	18117
862.183	18220
862.315	18273
862.447	18334
862.58	18205
862.712	18019
862.844	17969
862.976	18216
863.108	18102
863.24	18536
863.372	17863
863.504	17988
863.636	17977
863.768	17965
863.9	17954
864.032	17889
864.164	17958
864.296	17935
864.428	17988
864.559	18087
864.691	18015
864.823	18007
864.954	17954
865.086	17954
865.217	17942
865.349	17882
865.48	17889
865.612	17885
865.743	17999
865.875	17950
866.006	17916
866.137	17824
866.269	17836
866.4	17786
866.531	17863
866.662	17843
866.793	17779
866.924	17794
867.055	17748
867.186	17885
867.317	17897
867.448	17684
867.579	17790
867.71	17691
867.841	17771
867.972	17855
868.103	17828
868.233	17939
868.364	17836
868.495	17973
868.625	18034
868.756	18155
868.886	18041
869.017	18155
869.147	18228
869.278	18319
869.408	18049
869.539	18163
869.669	18155
869.799	18171
869.929	18315
870.06	18346
870.19	18509
870.32	18452
870.45	18407
870.58	18540
870.71	18673
870.84	18642
870.97	18707
871.1	18532
871.23	18791
871.36	18905
871.489	18745
871.619	18798
871.749	18871
871.879	18856
872.008	18970
872.138	18882
872.267	18840
872.397	18795
872.526	18779
872.656	18810
872.785	18791
872.915	18993
873.044	19034
873.173	19076
873.303	19050
873.432	19179
873.561	19213
873.69	19175
873.819	19179
873.948	19202
874.077	19183
874.206	19103
874.335	19274
874.464	19365
874.593	19632
874.722	19476
874.851	19521
874.979	19742
875.108	19761
875.237	19731
875.365	19651
875.494	19765
875.623	19974
875.751	19841
875.88	19936
876.008	20046
876.136	20172
876.265	20537
876.393	20621
876.521	20655
876.65	20621
876.778	20674
876.906	20655
877.034	20811
877.162	20716
877.29	20883
877.418	21001
877.546	21093
877.674	21192
877.802	21306
877.93	21538
878.058	21751
878.185	21781
878.313	22188
878.441	22466
878.568	22828
878.696	23486
878.824	24471
878.951	25571
879.079	27093
879.206	29425
879.333	31236
879.461	33230
879.588	34360
879.715	34344
879.842	33534
879.97	31460
880.097	29231
880.224	27553
880.351	26469
880.478	25422
880.605	24722
880.732	24391
880.859	24346
880.986	23969
881.112	23741
881.239	23684
881.366	23493
881.493	23421
881.619	23459
881.746	23353
881.872	23425
881.999	23570
882.125	23558
882.252	23608
882.378	23596
882.505	23889
882.631	23493
882.757	23372
882.883	23558
883.01	23490
883.136	23524
883.262	23307
883.388	23356
883.514	23421
883.64	23539
883.766	23353
883.892	23315
884.018	23273
884.143	23417
884.269	23379
884.395	23258
884.52	23143
884.646	23170
884.772	23151
884.897	23098
885.023	23060
885.148	23296
885.274	23299
885.399	23086
885.524	22953
885.65	22824
885.775	22672
885.9	22466
886.025	22424
886.15	22230
886.275	22040
886.4	21728
886.525	21747
886.65	21625
886.775	21416
886.9	21549
887.025	21568
887.149	21260
887.274	20982
887.399	20834
887.523	20701
887.648	20518
887.773	20556
887.897	20530
888.021	20465
888.146	20488
888.27	20351
888.395	20336
888.519	20358
888.643	20301
888.767	20145
888.891	19955
889.015	19868
889.139	19898
889.263	19742
889.387	19871
889.511	19761
889.635	19807
889.759	19655
889.883	19544
890.006	19499
890.13	19537
890.254	19426
890.377	19369
890.501	19164
890.624	19137
890.748	19175
890.871	18989
890.995	18973
891.118	18852
891.241	18798
891.364	18867
891.488	18924
891.611	18776
891.734	18654
891.857	18745
891.98	18795
892.103	18616
892.226	18604
892.349	18555
892.471	18460
892.594	18464
892.717	18483
892.839	18380
892.962	18365
893.085	18532
893.207	18391
893.33	18247
893.452	18319
893.575	18330
893.697	18315
893.819	18334
893.941	18353
894.064	18224
894.186	18178
894.308	18125
894.43	18152
894.552	18125
894.674	18171
894.796	17996
894.918	18064
895.04	18034
895.161	18167
895.283	18053
895.405	17904
895.526	18030
895.648	17935
895.769	18060
895.891	17969
896.012	18091
896.134	17935
896.255	17965
896.376	17942
896.498	17908
896.619	17912
896.74	17897
896.861	18030
896.982	18209
897.103	18380
897.224	18057
897.345	18110
897.466	17939
897.587	17946
897.708	18174
897.828	18030
897.949	18019
898.07	17805
898.19	17927
898.311	18163
898.431	18030
898.552	17996
898.672	18117
898.792	18148
898.913	17961
899.033	17931
899.153	17851
899.273	17771
899.393	17832
899.513	17821
899.633	17931
899.753	17809
899.873	17726
899.993	17954
900.113	17809
900.232	17885
900.352	17657
900.472	17733
900.591	17570
900.711	17642
900.83	17570
900.95	17745
901.069	17764
901.189	17539
901.308	17337
901.427	17200
901.546	17231
901.665	17200
901.784	17223
901.904	17060
902.023	16968
902.141	16691
902.26	16740
902.379	16733
902.498	16706
902.617	16558
902.735	16519
902.854	16493
902.973	16516
903.091	16306
903.21	16356
903.328	16261
903.446	16181
903.565	16101
903.683	16036
903.801	15956
903.919	16105
904.038	15941
904.156	15846
904.274	15918
904.392	15762
904.51	15747
904.627	15873
904.745	15804
904.863	15808
904.981	15622
905.098	15462
905.216	15462
905.334	15477
905.451	15504
905.569	15397
905.686	15412
905.803	15412
905.921	15291
906.038	15408
906.155	15249
906.272	15100
906.389	15180
906.506	14979
906.623	15036
906.74	14872
906.857	14868
906.974	14883
907.091	14998
907.208	15097
907.324	15074
907.441	14876
907.557	14785
907.674	14636
907.79	14629
907.907	14674
908.023	14659
908.139	14541
908.256	14632
908.372	14617
908.488	14575
908.604	14366
908.72	14404
908.836	14412
908.952	14408
909.068	14431
909.184	14469
909.3	14442
909.415	14511
909.531	14415
909.647	14168
909.762	14180
909.878	14145
909.993	14164
910.108	14073
910.224	14115
910.339	14115
910.454	13967
910.57	14039
910.685	13963
910.8	14229
910.915	14100
911.03	13932
911.145	13765
911.259	13757
911.374	13803
911.489	13700
911.604	13727
911.718	13468
911.833	13495
911.947	13430
912.062	13331
912.176	13525
912.291	13544
912.405	13506
912.519	13788
912.633	13685
912.748	13624
912.862	13502
912.976	13476
913.09	13301
913.204	13362
913.318	13396
913.431	13506
913.545	13438
913.659	13487
913.772	13327
913.886	13221
914	13232
914.113	13354
914.226	13392
914.34	13270
914.453	13118
914.566	13240
914.68	13149
914.793	13046
914.906	13061
915.019	12817
915.132	12875
915.245	12882
915.358	12981
915.47	12966
915.583	13046
915.696	13008
915.809	13061
915.921	13080
916.034	12920
916.146	12875
916.259	12829
916.371	12973
916.483	12947
916.595	12852
916.708	12928
916.82	12913
916.932	12829
917.044	12970
917.156	12924
917.268	12738
917.38	12722
917.491	12738
917.603	12757
917.715	12741
917.826	12749
917.938	12574
918.049	12589
918.161	12719
918.272	12703
918.384	12768
918.495	12627
918.606	12506
918.717	12422
918.828	12528
918.939	12475
919.05	12357
919.161	12426
919.272	12243
919.383	12254
919.494	12445
919.604	12665
919.715	12407
919.826	12380
919.936	12418
920.047	12509
920.157	12410
920.267	12631
920.378	12475
920.488	12350
920.598	12612
920.708	12783
920.818	12566
920.928	12506
921.038	12753
921.148	12639
921.258	12327
921.368	12304
921.477	12235
921.587	12201
921.697	12049
921.806	12167
921.916	12091
922.025	11889
922.134	11752
922.244	11786
922.353	11927
922.462	11688
922.571	11729
922.68	11589
922.789	11463
922.898	11577
923.007	11501
923.116	11490
923.224	11543
923.333	11493
923.442	11383
923.55	11277
923.659	11425
923.767	11406
923.876	11322
923.984	11360
924.092	11334
924.201	11322
924.309	11284
924.417	11360
924.525	11197
924.633	11280
924.741	12019
924.849	11071
924.956	11246
925.064	11010
925.172	11006
925.279	10972
925.387	11124
925.494	10961
925.602	11170
925.709	11124
925.816	10919
925.924	11041
926.031	11113
926.138	11075
926.245	11064
926.352	10869
926.459	11098
926.566	11121
926.673	10904
926.779	10892
926.886	10923
926.993	10653
927.099	10611
927.206	10611
927.312	10660
927.419	10721
927.525	10679
927.631	10752
927.737	10675
927.843	10474
927.95	10527
928.056	10538
928.162	10603
928.267	10637
928.373	11159
928.479	10660
928.585	10417
928.69	10577
928.796	10565
928.901	10417
929.007	10284
929.112	10424
929.218	10424
929.323	10363
929.428	10299
929.533	10542
929.638	10238
929.743	10287
929.848	10341
929.953	10272
930.058	10253
930.163	10025
930.267	10074
930.372	10188
930.477	10010
930.581	10230
930.685	10071
930.79	9956
930.894	10074
930.998	10067
931.103	10105
931.207	9808
931.311	9641
931.415	9701
931.519	9412
931.623	9405
