Data from test_V78500241_1941.txt Node
Date: Fri Mar 25 14:47:13 CST 2022
User: usil
Spectrometer: V785-0024
Trigger mode: 0
Integration Time (sec): 4.000000E-1
Scans to average: 1
Nonlinearity correction enabled: false
Boxcar width: 0
Storing dark spectrum: false
XAxis mode: Wavelengths
Number of Pixels in Spectrum: 1024
>>>>>Begin Spectral Data<<<<<
801.071	22162
801.214	21941
801.356	21766
801.499	21618
801.641	21561
801.783	21473
801.926	21488
802.068	21428
802.211	21416
802.353	21203
802.496	20910
802.638	20990
802.78	20918
802.923	20807
803.065	20705
803.208	20655
803.35	20838
803.492	20925
803.635	20929
803.777	20735
803.919	20845
804.061	21165
804.204	20792
804.346	20743
804.488	20716
804.63	20750
804.773	20594
804.915	20651
805.057	20819
805.199	20682
805.341	20716
805.483	20739
805.626	20758
805.768	20705
805.91	20655
806.052	20724
806.194	20526
806.336	20762
806.478	20617
806.62	20788
806.762	20849
806.904	20807
807.046	21131
807.188	20914
807.33	21089
807.472	21055
807.614	20944
807.756	20948
807.898	20823
808.04	20788
808.182	20663
808.324	20788
808.465	20902
808.607	20990
808.749	21058
808.891	21131
809.033	21214
809.174	21112
809.316	20986
809.458	20944
809.6	21043
809.741	21119
809.883	21051
810.025	21287
810.166	21378
810.308	21256
810.45	21260
810.591	21009
810.733	20944
810.875	20982
811.016	20750
811.158	20743
811.299	20899
811.441	20956
811.582	20868
811.724	20826
811.865	20743
812.007	20762
812.148	20826
812.29	20864
812.431	21043
812.573	21089
812.714	21279
812.855	21222
812.997	21302
813.138	21477
813.279	21386
813.421	21351
813.562	21165
813.703	21051
813.845	21089
813.986	20796
814.127	20590
814.268	20431
814.41	20419
814.551	20355
814.692	20457
814.833	20351
814.974	20351
815.115	20294
815.256	20259
815.397	20225
815.539	20278
815.68	20069
815.821	20142
815.962	20024
816.103	20016
816.244	19868
816.385	19967
816.526	19864
816.666	19529
816.807	19639
816.948	19655
817.089	19685
817.23	19544
817.371	19518
817.512	19480
817.653	19544
817.793	19525
817.934	19499
818.075	19563
818.216	19495
818.356	19468
818.497	19266
818.638	19266
818.778	19209
818.919	19263
819.06	19187
819.2	19263
819.341	19483
819.481	19537
819.622	19613
819.762	19643
819.903	19723
820.043	19495
820.184	19537
820.324	19495
820.465	19540
820.605	19635
820.746	19506
820.886	19308
821.026	19548
821.167	19297
821.307	19441
821.447	19487
821.588	19297
821.728	19217
821.868	19027
822.008	18817
822.149	18901
822.289	18856
822.429	18707
822.569	18627
822.709	18601
822.849	18467
822.99	18391
823.13	18270
823.27	18277
823.41	18235
823.55	18057
823.69	18247
823.83	18205
823.97	18102
824.11	18041
824.25	17973
824.389	17984
824.529	18019
824.669	18041
824.809	18213
824.949	18095
825.089	17954
825.228	17984
825.368	17729
825.508	17794
825.648	17836
825.787	17745
825.927	17908
826.067	17680
826.206	17790
826.346	17771
826.485	17802
826.625	17695
826.765	17870
826.904	17805
827.044	17528
827.183	17570
827.323	17444
827.462	17570
827.601	17440
827.741	17516
827.88	17467
828.02	17379
828.159	17368
828.298	17452
828.437	17520
828.577	17539
828.716	17528
828.855	17383
828.994	17235
829.134	17261
829.273	17208
829.412	17022
829.551	17227
829.69	17185
829.829	17242
829.968	17307
830.107	17307
830.246	17269
830.385	17105
830.524	17094
830.663	17052
830.802	17003
830.941	16755
831.08	16793
831.219	16850
831.357	16881
831.496	17098
831.635	16850
831.774	16831
831.913	16748
832.051	16653
832.19	16626
832.329	16607
832.467	16523
832.606	16478
832.744	16519
832.883	16531
833.022	16504
833.16	16588
833.299	16622
833.437	16573
833.576	16599
833.714	16558
833.852	16607
833.991	16664
834.129	16702
834.267	16603
834.406	16485
834.544	16573
834.682	16630
834.821	16584
834.959	16812
835.097	16508
835.235	16668
835.373	16713
835.511	16630
835.65	16504
835.788	16478
835.926	16257
836.064	16363
836.202	16303
836.34	16504
836.478	16698
836.615	16470
836.753	16637
836.891	16607
837.029	16565
837.167	16409
837.305	16417
837.443	16436
837.58	16375
837.718	16382
837.856	16352
837.993	16341
838.131	16447
838.269	16291
838.406	16367
838.544	16234
838.681	16135
838.819	16090
838.956	15876
839.094	15759
839.231	15945
839.369	16036
839.506	16360
839.643	16120
839.781	16025
839.918	15880
840.055	15884
840.193	15979
840.33	15964
840.467	15876
840.604	16013
840.742	16158
840.879	15869
841.016	15865
841.153	15937
841.29	16055
841.427	15987
841.564	15956
841.701	15991
841.838	15915
841.975	15869
842.112	15800
842.249	15709
842.385	15675
842.522	15819
842.659	15656
842.796	15701
842.933	15766
843.069	15625
843.206	15610
843.343	15816
843.479	15785
843.616	15736
843.752	15534
843.889	15485
844.025	15633
844.162	15530
844.298	15572
844.435	15435
844.571	15466
844.708	15553
844.844	15648
844.98	15644
845.117	15637
845.253	15389
845.389	15447
845.525	15462
845.661	15405
845.798	15256
845.934	15374
846.07	15249
846.206	15340
846.342	15431
846.478	15317
846.614	15207
846.75	15017
846.886	15047
847.022	15131
847.158	15135
847.294	15192
847.429	15123
847.565	15081
847.701	15241
847.837	14815
847.972	14823
848.108	14887
848.244	14910
848.379	14705
848.515	14716
848.65	14674
848.786	14811
848.921	14727
849.057	14762
849.192	14765
849.328	14731
849.463	14674
849.598	14701
849.734	14587
849.869	14518
850.004	14495
850.14	14503
850.275	14461
850.41	14381
850.545	14370
850.68	14473
850.815	14552
850.95	14408
851.085	14613
851.22	14530
851.355	14465
851.49	14450
851.625	14404
851.76	14400
851.895	14370
852.03	14290
852.165	14355
852.299	14400
852.434	14488
852.569	14434
852.703	14339
852.838	14568
852.973	14526
853.107	14621
853.242	14377
853.376	14294
853.511	14320
853.645	14202
853.78	14412
853.914	14317
854.048	14214
854.183	14317
854.317	14408
854.451	14473
854.585	14298
854.72	14358
854.854	14362
854.988	14195
855.122	14263
855.256	14286
855.39	14389
855.524	14408
855.658	14370
855.792	14408
855.926	14393
856.06	14400
856.194	14396
856.327	14362
856.461	14301
856.595	14294
856.729	14244
856.862	14423
856.996	14358
857.13	14389
857.263	14473
857.397	14393
857.53	14336
857.664	14495
857.797	14381
857.931	14473
858.064	14404
858.197	14484
858.331	14320
858.464	14358
858.597	14161
858.731	14271
858.864	14278
858.997	14263
859.13	14438
859.263	14362
859.396	14324
859.529	14259
859.662	14301
859.795	14206
859.928	14358
860.061	14507
860.194	14507
860.327	14419
860.46	14259
860.592	14492
860.725	14511
860.858	14374
860.99	14343
861.123	14267
861.256	14343
861.388	14259
861.521	15116
861.653	14248
861.786	14240
861.918	14126
862.05	14309
862.183	14240
862.315	14320
862.447	14347
862.58	14305
862.712	14130
862.844	14039
862.976	14187
863.108	14233
863.24	14499
863.372	14039
863.504	14119
863.636	14145
863.768	14103
863.9	14153
864.032	14016
864.164	14084
864.296	14100
864.428	14240
864.559	14240
864.691	14229
864.823	14119
864.954	14180
865.086	13974
865.217	14069
865.349	14024
865.48	14123
865.612	14031
865.743	14343
865.875	14084
866.006	13955
866.137	14126
866.269	14195
866.4	14069
866.531	13963
866.662	14046
866.793	14115
866.924	14126
867.055	14115
867.186	14088
867.317	13993
867.448	13978
867.579	14016
867.71	13967
867.841	14020
867.972	14115
868.103	14111
868.233	14168
868.364	14100
868.495	14202
868.625	14248
868.756	14469
868.886	14256
869.017	14339
869.147	14431
869.278	14499
869.408	14427
869.539	14396
869.669	14404
869.799	14434
869.929	14446
870.06	14480
870.19	14682
870.32	14598
870.45	14735
870.58	14746
870.71	14811
870.84	14838
870.97	14762
871.1	14743
871.23	15009
871.36	14880
871.489	14876
871.619	14796
871.749	14994
871.879	14971
872.008	15051
872.138	14963
872.267	14853
872.397	14857
872.526	14735
872.656	14796
872.785	14735
872.915	14963
873.044	15074
873.173	14937
873.303	14975
873.432	14952
873.561	15058
873.69	15043
873.819	14963
873.948	14933
874.077	15013
874.206	15043
874.335	14956
874.464	15195
874.593	15378
874.722	15287
874.851	15332
874.979	15408
875.108	15321
875.237	15298
875.365	15211
875.494	15203
875.623	15431
875.751	15260
875.88	15310
876.008	15363
876.136	15496
876.265	15838
876.393	15732
876.521	15698
876.65	15850
876.778	15671
876.906	15671
877.034	15584
877.162	15724
877.29	15663
877.418	15850
877.546	15682
877.674	15717
877.802	15793
877.93	15732
878.058	15698
878.185	15675
878.313	15686
878.441	15743
878.568	15488
878.696	15686
878.824	15667
878.951	15793
879.079	15873
879.206	16067
879.333	15812
879.461	15751
879.588	15789
879.715	15850
879.842	15941
879.97	15743
880.097	15534
880.224	15553
880.351	15675
880.478	15679
880.605	15530
880.732	15557
880.859	15709
880.986	15561
881.112	15564
881.239	15420
881.366	15310
881.493	15298
881.619	15226
881.746	15207
881.872	15233
881.999	15116
882.125	15226
882.252	15161
882.378	15249
882.505	15420
882.631	15203
882.757	15051
882.883	15013
883.01	15047
883.136	14975
883.262	14929
883.388	14887
883.514	15032
883.64	15077
883.766	14979
883.892	14815
884.018	14861
884.143	15017
884.269	15150
884.395	14796
884.52	14670
884.646	14838
884.772	14705
884.897	14705
885.023	14617
885.148	14769
885.274	14849
885.399	14857
885.524	14735
885.65	14777
885.775	14746
885.9	14830
886.025	14811
886.15	14819
886.275	14750
886.4	14613
886.525	14655
886.65	14568
886.775	14629
886.9	14902
887.025	14941
887.149	14773
887.274	14606
887.399	14629
887.523	14438
887.648	14587
887.773	14454
887.897	14613
888.021	14552
888.146	14530
888.27	14644
888.395	14800
888.519	14644
888.643	14632
888.767	14716
888.891	14495
889.015	14389
889.139	14457
889.263	14438
889.387	14640
889.511	14602
889.635	14640
889.759	14461
889.883	14476
890.006	14457
890.13	14549
890.254	14309
890.377	14396
890.501	14210
890.624	14233
890.748	14355
890.871	14218
890.995	14092
891.118	14088
891.241	14202
891.364	14119
891.488	14278
891.611	14183
891.734	14153
891.857	14176
891.98	14123
892.103	14206
892.226	14229
892.349	14092
892.471	13967
892.594	14115
892.717	14191
892.839	14161
892.962	14130
893.085	14206
893.207	14088
893.33	14024
893.452	14069
893.575	14107
893.697	14100
893.819	14286
893.941	14404
894.064	14195
894.186	14062
894.308	14050
894.43	14130
894.552	14366
894.674	14294
894.796	14031
894.918	14191
895.04	14229
895.161	14191
895.283	14225
895.405	14214
895.526	14263
895.648	14256
895.769	14294
895.891	14336
896.012	14317
896.134	14339
896.255	14358
896.376	14206
896.498	14351
896.619	14309
896.74	14347
896.861	14377
896.982	14617
897.103	14796
897.224	14632
897.345	14541
897.466	14507
897.587	14598
897.708	14689
897.828	14537
897.949	14636
898.07	14522
898.19	14507
898.311	14659
898.431	14507
898.552	14629
898.672	14796
898.792	14708
898.913	14644
899.033	14606
899.153	14522
899.273	14442
899.393	14469
899.513	14492
899.633	14431
899.753	14537
899.873	14454
899.993	14571
900.113	14385
900.232	14530
900.352	14400
900.472	14457
900.591	14317
900.711	14396
900.83	14320
900.95	14400
901.069	14476
901.189	14275
901.308	14138
901.427	13993
901.546	13989
901.665	14081
901.784	13989
901.904	13906
902.023	13871
902.141	13616
902.26	13632
902.379	13655
902.498	13594
902.617	13491
902.735	13674
902.854	13575
902.973	13552
903.091	13343
903.21	13282
903.328	13301
903.446	13266
903.565	13202
903.683	13095
903.801	13000
903.919	13095
904.038	13198
904.156	13110
904.274	13156
904.392	12966
904.51	12981
904.627	12989
904.745	13069
904.863	13046
904.981	12776
905.098	12608
905.216	12684
905.334	12677
905.451	12795
905.569	12673
905.686	12700
905.803	12726
905.921	12532
906.038	12601
906.155	12559
906.272	12384
906.389	12456
906.506	12380
906.623	12285
906.74	12330
906.857	12197
906.974	12152
907.091	12353
907.208	12384
907.324	12281
907.441	12148
907.557	12015
907.674	12034
907.79	11950
907.907	12026
908.023	12114
908.139	12034
908.256	11973
908.372	11927
908.488	11920
908.604	11783
908.72	11748
908.836	11798
908.952	11737
909.068	11786
909.184	11939
909.3	11767
909.415	11775
909.531	11729
909.647	11653
909.762	11592
909.878	11532
909.993	11642
910.108	11551
910.224	11577
910.339	11585
910.454	11493
910.57	11421
910.685	11368
910.8	11573
910.915	11493
911.03	11398
911.145	11284
911.259	11235
911.374	11162
911.489	11220
911.604	11083
911.718	10999
911.833	11018
911.947	10946
912.062	10850
912.176	11025
912.291	11033
912.405	10923
912.519	11140
912.633	11208
912.748	11006
912.862	11041
912.976	10850
913.09	10816
913.204	10824
913.318	10908
913.431	10949
913.545	10911
913.659	10995
913.772	10953
913.886	10767
914	10733
914.113	10809
914.226	10881
914.34	10835
914.453	10782
914.566	10805
914.68	10755
914.793	10717
914.906	10535
915.019	10428
915.132	10474
915.245	10459
915.358	10500
915.47	10550
915.583	10516
915.696	10523
915.809	10714
915.921	10668
916.034	10504
916.146	10474
916.259	10428
916.371	10542
916.483	10580
916.595	10421
916.708	10443
916.82	10474
916.932	10390
917.044	10436
917.156	10390
917.268	10299
917.38	10424
917.491	10314
917.603	10322
917.715	10478
917.826	10440
917.938	10322
918.049	10181
918.161	10325
918.272	10519
918.384	10466
918.495	10379
918.606	10257
918.717	10116
918.828	10272
918.939	10242
919.05	10200
919.161	10204
919.272	10071
919.383	10063
919.494	10268
919.604	10443
919.715	10280
919.826	10124
919.936	10177
920.047	10280
920.157	10242
920.267	10386
920.378	10257
920.488	10246
920.598	10428
920.708	10531
920.818	10455
920.928	10424
921.038	10721
921.148	10573
921.258	10295
921.368	10162
921.477	10074
921.587	10029
921.697	9926
921.806	10101
921.916	9972
922.025	9842
922.134	9724
922.244	9740
922.353	9915
922.462	9720
922.571	9618
922.68	9431
922.789	9523
922.898	9477
923.007	9405
923.116	9477
923.224	9447
923.333	9435
923.442	9439
923.55	9348
923.659	9393
923.767	9473
923.876	9332
923.984	9389
924.092	9321
924.201	9401
924.309	9340
924.417	9340
924.525	9306
924.633	9332
924.741	10280
924.849	9119
924.956	9268
925.064	9127
925.172	9089
925.279	9066
925.387	9154
925.494	9135
925.602	9241
925.709	9214
925.816	9047
925.924	9123
926.031	9233
926.138	9199
926.245	9146
926.352	8998
926.459	9230
926.566	9211
926.673	9097
926.779	9043
926.886	8994
926.993	8849
927.099	8872
927.206	8823
927.312	8804
927.419	8872
927.525	8845
927.631	8941
927.737	8743
927.843	8849
927.95	8667
928.056	8705
928.162	8811
928.267	8811
928.373	9393
928.479	8857
928.585	8564
928.69	8735
928.796	8769
928.901	8678
929.007	8503
929.112	8648
929.218	8697
929.323	8629
929.428	8526
929.533	8720
929.638	8503
929.743	8560
929.848	8674
929.953	8556
930.058	8556
930.163	8336
930.267	8366
930.372	8495
930.477	8320
930.581	8526
930.685	8434
930.79	8328
930.894	8339
930.998	8237
931.103	8457
931.207	8084
931.311	8035
931.415	7955
931.519	7776
931.623	7906
