Data from test_V78500241_1491.txt Node
Date: Fri Mar 25 14:44:05 CST 2022
User: usil
Spectrometer: V785-0024
Trigger mode: 0
Integration Time (sec): 4.000000E-1
Scans to average: 1
Nonlinearity correction enabled: false
Boxcar width: 0
Storing dark spectrum: false
XAxis mode: Wavelengths
Number of Pixels in Spectrum: 1024
>>>>>Begin Spectral Data<<<<<
801.071	22371
801.214	22371
801.356	22032
801.499	21949
801.641	21774
801.783	21610
801.926	21827
802.068	21781
802.211	21648
802.353	21572
802.496	21287
802.638	21237
802.78	21195
802.923	21108
803.065	20971
803.208	21020
803.35	21036
803.492	21180
803.635	21176
803.777	21165
803.919	21283
804.061	21454
804.204	21188
804.346	21230
804.488	20979
804.63	21047
804.773	20944
804.915	21058
805.057	21211
805.199	20967
805.341	21001
805.483	21180
805.626	21085
805.768	21062
805.91	21051
806.052	21070
806.194	20834
806.336	21184
806.478	21009
806.62	21104
806.762	21093
806.904	21256
807.046	21496
807.188	21367
807.33	21348
807.472	21477
807.614	21336
807.756	21332
807.898	21211
808.04	21211
808.182	21275
808.324	21180
808.465	21291
808.607	21469
808.749	21542
808.891	21701
809.033	21728
809.174	21637
809.316	21545
809.458	21679
809.6	21477
809.741	21473
809.883	21603
810.025	21797
810.166	21530
810.308	21629
810.45	21660
810.591	21538
810.733	21348
810.875	21279
811.016	21146
811.158	21104
811.299	21389
811.441	21298
811.582	21237
811.724	21260
811.865	21260
812.007	21146
812.148	21283
812.29	21211
812.431	21378
812.573	21542
812.714	21568
812.855	21679
812.997	21899
813.138	21888
813.279	21903
813.421	21747
813.562	21652
813.703	21477
813.845	21321
813.986	21085
814.127	21024
814.268	20724
814.41	20727
814.551	20800
814.692	20861
814.833	20765
814.974	20617
815.115	20724
815.256	20625
815.397	20541
815.539	20556
815.68	20495
815.821	20381
815.962	20511
816.103	20507
816.244	20366
816.385	20298
816.526	20263
816.666	20050
816.807	19936
816.948	19925
817.089	19982
817.23	19978
817.371	19913
817.512	19868
817.653	19826
817.793	19868
817.934	19871
818.075	19909
818.216	19845
818.356	19849
818.497	19811
818.638	19540
818.778	19605
818.919	19552
819.06	19620
819.2	19643
819.341	19784
819.481	19818
819.622	19909
819.762	20103
819.903	20092
820.043	19856
820.184	19909
820.324	19887
820.465	19986
820.605	19883
820.746	19951
820.886	19674
821.026	19890
821.167	19814
821.307	19887
821.447	19887
821.588	19799
821.728	19559
821.868	19495
822.008	19320
822.149	19270
822.289	19289
822.429	18970
822.569	18966
822.709	18924
822.849	18776
822.99	18798
823.13	18696
823.27	18779
823.41	18639
823.55	18559
823.69	18646
823.83	18566
823.97	18509
824.11	18350
824.25	18346
824.389	18285
824.529	18441
824.669	18308
824.809	18479
824.949	18414
825.089	18456
825.228	18369
825.368	18213
825.508	18133
825.648	18163
825.787	18049
825.927	18163
826.067	18129
826.206	18019
826.346	18216
826.485	18129
826.625	18174
826.765	18277
826.904	18133
827.044	17847
827.183	17813
827.323	17794
827.462	17908
827.601	17790
827.741	17813
827.88	17923
828.02	17634
828.159	17741
828.298	17874
828.437	17882
828.577	17832
828.716	17874
828.855	17832
828.994	17585
829.134	17611
829.273	17642
829.412	17547
829.551	17448
829.69	17532
829.829	17668
829.968	17634
830.107	17592
830.246	17600
830.385	17566
830.524	17467
830.663	17417
830.802	17280
830.941	17246
831.08	17223
831.219	17303
831.357	17326
831.496	17391
831.635	17143
831.774	17105
831.913	17022
832.051	16904
832.19	17045
832.329	16968
832.467	16930
832.606	16866
832.744	16828
832.883	16889
833.022	16862
833.16	16812
833.299	16934
833.437	16820
833.576	16877
833.714	17022
833.852	16908
833.991	16911
834.129	17060
834.267	16892
834.406	16911
834.544	16930
834.682	16965
834.821	16980
834.959	17166
835.097	16930
835.235	17014
835.373	16904
835.511	16911
835.65	16869
835.788	16839
835.926	16691
836.064	16599
836.202	16649
836.34	16744
836.478	16721
836.615	16755
836.753	16923
836.891	16881
837.029	16930
837.167	16752
837.305	16816
837.443	16672
837.58	16672
837.718	16630
837.856	16744
837.993	16672
838.131	16752
838.269	16580
838.406	16550
838.544	16470
838.681	16394
838.819	16318
838.956	16192
839.094	16249
839.231	16238
839.369	16360
839.506	16611
839.643	16451
839.781	16230
839.918	16204
840.055	16272
840.193	16154
840.33	16314
840.467	16166
840.604	16215
840.742	16428
840.879	16162
841.016	16158
841.153	16135
841.29	16249
841.427	16177
841.564	16268
841.701	16211
841.838	16116
841.975	16051
842.112	16109
842.249	16074
842.385	15979
842.522	16192
842.659	15922
842.796	15983
842.933	16010
843.069	15884
843.206	15960
843.343	16040
843.479	15956
843.616	16048
843.752	15869
843.889	15869
844.025	16017
844.162	15880
844.298	15850
844.435	15816
844.571	15766
844.708	15854
844.844	15903
844.98	15895
845.117	15968
845.253	15774
845.389	15675
845.525	15785
845.661	15770
845.798	15743
845.934	15911
846.07	15831
846.206	15911
846.342	15869
846.478	15728
846.614	15492
846.75	15351
846.886	15325
847.022	15450
847.158	15332
847.294	15481
847.429	15496
847.565	15355
847.701	15606
847.837	15062
847.972	15119
848.108	15119
848.244	15203
848.379	14952
848.515	14937
848.65	14967
848.786	15024
848.921	14990
849.057	15104
849.192	15188
849.328	15070
849.463	14937
849.598	14883
849.734	14876
849.869	14895
850.004	14648
850.14	14785
850.275	14678
850.41	14621
850.545	14682
850.68	14640
850.815	14754
850.95	14655
851.085	14807
851.22	14819
851.355	14731
851.49	14651
851.625	14674
851.76	14610
851.895	14530
852.03	14632
852.165	14552
852.299	14731
852.434	14773
852.569	14689
852.703	14655
852.838	14727
852.973	14807
853.107	14838
853.242	14705
853.376	14583
853.511	14446
853.645	14469
853.78	14697
853.914	14549
854.048	14610
854.183	14473
854.317	14533
854.451	14693
854.585	14613
854.72	14511
854.854	14708
854.988	14571
855.122	14480
855.256	14431
855.39	14598
855.524	14686
855.658	14632
855.792	14640
855.926	14651
856.06	14564
856.194	14716
856.327	14560
856.461	14461
856.595	14556
856.729	14526
856.862	14727
856.996	14632
857.13	14674
857.263	14754
857.397	14750
857.53	14644
857.664	14689
857.797	14697
857.931	14663
858.064	14552
858.197	14670
858.331	14617
858.464	14514
858.597	14457
858.731	14530
858.864	14533
858.997	14564
859.13	14682
859.263	14667
859.396	14571
859.529	14724
859.662	14636
859.795	14575
859.928	14651
860.061	14731
860.194	14785
860.327	14689
860.46	14598
860.592	14682
860.725	14788
860.858	14712
860.99	14560
861.123	14526
861.256	14625
861.388	14606
861.521	15192
861.653	14537
861.786	14454
861.918	14499
862.05	14484
862.183	14648
862.315	14606
862.447	14632
862.58	14583
862.712	14324
862.844	14396
862.976	14537
863.108	14385
863.24	14914
863.372	14381
863.504	14419
863.636	14404
863.768	14423
863.9	14377
864.032	14324
864.164	14396
864.296	14400
864.428	14518
864.559	14499
864.691	14377
864.823	14336
864.954	14419
865.086	14438
865.217	14427
865.349	14267
865.48	14259
865.612	14400
865.743	14469
865.875	14355
866.006	14336
866.137	14408
866.269	14374
866.4	14370
866.531	14423
866.662	14259
866.793	14256
866.924	14294
867.055	14434
867.186	14267
867.317	14313
867.448	14298
867.579	14377
867.71	14225
867.841	14290
867.972	14396
868.103	14320
868.233	14431
868.364	14438
868.495	14374
868.625	14575
868.756	14640
868.886	14454
869.017	14621
869.147	14785
869.278	14743
869.408	14674
869.539	14537
869.669	14640
869.799	14613
869.929	14796
870.06	14640
870.19	14956
870.32	14944
870.45	14941
870.58	15009
870.71	15157
870.84	15127
870.97	15024
871.1	14914
871.23	15176
871.36	15218
871.489	15116
871.619	15108
871.749	15268
871.879	15218
872.008	15431
872.138	15203
872.267	15157
872.397	15005
872.526	15051
872.656	15039
872.785	15043
872.915	15222
873.044	15291
873.173	15192
873.303	15230
873.432	15363
873.561	15382
873.69	15188
873.819	15264
873.948	15412
874.077	15294
874.206	15283
874.335	15332
874.464	15416
874.593	15584
874.722	15435
874.851	15534
874.979	15675
875.108	15584
875.237	15469
875.365	15599
875.494	15603
875.623	15671
875.751	15500
875.88	15648
876.008	15667
876.136	15808
876.265	15926
876.393	16166
876.521	16059
876.65	15903
876.778	15930
876.906	15941
877.034	15915
877.162	15941
877.29	15854
877.418	15918
877.546	15937
877.674	15869
877.802	15987
877.93	15998
878.058	15979
878.185	15895
878.313	15994
878.441	16101
878.568	15812
878.696	15953
878.824	16036
878.951	16078
879.079	16284
879.206	16333
879.333	16291
879.461	16135
879.588	16082
879.715	16306
879.842	16367
879.97	16116
880.097	15937
880.224	15854
880.351	16006
880.478	15838
880.605	15846
880.732	15895
880.859	16086
880.986	15838
881.112	15857
881.239	15713
881.366	15679
881.493	15584
881.619	15477
881.746	15584
881.872	15496
881.999	15431
882.125	15424
882.252	15545
882.378	15576
882.505	15641
882.631	15481
882.757	15279
882.883	15393
883.01	15214
883.136	15180
883.262	15104
883.388	15230
883.514	15420
883.64	15359
883.766	15298
883.892	15195
884.018	15199
884.143	15268
884.269	15447
884.395	15180
884.52	15058
884.646	14979
884.772	14975
884.897	14990
885.023	14990
885.148	15100
885.274	15245
885.399	15165
885.524	15009
885.65	15062
885.775	15100
885.9	15013
886.025	15173
886.15	15112
886.275	15032
886.4	14914
886.525	15020
886.65	14819
886.775	14910
886.9	15131
887.025	15192
887.149	15089
887.274	14880
887.399	14902
887.523	14956
887.648	14811
887.773	14712
887.897	14902
888.021	14960
888.146	14883
888.27	15058
888.395	15024
888.519	14960
888.643	14864
888.767	14944
888.891	14796
889.015	14708
889.139	14701
889.263	14644
889.387	14830
889.511	14899
889.635	14914
889.759	14575
889.883	14621
890.006	14807
890.13	14849
890.254	14629
890.377	14659
890.501	14579
890.624	14385
890.748	14556
890.871	14404
890.995	14385
891.118	14336
891.241	14400
891.364	14385
891.488	14465
891.611	14366
891.734	14412
891.857	14507
891.98	14465
892.103	14461
892.226	14419
892.349	14415
892.471	14206
892.594	14412
892.717	14377
892.839	14324
892.962	14450
893.085	14393
893.207	14294
893.33	14214
893.452	14313
893.575	14442
893.697	14434
893.819	14507
893.941	14541
894.064	14503
894.186	14263
894.308	14278
894.43	14530
894.552	14564
894.674	14484
894.796	14332
894.918	14336
895.04	14393
895.161	14473
895.283	14427
895.405	14366
895.526	14404
895.648	14579
895.769	14522
895.891	14530
896.012	14518
896.134	14507
896.255	14518
896.376	14495
896.498	14480
896.619	14606
896.74	14564
896.861	14629
896.982	14887
897.103	15028
897.224	14914
897.345	14819
897.466	14708
897.587	14826
897.708	14948
897.828	14834
897.949	14762
898.07	14716
898.19	14804
898.311	15024
898.431	14819
898.552	14857
898.672	15047
898.792	14998
898.913	14788
899.033	14842
899.153	14689
899.273	14689
899.393	14697
899.513	14735
899.633	14785
899.753	14754
899.873	14670
899.993	14796
900.113	14697
900.232	14845
900.352	14689
900.472	14689
900.591	14651
900.711	14571
900.83	14583
900.95	14526
901.069	14655
901.189	14526
901.308	14271
901.427	14275
901.546	14252
901.665	14294
901.784	14313
901.904	14206
902.023	14103
902.141	13791
902.26	13841
902.379	13909
902.498	13868
902.617	13780
902.735	13841
902.854	13818
902.973	13746
903.091	13582
903.21	13578
903.328	13578
903.446	13426
903.565	13430
903.683	13445
903.801	13324
903.919	13419
904.038	13388
904.156	13346
904.274	13282
904.392	13209
904.51	13232
904.627	13126
904.745	13244
904.863	13278
904.981	12958
905.098	12878
905.216	12947
905.334	13019
905.451	12867
905.569	12875
905.686	12867
905.803	12840
905.921	12707
906.038	12821
906.155	12814
906.272	12639
906.389	12703
906.506	12471
906.623	12494
906.74	12498
906.857	12258
906.974	12388
907.091	12502
907.208	12673
907.324	12559
907.441	12388
907.557	12277
907.674	12281
907.79	12178
907.907	12186
908.023	12228
908.139	12254
908.256	12273
908.372	12159
908.488	12091
908.604	11977
908.72	11942
908.836	11996
908.952	11927
909.068	11984
909.184	12034
909.3	11931
909.415	11996
909.531	12091
909.647	11817
909.762	11699
909.878	11729
909.993	11786
910.108	11699
910.224	11779
910.339	11805
910.454	11707
910.57	11520
910.685	11566
910.8	11798
910.915	11760
911.03	11482
911.145	11414
911.259	11410
911.374	11425
911.489	11417
911.604	11288
911.718	11261
911.833	11181
911.947	11045
912.062	11022
912.176	11147
912.291	11242
912.405	11242
912.519	11414
912.633	11463
912.748	11288
912.862	11166
912.976	11041
913.09	11014
913.204	11067
913.318	11045
913.431	11109
913.545	11159
913.659	11235
913.772	11060
913.886	10915
914	10919
914.113	11045
914.226	11121
914.34	11029
914.453	10877
914.566	10984
914.68	10896
914.793	10858
914.906	10740
915.019	10752
915.132	10634
915.245	10630
915.358	10744
915.47	10714
915.583	10793
915.696	10774
915.809	10862
915.921	10839
916.034	10618
916.146	10637
916.259	10645
916.371	10782
916.483	10771
916.595	10645
916.708	10603
916.82	10710
916.932	10577
917.044	10561
917.156	10558
917.268	10440
917.38	10527
917.491	10459
917.603	10565
917.715	10653
917.826	10603
917.938	10500
918.049	10371
918.161	10637
918.272	10630
918.384	10622
918.495	10417
918.606	10421
918.717	10310
918.828	10451
918.939	10447
919.05	10318
919.161	10322
919.272	10181
919.383	10246
919.494	10481
919.604	10588
919.715	10428
919.826	10272
919.936	10421
920.047	10546
920.157	10440
920.267	10626
920.378	10466
920.488	10344
920.598	10649
920.708	10733
920.818	10630
920.928	10542
921.038	10706
921.148	10763
921.258	10432
921.368	10390
921.477	10287
921.587	10291
921.697	10158
921.806	10265
921.916	10143
922.025	9979
922.134	9892
922.244	9918
922.353	10032
922.462	9895
922.571	9766
922.68	9698
922.789	9614
922.898	9682
923.007	9599
923.116	9675
923.224	9618
923.333	9629
923.442	9572
923.55	9477
923.659	9568
923.767	9572
923.876	9462
923.984	9519
924.092	9469
924.201	9519
924.309	9496
924.417	9511
924.525	9496
924.633	9447
924.741	10459
924.849	9310
924.956	9386
925.064	9332
925.172	9237
925.279	9275
925.387	9382
925.494	9367
925.602	9523
925.709	9340
925.816	9256
925.924	9382
926.031	9397
926.138	9317
926.245	9401
926.352	9241
926.459	9374
926.566	9355
926.673	9283
926.779	9188
926.886	9119
926.993	9039
927.099	9020
927.206	9001
927.312	9020
927.419	9062
927.525	9085
927.631	9047
927.737	8967
927.843	8933
927.95	8823
928.056	8914
928.162	8933
928.267	8895
928.373	9618
928.479	8998
928.585	8785
928.69	8944
928.796	8944
928.901	8785
929.007	8743
929.112	8826
929.218	8880
929.323	8804
929.428	8750
929.533	8937
929.638	8655
929.743	8724
929.848	8785
929.953	8758
930.058	8640
930.163	8514
930.267	8461
930.372	8648
930.477	8518
930.581	8701
930.685	8632
930.79	8381
930.894	8473
930.998	8511
931.103	8552
931.207	8229
931.311	8195
931.415	8058
931.519	7959
931.623	7970
