Data from test_V78500241_1284.txt Node
Date: Fri Mar 25 14:42:39 CST 2022
User: usil
Spectrometer: V785-0024
Trigger mode: 0
Integration Time (sec): 4.000000E-1
Scans to average: 1
Nonlinearity correction enabled: false
Boxcar width: 0
Storing dark spectrum: false
XAxis mode: Wavelengths
Number of Pixels in Spectrum: 1024
>>>>>Begin Spectral Data<<<<<
801.071	22337
801.214	22257
801.356	22002
801.499	21968
801.641	21694
801.783	21732
801.926	21797
802.068	21823
802.211	21561
802.353	21485
802.496	21374
802.638	21241
802.78	21211
802.923	21081
803.065	21032
803.208	21039
803.35	20975
803.492	21036
803.635	21169
803.777	20963
803.919	21142
804.061	21412
804.204	21154
804.346	21020
804.488	21051
804.63	20902
804.773	20826
804.915	20998
805.057	21104
805.199	20891
805.341	21047
805.483	21119
805.626	21058
805.768	21005
805.91	21062
806.052	21001
806.194	20853
806.336	21070
806.478	20929
806.62	20994
806.762	21055
806.904	21237
807.046	21367
807.188	21340
807.33	21260
807.472	21310
807.614	21184
807.756	21325
807.898	21291
808.04	21104
808.182	21188
808.324	21173
808.465	21188
808.607	21272
808.749	21568
808.891	21580
809.033	21709
809.174	21599
809.316	21454
809.458	21466
809.6	21378
809.741	21397
809.883	21515
810.025	21667
810.166	21538
810.308	21462
810.45	21542
810.591	21424
810.733	21336
810.875	21203
811.016	21119
811.158	21051
811.299	21207
811.441	21279
811.582	21329
811.724	21165
811.865	21157
812.007	21051
812.148	21154
812.29	21279
812.431	21230
812.573	21481
812.714	21603
812.855	21679
812.997	21747
813.138	21884
813.279	21842
813.421	21542
813.562	21583
813.703	21397
813.845	21370
813.986	21024
814.127	20845
814.268	20788
814.41	20765
814.551	20739
814.692	20906
814.833	20594
814.974	20655
815.115	20667
815.256	20564
815.397	20560
815.539	20457
815.68	20499
815.821	20370
815.962	20461
816.103	20454
816.244	20142
816.385	20187
816.526	20229
816.666	20119
816.807	19875
816.948	19894
817.089	19997
817.23	19925
817.371	19986
817.512	19856
817.653	19875
817.793	19833
817.934	19951
818.075	19837
818.216	19894
818.356	19849
818.497	19643
818.638	19533
818.778	19594
818.919	19575
819.06	19491
819.2	19677
819.341	19742
819.481	19734
819.622	19811
819.762	19967
819.903	19913
820.043	19944
820.184	19928
820.324	19849
820.465	19982
820.605	19902
820.746	19902
820.886	19677
821.026	19864
821.167	19852
821.307	19986
821.447	19742
821.588	19635
821.728	19514
821.868	19434
822.008	19312
822.149	19171
822.289	19183
822.429	18943
822.569	18878
822.709	18924
822.849	18787
822.99	18760
823.13	18688
823.27	18703
823.41	18544
823.55	18437
823.69	18597
823.83	18475
823.97	18612
824.11	18353
824.25	18361
824.389	18433
824.529	18380
824.669	18296
824.809	18308
824.949	18506
825.089	18437
825.228	18357
825.368	18174
825.508	18182
825.648	18186
825.787	18068
825.927	18228
826.067	18079
826.206	18167
826.346	18228
826.485	18174
826.625	18129
826.765	18285
826.904	18273
827.044	17847
827.183	17878
827.323	17885
827.462	17950
827.601	17885
827.741	17764
827.88	17866
828.02	17748
828.159	17863
828.298	17824
828.437	17832
828.577	17866
828.716	17931
828.855	17775
828.994	17619
829.134	17676
829.273	17562
829.412	17512
829.551	17467
829.69	17604
829.829	17608
829.968	17707
830.107	17680
830.246	17684
830.385	17577
830.524	17535
830.663	17421
830.802	17235
830.941	17212
831.08	17159
831.219	17391
831.357	17235
831.496	17490
831.635	17280
831.774	17132
831.913	17181
832.051	17025
832.19	17075
832.329	17117
832.467	16908
832.606	16953
832.744	16908
832.883	16911
833.022	16949
833.16	17010
833.299	17056
833.437	16946
833.576	16976
833.714	17041
833.852	17056
833.991	16976
834.129	17079
834.267	17056
834.406	16911
834.544	16961
834.682	16923
834.821	16968
834.959	17200
835.097	16957
835.235	17018
835.373	16999
835.511	17003
835.65	16801
835.788	16885
835.926	16736
836.064	16774
836.202	16653
836.34	16900
836.478	16946
836.615	16847
836.753	16885
836.891	17022
837.029	16881
837.167	16835
837.305	16889
837.443	16889
837.58	16744
837.718	16778
837.856	16744
837.993	16748
838.131	16729
838.269	16733
838.406	16649
838.544	16713
838.681	16428
838.819	16360
838.956	16253
839.094	16249
839.231	16398
839.369	16485
839.506	16603
839.643	16478
839.781	16272
839.918	16226
840.055	16257
840.193	16333
840.33	16287
840.467	16303
840.604	16272
840.742	16531
840.879	16230
841.016	16150
841.153	16135
841.29	16409
841.427	16329
841.564	16318
841.701	16341
841.838	16356
841.975	16234
842.112	16303
842.249	16090
842.385	16105
842.522	16226
842.659	16185
842.796	16116
842.933	16139
843.069	15960
843.206	16090
843.343	16265
843.479	16006
843.616	16074
843.752	15865
843.889	15899
844.025	15994
844.162	15861
844.298	16040
844.435	15759
844.571	15869
844.708	15759
844.844	16032
844.98	16013
845.117	16010
845.253	15816
845.389	15781
845.525	15861
845.661	15816
845.798	15781
845.934	15934
846.07	15873
846.206	15956
846.342	15960
846.478	15724
846.614	15492
846.75	15519
846.886	15439
847.022	15462
847.158	15500
847.294	15504
847.429	15454
847.565	15344
847.701	15648
847.837	15169
847.972	15252
848.108	15214
848.244	15256
848.379	15043
848.515	14933
848.65	14971
848.786	15020
848.921	14979
849.057	15058
849.192	15214
849.328	15123
849.463	15161
849.598	14918
849.734	14944
849.869	14895
850.004	14754
850.14	14868
850.275	14830
850.41	14724
850.545	14731
850.68	14731
850.815	14781
850.95	14743
851.085	14876
851.22	14834
851.355	14750
851.49	14739
851.625	14743
851.76	14777
851.895	14712
852.03	14678
852.165	14830
852.299	14861
852.434	14994
852.569	14735
852.703	14796
852.838	14929
852.973	15055
853.107	14845
853.242	14727
853.376	14689
853.511	14667
853.645	14750
853.78	14731
853.914	14682
854.048	14674
854.183	14629
854.317	14705
854.451	14735
854.585	14762
854.72	14552
854.854	14659
854.988	14549
855.122	14632
855.256	14511
855.39	14606
855.524	14750
855.658	14621
855.792	14788
855.926	14762
856.06	14724
856.194	14720
856.327	14602
856.461	14765
856.595	14537
856.729	14598
856.862	14731
856.996	14716
857.13	14762
857.263	14830
857.397	14765
857.53	14594
857.664	14659
857.797	14701
857.931	14769
858.064	14682
858.197	14781
858.331	14720
858.464	14689
858.597	14522
858.731	14712
858.864	14659
858.997	14590
859.13	14613
859.263	14758
859.396	14788
859.529	14587
859.662	14674
859.795	14617
859.928	14693
860.061	14830
860.194	14952
860.327	14735
860.46	14693
860.592	14823
860.725	14906
860.858	14746
860.99	14686
861.123	14659
861.256	14632
861.388	14590
861.521	15332
861.653	14560
861.786	14499
861.918	14419
862.05	14655
862.183	14644
862.315	14659
862.447	14735
862.58	14552
862.712	14465
862.844	14320
862.976	14400
863.108	14488
863.24	14815
863.372	14324
863.504	14442
863.636	14461
863.768	14446
863.9	14457
864.032	14313
864.164	14336
864.296	14499
864.428	14461
864.559	14465
864.691	14568
864.823	14545
864.954	14484
865.086	14530
865.217	14450
865.349	14324
865.48	14328
865.612	14450
865.743	14541
865.875	14492
866.006	14305
866.137	14358
866.269	14446
866.4	14423
866.531	14393
866.662	14332
866.793	14393
866.924	14282
867.055	14461
867.186	14393
867.317	14339
867.448	14377
867.579	14438
867.71	14244
867.841	14336
867.972	14427
868.103	14438
868.233	14351
868.364	14415
868.495	14454
868.625	14663
868.756	14701
868.886	14590
869.017	14724
869.147	14819
869.278	14686
869.408	14735
869.539	14632
869.669	14727
869.799	14674
869.929	14777
870.06	14830
870.19	14960
870.32	14861
870.45	14990
870.58	15066
870.71	15169
870.84	15245
870.97	15013
871.1	15142
871.23	15230
871.36	15317
871.489	15131
871.619	15188
871.749	15192
871.879	15329
872.008	15408
872.138	15260
872.267	15230
872.397	15188
872.526	15039
872.656	14979
872.785	15077
872.915	15287
873.044	15359
873.173	15218
873.303	15256
873.432	15306
873.561	15302
873.69	15321
873.819	15321
873.948	15416
874.077	15332
874.206	15291
874.335	15313
874.464	15519
874.593	15606
874.722	15477
874.851	15663
874.979	15641
875.108	15576
875.237	15603
875.365	15622
875.494	15549
875.623	15720
875.751	15587
875.88	15564
876.008	15686
876.136	15869
876.265	15941
876.393	16211
876.521	16139
876.65	16116
876.778	16097
876.906	16101
877.034	15972
877.162	15915
877.29	15949
877.418	16120
877.546	15968
877.674	16032
877.802	16105
877.93	15987
878.058	16063
878.185	15972
878.313	16025
878.441	16017
878.568	15934
878.696	15975
878.824	16120
878.951	16238
879.079	16284
879.206	16413
879.333	16207
879.461	16207
879.588	16162
879.715	16295
879.842	16470
879.97	16246
880.097	16029
880.224	15857
880.351	15930
880.478	15903
880.605	15846
880.732	15918
880.859	16078
880.986	15865
881.112	15846
881.239	15816
881.366	15663
881.493	15633
881.619	15553
881.746	15610
881.872	15530
881.999	15500
882.125	15504
882.252	15549
882.378	15603
882.505	15728
882.631	15447
882.757	15230
882.883	15386
883.01	15291
883.136	15329
883.262	15260
883.388	15230
883.514	15443
883.64	15450
883.766	15272
883.892	15154
884.018	15184
884.143	15348
884.269	15469
884.395	15127
884.52	14963
884.646	15051
884.772	14956
884.897	14929
885.023	15024
885.148	15199
885.274	15173
885.399	15127
885.524	15024
885.65	15108
885.775	15017
885.9	14960
886.025	15169
886.15	15127
886.275	15013
886.4	14921
886.525	15043
886.65	14990
886.775	15036
886.9	15116
887.025	15298
887.149	15043
887.274	14853
887.399	14872
887.523	14861
887.648	14777
887.773	14754
887.897	14986
888.021	14880
888.146	14842
888.27	14902
888.395	15039
888.519	14914
888.643	14929
888.767	14899
888.891	14857
889.015	14697
889.139	14724
889.263	14663
889.387	14933
889.511	14933
889.635	14838
889.759	14800
889.883	14693
890.006	14659
890.13	14842
890.254	14579
890.377	14708
890.501	14530
890.624	14518
890.748	14552
890.871	14461
890.995	14400
891.118	14358
891.241	14377
891.364	14419
891.488	14514
891.611	14480
891.734	14446
891.857	14465
891.98	14385
892.103	14583
892.226	14396
892.349	14389
892.471	14294
892.594	14396
892.717	14370
892.839	14434
892.962	14408
893.085	14552
893.207	14324
893.33	14313
893.452	14351
893.575	14389
893.697	14339
893.819	14537
893.941	14670
894.064	14560
894.186	14400
894.308	14389
894.43	14511
894.552	14682
894.674	14514
894.796	14324
894.918	14408
895.04	14446
895.161	14579
895.283	14495
895.405	14419
895.526	14473
895.648	14568
895.769	14613
895.891	14594
896.012	14648
896.134	14648
896.255	14552
896.376	14457
896.498	14568
896.619	14503
896.74	14537
896.861	14735
896.982	14830
897.103	14986
897.224	14883
897.345	14910
897.466	14773
897.587	14845
897.708	14929
897.828	14834
897.949	14762
898.07	14788
898.19	14788
898.311	14914
898.431	14929
898.552	14887
898.672	14868
898.792	14902
898.913	14921
899.033	14853
899.153	14811
899.273	14667
899.393	14743
899.513	14743
899.633	14739
899.753	14758
899.873	14769
899.993	14785
900.113	14731
900.232	14800
900.352	14674
900.472	14701
900.591	14598
900.711	14632
900.83	14545
900.95	14701
901.069	14682
901.189	14533
901.308	14339
901.427	14240
901.546	14309
901.665	14400
901.784	14362
901.904	14206
902.023	14062
902.141	13868
902.26	13913
902.379	13928
902.498	13814
902.617	13849
902.735	13875
902.854	13818
902.973	13811
903.091	13582
903.21	13582
903.328	13594
903.446	13434
903.565	13449
903.683	13453
903.801	13293
903.919	13449
904.038	13407
904.156	13297
904.274	13308
904.392	13187
904.51	13228
904.627	13240
904.745	13168
904.863	13251
904.981	13110
905.098	12985
905.216	12989
905.334	13012
905.451	12993
905.569	12875
905.686	12913
905.803	12901
905.921	12707
906.038	12814
906.155	12764
906.272	12654
906.389	12677
906.506	12486
906.623	12456
906.74	12525
906.857	12323
906.974	12372
907.091	12582
907.208	12669
907.324	12506
907.441	12494
907.557	12304
907.674	12277
907.79	12197
907.907	12197
908.023	12292
908.139	12300
908.256	12186
908.372	12175
908.488	12133
908.604	12030
908.72	12026
908.836	11999
908.952	11950
909.068	12110
909.184	12159
909.3	12011
909.415	12102
909.531	12038
909.647	11843
909.762	11726
909.878	11756
909.993	11790
910.108	11783
910.224	11737
910.339	11726
910.454	11638
910.57	11615
910.685	11611
910.8	11798
910.915	11783
911.03	11695
911.145	11497
911.259	11528
911.374	11429
911.489	11383
911.604	11280
911.718	11349
911.833	11201
911.947	11090
912.062	11117
912.176	11193
912.291	11208
912.405	11189
912.519	11414
912.633	11425
912.748	11239
912.862	11181
912.976	11098
913.09	10999
913.204	11025
913.318	11147
913.431	11204
913.545	11159
913.659	11296
913.772	11071
913.886	11010
914	10968
914.113	11090
914.226	11083
914.34	11060
914.453	10934
914.566	11010
914.68	10949
914.793	10919
914.906	10694
915.019	10645
915.132	10672
915.245	10668
915.358	10755
915.47	10714
915.583	10706
915.696	10767
915.809	10812
915.921	10881
916.034	10721
916.146	10622
916.259	10683
916.371	10755
916.483	10706
916.595	10641
916.708	10675
916.82	10653
916.932	10561
917.044	10603
917.156	10565
917.268	10478
917.38	10527
917.491	10481
917.603	10592
917.715	10660
917.826	10702
917.938	10535
918.049	10390
918.161	10569
918.272	10653
918.384	10763
918.495	10592
918.606	10440
918.717	10371
918.828	10382
918.939	10413
919.05	10287
919.161	10436
919.272	10128
919.383	10227
919.494	10512
919.604	10687
919.715	10493
919.826	10322
919.936	10382
920.047	10489
920.157	10474
920.267	10577
920.378	10519
920.488	10394
920.598	10527
920.708	10740
920.818	10641
920.928	10607
921.038	10862
921.148	10771
921.258	10447
921.368	10325
921.477	10310
921.587	10329
921.697	10124
921.806	10310
921.916	10230
922.025	10032
922.134	9975
922.244	10017
922.353	10040
922.462	9861
922.571	9835
922.68	9789
922.789	9629
922.898	9682
923.007	9587
923.116	9641
923.224	9679
923.333	9690
923.442	9568
923.55	9507
923.659	9542
923.767	9599
923.876	9481
923.984	9580
924.092	9408
924.201	9584
924.309	9523
924.417	9530
924.525	9458
924.633	9424
924.741	10344
924.849	9283
924.956	9367
925.064	9355
925.172	9169
925.279	9268
925.387	9363
925.494	9329
925.602	9439
925.709	9340
925.816	9253
925.924	9256
926.031	9424
926.138	9325
926.245	9370
926.352	9207
926.459	9302
926.566	9367
926.673	9256
926.779	9180
926.886	9207
926.993	9055
927.099	9036
927.206	8963
927.312	9001
927.419	9119
927.525	9017
927.631	9039
927.737	8948
927.843	8872
927.95	8807
928.056	8868
928.162	8868
928.267	8998
928.373	9469
928.479	8933
928.585	8773
928.69	8895
928.796	8948
928.901	8807
929.007	8686
929.112	8857
929.218	8731
929.323	8735
929.428	8727
929.533	8811
929.638	8644
929.743	8682
929.848	8788
929.953	8720
930.058	8621
930.163	8469
930.267	8488
930.372	8571
930.477	8389
930.581	8613
930.685	8575
930.79	8389
930.894	8419
930.998	8396
931.103	8579
931.207	8191
931.311	8180
931.415	8161
931.519	7921
931.623	7902
