Data from test_V78500241_234.txt Node
Date: Fri Mar 25 14:35:21 CST 2022
User: usil
Spectrometer: V785-0024
Trigger mode: 0
Integration Time (sec): 4.000000E-1
Scans to average: 1
Nonlinearity correction enabled: false
Boxcar width: 0
Storing dark spectrum: false
XAxis mode: Wavelengths
Number of Pixels in Spectrum: 1024
>>>>>Begin Spectral Data<<<<<
801.071	27686
801.214	27515
801.356	27534
801.499	27157
801.641	27119
801.783	26990
801.926	27096
802.068	27074
802.211	26857
802.353	26914
802.496	26724
802.638	26636
802.78	26739
802.923	26629
803.065	26503
803.208	26549
803.35	26663
803.492	26613
803.635	26674
803.777	26564
803.919	26541
804.061	26925
804.204	26644
804.346	26609
804.488	26495
804.63	26606
804.773	26571
804.915	26625
805.057	26701
805.199	26469
805.341	26625
805.483	26693
805.626	26724
805.768	26514
805.91	26705
806.052	26545
806.194	26659
806.336	26762
806.478	26834
806.62	26663
806.762	26765
806.904	26891
807.046	27058
807.188	26990
807.33	26899
807.472	27207
807.614	27100
807.756	27142
807.898	26823
808.04	26815
808.182	27036
808.324	27108
808.465	26956
808.607	27230
808.749	27340
808.891	27557
809.033	27545
809.174	27469
809.316	27359
809.458	27370
809.6	27256
809.741	27184
809.883	27165
810.025	27553
810.166	27287
810.308	27351
810.45	27275
810.591	27252
810.733	27180
810.875	27039
811.016	27005
811.158	27024
811.299	27150
811.441	27043
811.582	27085
811.724	26933
811.865	26906
812.007	27066
812.148	26960
812.29	27005
812.431	27176
812.573	27344
812.714	27405
812.855	27477
812.997	27523
813.138	27800
813.279	27538
813.421	27545
813.562	27507
813.703	27332
813.845	27211
813.986	26861
814.127	26731
814.268	26571
814.41	26686
814.551	26552
814.692	26640
814.833	26461
814.974	26583
815.115	26568
815.256	26499
815.397	26457
815.539	26263
815.68	26263
815.821	26298
815.962	26298
816.103	26339
816.244	26259
816.385	26115
816.526	25936
816.666	25864
816.807	25712
816.948	25677
817.089	25776
817.23	25814
817.371	25769
817.512	25685
817.653	25734
817.793	25518
817.934	25582
818.075	25677
818.216	25590
818.356	25540
818.497	25502
818.638	25384
818.778	25495
818.919	25388
819.06	25544
819.2	25601
819.341	25616
819.481	25479
819.622	25727
819.762	25917
819.903	25860
820.043	25693
820.184	25578
820.324	25658
820.465	25632
820.605	25753
820.746	25685
820.886	25407
821.026	25601
821.167	25468
821.307	25658
821.447	25483
821.588	25365
821.728	25266
821.868	25255
822.008	25008
822.149	25076
822.289	24947
822.429	24734
822.569	24757
822.709	24681
822.849	24467
822.99	24475
823.13	24346
823.27	24327
823.41	24323
823.55	24216
823.69	24296
823.83	24251
823.97	24197
824.11	24034
824.25	24030
824.389	24087
824.529	24011
824.669	23999
824.809	24194
824.949	24167
825.089	24079
825.228	24045
825.368	23885
825.508	23824
825.648	23859
825.787	23771
825.927	23847
826.067	23707
826.206	23809
826.346	23893
826.485	23942
826.625	23889
826.765	24015
826.904	23802
827.044	23562
827.183	23577
827.323	23501
827.462	23543
827.601	23490
827.741	23452
827.88	23528
828.02	23429
828.159	23334
828.298	23512
828.437	23493
828.577	23417
828.716	23558
828.855	23311
828.994	23235
829.134	23284
829.273	23330
829.412	23128
829.551	23181
829.69	23212
829.829	23151
829.968	23193
830.107	23273
830.246	23121
830.385	23033
830.524	23033
830.663	22885
830.802	22934
830.941	22710
831.08	22755
831.219	22713
831.357	22858
831.496	22961
831.635	22736
831.774	22626
831.913	22550
832.051	22592
832.19	22569
832.329	22413
832.467	22462
832.606	22379
832.744	22325
832.883	22272
833.022	22337
833.16	22432
833.299	22390
833.437	22512
833.576	22390
833.714	22428
833.852	22398
833.991	22470
834.129	22485
834.267	22615
834.406	22432
834.544	22287
834.682	22417
834.821	22352
834.959	22531
835.097	22356
835.235	22348
835.373	22356
835.511	22272
835.65	22139
835.788	22249
835.926	22192
836.064	22082
836.202	22044
836.34	22291
836.478	22306
836.615	22207
836.753	22196
836.891	22246
837.029	22177
837.167	22128
837.305	22166
837.443	22154
837.58	21960
837.718	22120
837.856	22128
837.993	21994
838.131	21812
838.269	21937
838.406	21934
838.544	21838
838.681	21781
838.819	21618
838.956	21564
839.094	21583
839.231	21542
839.369	21660
839.506	21880
839.643	21698
839.781	21542
839.918	21344
840.055	21408
840.193	21363
840.33	21367
840.467	21367
840.604	21542
840.742	21591
840.879	21355
841.016	21218
841.153	21268
841.29	21526
841.427	21340
841.564	21401
841.701	21370
841.838	21260
841.975	21199
842.112	21169
842.249	21226
842.385	21142
842.522	21226
842.659	21135
842.796	21032
842.933	21077
843.069	21104
843.206	21028
843.343	21096
843.479	21135
843.616	21047
843.752	20830
843.889	20804
844.025	20956
844.162	20880
844.298	20876
844.435	20826
844.571	20834
844.708	20902
844.844	20963
844.98	20933
845.117	20963
845.253	20918
845.389	20773
845.525	20944
845.661	20971
845.798	20944
845.934	20914
846.07	21005
846.206	20994
846.342	21089
846.478	20727
846.614	20511
846.75	20339
846.886	20358
847.022	20530
847.158	20381
847.294	20427
847.429	20301
847.565	20058
847.701	20507
847.837	20062
847.972	20077
848.108	20077
848.244	20092
848.379	19879
848.515	19818
848.65	19757
848.786	19951
848.921	19841
849.057	19852
849.192	19928
849.328	19856
849.463	19696
849.598	19807
849.734	19715
849.869	19738
850.004	19651
850.14	19635
850.275	19483
850.41	19499
850.545	19411
850.68	19609
850.815	19677
850.95	19506
851.085	19635
851.22	19731
851.355	19624
851.49	19468
851.625	19483
851.76	19578
851.895	19324
852.03	19445
852.165	19563
852.299	19639
852.434	19578
852.569	19502
852.703	19521
852.838	19670
852.973	19639
853.107	19765
853.242	19472
853.376	19453
853.511	19129
853.645	19316
853.78	19559
853.914	19373
854.048	19320
854.183	19388
854.317	19403
854.451	19499
854.585	19384
854.72	19316
854.854	19415
854.988	19225
855.122	19358
855.256	19171
855.39	19339
855.524	19438
855.658	19388
855.792	19343
855.926	19407
856.06	19438
856.194	19411
856.327	19400
856.461	19324
856.595	19388
856.729	19301
856.862	19468
856.996	19377
857.13	19483
857.263	19422
857.397	19434
857.53	19301
857.664	19480
857.797	19400
857.931	19449
858.064	19304
858.197	19369
858.331	19381
858.464	19282
858.597	19145
858.731	19304
858.864	19308
858.997	19274
859.13	19278
859.263	19251
859.396	19419
859.529	19324
859.662	19297
859.795	19228
859.928	19392
860.061	19480
860.194	19407
860.327	19274
860.46	19301
860.592	19343
860.725	19491
860.858	19407
860.99	19339
861.123	19179
861.256	19202
861.388	19232
861.521	19761
861.653	19183
861.786	18970
861.918	19236
862.05	19289
862.183	19194
862.315	19304
862.447	19392
862.58	19255
862.712	19046
862.844	19027
862.976	19084
863.108	19038
863.24	19419
863.372	18932
863.504	19110
863.636	19141
863.768	19080
863.9	19000
864.032	18848
864.164	18970
864.296	19053
864.428	19042
864.559	19042
864.691	18947
864.823	19027
864.954	18932
865.086	19065
865.217	18947
865.349	18901
865.48	19008
865.612	18833
865.743	19133
865.875	18962
866.006	18932
866.137	18871
866.269	18989
866.4	18905
866.531	18856
866.662	18875
866.793	18779
866.924	18821
867.055	18985
867.186	18943
867.317	18760
867.448	18848
867.579	18787
867.71	18768
867.841	18715
867.972	18920
868.103	18814
868.233	18920
868.364	18878
868.495	18856
868.625	18901
868.756	19080
868.886	19019
869.017	19031
869.147	19126
869.278	19194
869.408	19076
869.539	19110
869.669	19148
869.799	19122
869.929	19225
870.06	19164
870.19	19369
870.32	19384
870.45	19343
870.58	19407
870.71	19586
870.84	19552
870.97	19411
871.1	19400
871.23	19655
871.36	19666
871.489	19582
871.619	19559
871.749	19658
871.879	19700
872.008	19784
872.138	19715
872.267	19734
872.397	19696
872.526	19483
872.656	19434
872.785	19422
872.915	19639
873.044	19803
873.173	19708
873.303	19685
873.432	19864
873.561	19875
873.69	19731
873.819	19750
873.948	19696
874.077	19803
874.206	19639
874.335	19719
874.464	19826
874.593	19890
874.722	19989
874.851	19970
874.979	20145
875.108	20092
875.237	19940
875.365	19769
875.494	19925
875.623	19982
875.751	19894
875.88	19913
876.008	20145
876.136	20115
876.265	20374
876.393	20518
876.521	20495
876.65	20499
876.778	20419
876.906	20275
877.034	20320
877.162	20358
877.29	20218
877.418	20408
877.546	20351
877.674	20309
877.802	20332
877.93	20419
878.058	20309
878.185	20248
878.313	20328
878.441	20362
878.568	20286
878.696	20343
878.824	20427
878.951	20514
879.079	20575
879.206	20819
879.333	20670
879.461	20609
879.588	20667
879.715	20777
879.842	20868
879.97	20602
880.097	20362
880.224	20256
880.351	20214
880.478	20256
880.605	20271
880.732	20248
880.859	20404
880.986	20271
881.112	20282
881.239	20164
881.366	19909
881.493	19807
881.619	19734
881.746	19860
881.872	19849
881.999	19765
882.125	19818
882.252	19822
882.378	19864
882.505	19951
882.631	19750
882.757	19715
882.883	19624
883.01	19544
883.136	19628
883.262	19400
883.388	19453
883.514	19597
883.64	19693
883.766	19533
883.892	19384
884.018	19403
884.143	19715
884.269	19647
884.395	19422
884.52	19270
884.646	19339
884.772	19133
884.897	19202
885.023	19278
885.148	19369
885.274	19343
885.399	19464
885.524	19297
885.65	19240
885.775	19171
885.9	19278
886.025	19274
886.15	19335
886.275	19198
886.4	19194
886.525	19194
886.65	19217
886.775	19171
886.9	19312
887.025	19476
887.149	19187
887.274	19061
887.399	19008
887.523	19004
887.648	18947
887.773	18916
887.897	19061
888.021	18977
888.146	18863
888.27	19050
888.395	19110
888.519	19053
888.643	19023
888.767	19004
888.891	18802
889.015	18753
889.139	18890
889.263	18722
889.387	18856
889.511	19057
889.635	18951
889.759	18779
889.883	18764
890.006	18673
890.13	18825
890.254	18684
890.377	18738
890.501	18574
890.624	18559
890.748	18544
890.871	18414
890.995	18296
891.118	18296
891.241	18365
891.364	18346
891.488	18563
891.611	18342
891.734	18399
891.857	18399
891.98	18399
892.103	18429
892.226	18311
892.349	18346
892.471	18330
892.594	18350
892.717	18334
892.839	18258
892.962	18346
893.085	18407
893.207	18311
893.33	18334
893.452	18243
893.575	18323
893.697	18338
893.819	18437
893.941	18559
894.064	18467
894.186	18194
894.308	18228
894.43	18464
894.552	18414
894.674	18330
894.796	18213
894.918	18410
895.04	18357
895.161	18353
895.283	18285
895.405	18323
895.526	18376
895.648	18270
895.769	18209
895.891	18247
896.012	18464
896.134	18395
896.255	18426
896.376	18372
896.498	18376
896.619	18369
896.74	18448
896.861	18426
896.982	18783
897.103	18890
897.224	18783
897.345	18559
897.466	18677
897.587	18593
897.708	18783
897.828	18715
897.949	18585
898.07	18437
898.19	18574
898.311	18681
898.431	18490
898.552	18521
898.672	18665
898.792	18612
898.913	18639
899.033	18540
899.153	18365
899.273	18281
899.393	18296
899.513	18433
899.633	18292
899.753	18311
899.873	18422
899.993	18315
900.113	18323
900.232	18334
900.352	18174
900.472	18308
900.591	18079
900.711	18209
900.83	18057
900.95	18262
901.069	18224
901.189	18079
901.308	17889
901.427	17813
901.546	17786
901.665	17901
901.784	17874
901.904	17691
902.023	17657
902.141	17383
902.26	17337
902.379	17345
902.498	17425
902.617	17193
902.735	17250
902.854	17284
902.973	17147
903.091	16980
903.21	16965
903.328	16968
903.446	16908
903.565	16892
903.683	16721
903.801	16664
903.919	16710
904.038	16805
904.156	16660
904.274	16790
904.392	16542
904.51	16558
904.627	16527
904.745	16592
904.863	16656
904.981	16314
905.098	16188
905.216	16185
905.334	16253
905.451	16207
905.569	16185
905.686	16337
905.803	16196
905.921	16063
906.038	16124
906.155	15991
906.272	15892
906.389	15937
906.506	15766
906.623	15804
906.74	15736
906.857	15603
906.974	15633
907.091	15808
907.208	15922
907.324	15785
907.441	15610
907.557	15485
907.674	15428
907.79	15447
907.907	15363
908.023	15473
908.139	15431
908.256	15344
908.372	15294
908.488	15283
908.604	15230
908.72	15169
908.836	15154
908.952	15100
909.068	15085
909.184	15233
909.3	15150
909.415	15157
909.531	15104
909.647	14956
909.762	14960
909.878	14914
909.993	14864
910.108	14823
910.224	14807
910.339	14899
910.454	14800
910.57	14674
910.685	14617
910.8	14914
910.915	14781
911.03	14651
911.145	14522
911.259	14488
911.374	14442
911.489	14324
911.604	14370
911.718	14290
911.833	14290
911.947	14161
912.062	14069
912.176	14210
912.291	14168
912.405	14240
912.519	14412
912.633	14404
912.748	14240
912.862	14115
912.976	14054
913.09	14039
913.204	13947
913.318	14065
913.431	14088
913.545	14096
913.659	14107
913.772	13970
913.886	13898
914	13894
914.113	13997
914.226	13997
914.34	13871
914.453	13826
914.566	13944
914.68	13761
914.793	13757
914.906	13624
915.019	13540
915.132	13483
915.245	13594
915.358	13624
915.47	13540
915.583	13567
915.696	13499
915.809	13609
915.921	13655
916.034	13476
916.146	13373
916.259	13419
916.371	13567
916.483	13510
916.595	13331
916.708	13384
916.82	13415
916.932	13441
917.044	13327
917.156	13263
917.268	13156
917.38	13251
917.491	13289
917.603	13236
917.715	13297
917.826	13278
917.938	13175
918.049	13160
918.161	13221
918.272	13339
918.384	13350
918.495	13156
918.606	13126
918.717	12970
918.828	12977
918.939	13088
919.05	12913
919.161	12993
919.272	12772
919.383	12810
919.494	13050
919.604	13274
919.715	12882
919.826	12859
919.936	12943
920.047	13072
920.157	12867
920.267	13156
920.378	13042
920.488	12962
920.598	13221
920.708	13206
920.818	13160
920.928	13164
921.038	13285
921.148	13209
921.258	13004
921.368	12825
921.477	12753
921.587	12795
921.697	12555
921.806	12741
921.916	12612
922.025	12456
922.134	12395
922.244	12399
922.353	12407
922.462	12194
922.571	12205
922.68	12140
922.789	12045
922.898	12026
923.007	11942
923.116	12083
923.224	12053
923.333	12030
923.442	11923
923.55	11828
923.659	11939
923.767	11935
923.876	11882
923.984	11965
924.092	11764
924.201	11870
924.309	11771
924.417	11843
924.525	11775
924.633	11783
924.741	12662
924.849	11684
924.956	11767
925.064	11604
925.172	11429
925.279	11539
925.387	11668
925.494	11573
925.602	11653
925.709	11646
925.816	11474
925.924	11524
926.031	11577
926.138	11577
926.245	11486
926.352	11455
926.459	11532
926.566	11611
926.673	11387
926.779	11379
926.886	11387
926.993	11201
927.099	11174
927.206	11147
927.312	11128
927.419	11151
927.525	11181
927.631	11151
927.737	11025
927.843	10995
927.95	10949
928.056	10980
928.162	11025
928.267	11056
928.373	11554
928.479	11124
928.585	10885
928.69	10972
928.796	11029
928.901	10976
929.007	10733
929.112	10930
929.218	10866
929.323	10820
929.428	10767
929.533	10889
929.638	10634
929.743	10706
929.848	10763
929.953	10683
930.058	10634
930.163	10565
930.267	10577
930.372	10626
930.477	10390
930.581	10672
930.685	10561
930.79	10424
930.894	10421
930.998	10303
931.103	10470
931.207	10120
931.311	10109
931.415	10017
931.519	9781
931.623	9743
