Data from test_V78500241_2749.txt Node
Date: Fri Mar 25 14:52:51 CST 2022
User: usil
Spectrometer: V785-0024
Trigger mode: 0
Integration Time (sec): 4.000000E-1
Scans to average: 1
Nonlinearity correction enabled: false
Boxcar width: 0
Storing dark spectrum: false
XAxis mode: Wavelengths
Number of Pixels in Spectrum: 1024
>>>>>Begin Spectral Data<<<<<
801.071	21972
801.214	21861
801.356	21663
801.499	21496
801.641	21485
801.783	21412
801.926	21443
802.068	21317
802.211	21272
802.353	21192
802.496	21020
802.638	20986
802.78	20796
802.923	20731
803.065	20541
803.208	20727
803.35	20674
803.492	20819
803.635	20819
803.777	20667
803.919	20785
804.061	21058
804.204	20807
804.346	20648
804.488	20590
804.63	20670
804.773	20575
804.915	20514
805.057	20758
805.199	20636
805.341	20667
805.483	20815
805.626	20727
805.768	20598
805.91	20663
806.052	20720
806.194	20514
806.336	20785
806.478	20568
806.62	20598
806.762	20712
806.904	20735
807.046	21074
807.188	20857
807.33	20990
807.472	20990
807.614	20815
807.756	20830
807.898	20701
808.04	20689
808.182	20575
808.324	20758
808.465	20598
808.607	20933
808.749	20998
808.891	21066
809.033	21112
809.174	21169
809.316	21036
809.458	21039
809.6	20910
809.741	21028
809.883	21142
810.025	21161
810.166	21127
810.308	21104
810.45	21207
810.591	20979
810.733	20902
810.875	20804
811.016	20693
811.158	20625
811.299	20918
811.441	20872
811.582	20891
811.724	20667
811.865	20731
812.007	20693
812.148	20857
812.29	20678
812.431	20925
812.573	21013
812.714	21173
812.855	21283
812.997	21405
813.138	21393
813.279	21332
813.421	21325
813.562	21321
813.703	21043
813.845	20823
813.986	20613
814.127	20446
814.268	20301
814.41	20332
814.551	20237
814.692	20328
814.833	20278
814.974	20381
815.115	20305
815.256	20252
815.397	20111
815.539	20081
815.68	19989
815.821	19982
815.962	20016
816.103	19849
816.244	19887
816.385	19799
816.526	19746
816.666	19594
816.807	19403
816.948	19483
817.089	19521
817.23	19491
817.371	19502
817.512	19362
817.653	19415
817.793	19415
817.934	19415
818.075	19445
818.216	19377
818.356	19377
818.497	19426
818.638	19057
818.778	19202
818.919	19065
819.06	18996
819.2	19247
819.341	19247
819.481	19282
819.622	19499
819.762	19685
819.903	19575
820.043	19578
820.184	19559
820.324	19358
820.465	19521
820.605	19438
820.746	19377
820.886	19240
821.026	19434
821.167	19354
821.307	19510
821.447	19358
821.588	19240
821.728	19099
821.868	18977
822.008	18817
822.149	18878
822.289	18730
822.429	18563
822.569	18551
822.709	18608
822.849	18513
822.99	18414
823.13	18357
823.27	18281
823.41	18144
823.55	18087
823.69	18102
823.83	18159
823.97	18019
824.11	17942
824.25	17931
824.389	17874
824.529	17870
824.669	18011
824.809	17954
824.949	17927
825.089	17988
825.228	17843
825.368	17703
825.508	17699
825.648	17802
825.787	17691
825.927	17695
826.067	17539
826.206	17562
826.346	17756
826.485	17786
826.625	17703
826.765	17794
826.904	17707
827.044	17509
827.183	17474
827.323	17368
827.462	17459
827.601	17360
827.741	17299
827.88	17459
828.02	17307
828.159	17330
828.298	17307
828.437	17436
828.577	17288
828.716	17554
828.855	17273
828.994	17014
829.134	17147
829.273	17124
829.412	17140
829.551	17029
829.69	17056
829.829	17117
829.968	17318
830.107	17189
830.246	17223
830.385	17109
830.524	17075
830.663	16896
830.802	16774
830.941	16755
831.08	16733
831.219	16816
831.357	16828
831.496	16987
831.635	16637
831.774	16744
831.913	16580
832.051	16474
832.19	16519
832.329	16592
832.467	16512
832.606	16405
832.744	16508
832.883	16432
833.022	16314
833.16	16417
833.299	16432
833.437	16485
833.576	16512
833.714	16554
833.852	16561
833.991	16459
834.129	16580
834.267	16664
834.406	16519
834.544	16542
834.682	16565
834.821	16455
834.959	16645
835.097	16531
835.235	16584
835.373	16565
835.511	16527
835.65	16360
835.788	16440
835.926	16242
836.064	16249
836.202	16185
836.34	16512
836.478	16413
836.615	16382
836.753	16421
836.891	16455
837.029	16436
837.167	16291
837.305	16394
837.443	16291
837.58	16207
837.718	16436
837.856	16242
837.993	16128
838.131	16284
838.269	16150
838.406	16185
838.544	16101
838.681	16059
838.819	15968
838.956	15850
839.094	15793
839.231	15911
839.369	15998
839.506	16147
839.643	16109
839.781	15835
839.918	15797
840.055	15865
840.193	15808
840.33	15819
840.467	15736
840.604	15884
840.742	16048
840.879	15728
841.016	15751
841.153	15808
841.29	15903
841.427	15804
841.564	15857
841.701	15854
841.838	15720
841.975	15751
842.112	15857
842.249	15587
842.385	15591
842.522	15717
842.659	15622
842.796	15587
842.933	15564
843.069	15534
843.206	15549
843.343	15766
843.479	15542
843.616	15599
843.752	15530
843.889	15264
844.025	15641
844.162	15416
844.298	15507
844.435	15359
844.571	15329
844.708	15504
844.844	15557
844.98	15492
845.117	15488
845.253	15382
845.389	15435
845.525	15332
845.661	15397
845.798	15138
845.934	15173
846.07	15138
846.206	15218
846.342	15389
846.478	15119
846.614	15032
846.75	14937
846.886	15032
847.022	15108
847.158	14906
847.294	15043
847.429	14975
847.565	14952
847.701	15214
847.837	14739
847.972	14667
848.108	14861
848.244	14773
848.379	14575
848.515	14549
848.65	14587
848.786	14514
848.921	14518
849.057	14670
849.192	14579
849.328	14575
849.463	14625
849.598	14503
849.734	14511
849.869	14461
850.004	14313
850.14	14412
850.275	14351
850.41	14324
850.545	14385
850.68	14343
850.815	14259
850.95	14275
851.085	14583
851.22	14370
851.355	14332
851.49	14298
851.625	14301
851.76	14282
851.895	14275
852.03	14142
852.165	14290
852.299	14351
852.434	14396
852.569	14339
852.703	14328
852.838	14434
852.973	14446
853.107	14473
853.242	14374
853.376	14233
853.511	14084
853.645	14263
853.78	14256
853.914	14221
854.048	14168
854.183	14100
854.317	14191
854.451	14317
854.585	14199
854.72	14202
854.854	14286
854.988	14164
855.122	14187
855.256	14081
855.39	14062
855.524	14286
855.658	14313
855.792	14278
855.926	14221
856.06	14336
856.194	14324
856.327	14191
856.461	14183
856.595	14252
856.729	14218
856.862	14366
856.996	14229
857.13	14195
857.263	14400
857.397	14320
857.53	14176
857.664	14199
857.797	14252
857.931	14313
858.064	14183
858.197	14332
858.331	14172
858.464	14225
858.597	14103
858.731	14187
858.864	14187
858.997	14111
859.13	14191
859.263	14248
859.396	14290
859.529	14183
859.662	14153
859.795	14161
859.928	14259
860.061	14438
860.194	14358
860.327	14263
860.46	14142
860.592	14381
860.725	14218
860.858	14271
860.99	14339
861.123	14096
861.256	14259
861.388	14176
861.521	14918
861.653	14073
861.786	14020
861.918	14058
862.05	14115
862.183	14218
862.315	14195
862.447	14199
862.58	14145
862.712	14020
862.844	13913
862.976	14008
863.108	13989
863.24	14415
863.372	13944
863.504	13959
863.636	14031
863.768	14008
863.9	14077
864.032	13986
864.164	13928
864.296	13944
864.428	14134
864.559	14088
864.691	13997
864.823	14077
864.954	14012
865.086	14031
865.217	14001
865.349	13875
865.48	13936
865.612	13894
865.743	14187
865.875	13974
866.006	13955
866.137	13970
866.269	13894
866.4	13921
866.531	13986
866.662	13864
866.793	13986
866.924	13936
867.055	13944
867.186	13940
867.317	13940
867.448	13932
867.579	13909
867.71	13909
867.841	13928
867.972	13967
868.103	14031
868.233	14012
868.364	13982
868.495	14062
868.625	14214
868.756	14263
868.886	14107
869.017	14168
869.147	14278
869.278	14343
869.408	14237
869.539	14214
869.669	14256
869.799	14263
869.929	14286
870.06	14301
870.19	14488
870.32	14499
870.45	14488
870.58	14598
870.71	14762
870.84	14708
870.97	14632
871.1	14587
871.23	14750
871.36	14750
871.489	14739
871.619	14777
871.749	14910
871.879	14918
872.008	14883
872.138	14826
872.267	14807
872.397	14724
872.526	14693
872.656	14587
872.785	14655
872.915	14906
873.044	14906
873.173	14830
873.303	14914
873.432	14956
873.561	14948
873.69	14902
873.819	14887
873.948	14952
874.077	14872
874.206	14868
874.335	14891
874.464	15047
874.593	15150
874.722	15089
874.851	15230
874.979	15188
875.108	15283
875.237	15093
875.365	15077
875.494	15146
875.623	15260
875.751	15184
875.88	15264
876.008	15325
876.136	15397
876.265	15561
876.393	15694
876.521	15713
876.65	15622
876.778	15667
876.906	15542
877.034	15568
877.162	15667
877.29	15477
877.418	15534
877.546	15576
877.674	15686
877.802	15656
877.93	15705
878.058	15507
878.185	15424
878.313	15603
878.441	15500
878.568	15405
878.696	15466
878.824	15526
878.951	15637
879.079	15717
879.206	15968
879.333	15770
879.461	15614
879.588	15641
879.715	15770
879.842	15884
879.97	15682
880.097	15412
880.224	15481
880.351	15481
880.478	15386
880.605	15420
880.732	15553
880.859	15728
880.986	15454
881.112	15515
881.239	15401
881.366	15329
881.493	15150
881.619	15146
881.746	15157
881.872	15161
881.999	15039
882.125	15097
882.252	15233
882.378	15135
882.505	15176
882.631	15104
882.757	15039
882.883	14975
883.01	14948
883.136	14880
883.262	14792
883.388	14773
883.514	14967
883.64	14944
883.766	14925
883.892	14838
884.018	14804
884.143	14933
884.269	15047
884.395	14644
884.52	14663
884.646	14667
884.772	14530
884.897	14492
885.023	14602
885.148	14724
885.274	14849
885.399	14826
885.524	14667
885.65	14670
885.775	14727
885.9	14621
886.025	14773
886.15	14678
886.275	14575
886.4	14587
886.525	14621
886.65	14568
886.775	14606
886.9	14777
887.025	14941
887.149	14629
887.274	14594
887.399	14431
887.523	14533
887.648	14415
887.773	14199
887.897	14469
888.021	14484
888.146	14412
888.27	14598
888.395	14625
888.519	14598
888.643	14522
888.767	14560
888.891	14434
889.015	14412
889.139	14339
889.263	14298
889.387	14423
889.511	14549
889.635	14461
889.759	14317
889.883	14305
890.006	14438
890.13	14442
890.254	14225
890.377	14210
890.501	14024
890.624	14172
890.748	14210
890.871	14001
890.995	14054
891.118	13875
891.241	14046
891.364	14012
891.488	14123
891.611	14027
891.734	14088
891.857	14191
891.98	14046
892.103	14183
892.226	14043
892.349	14103
892.471	13932
892.594	14012
892.717	14062
892.839	13951
892.962	14020
893.085	14062
893.207	14077
893.33	13974
893.452	13967
893.575	14054
893.697	13978
893.819	14221
893.941	14256
894.064	14259
894.186	14065
894.308	14031
894.43	14183
894.552	14256
894.674	14157
894.796	14039
894.918	14069
895.04	14039
895.161	14187
895.283	14145
895.405	14115
895.526	14096
895.648	14145
895.769	14221
895.891	14244
896.012	14225
896.134	14229
896.255	14191
896.376	14195
896.498	14180
896.619	14187
896.74	14199
896.861	14358
896.982	14594
897.103	14762
897.224	14431
897.345	14518
897.466	14469
897.587	14476
897.708	14564
897.828	14530
897.949	14423
898.07	14412
898.19	14545
898.311	14556
898.431	14492
898.552	14522
898.672	14648
898.792	14617
898.913	14613
899.033	14590
899.153	14377
899.273	14214
899.393	14298
899.513	14457
899.633	14370
899.753	14438
899.873	14389
899.993	14488
900.113	14396
900.232	14571
900.352	14324
900.472	14332
900.591	14214
900.711	14317
900.83	14210
900.95	14381
901.069	14347
901.189	14168
901.308	13925
901.427	13955
901.546	14024
901.665	13940
901.784	13883
901.904	13784
902.023	13662
902.141	13597
902.26	13578
902.379	13636
902.498	13506
902.617	13422
902.735	13567
902.854	13457
902.973	13464
903.091	13259
903.21	13221
903.328	13297
903.446	13179
903.565	13103
903.683	13152
903.801	13031
903.919	13015
904.038	13015
904.156	12856
904.274	12966
904.392	12905
904.51	12875
904.627	12863
904.745	12951
904.863	12943
904.981	12745
905.098	12635
905.216	12555
905.334	12589
905.451	12665
905.569	12582
905.686	12658
905.803	12669
905.921	12437
906.038	12555
906.155	12448
906.272	12323
906.389	12380
906.506	12292
906.623	12232
906.74	12296
906.857	12053
906.974	12190
907.091	12152
907.208	12426
907.324	12300
907.441	12167
907.557	11969
907.674	12007
907.79	11855
907.907	11927
908.023	11980
908.139	11866
908.256	11813
908.372	11878
908.488	11859
908.604	11748
908.72	11714
908.836	11741
908.952	11657
909.068	11684
909.184	11767
909.3	11691
909.415	11745
909.531	11695
909.647	11505
909.762	11421
909.878	11478
909.993	11406
910.108	11478
910.224	11444
910.339	11482
910.454	11356
910.57	11337
910.685	11292
910.8	11596
910.915	11543
911.03	11436
911.145	11216
911.259	11124
911.374	11178
911.489	11090
911.604	11086
911.718	11006
911.833	10930
911.947	10801
912.062	10763
912.176	10869
912.291	10987
912.405	10965
912.519	11181
912.633	11136
912.748	11018
912.862	10953
912.976	10820
913.09	10683
913.204	10790
913.318	10858
913.431	10828
913.545	10938
913.659	10847
913.772	10809
913.886	10672
914	10668
914.113	10763
914.226	10812
914.34	10755
914.453	10611
914.566	10786
914.68	10622
914.793	10618
914.906	10405
915.019	10405
915.132	10375
915.245	10459
915.358	10455
915.47	10421
915.583	10421
915.696	10481
915.809	10630
915.921	10577
916.034	10443
916.146	10432
916.259	10322
916.371	10508
916.483	10470
916.595	10341
916.708	10497
916.82	10341
916.932	10337
917.044	10348
917.156	10386
917.268	10230
917.38	10246
917.491	10303
917.603	10363
917.715	10329
917.826	10398
917.938	10238
918.049	10147
918.161	10196
918.272	10371
918.384	10451
918.495	10299
918.606	10128
918.717	10173
918.828	10143
918.939	10204
919.05	10112
919.161	10078
919.272	9934
919.383	10010
919.494	10223
919.604	10424
919.715	10177
919.826	10086
919.936	10147
920.047	10234
920.157	10162
920.267	10405
920.378	10242
920.488	10204
920.598	10356
920.708	10497
920.818	10371
920.928	10382
921.038	10443
921.148	10493
921.258	10192
921.368	10135
921.477	10040
921.587	10032
921.697	9907
921.806	10063
921.916	9960
922.025	9740
922.134	9778
922.244	9656
922.353	9762
922.462	9595
922.571	9564
922.68	9462
922.789	9420
922.898	9428
923.007	9408
923.116	9519
923.224	9355
923.333	9424
923.442	9310
923.55	9298
923.659	9306
923.767	9450
923.876	9363
923.984	9336
924.092	9211
924.201	9310
924.309	9336
924.417	9355
924.525	9222
924.633	9317
924.741	9998
924.849	9074
924.956	9180
925.064	9058
925.172	8963
925.279	9009
925.387	9131
925.494	9077
925.602	9184
925.709	9127
925.816	9020
925.924	9142
926.031	9188
926.138	9058
926.245	9161
926.352	9017
926.459	9188
926.566	9199
926.673	9070
926.779	8944
926.886	8948
926.993	8792
927.099	8800
927.206	8769
927.312	8796
927.419	8823
927.525	8838
927.631	8864
927.737	8739
927.843	8735
927.95	8598
928.056	8743
928.162	8693
928.267	8739
928.373	9336
928.479	8845
928.585	8549
928.69	8785
928.796	8712
928.901	8594
929.007	8457
929.112	8606
929.218	8610
929.323	8518
929.428	8530
929.533	8640
929.638	8492
929.743	8469
929.848	8564
929.953	8522
930.058	8461
930.163	8282
930.267	8313
930.372	8393
930.477	8290
930.581	8549
930.685	8336
930.79	8225
930.894	8290
930.998	8202
931.103	8332
931.207	7940
931.311	8001
931.415	7845
931.519	7712
931.623	7700
