Data from test_V78500241_2947.txt Node
Date: Fri Mar 25 14:54:14 CST 2022
User: usil
Spectrometer: V785-0024
Trigger mode: 0
Integration Time (sec): 4.000000E-1
Scans to average: 1
Nonlinearity correction enabled: false
Boxcar width: 0
Storing dark spectrum: false
XAxis mode: Wavelengths
Number of Pixels in Spectrum: 1024
>>>>>Begin Spectral Data<<<<<
801.071	22044
801.214	22048
801.356	21568
801.499	21709
801.641	21564
801.783	21401
801.926	21397
802.068	21359
802.211	21313
802.353	21211
802.496	21070
802.638	20944
802.78	20910
802.923	20853
803.065	20712
803.208	20739
803.35	20925
803.492	20864
803.635	20902
803.777	20739
803.919	20857
804.061	21116
804.204	20826
804.346	20655
804.488	20674
804.63	20602
804.773	20754
804.915	20712
805.057	20762
805.199	20663
805.341	20762
805.483	20906
805.626	20773
805.768	20648
805.91	20792
806.052	20777
806.194	20701
806.336	20845
806.478	20613
806.62	20541
806.762	20788
806.904	20823
807.046	21096
807.188	21116
807.33	20906
807.472	21214
807.614	20975
807.756	20986
807.898	20883
808.04	20739
808.182	20781
808.324	20838
808.465	20823
808.607	21066
808.749	21047
808.891	21146
809.033	21188
809.174	21070
809.316	21055
809.458	21100
809.6	21062
809.741	21138
809.883	21104
810.025	21230
810.166	21252
810.308	21199
810.45	21237
810.591	21020
810.733	20960
810.875	20925
811.016	20834
811.158	20640
811.299	20906
811.441	20990
811.582	20998
811.724	20925
811.865	20705
812.007	20823
812.148	20899
812.29	20849
812.431	21005
812.573	21119
812.714	21146
812.855	21272
812.997	21454
813.138	21568
813.279	21496
813.421	21408
813.562	21287
813.703	21127
813.845	20986
813.986	20800
814.127	20556
814.268	20457
814.41	20347
814.551	20450
814.692	20518
814.833	20355
814.974	20381
815.115	20278
815.256	20187
815.397	20252
815.539	20263
815.68	20218
815.821	20111
815.962	20081
816.103	20168
816.244	19921
816.385	19883
816.526	19807
816.666	19704
816.807	19670
816.948	19510
817.089	19605
817.23	19415
817.371	19411
817.512	19525
817.653	19426
817.793	19449
817.934	19483
818.075	19537
818.216	19460
818.356	19400
818.497	19350
818.638	19171
818.778	19065
818.919	19091
819.06	19244
819.2	19346
819.341	19491
819.481	19369
819.622	19624
819.762	19666
819.903	19620
820.043	19578
820.184	19518
820.324	19537
820.465	19666
820.605	19483
820.746	19434
820.886	19396
821.026	19419
821.167	19438
821.307	19537
821.447	19441
821.588	19209
821.728	19137
821.868	19133
822.008	18970
822.149	18772
822.289	18795
822.429	18730
822.569	18506
822.709	18517
822.849	18426
822.99	18361
823.13	18388
823.27	18327
823.41	18178
823.55	18152
823.69	18243
823.83	18072
823.97	18087
824.11	17897
824.25	17843
824.389	17908
824.529	18030
824.669	18026
824.809	18114
824.949	18034
825.089	17897
825.228	18011
825.368	17737
825.508	17824
825.648	17714
825.787	17847
825.927	17703
826.067	17611
826.206	17604
826.346	17668
826.485	17748
826.625	17668
826.765	17863
826.904	17805
827.044	17486
827.183	17467
827.323	17353
827.462	17509
827.601	17364
827.741	17421
827.88	17398
828.02	17299
828.159	17387
828.298	17410
828.437	17558
828.577	17341
828.716	17524
828.855	17356
828.994	17307
829.134	17231
829.273	17299
829.412	17075
829.551	17159
829.69	17105
829.829	17143
829.968	17204
830.107	17170
830.246	17212
830.385	17166
830.524	17094
830.663	16976
830.802	16873
830.941	16885
831.08	16755
831.219	16889
831.357	16782
831.496	17056
831.635	16877
831.774	16733
831.913	16698
832.051	16603
832.19	16538
832.329	16577
832.467	16462
832.606	16402
832.744	16478
832.883	16428
833.022	16455
833.16	16440
833.299	16599
833.437	16436
833.576	16599
833.714	16459
833.852	16561
833.991	16497
834.129	16649
834.267	16622
834.406	16599
834.544	16569
834.682	16535
834.821	16588
834.959	16805
835.097	16398
835.235	16611
835.373	16611
835.511	16527
835.65	16379
835.788	16447
835.926	16299
836.064	16272
836.202	16318
836.34	16455
836.478	16466
836.615	16451
836.753	16569
836.891	16569
837.029	16523
837.167	16428
837.305	16344
837.443	16303
837.58	16196
837.718	16367
837.856	16291
837.993	16188
838.131	16344
838.269	16230
838.406	16303
838.544	16211
838.681	16010
838.819	16074
838.956	15865
839.094	15941
839.231	15972
839.369	15991
839.506	16234
839.643	16063
839.781	15968
839.918	15827
840.055	15998
840.193	15797
840.33	15888
840.467	15854
840.604	15850
840.742	16169
840.879	15793
841.016	15861
841.153	15667
841.29	15949
841.427	15812
841.564	15987
841.701	15911
841.838	15835
841.975	15728
842.112	15728
842.249	15557
842.385	15599
842.522	15911
842.659	15652
842.796	15629
842.933	15705
843.069	15694
843.206	15709
843.343	15625
843.479	15652
843.616	15694
843.752	15458
843.889	15454
844.025	15622
844.162	15420
844.298	15629
844.435	15561
844.571	15420
844.708	15492
844.844	15610
844.98	15587
845.117	15625
845.253	15405
845.389	15287
845.525	15469
845.661	15382
845.798	15203
845.934	15420
846.07	15161
846.206	15291
846.342	15294
846.478	15199
846.614	15005
846.75	15001
846.886	14861
847.022	15119
847.158	14948
847.294	15017
847.429	15077
847.565	14986
847.701	15214
847.837	14792
847.972	14667
848.108	14883
848.244	14834
848.379	14651
848.515	14556
848.65	14556
848.786	14575
848.921	14610
849.057	14632
849.192	14693
849.328	14655
849.463	14651
849.598	14560
849.734	14446
849.869	14579
850.004	14313
850.14	14465
850.275	14355
850.41	14332
850.545	14309
850.68	14412
850.815	14377
850.95	14377
851.085	14590
851.22	14454
851.355	14339
851.49	14309
851.625	14389
851.76	14336
851.895	14244
852.03	14195
852.165	14336
852.299	14336
852.434	14450
852.569	14389
852.703	14351
852.838	14427
852.973	14526
853.107	14526
853.242	14377
853.376	14244
853.511	14123
853.645	14142
853.78	14389
853.914	14259
854.048	14248
854.183	14229
854.317	14256
854.451	14393
854.585	14176
854.72	14218
854.854	14278
854.988	14126
855.122	14164
855.256	14126
855.39	14103
855.524	14374
855.658	14301
855.792	14275
855.926	14336
856.06	14233
856.194	14355
856.327	14206
856.461	14229
856.595	14172
856.729	14256
856.862	14351
856.996	14271
857.13	14187
857.263	14267
857.397	14381
857.53	14202
857.664	14282
857.797	14256
857.931	14221
858.064	14218
858.197	14347
858.331	14183
858.464	14157
858.597	14046
858.731	14157
858.864	14202
858.997	14278
859.13	14263
859.263	14324
859.396	14252
859.529	14218
859.662	14157
859.795	14145
859.928	14126
860.061	14423
860.194	14419
860.327	14309
860.46	14218
860.592	14324
860.725	14385
860.858	14355
860.99	14084
861.123	14183
861.256	14164
861.388	14233
861.521	14739
861.653	14153
861.786	14103
861.918	14176
862.05	14088
862.183	14153
862.315	14267
862.447	14183
862.58	14111
862.712	14031
862.844	13909
862.976	14077
863.108	14005
863.24	14282
863.372	13967
863.504	13978
863.636	14016
863.768	14103
863.9	14058
864.032	13955
864.164	13902
864.296	14020
864.428	14115
864.559	14046
864.691	14073
864.823	14046
864.954	13940
865.086	14035
865.217	14016
865.349	13932
865.48	14088
865.612	14081
865.743	14084
865.875	14043
866.006	14016
866.137	14164
866.269	13959
866.4	13986
866.531	14001
866.662	13932
866.793	13845
866.924	13932
867.055	14073
867.186	13997
867.317	13864
867.448	13849
867.579	13997
867.71	13879
867.841	13807
867.972	13986
868.103	14001
868.233	13967
868.364	14008
868.495	14062
868.625	14119
868.756	14339
868.886	14111
869.017	14218
869.147	14396
869.278	14370
869.408	14267
869.539	14263
869.669	14328
869.799	14263
869.929	14385
870.06	14309
870.19	14629
870.32	14507
870.45	14568
870.58	14602
870.71	14739
870.84	14724
870.97	14617
871.1	14629
871.23	14743
871.36	14826
871.489	14667
871.619	14754
871.749	14800
871.879	14830
872.008	14982
872.138	14872
872.267	14864
872.397	14708
872.526	14625
872.656	14708
872.785	14640
872.915	14845
873.044	14971
873.173	14853
873.303	14864
873.432	14899
873.561	14963
873.69	14925
873.819	14887
873.948	14990
874.077	14823
874.206	14857
874.335	14910
874.464	15001
874.593	15077
874.722	15112
874.851	15275
874.979	15260
875.108	15184
875.237	15192
875.365	15135
875.494	15028
875.623	15302
875.751	15127
875.88	15127
876.008	15256
876.136	15488
876.265	15500
876.393	15736
876.521	15743
876.65	15732
876.778	15728
876.906	15587
877.034	15492
877.162	15698
877.29	15477
877.418	15682
877.546	15663
877.674	15622
877.802	15667
877.93	15652
878.058	15507
878.185	15500
878.313	15549
878.441	15557
878.568	15439
878.696	15606
878.824	15515
878.951	15755
879.079	15774
879.206	15949
879.333	15705
879.461	15633
879.588	15831
879.715	15800
879.842	15915
879.97	15690
880.097	15492
880.224	15462
880.351	15496
880.478	15397
880.605	15408
880.732	15393
880.859	15637
880.986	15439
881.112	15401
881.239	15405
881.366	15214
881.493	15157
881.619	15165
881.746	15214
881.872	15108
881.999	15180
882.125	15047
882.252	15211
882.378	15127
882.505	15275
882.631	15081
882.757	14948
882.883	14982
883.01	14944
883.136	14925
883.262	14826
883.388	14807
883.514	14914
883.64	14982
883.766	14921
883.892	14811
884.018	14864
884.143	14845
884.269	14975
884.395	14655
884.52	14613
884.646	14644
884.772	14587
884.897	14514
885.023	14621
885.148	14788
885.274	14823
885.399	14750
885.524	14552
885.65	14682
885.775	14678
885.9	14632
886.025	14708
886.15	14640
886.275	14549
886.4	14526
886.525	14598
886.65	14526
886.775	14617
886.9	14659
887.025	14842
887.149	14560
887.274	14488
887.399	14507
887.523	14385
887.648	14393
887.773	14415
887.897	14499
888.021	14556
888.146	14415
888.27	14556
888.395	14594
888.519	14522
888.643	14408
888.767	14556
888.891	14400
889.015	14202
889.139	14328
889.263	14271
889.387	14476
889.511	14598
889.635	14461
889.759	14332
889.883	14347
890.006	14484
890.13	14469
890.254	14259
890.377	14377
890.501	14183
890.624	14123
890.748	14195
890.871	14069
890.995	13974
891.118	13902
891.241	13989
891.364	13986
891.488	14142
891.611	13989
891.734	14043
891.857	14142
891.98	14027
892.103	14111
892.226	14107
892.349	13982
892.471	13879
892.594	13932
892.717	13986
892.839	13947
892.962	13951
893.085	14161
893.207	14081
893.33	13898
893.452	14065
893.575	14077
893.697	14069
893.819	14214
893.941	14240
894.064	14202
894.186	14008
894.308	13986
894.43	14187
894.552	14248
894.674	14149
894.796	14119
894.918	14119
895.04	14058
895.161	14187
895.283	14240
895.405	14103
895.526	14130
895.648	14100
895.769	14187
895.891	14259
896.012	14294
896.134	14214
896.255	14248
896.376	14183
896.498	14210
896.619	14298
896.74	14161
896.861	14202
896.982	14552
897.103	14678
897.224	14579
897.345	14469
897.466	14404
897.587	14427
897.708	14636
897.828	14541
897.949	14503
898.07	14415
898.19	14457
898.311	14632
898.431	14465
898.552	14503
898.672	14758
898.792	14727
898.913	14522
899.033	14476
899.153	14484
899.273	14358
899.393	14412
899.513	14450
899.633	14431
899.753	14518
899.873	14412
899.993	14442
900.113	14313
900.232	14549
900.352	14305
900.472	14298
900.591	14195
900.711	14309
900.83	14298
900.95	14381
901.069	14408
901.189	14202
901.308	14016
901.427	14012
901.546	13993
901.665	14046
901.784	13944
901.904	13845
902.023	13734
902.141	13616
902.26	13495
902.379	13628
902.498	13491
902.617	13525
902.735	13624
902.854	13563
902.973	13472
903.091	13304
903.21	13240
903.328	13209
903.446	13217
903.565	13160
903.683	13171
903.801	13046
903.919	13050
904.038	13050
904.156	12928
904.274	12954
904.392	12890
904.51	12894
904.627	12913
904.745	12962
904.863	12924
904.981	12738
905.098	12620
905.216	12582
905.334	12620
905.451	12589
905.569	12623
905.686	12631
905.803	12631
905.921	12376
906.038	12593
906.155	12483
906.272	12308
906.389	12346
906.506	12167
906.623	12224
906.74	12228
906.857	12072
906.974	12182
907.091	12350
907.208	12376
907.324	12251
907.441	12155
907.557	11920
907.674	12030
907.79	11893
907.907	11912
908.023	12026
908.139	11999
908.256	11954
908.372	11912
908.488	11870
908.604	11752
908.72	11722
908.836	11752
908.952	11611
909.068	11653
909.184	11821
909.3	11767
909.415	11729
909.531	11779
909.647	11524
909.762	11520
909.878	11547
909.993	11501
910.108	11547
910.224	11490
910.339	11509
910.454	11391
910.57	11414
910.685	11273
910.8	11539
910.915	11497
911.03	11414
911.145	11258
911.259	11223
911.374	11223
911.489	11193
911.604	11037
911.718	10923
911.833	11010
911.947	10847
912.062	10733
912.176	11033
912.291	10987
912.405	11041
912.519	11113
912.633	11258
912.748	11048
912.862	10892
912.976	10885
913.09	10668
913.204	10896
913.318	10797
913.431	10828
913.545	10869
913.659	10889
913.772	10896
913.886	10778
914	10736
914.113	10881
914.226	10809
914.34	10797
914.453	10607
914.566	10824
914.68	10675
914.793	10630
914.906	10577
915.019	10485
915.132	10459
915.245	10497
915.358	10440
915.47	10538
915.583	10596
915.696	10516
915.809	10622
915.921	10603
916.034	10462
916.146	10337
916.259	10386
916.371	10466
916.483	10500
916.595	10379
916.708	10375
916.82	10428
916.932	10386
917.044	10428
917.156	10409
917.268	10287
917.38	10299
917.491	10291
917.603	10337
917.715	10379
917.826	10386
917.938	10325
918.049	10196
918.161	10318
918.272	10451
918.384	10375
918.495	10318
918.606	10200
918.717	10063
918.828	10230
918.939	10261
919.05	10090
919.161	10219
919.272	9998
919.383	10112
919.494	10169
919.604	10500
919.715	10227
919.826	10067
919.936	10135
920.047	10246
920.157	10219
920.267	10424
920.378	10204
920.488	10211
920.598	10386
920.708	10599
920.818	10371
920.928	10447
921.038	10554
921.148	10569
921.258	10181
921.368	10116
921.477	10150
921.587	10063
921.697	9911
921.806	10071
921.916	9915
922.025	9732
922.134	9846
922.244	9720
922.353	9838
922.462	9690
922.571	9599
922.68	9469
922.789	9496
922.898	9420
923.007	9420
923.116	9526
923.224	9485
923.333	9389
923.442	9340
923.55	9302
923.659	9302
923.767	9431
923.876	9344
923.984	9412
924.092	9279
924.201	9302
924.309	9336
924.417	9310
924.525	9241
924.633	9294
924.741	10116
924.849	9058
924.956	9260
925.064	9055
925.172	8967
925.279	9051
925.387	9142
925.494	9157
925.602	9180
925.709	9150
925.816	9131
925.924	9108
926.031	9123
926.138	9150
926.245	9165
926.352	9009
926.459	9161
926.566	9218
926.673	9108
926.779	8986
926.886	8910
926.993	8876
927.099	8834
927.206	8785
927.312	8758
927.419	8902
927.525	8868
927.631	8868
927.737	8766
927.843	8769
927.95	8598
928.056	8701
928.162	8739
928.267	8674
928.373	9363
928.479	8800
928.585	8560
928.69	8705
928.796	8758
928.901	8598
929.007	8560
929.112	8663
929.218	8602
929.323	8568
929.428	8575
929.533	8686
929.638	8503
929.743	8587
929.848	8602
929.953	8583
930.058	8446
930.163	8317
930.267	8309
930.372	8484
930.477	8263
930.581	8533
930.685	8377
930.79	8248
930.894	8351
930.998	8191
931.103	8412
931.207	8107
931.311	7974
931.415	7940
931.519	7780
931.623	7715
