Data from test_V78500241_1278.txt Node
Date: Fri Mar 25 14:42:36 CST 2022
User: usil
Spectrometer: V785-0024
Trigger mode: 0
Integration Time (sec): 4.000000E-1
Scans to average: 1
Nonlinearity correction enabled: false
Boxcar width: 0
Storing dark spectrum: false
XAxis mode: Wavelengths
Number of Pixels in Spectrum: 1024
>>>>>Begin Spectral Data<<<<<
801.071	22451
801.214	22223
801.356	22067
801.499	21907
801.641	21873
801.783	21705
801.926	21675
802.068	21637
802.211	21618
802.353	21466
802.496	21264
802.638	21340
802.78	21241
802.923	21218
803.065	21058
803.208	21039
803.35	21089
803.492	21104
803.635	21192
803.777	21058
803.919	21127
804.061	21374
804.204	21165
804.346	21112
804.488	20941
804.63	21062
804.773	21039
804.915	21001
805.057	21184
805.199	21036
805.341	21047
805.483	21176
805.626	21074
805.768	20982
805.91	20967
806.052	20952
806.194	20929
806.336	21230
806.478	20967
806.62	21028
806.762	21127
806.904	21195
807.046	21530
807.188	21367
807.33	21321
807.472	21416
807.614	21355
807.756	21313
807.898	21192
808.04	21100
808.182	21176
808.324	21256
808.465	21188
808.607	21500
808.749	21416
808.891	21561
809.033	21660
809.174	21580
809.316	21580
809.458	21561
809.6	21268
809.741	21439
809.883	21519
810.025	21823
810.166	21599
810.308	21538
810.45	21606
810.591	21534
810.733	21306
810.875	21157
811.016	21096
811.158	21165
811.299	21260
811.441	21264
811.582	21260
811.724	21138
811.865	21268
812.007	21241
812.148	21150
812.29	21260
812.431	21332
812.573	21511
812.714	21534
812.855	21587
812.997	21747
813.138	21857
813.279	21793
813.421	21629
813.562	21663
813.703	21568
813.845	21420
813.986	21070
814.127	20929
814.268	20800
814.41	20781
814.551	20617
814.692	20815
814.833	20762
814.974	20594
815.115	20686
815.256	20526
815.397	20514
815.539	20579
815.68	20488
815.821	20431
815.962	20476
816.103	20423
816.244	20309
816.385	20233
816.526	20138
816.666	19978
816.807	19898
816.948	20031
817.089	20058
817.23	20031
817.371	19822
817.512	19932
817.653	19856
817.793	19955
817.934	19890
818.075	19925
818.216	19871
818.356	19890
818.497	19795
818.638	19613
818.778	19685
818.919	19552
819.06	19666
819.2	19685
819.341	19738
819.481	19750
819.622	19845
819.762	20172
819.903	20161
820.043	19974
820.184	19902
820.324	19833
820.465	19917
820.605	19799
820.746	20005
820.886	19791
821.026	19887
821.167	19913
821.307	19837
821.447	19795
821.588	19685
821.728	19635
821.868	19392
822.008	19285
822.149	19259
822.289	19270
822.429	19034
822.569	18951
822.709	18977
822.849	18837
822.99	18783
823.13	18726
823.27	18772
823.41	18612
823.55	18578
823.69	18627
823.83	18677
823.97	18525
824.11	18414
824.25	18289
824.389	18361
824.529	18391
824.669	18490
824.809	18627
824.949	18380
825.089	18521
825.228	18300
825.368	18296
825.508	18228
825.648	18136
825.787	18167
825.927	18262
826.067	17923
826.206	18072
826.346	18140
826.485	18190
826.625	18125
826.765	18201
826.904	18163
827.044	17889
827.183	17836
827.323	17866
827.462	17802
827.601	17832
827.741	17874
827.88	17878
828.02	17783
828.159	17752
828.298	17866
828.437	17855
828.577	17855
828.716	17912
828.855	17767
828.994	17646
829.134	17627
829.273	17615
829.412	17551
829.551	17623
829.69	17646
829.829	17600
829.968	17710
830.107	17649
830.246	17661
830.385	17493
830.524	17592
830.663	17398
830.802	17220
830.941	17269
831.08	17216
831.219	17258
831.357	17208
831.496	17467
831.635	17277
831.774	17147
831.913	17117
832.051	17075
832.19	17086
832.329	17090
832.467	17025
832.606	16972
832.744	16892
832.883	16976
833.022	16946
833.16	16953
833.299	16987
833.437	16923
833.576	17098
833.714	16968
833.852	17033
833.991	17037
834.129	17067
834.267	17033
834.406	16923
834.544	17033
834.682	16961
834.821	16866
834.959	17132
835.097	16976
835.235	17098
835.373	16900
835.511	17083
835.65	16953
835.788	16934
835.926	16679
836.064	16615
836.202	16649
836.34	16847
836.478	16965
836.615	17010
836.753	16877
836.891	16957
837.029	16896
837.167	16847
837.305	16786
837.443	16862
837.58	16698
837.718	16801
837.856	16767
837.993	16729
838.131	16858
838.269	16694
838.406	16535
838.544	16618
838.681	16443
838.819	16394
838.956	16348
839.094	16276
839.231	16394
839.369	16394
839.506	16736
839.643	16516
839.781	16402
839.918	16276
840.055	16261
840.193	16348
840.33	16238
840.467	16352
840.604	16363
840.742	16527
840.879	16211
841.016	16211
841.153	16116
841.29	16337
841.427	16295
841.564	16375
841.701	16402
841.838	16192
841.975	16109
842.112	16223
842.249	16124
842.385	16071
842.522	16223
842.659	16105
842.796	16093
842.933	16143
843.069	16051
843.206	16021
843.343	16154
843.479	16040
843.616	16177
843.752	15930
843.889	15968
844.025	16040
844.162	15724
844.298	15964
844.435	15911
844.571	15701
844.708	15869
844.844	16044
844.98	15987
845.117	15918
845.253	15774
845.389	15812
845.525	15865
845.661	15816
845.798	15797
845.934	15956
846.07	15827
846.206	15915
846.342	15903
846.478	15778
846.614	15576
846.75	15458
846.886	15443
847.022	15641
847.158	15382
847.294	15412
847.429	15420
847.565	15397
847.701	15595
847.837	15241
847.972	15058
848.108	15211
848.244	15279
848.379	15085
848.515	14982
848.65	15116
848.786	15017
848.921	15001
849.057	15089
849.192	15161
849.328	15066
849.463	15138
849.598	14956
849.734	14944
849.869	14857
850.004	14804
850.14	14899
850.275	14758
850.41	14754
850.545	14743
850.68	14861
850.815	14842
850.95	14712
851.085	14971
851.22	14899
851.355	14762
851.49	14773
851.625	14781
851.76	14701
851.895	14625
852.03	14655
852.165	14716
852.299	14777
852.434	14800
852.569	14811
852.703	14864
852.838	14804
852.973	14979
853.107	14906
853.242	14731
853.376	14560
853.511	14610
853.645	14617
853.78	14758
853.914	14743
854.048	14606
854.183	14587
854.317	14720
854.451	14834
854.585	14640
854.72	14644
854.854	14731
854.988	14594
855.122	14610
855.256	14488
855.39	14590
855.524	14670
855.658	14613
855.792	14682
855.926	14800
856.06	14697
856.194	14758
856.327	14629
856.461	14598
856.595	14598
856.729	14640
856.862	14834
856.996	14689
857.13	14701
857.263	14785
857.397	14838
857.53	14537
857.664	14678
857.797	14636
857.931	14746
858.064	14632
858.197	14762
858.331	14617
858.464	14560
858.597	14480
858.731	14575
858.864	14579
858.997	14590
859.13	14621
859.263	14655
859.396	14716
859.529	14613
859.662	14480
859.795	14575
859.928	14682
860.061	14743
860.194	14853
860.327	14590
860.46	14655
860.592	14701
860.725	14853
860.858	14678
860.99	14674
861.123	14594
861.256	14446
861.388	14727
861.521	15291
861.653	14522
861.786	14518
861.918	14568
862.05	14549
862.183	14568
862.315	14541
862.447	14705
862.58	14495
862.712	14362
862.844	14267
862.976	14533
863.108	14377
863.24	14857
863.372	14355
863.504	14415
863.636	14484
863.768	14556
863.9	14450
864.032	14366
864.164	14355
864.296	14442
864.428	14629
864.559	14503
864.691	14503
864.823	14457
864.954	14461
865.086	14423
865.217	14377
865.349	14267
865.48	14461
865.612	14374
865.743	14503
865.875	14370
866.006	14427
866.137	14339
866.269	14305
866.4	14362
866.531	14415
866.662	14298
866.793	14381
866.924	14313
867.055	14374
867.186	14366
867.317	14358
867.448	14305
867.579	14195
867.71	14336
867.841	14324
867.972	14351
868.103	14457
868.233	14309
868.364	14427
868.495	14526
868.625	14560
868.756	14788
868.886	14575
869.017	14606
869.147	14686
869.278	14716
869.408	14754
869.539	14667
869.669	14720
869.799	14708
869.929	14758
870.06	14735
870.19	14982
870.32	14914
870.45	15058
870.58	15112
870.71	15116
870.84	15222
870.97	15005
871.1	15039
871.23	15222
871.36	15249
871.489	15077
871.619	15260
871.749	15260
871.879	15203
872.008	15370
872.138	15260
872.267	15169
872.397	15207
872.526	15001
872.656	15104
872.785	15066
872.915	15298
873.044	15302
873.173	15310
873.303	15298
873.432	15283
873.561	15450
873.69	15249
873.819	15283
873.948	15359
874.077	15359
874.206	15260
874.335	15393
874.464	15405
874.593	15507
874.722	15519
874.851	15606
874.979	15515
875.108	15705
875.237	15584
875.365	15496
875.494	15648
875.623	15652
875.751	15671
875.88	15667
876.008	15797
876.136	15907
876.265	15998
876.393	16238
876.521	16192
876.65	16067
876.778	16051
876.906	16063
877.034	15964
877.162	15972
877.29	15945
877.418	16032
877.546	16013
877.674	15945
877.802	16067
877.93	16074
878.058	16032
878.185	15869
878.313	16040
878.441	16006
878.568	15915
878.696	15945
878.824	15998
878.951	16143
879.079	16196
879.206	16405
879.333	16268
879.461	16116
879.588	16162
879.715	16295
879.842	16478
879.97	16147
880.097	15975
880.224	15850
880.351	15918
880.478	15873
880.605	15827
880.732	15892
880.859	16086
880.986	15926
881.112	15911
881.239	15789
881.366	15736
881.493	15606
881.619	15591
881.746	15515
881.872	15526
881.999	15561
882.125	15500
882.252	15625
882.378	15504
882.505	15572
882.631	15424
882.757	15294
882.883	15526
883.01	15298
883.136	15424
883.262	15249
883.388	15249
883.514	15416
883.64	15435
883.766	15408
883.892	15207
884.018	15310
884.143	15382
884.269	15458
884.395	15173
884.52	15108
884.646	15112
884.772	15051
884.897	14929
885.023	15142
885.148	15218
885.274	15275
885.399	15176
885.524	15077
885.65	15039
885.775	15043
885.9	15013
886.025	15192
886.15	15081
886.275	15036
886.4	14994
886.525	15093
886.65	15062
886.775	14986
886.9	15169
887.025	15306
887.149	15017
887.274	14823
887.399	14804
887.523	14811
887.648	14796
887.773	14743
887.897	14979
888.021	14880
888.146	14864
888.27	15051
888.395	14937
888.519	14925
888.643	14880
888.767	14948
888.891	14735
889.015	14697
889.139	14773
889.263	14644
889.387	14910
889.511	14910
889.635	14887
889.759	14625
889.883	14693
890.006	14678
890.13	14815
890.254	14670
890.377	14670
890.501	14579
890.624	14412
890.748	14541
890.871	14351
890.995	14419
891.118	14305
891.241	14469
891.364	14461
891.488	14473
891.611	14408
891.734	14400
891.857	14495
891.98	14530
892.103	14484
892.226	14514
892.349	14343
892.471	14248
892.594	14351
892.717	14358
892.839	14427
892.962	14431
893.085	14507
893.207	14423
893.33	14298
893.452	14282
893.575	14473
893.697	14343
893.819	14541
893.941	14644
894.064	14469
894.186	14294
894.308	14404
894.43	14514
894.552	14640
894.674	14541
894.796	14370
894.918	14389
895.04	14450
895.161	14556
895.283	14594
895.405	14454
895.526	14495
895.648	14533
895.769	14564
895.891	14621
896.012	14579
896.134	14560
896.255	14644
896.376	14461
896.498	14571
896.619	14739
896.74	14575
896.861	14629
896.982	14883
897.103	15039
897.224	14960
897.345	14872
897.466	14720
897.587	14823
897.708	15009
897.828	14811
897.949	14845
898.07	14693
898.19	14724
898.311	14933
898.431	14849
898.552	14910
898.672	14975
898.792	15116
898.913	15051
899.033	14880
899.153	14670
899.273	14708
899.393	14765
899.513	14807
899.633	14769
899.753	14750
899.873	14731
899.993	14910
900.113	14807
900.232	14819
900.352	14697
900.472	14648
900.591	14651
900.711	14655
900.83	14621
900.95	14731
901.069	14739
901.189	14568
901.308	14446
901.427	14214
901.546	14202
901.665	14298
901.784	14355
901.904	14210
902.023	14092
902.141	13890
902.26	13849
902.379	13890
902.498	13830
902.617	13883
902.735	13898
902.854	13791
902.973	13788
903.091	13571
903.21	13544
903.328	13578
903.446	13476
903.565	13362
903.683	13590
903.801	13316
903.919	13460
904.038	13445
904.156	13324
904.274	13312
904.392	13228
904.51	13247
904.627	13209
904.745	13274
904.863	13297
904.981	13053
905.098	12985
905.216	12947
905.334	12951
905.451	13015
905.569	12878
905.686	12939
905.803	12954
905.921	12829
906.038	12882
906.155	12764
906.272	12639
906.389	12665
906.506	12639
906.623	12528
906.74	12521
906.857	12407
906.974	12475
907.091	12612
907.208	12681
907.324	12631
907.441	12384
907.557	12266
907.674	12311
907.79	12201
907.907	12296
908.023	12205
908.139	12285
908.256	12144
908.372	12125
908.488	12155
908.604	12053
908.72	12019
908.836	12064
908.952	11969
909.068	11980
909.184	12102
909.3	12007
909.415	12064
909.531	12026
909.647	11824
909.762	11802
909.878	11809
909.993	11760
910.108	11775
910.224	11790
910.339	11745
910.454	11623
910.57	11649
910.685	11619
910.8	11843
910.915	11790
911.03	11646
911.145	11414
911.259	11459
911.374	11387
911.489	11345
911.604	11379
911.718	11265
911.833	11261
911.947	11170
912.062	11086
912.176	11269
912.291	11201
912.405	11098
912.519	11368
912.633	11341
912.748	11299
912.862	11265
912.976	11060
913.09	11048
913.204	11128
913.318	11105
913.431	11208
913.545	11212
913.659	11220
913.772	11109
913.886	11010
914	11014
914.113	11056
914.226	11128
914.34	11128
914.453	10869
914.566	11018
914.68	10949
914.793	10919
914.906	10778
915.019	10733
915.132	10675
915.245	10740
915.358	10733
915.47	10744
915.583	10706
915.696	10850
915.809	10869
915.921	10881
916.034	10717
916.146	10687
916.259	10672
916.371	10717
916.483	10740
916.595	10675
916.708	10645
916.82	10592
916.932	10645
917.044	10592
917.156	10573
917.268	10489
917.38	10630
917.491	10455
917.603	10538
917.715	10641
917.826	10706
917.938	10504
918.049	10447
918.161	10523
918.272	10683
918.384	10694
918.495	10588
918.606	10451
918.717	10379
918.828	10432
918.939	10466
919.05	10390
919.161	10367
919.272	10284
919.383	10242
919.494	10516
919.604	10630
919.715	10417
919.826	10306
919.936	10405
920.047	10451
920.157	10497
920.267	10588
920.378	10474
920.488	10409
920.598	10710
920.708	10786
920.818	10615
920.928	10645
921.038	10714
921.148	10679
921.258	10485
921.368	10386
921.477	10291
921.587	10242
921.697	10147
921.806	10314
921.916	10135
922.025	10017
922.134	9972
922.244	9945
922.353	9979
922.462	9880
922.571	9766
922.68	9751
922.789	9633
922.898	9705
923.007	9572
923.116	9724
923.224	9675
923.333	9682
923.442	9530
923.55	9553
923.659	9610
923.767	9553
923.876	9431
923.984	9591
924.092	9435
924.201	9561
924.309	9523
924.417	9542
924.525	9389
924.633	9454
924.741	10150
924.849	9245
924.956	9454
925.064	9348
925.172	9230
925.279	9173
925.387	9340
925.494	9348
925.602	9389
925.709	9424
925.816	9340
925.924	9310
926.031	9325
926.138	9355
926.245	9386
926.352	9192
926.459	9443
926.566	9462
926.673	9249
926.779	9195
926.886	9150
926.993	9047
927.099	8990
927.206	9017
927.312	8925
927.419	9093
927.525	8994
927.631	9020
927.737	8914
927.843	8941
927.95	8804
928.056	8876
928.162	8925
928.267	9032
928.373	9618
928.479	8982
928.585	8743
928.69	8906
928.796	8925
928.901	8834
929.007	8651
929.112	8880
929.218	8792
929.323	8800
929.428	8674
929.533	8921
929.638	8613
929.743	8693
929.848	8792
929.953	8682
930.058	8541
930.163	8522
930.267	8511
930.372	8659
930.477	8396
930.581	8720
930.685	8575
930.79	8427
930.894	8396
930.998	8473
931.103	8526
931.207	8294
931.311	8142
931.415	8172
931.519	7982
931.623	7936
