Data from test_V78500241_3671.txt Node
Date: Fri Mar 25 14:59:16 CST 2022
User: usil
Spectrometer: V785-0024
Trigger mode: 0
Integration Time (sec): 4.000000E-1
Scans to average: 1
Nonlinearity correction enabled: false
Boxcar width: 0
Storing dark spectrum: false
XAxis mode: Wavelengths
Number of Pixels in Spectrum: 1024
>>>>>Begin Spectral Data<<<<<
801.071	21831
801.214	21819
801.356	21553
801.499	21454
801.641	21355
801.783	21317
801.926	21348
802.068	21203
802.211	21146
802.353	21055
802.496	20804
802.638	20636
802.78	20697
802.923	20667
803.065	20552
803.208	20476
803.35	20640
803.492	20724
803.635	20781
803.777	20594
803.919	20777
804.061	20914
804.204	20720
804.346	20651
804.488	20530
804.63	20640
804.773	20423
804.915	20621
805.057	20590
805.199	20465
805.341	20602
805.483	20579
805.626	20545
805.768	20492
805.91	20499
806.052	20655
806.194	20396
806.336	20651
806.478	20461
806.62	20507
806.762	20530
806.904	20670
807.046	20929
807.188	20735
807.33	20876
807.472	20914
807.614	20758
807.756	20644
807.898	20720
808.04	20587
808.182	20533
808.324	20587
808.465	20678
808.607	20773
808.749	20838
808.891	20933
809.033	21058
809.174	20982
809.316	20864
809.458	20937
809.6	20876
809.741	20948
809.883	20929
810.025	21051
810.166	20880
810.308	20948
810.45	20990
810.591	20807
810.733	20804
810.875	20606
811.016	20613
811.158	20579
811.299	20644
811.441	20838
811.582	20746
811.724	20598
811.865	20537
812.007	20461
812.148	20648
812.29	20537
812.431	20720
812.573	20941
812.714	20956
812.855	21173
812.997	21245
813.138	21378
813.279	21165
813.421	21100
813.562	21100
813.703	20891
813.845	20754
813.986	20404
814.127	20347
814.268	20313
814.41	20191
814.551	20157
814.692	20275
814.833	20020
814.974	20103
815.115	20115
815.256	19921
815.397	20016
815.539	20020
815.68	19856
815.821	19894
815.962	19841
816.103	19940
816.244	19708
816.385	19643
816.526	19582
816.666	19563
816.807	19274
816.948	19373
817.089	19453
817.23	19289
817.371	19213
817.512	19354
817.653	19247
817.793	19247
817.934	19168
818.075	19331
818.216	19335
818.356	19247
818.497	19110
818.638	19008
818.778	18981
818.919	18894
819.06	18947
819.2	19206
819.341	19168
819.481	19137
819.622	19377
819.762	19506
819.903	19419
820.043	19232
820.184	19274
820.324	19240
820.465	19381
820.605	19278
820.746	19202
820.886	19084
821.026	19255
821.167	19255
821.307	19430
821.447	19129
821.588	19110
821.728	19141
821.868	18905
822.008	18650
822.149	18734
822.289	18623
822.429	18414
822.569	18334
822.709	18365
822.849	18205
822.99	18140
823.13	18125
823.27	18129
823.41	18026
823.55	17939
823.69	18057
823.83	17999
823.97	17824
824.11	17703
824.25	17813
824.389	17824
824.529	17851
824.669	17695
824.809	17908
824.949	17726
825.089	17893
825.228	17805
825.368	17543
825.508	17592
825.648	17501
825.787	17642
825.927	17501
826.067	17490
826.206	17509
826.346	17398
826.485	17505
826.625	17463
826.765	17642
826.904	17516
827.044	17280
827.183	17372
827.323	17220
827.462	17216
827.601	17200
827.741	17155
827.88	17193
828.02	17181
828.159	17261
828.298	17258
828.437	17223
828.577	17235
828.716	17330
828.855	17185
828.994	16968
829.134	17033
829.273	16991
829.412	16991
829.551	16850
829.69	16957
829.829	17037
829.968	17052
830.107	17048
830.246	16946
830.385	16927
830.524	17052
830.663	16786
830.802	16721
830.941	16675
831.08	16618
831.219	16698
831.357	16687
831.496	16858
831.635	16550
831.774	16569
831.913	16493
832.051	16390
832.19	16432
832.329	16443
832.467	16421
832.606	16314
832.744	16348
832.883	16253
833.022	16226
833.16	16325
833.299	16344
833.437	16272
833.576	16371
833.714	16265
833.852	16402
833.991	16417
834.129	16478
834.267	16443
834.406	16337
834.544	16382
834.682	16481
834.821	16291
834.959	16466
835.097	16306
835.235	16573
835.373	16333
835.511	16470
835.65	16337
835.788	16318
835.926	16086
836.064	16147
836.202	16135
836.34	16356
836.478	16325
836.615	16276
836.753	16310
836.891	16306
837.029	16337
837.167	16303
837.305	16211
837.443	16166
837.58	16112
837.718	16177
837.856	16196
837.993	16112
838.131	16200
838.269	16093
838.406	16025
838.544	16086
838.681	15956
838.819	15884
838.956	15751
839.094	15720
839.231	15842
839.369	15762
839.506	16071
839.643	15991
839.781	15728
839.918	15656
840.055	15720
840.193	15610
840.33	15728
840.467	15728
840.604	15751
840.742	15911
840.879	15610
841.016	15641
841.153	15686
841.29	15781
841.427	15804
841.564	15861
841.701	15770
841.838	15660
841.975	15599
842.112	15713
842.249	15610
842.385	15542
842.522	15599
842.659	15389
842.796	15568
842.933	15488
843.069	15443
843.206	15469
843.343	15568
843.479	15496
843.616	15397
843.752	15325
843.889	15313
844.025	15386
844.162	15218
844.298	15386
844.435	15279
844.571	15279
844.708	15359
844.844	15469
844.98	15355
845.117	15416
845.253	15283
845.389	15230
845.525	15195
845.661	15169
845.798	15146
845.934	15097
846.07	15017
846.206	15032
846.342	15119
846.478	15097
846.614	14883
846.75	14811
846.886	14845
847.022	15097
847.158	14906
847.294	14891
847.429	14895
847.565	14914
847.701	14979
847.837	14613
847.972	14682
848.108	14697
848.244	14682
848.379	14560
848.515	14389
848.65	14461
848.786	14484
848.921	14533
849.057	14507
849.192	14651
849.328	14530
849.463	14484
849.598	14370
849.734	14419
849.869	14389
850.004	14256
850.14	14298
850.275	14305
850.41	14092
850.545	14123
850.68	14115
850.815	14206
850.95	14214
851.085	14294
851.22	14332
851.355	14332
851.49	14191
851.625	14164
851.76	14221
851.895	14126
852.03	14050
852.165	14237
852.299	14278
852.434	14244
852.569	14324
852.703	14263
852.838	14374
852.973	14298
853.107	14427
853.242	14157
853.376	14183
853.511	14103
853.645	14058
853.78	14199
853.914	14103
854.048	14103
854.183	14035
854.317	14176
854.451	14301
854.585	14103
854.72	14027
854.854	14172
854.988	13982
855.122	14096
855.256	13913
855.39	14058
855.524	14225
855.658	14164
855.792	14077
855.926	14100
856.06	14256
856.194	14221
856.327	14115
856.461	14054
856.595	14111
856.729	14115
856.862	14199
856.996	14157
857.13	14157
857.263	14187
857.397	14256
857.53	14069
857.664	14164
857.797	14202
857.931	14301
858.064	14119
858.197	14229
858.331	14119
858.464	14107
858.597	14001
858.731	14111
858.864	14107
858.997	14164
859.13	14168
859.263	14176
859.396	14221
859.529	14073
859.662	14164
859.795	14039
859.928	14054
860.061	14259
860.194	14332
860.327	14096
860.46	14149
860.592	14240
860.725	14244
860.858	14244
860.99	14100
861.123	13978
861.256	14062
861.388	14111
861.521	14765
861.653	13967
861.786	13871
861.918	13959
862.05	14035
862.183	14119
862.315	14077
862.447	14210
862.58	14077
862.712	13822
862.844	13776
862.976	13982
863.108	13902
863.24	14275
863.372	13791
863.504	13906
863.636	13887
863.768	13951
863.9	13795
864.032	13830
864.164	13894
864.296	13860
864.428	14001
864.559	13928
864.691	14027
864.823	13978
864.954	13913
865.086	13932
865.217	13928
865.349	13811
865.48	13841
865.612	13864
865.743	14134
865.875	13909
866.006	13871
866.137	13845
866.269	13856
866.4	13894
866.531	13902
866.662	13826
866.793	13902
866.924	13917
867.055	13860
867.186	13894
867.317	13734
867.448	13772
867.579	13830
867.71	13826
867.841	13849
867.972	13879
868.103	13868
868.233	13868
868.364	13944
868.495	13955
868.625	14145
868.756	14214
868.886	13947
869.017	14031
869.147	14252
869.278	14267
869.408	14157
869.539	14130
869.669	14214
869.799	14081
869.929	14282
870.06	14195
870.19	14431
870.32	14469
870.45	14381
870.58	14507
870.71	14522
870.84	14610
870.97	14526
871.1	14560
871.23	14720
871.36	14838
871.489	14701
871.619	14682
871.749	14682
871.879	14758
872.008	14788
872.138	14792
872.267	14705
872.397	14511
872.526	14610
872.656	14480
872.785	14610
872.915	14758
873.044	14811
873.173	14712
873.303	14720
873.432	14899
873.561	14948
873.69	14804
873.819	14823
873.948	14811
874.077	14796
874.206	14735
874.335	14872
874.464	14956
874.593	15089
874.722	15013
874.851	15074
874.979	15157
875.108	15214
875.237	15100
875.365	15020
875.494	14967
875.623	15211
875.751	15017
875.88	15245
876.008	15252
876.136	15348
876.265	15523
876.393	15724
876.521	15622
876.65	15614
876.778	15492
876.906	15500
877.034	15428
877.162	15507
877.29	15450
877.418	15542
877.546	15488
877.674	15534
877.802	15504
877.93	15386
878.058	15572
878.185	15428
878.313	15412
878.441	15538
878.568	15355
878.696	15325
878.824	15599
878.951	15561
879.079	15675
879.206	15865
879.333	15728
879.461	15538
879.588	15625
879.715	15694
879.842	15793
879.97	15545
880.097	15363
880.224	15336
880.351	15355
880.478	15386
880.605	15302
880.732	15302
880.859	15633
880.986	15374
881.112	15317
881.239	15291
881.366	15169
881.493	15013
881.619	14963
881.746	14990
881.872	15093
881.999	14971
882.125	14998
882.252	15127
882.378	15119
882.505	15195
882.631	14937
882.757	14861
882.883	14986
883.01	14899
883.136	14823
883.262	14640
883.388	14735
883.514	14838
883.64	14868
883.766	14849
883.892	14651
884.018	14758
884.143	14746
884.269	14906
884.395	14602
884.52	14552
884.646	14594
884.772	14526
884.897	14400
885.023	14640
885.148	14758
885.274	14819
885.399	14678
885.524	14476
885.65	14427
885.775	14560
885.9	14480
886.025	14663
886.15	14613
886.275	14488
886.4	14465
886.525	14571
886.65	14438
886.775	14484
886.9	14705
887.025	14659
887.149	14511
887.274	14415
887.399	14328
887.523	14400
887.648	14305
887.773	14263
887.897	14438
888.021	14408
888.146	14358
888.27	14492
888.395	14492
888.519	14423
888.643	14545
888.767	14434
888.891	14347
889.015	14233
889.139	14324
889.263	14237
889.387	14343
889.511	14450
889.635	14400
889.759	14206
889.883	14237
890.006	14199
890.13	14343
890.254	14176
890.377	14248
890.501	14039
890.624	13944
890.748	14081
890.871	13986
890.995	13951
891.118	13849
891.241	13928
891.364	14005
891.488	14062
891.611	14046
891.734	13959
891.857	13993
891.98	14046
892.103	13970
892.226	14008
892.349	13906
892.471	13791
892.594	13940
892.717	13947
892.839	13925
892.962	13917
893.085	14050
893.207	13936
893.33	13902
893.452	13963
893.575	13986
893.697	13963
893.819	14081
893.941	14180
894.064	14134
894.186	13936
894.308	13989
894.43	14138
894.552	14130
894.674	14016
894.796	13917
894.918	13947
895.04	13993
895.161	14126
895.283	13967
895.405	14046
895.526	14035
895.648	14123
895.769	14081
895.891	14073
896.012	14229
896.134	14164
896.255	14092
896.376	14084
896.498	14176
896.619	14210
896.74	14081
896.861	14229
896.982	14374
897.103	14636
897.224	14358
897.345	14412
897.466	14339
897.587	14446
897.708	14450
897.828	14476
897.949	14370
898.07	14256
898.19	14377
898.311	14621
898.431	14343
898.552	14484
898.672	14545
898.792	14579
898.913	14473
899.033	14301
899.153	14381
899.273	14161
899.393	14347
899.513	14290
899.633	14389
899.753	14309
899.873	14381
899.993	14366
900.113	14339
900.232	14305
900.352	14180
900.472	14206
900.591	14206
900.711	14244
900.83	14210
900.95	14336
901.069	14339
901.189	14111
901.308	13852
901.427	13776
901.546	13902
901.665	13909
901.784	13864
901.904	13753
902.023	13734
902.141	13464
902.26	13483
902.379	13548
902.498	13339
902.617	13358
902.735	13521
902.854	13419
902.973	13350
903.091	13183
903.21	13076
903.328	13175
903.446	13027
903.565	13012
903.683	13057
903.801	13023
903.919	12924
904.038	13012
904.156	12837
904.274	12852
904.392	12878
904.51	12749
904.627	12795
904.745	12856
904.863	12798
904.981	12616
905.098	12513
905.216	12532
905.334	12589
905.451	12574
905.569	12513
905.686	12578
905.803	12555
905.921	12410
906.038	12525
906.155	12433
906.272	12251
906.389	12209
906.506	12106
906.623	12114
906.74	12194
906.857	11999
906.974	12072
907.091	12140
907.208	12194
907.324	12167
907.441	12072
907.557	11935
907.674	11859
907.79	11752
907.907	11920
908.023	11863
908.139	11935
908.256	11821
908.372	11748
908.488	11779
908.604	11638
908.72	11623
908.836	11581
908.952	11589
909.068	11737
909.184	11737
909.3	11722
909.415	11714
909.531	11596
909.647	11425
909.762	11353
909.878	11364
909.993	11379
910.108	11372
910.224	11486
910.339	11459
910.454	11402
910.57	11273
910.685	11181
910.8	11528
910.915	11467
911.03	11261
911.145	11124
911.259	11079
911.374	11155
911.489	11048
911.604	10972
911.718	10873
911.833	10965
911.947	10793
912.062	10733
912.176	10847
912.291	10854
912.405	10854
912.519	10999
912.633	11052
912.748	10961
912.862	10949
912.976	10793
913.09	10687
913.204	10645
913.318	10801
913.431	10835
913.545	10850
913.659	10885
913.772	10759
913.886	10675
914	10653
914.113	10687
914.226	10786
914.34	10664
914.453	10519
914.566	10706
914.68	10580
914.793	10569
914.906	10348
915.019	10402
915.132	10306
915.245	10356
915.358	10291
915.47	10398
915.583	10390
915.696	10421
915.809	10519
915.921	10466
916.034	10382
916.146	10303
916.259	10329
916.371	10386
916.483	10428
916.595	10268
916.708	10333
916.82	10367
916.932	10375
917.044	10265
917.156	10363
917.268	10204
917.38	10299
917.491	10211
917.603	10276
917.715	10322
917.826	10318
917.938	10131
918.049	10150
918.161	10299
918.272	10428
918.384	10325
918.495	10234
918.606	10051
918.717	10013
918.828	10139
918.939	10154
919.05	10032
919.161	10101
919.272	9892
919.383	9983
919.494	10150
919.604	10227
919.715	10162
919.826	10010
919.936	10044
920.047	10230
920.157	10097
920.267	10303
920.378	10268
920.488	10135
920.598	10348
920.708	10398
920.818	10310
920.928	10344
921.038	10523
921.148	10424
921.258	10150
921.368	10131
921.477	9960
921.587	9945
921.697	9797
921.806	10006
921.916	9899
922.025	9701
922.134	9686
922.244	9633
922.353	9641
922.462	9511
922.571	9473
922.68	9382
922.789	9351
922.898	9401
923.007	9329
923.116	9412
923.224	9412
923.333	9355
923.442	9275
923.55	9279
923.659	9306
923.767	9340
923.876	9218
923.984	9344
924.092	9199
924.201	9287
924.309	9283
924.417	9199
924.525	9165
924.633	9226
924.741	9895
924.849	9058
924.956	9161
925.064	9104
925.172	8952
925.279	9013
925.387	9070
925.494	9024
925.602	9176
925.709	9192
925.816	8944
925.924	9013
926.031	9058
926.138	9066
926.245	9131
926.352	8948
926.459	9097
926.566	9150
926.673	9005
926.779	8914
926.886	8941
926.993	8777
927.099	8667
927.206	8785
927.312	8648
927.419	8800
927.525	8746
927.631	8857
927.737	8674
927.843	8648
927.95	8598
928.056	8640
928.162	8606
928.267	8712
928.373	9199
928.479	8731
928.585	8552
928.69	8674
928.796	8625
928.901	8663
929.007	8381
929.112	8537
929.218	8587
929.323	8488
929.428	8495
929.533	8560
929.638	8423
929.743	8476
929.848	8446
929.953	8549
930.058	8320
930.163	8210
930.267	8290
930.372	8305
930.477	8237
930.581	8423
930.685	8282
930.79	8248
930.894	8195
930.998	8199
931.103	8347
931.207	7928
931.311	7947
931.415	7917
931.519	7727
931.623	7727
