Data from test_V78500241_2856.txt Node
Date: Fri Mar 25 14:53:36 CST 2022
User: usil
Spectrometer: V785-0024
Trigger mode: 0
Integration Time (sec): 4.000000E-1
Scans to average: 1
Nonlinearity correction enabled: false
Boxcar width: 0
Storing dark spectrum: false
XAxis mode: Wavelengths
Number of Pixels in Spectrum: 1024
>>>>>Begin Spectral Data<<<<<
801.071	22097
801.214	21854
801.356	21838
801.499	21698
801.641	21526
801.783	21500
801.926	21469
802.068	21317
802.211	21306
802.353	21252
802.496	20899
802.638	20948
802.78	20906
802.923	20788
803.065	20705
803.208	20670
803.35	20807
803.492	20876
803.635	20830
803.777	20804
803.919	20857
804.061	21142
804.204	20804
804.346	20693
804.488	20655
804.63	20792
804.773	20727
804.915	20678
805.057	20716
805.199	20644
805.341	20773
805.483	20785
805.626	20743
805.768	20602
805.91	20682
806.052	20629
806.194	20564
806.336	20762
806.478	20682
806.62	20640
806.762	20788
806.904	20838
807.046	21112
807.188	20956
807.33	21066
807.472	21062
807.614	20933
807.756	20952
807.898	20925
808.04	20667
808.182	20796
808.324	20826
808.465	20781
808.607	20880
808.749	21081
808.891	21184
809.033	21169
809.174	21093
809.316	20986
809.458	21161
809.6	21096
809.741	21024
809.883	21138
810.025	21173
810.166	21165
810.308	21279
810.45	21142
810.591	21093
810.733	20880
810.875	20838
811.016	20819
811.158	20746
811.299	20861
811.441	21009
811.582	20967
811.724	20815
811.865	20811
812.007	20815
812.148	20853
812.29	20769
812.431	20948
812.573	21051
812.714	21245
812.855	21237
812.997	21401
813.138	21462
813.279	21401
813.421	21317
813.562	21226
813.703	21074
813.845	21020
813.986	20720
814.127	20507
814.268	20495
814.41	20476
814.551	20332
814.692	20450
814.833	20343
814.974	20286
815.115	20324
815.256	20233
815.397	20172
815.539	20313
815.68	20145
815.821	20176
815.962	20195
816.103	20130
816.244	19974
816.385	19898
816.526	19780
816.666	19632
816.807	19578
816.948	19590
817.089	19616
817.23	19552
817.371	19594
817.512	19472
817.653	19544
817.793	19525
817.934	19304
818.075	19548
818.216	19521
818.356	19495
818.497	19381
818.638	19156
818.778	19244
818.919	19202
819.06	19164
819.2	19343
819.341	19388
819.481	19350
819.622	19483
819.762	19651
819.903	19487
820.043	19609
820.184	19411
820.324	19483
820.465	19495
820.605	19381
820.746	19578
820.886	19350
821.026	19445
821.167	19415
821.307	19502
821.447	19308
821.588	19274
821.728	19194
821.868	18993
822.008	18890
822.149	18817
822.289	18878
822.429	18673
822.569	18555
822.709	18559
822.849	18384
822.99	18311
823.13	18319
823.27	18285
823.41	18239
823.55	18098
823.69	18133
823.83	18235
823.97	18144
824.11	17973
824.25	17946
824.389	17942
824.529	17977
824.669	17984
824.809	18019
824.949	18129
825.089	17992
825.228	17927
825.368	17851
825.508	17771
825.648	17821
825.787	17741
825.927	17707
826.067	17733
826.206	17604
826.346	17741
826.485	17775
826.625	17733
826.765	17817
826.904	17714
827.044	17554
827.183	17501
827.323	17379
827.462	17421
827.601	17444
827.741	17414
827.88	17436
828.02	17318
828.159	17398
828.298	17398
828.437	17509
828.577	17391
828.716	17516
828.855	17402
828.994	17208
829.134	17143
829.273	17277
829.412	17151
829.551	17083
829.69	17121
829.829	17227
829.968	17303
830.107	17204
830.246	17132
830.385	17098
830.524	17079
830.663	16900
830.802	16858
830.941	16820
831.08	16759
831.219	16812
831.357	16824
831.496	17060
831.635	16740
831.774	16782
831.913	16748
832.051	16577
832.19	16443
832.329	16607
832.467	16470
832.606	16424
832.744	16500
832.883	16436
833.022	16455
833.16	16451
833.299	16428
833.437	16500
833.576	16561
833.714	16466
833.852	16493
833.991	16470
834.129	16538
834.267	16653
834.406	16417
834.544	16558
834.682	16512
834.821	16558
834.959	16687
835.097	16527
835.235	16565
835.373	16554
835.511	16580
835.65	16512
835.788	16474
835.926	16310
836.064	16230
836.202	16215
836.34	16409
836.478	16561
836.615	16390
836.753	16546
836.891	16573
837.029	16421
837.167	16466
837.305	16367
837.443	16314
837.58	16341
837.718	16421
837.856	16356
837.993	16310
838.131	16265
838.269	16257
838.406	16154
838.544	16215
838.681	15968
838.819	15975
838.956	16025
839.094	15899
839.231	15934
839.369	16051
839.506	16314
839.643	16162
839.781	15766
839.918	15804
840.055	15899
840.193	15888
840.33	15728
840.467	15850
840.604	15964
840.742	16238
840.879	15701
841.016	15705
841.153	15709
841.29	15926
841.427	15922
841.564	15884
841.701	15945
841.838	15800
841.975	15736
842.112	15873
842.249	15755
842.385	15686
842.522	15743
842.659	15641
842.796	15705
842.933	15557
843.069	15614
843.206	15603
843.343	15663
843.479	15610
843.616	15656
843.752	15424
843.889	15420
844.025	15564
844.162	15359
844.298	15641
844.435	15382
844.571	15393
844.708	15401
844.844	15553
844.98	15511
845.117	15534
845.253	15397
845.389	15256
845.525	15355
845.661	15313
845.798	15226
845.934	15272
846.07	15154
846.206	15146
846.342	15344
846.478	15180
846.614	15100
846.75	14925
846.886	14975
847.022	15127
847.158	14929
847.294	14941
847.429	14994
847.565	14918
847.701	15291
847.837	14716
847.972	14762
848.108	14785
848.244	14769
848.379	14682
848.515	14571
848.65	14610
848.786	14564
848.921	14556
849.057	14667
849.192	14689
849.328	14636
849.463	14629
849.598	14434
849.734	14495
849.869	14499
850.004	14305
850.14	14358
850.275	14351
850.41	14221
850.545	14233
850.68	14366
850.815	14351
850.95	14298
851.085	14537
851.22	14457
851.355	14351
851.49	14294
851.625	14267
851.76	14305
851.895	14248
852.03	14229
852.165	14389
852.299	14370
852.434	14476
852.569	14423
852.703	14305
852.838	14313
852.973	14476
853.107	14415
853.242	14355
853.376	14267
853.511	14138
853.645	14157
853.78	14237
853.914	14252
854.048	14221
854.183	14191
854.317	14206
854.451	14518
854.585	14259
854.72	14161
854.854	14256
854.988	14130
855.122	14081
855.256	14054
855.39	14225
855.524	14309
855.658	14240
855.792	14286
855.926	14176
856.06	14233
856.194	14298
856.327	14267
856.461	14225
856.595	14134
856.729	14145
856.862	14396
856.996	14286
857.13	14195
857.263	14324
857.397	14400
857.53	14244
857.664	14317
857.797	14324
857.931	14404
858.064	14309
858.197	14355
858.331	14294
858.464	14199
858.597	14119
858.731	14225
858.864	14278
858.997	14176
859.13	14305
859.263	14305
859.396	14309
859.529	14180
859.662	14202
859.795	14180
859.928	14263
860.061	14347
860.194	14454
860.327	14298
860.46	14221
860.592	14381
860.725	14355
860.858	14332
860.99	14301
861.123	14130
861.256	14153
861.388	14252
861.521	14853
861.653	14221
861.786	14111
861.918	14126
862.05	14145
862.183	14172
862.315	14309
862.447	14336
862.58	14187
862.712	14012
862.844	13883
862.976	14111
863.108	14081
863.24	14434
863.372	13947
863.504	13978
863.636	14016
863.768	14115
863.9	14088
864.032	14012
864.164	13967
864.296	13986
864.428	14191
864.559	14126
864.691	14172
864.823	14103
864.954	14069
865.086	14065
865.217	14008
865.349	13906
865.48	13970
865.612	14035
865.743	14115
865.875	14100
866.006	13993
866.137	14031
866.269	14065
866.4	13970
866.531	13974
866.662	13955
866.793	13906
866.924	13963
867.055	14039
867.186	13989
867.317	14024
867.448	13772
867.579	13883
867.71	13902
867.841	13917
867.972	14008
868.103	14020
868.233	14039
868.364	14039
868.495	14050
868.625	14252
868.756	14225
868.886	14210
869.017	14301
869.147	14419
869.278	14404
869.408	14389
869.539	14218
869.669	14351
869.799	14419
869.929	14313
870.06	14423
870.19	14583
870.32	14507
870.45	14556
870.58	14606
870.71	14796
870.84	14811
870.97	14602
871.1	14712
871.23	14819
871.36	14823
871.489	14861
871.619	14765
871.749	14849
871.879	14880
872.008	14952
872.138	14807
872.267	14880
872.397	14746
872.526	14689
872.656	14610
872.785	14701
872.915	14910
873.044	15036
873.173	14861
873.303	15017
873.432	14880
873.561	14971
873.69	14925
873.819	14925
873.948	15039
874.077	14960
874.206	14883
874.335	14967
874.464	15028
874.593	15230
874.722	15188
874.851	15283
874.979	15249
875.108	15279
875.237	15256
875.365	15127
875.494	15089
875.623	15233
875.751	15157
875.88	15325
876.008	15256
876.136	15523
876.265	15584
876.393	15842
876.521	15717
876.65	15835
876.778	15606
876.906	15568
877.034	15595
877.162	15610
877.29	15610
877.418	15568
877.546	15622
877.674	15584
877.802	15667
877.93	15641
878.058	15595
878.185	15462
878.313	15614
878.441	15599
878.568	15610
878.696	15603
878.824	15679
878.951	15766
879.079	15781
879.206	15953
879.333	15759
879.461	15732
879.588	15793
879.715	15846
879.842	15956
879.97	15660
880.097	15466
880.224	15515
880.351	15591
880.478	15553
880.605	15488
880.732	15454
880.859	15766
880.986	15618
881.112	15523
881.239	15310
881.366	15287
881.493	15123
881.619	15135
881.746	15298
881.872	15203
881.999	15161
882.125	15074
882.252	15317
882.378	15188
882.505	15329
882.631	15116
882.757	15005
882.883	15043
883.01	15024
883.136	14853
883.262	14849
883.388	14861
883.514	15009
883.64	14990
883.766	14906
883.892	14708
884.018	14720
884.143	14902
884.269	15020
884.395	14750
884.52	14640
884.646	14693
884.772	14655
884.897	14583
885.023	14636
885.148	14625
885.274	14830
885.399	14754
885.524	14625
885.65	14640
885.775	14769
885.9	14758
886.025	14815
886.15	14708
886.275	14629
886.4	14617
886.525	14689
886.65	14560
886.775	14667
886.9	14792
887.025	14872
887.149	14727
887.274	14575
887.399	14419
887.523	14503
887.648	14358
887.773	14427
887.897	14545
888.021	14632
888.146	14450
888.27	14583
888.395	14644
888.519	14602
888.643	14526
888.767	14594
888.891	14381
889.015	14290
889.139	14332
889.263	14358
889.387	14442
889.511	14537
889.635	14434
889.759	14358
889.883	14370
890.006	14381
890.13	14526
890.254	14275
890.377	14358
890.501	14221
890.624	14092
890.748	14168
890.871	14012
890.995	14020
891.118	13963
891.241	13989
891.364	13963
891.488	14225
891.611	14100
891.734	14100
891.857	14145
891.98	14054
892.103	14077
892.226	14103
892.349	14016
892.471	13993
892.594	14111
892.717	14005
892.839	14050
892.962	14050
893.085	14157
893.207	14001
893.33	14005
893.452	13970
893.575	14096
893.697	14035
893.819	14183
893.941	14233
894.064	14202
894.186	13997
894.308	13936
894.43	14176
894.552	14336
894.674	14256
894.796	14084
894.918	14073
895.04	14092
895.161	14233
895.283	14149
895.405	14191
895.526	14214
895.648	14081
895.769	14115
895.891	14172
896.012	14298
896.134	14187
896.255	14221
896.376	14210
896.498	14187
896.619	14229
896.74	14225
896.861	14294
896.982	14530
897.103	14701
897.224	14465
897.345	14457
897.466	14355
897.587	14457
897.708	14610
897.828	14625
897.949	14454
898.07	14434
898.19	14431
898.311	14617
898.431	14514
898.552	14602
898.672	14735
898.792	14644
898.913	14545
899.033	14541
899.153	14450
899.273	14233
899.393	14450
899.513	14419
899.633	14396
899.753	14461
899.873	14377
899.993	14473
900.113	14495
900.232	14503
900.352	14438
900.472	14263
900.591	14225
900.711	14305
900.83	14214
900.95	14355
901.069	14393
901.189	14214
901.308	14050
901.427	13951
901.546	14084
901.665	14012
901.784	14119
901.904	13826
902.023	13704
902.141	13628
902.26	13597
902.379	13662
902.498	13582
902.617	13495
902.735	13559
902.854	13594
902.973	13403
903.091	13304
903.21	13232
903.328	13308
903.446	13236
903.565	13076
903.683	13164
903.801	13065
903.919	13019
904.038	13088
904.156	12970
904.274	13031
904.392	12916
904.51	12852
904.627	12844
904.745	12962
904.863	12943
904.981	12757
905.098	12604
905.216	12673
905.334	12585
905.451	12639
905.569	12582
905.686	12604
905.803	12608
905.921	12448
906.038	12532
906.155	12441
906.272	12315
906.389	12300
906.506	12243
906.623	12186
906.74	12220
906.857	12106
906.974	12136
907.091	12190
907.208	12308
907.324	12258
907.441	12072
907.557	11954
907.674	11935
907.79	11935
907.907	11950
908.023	12003
908.139	12007
908.256	11912
908.372	11920
908.488	11916
908.604	11771
908.72	11676
908.836	11691
908.952	11684
909.068	11843
909.184	11813
909.3	11722
909.415	11771
909.531	11775
909.647	11554
909.762	11493
909.878	11478
909.993	11467
910.108	11482
910.224	11467
910.339	11478
910.454	11349
910.57	11391
910.685	11296
910.8	11649
910.915	11512
911.03	11387
911.145	11197
911.259	11216
911.374	11216
911.489	11056
911.604	11136
911.718	10957
911.833	10968
911.947	10828
912.062	10801
912.176	10968
912.291	10930
912.405	10984
912.519	11056
912.633	11216
912.748	11056
912.862	10942
912.976	10862
913.09	10656
913.204	10771
913.318	10850
913.431	10942
913.545	10911
913.659	10892
913.772	10835
913.886	10717
914	10748
914.113	10812
914.226	10824
914.34	10801
914.453	10569
914.566	10828
914.68	10710
914.793	10592
914.906	10512
915.019	10421
915.132	10371
915.245	10360
915.358	10519
915.47	10470
915.583	10478
915.696	10550
915.809	10656
915.921	10637
916.034	10596
916.146	10440
916.259	10371
916.371	10455
916.483	10538
916.595	10306
916.708	10428
916.82	10367
916.932	10417
917.044	10360
917.156	10333
917.268	10310
917.38	10314
917.491	10230
917.603	10280
917.715	10394
917.826	10379
917.938	10287
918.049	10227
918.161	10188
918.272	10405
918.384	10428
918.495	10261
918.606	10166
918.717	10128
918.828	10090
918.939	10227
919.05	10093
919.161	10116
919.272	9964
919.383	9987
919.494	10200
919.604	10329
919.715	10192
919.826	10063
919.936	10154
920.047	10261
920.157	10150
920.267	10337
920.378	10261
920.488	10131
920.598	10382
920.708	10489
920.818	10447
920.928	10447
921.038	10554
921.148	10542
921.258	10230
921.368	10128
921.477	10074
921.587	9956
921.697	9854
921.806	10082
921.916	9930
922.025	9812
922.134	9762
922.244	9682
922.353	9797
922.462	9648
922.571	9656
922.68	9386
922.789	9397
922.898	9443
923.007	9412
923.116	9454
923.224	9435
923.333	9466
923.442	9340
923.55	9344
923.659	9283
923.767	9401
923.876	9294
923.984	9443
924.092	9241
924.201	9325
924.309	9378
924.417	9279
924.525	9169
924.633	9230
924.741	10207
924.849	9093
924.956	9253
925.064	9039
925.172	8967
925.279	9066
925.387	9146
925.494	9051
925.602	9264
925.709	9169
925.816	9039
925.924	9131
926.031	9184
926.138	9043
926.245	9173
926.352	9070
926.459	9226
926.566	9188
926.673	9055
926.779	8979
926.886	8925
926.993	8849
927.099	8735
927.206	8781
927.312	8819
927.419	8910
927.525	8781
927.631	8876
927.737	8697
927.843	8727
927.95	8651
928.056	8640
928.162	8716
928.267	8781
928.373	9325
928.479	8807
928.585	8541
928.69	8743
928.796	8773
928.901	8568
929.007	8511
929.112	8701
929.218	8571
929.323	8488
929.428	8507
929.533	8640
929.638	8465
929.743	8533
929.848	8533
929.953	8480
930.058	8465
930.163	8305
930.267	8332
930.372	8434
930.477	8240
930.581	8537
930.685	8324
930.79	8233
930.894	8244
930.998	8259
931.103	8404
931.207	8027
931.311	7955
931.415	7917
931.519	7742
931.623	7738
