Data from test_V78500241_1536.txt Node
Date: Fri Mar 25 14:44:24 CST 2022
User: usil
Spectrometer: V785-0024
Trigger mode: 0
Integration Time (sec): 4.000000E-1
Scans to average: 1
Nonlinearity correction enabled: false
Boxcar width: 0
Storing dark spectrum: false
XAxis mode: Wavelengths
Number of Pixels in Spectrum: 1024
>>>>>Begin Spectral Data<<<<<
801.071	22440
801.214	22421
801.356	22036
801.499	21937
801.641	21785
801.783	21690
801.926	21804
802.068	21622
802.211	21622
802.353	21648
802.496	21370
802.638	21374
802.78	21264
802.923	21123
803.065	21096
803.208	21207
803.35	21142
803.492	21287
803.635	21192
803.777	21135
803.919	21211
804.061	21492
804.204	21214
804.346	21081
804.488	20971
804.63	21017
804.773	20979
804.915	21085
805.057	21180
805.199	21028
805.341	21233
805.483	21176
805.626	21123
805.768	21100
805.91	21051
806.052	21116
806.194	20960
806.336	21355
806.478	21036
806.62	21032
806.762	21135
806.904	21161
807.046	21477
807.188	21431
807.33	21447
807.472	21473
807.614	21348
807.756	21317
807.898	21386
808.04	21195
808.182	21264
808.324	21374
808.465	21302
808.607	21359
808.749	21629
808.891	21717
809.033	21705
809.174	21682
809.316	21568
809.458	21618
809.6	21469
809.741	21583
809.883	21504
810.025	21785
810.166	21580
810.308	21583
810.45	21732
810.591	21557
810.733	21321
810.875	21306
811.016	21260
811.158	21180
811.299	21287
811.441	21386
811.582	21370
811.724	21302
811.865	21294
812.007	21283
812.148	21272
812.29	21344
812.431	21424
812.573	21572
812.714	21629
812.855	21739
812.997	21800
813.138	21979
813.279	21838
813.421	21857
813.562	21682
813.703	21492
813.845	21317
813.986	21104
814.127	21005
814.268	20842
814.41	20792
814.551	20765
814.692	20853
814.833	20762
814.974	20781
815.115	20773
815.256	20568
815.397	20587
815.539	20537
815.68	20568
815.821	20473
815.962	20568
816.103	20469
816.244	20427
816.385	20267
816.526	20290
816.666	20103
816.807	19928
816.948	20050
817.089	20077
817.23	19986
817.371	19963
817.512	19955
817.653	19951
817.793	19868
817.934	19940
818.075	19879
818.216	19978
818.356	19921
818.497	19788
818.638	19609
818.778	19537
818.919	19616
819.06	19674
819.2	19731
819.341	19814
819.481	19742
819.622	20065
819.762	20145
819.903	20016
820.043	19921
820.184	19936
820.324	19814
820.465	19822
820.605	19974
820.746	19822
820.886	19841
821.026	19909
821.167	19879
821.307	19902
821.447	19814
821.588	19635
821.728	19544
821.868	19403
822.008	19209
822.149	19373
822.289	19350
822.429	19057
822.569	19012
822.709	18996
822.849	18817
822.99	18901
823.13	18795
823.27	18665
823.41	18703
823.55	18585
823.69	18563
823.83	18635
823.97	18597
824.11	18369
824.25	18342
824.389	18353
824.529	18391
824.669	18414
824.809	18532
824.949	18528
825.089	18445
825.228	18441
825.368	18273
825.508	18194
825.648	18155
825.787	18209
825.927	18205
826.067	18079
826.206	18136
826.346	18076
826.485	18159
826.625	18110
826.765	18285
826.904	18258
827.044	17942
827.183	18011
827.323	17691
827.462	18003
827.601	17866
827.741	17775
827.88	17851
828.02	17729
828.159	17874
828.298	17870
828.437	17939
828.577	17733
828.716	17847
828.855	17665
828.994	17627
829.134	17600
829.273	17627
829.412	17558
829.551	17467
829.69	17646
829.829	17562
829.968	17623
830.107	17672
830.246	17516
830.385	17596
830.524	17600
830.663	17455
830.802	17364
830.941	17132
831.08	17200
831.219	17334
831.357	17311
831.496	17349
831.635	17181
831.774	17147
831.913	17185
832.051	16972
832.19	16965
832.329	17010
832.467	17010
832.606	16816
832.744	16881
832.883	16881
833.022	16809
833.16	16831
833.299	16976
833.437	16915
833.576	16854
833.714	16869
833.852	16930
833.991	16957
834.129	16965
834.267	17037
834.406	16908
834.544	17029
834.682	16938
834.821	16877
834.959	17136
835.097	16896
835.235	16938
835.373	16968
835.511	16885
835.65	16752
835.788	16729
835.926	16725
836.064	16710
836.202	16721
836.34	16889
836.478	16930
836.615	16752
836.753	16847
836.891	16942
837.029	16835
837.167	16725
837.305	16816
837.443	16733
837.58	16599
837.718	16713
837.856	16717
837.993	16668
838.131	16630
838.269	16626
838.406	16679
838.544	16531
838.681	16402
838.819	16280
838.956	16169
839.094	16310
839.231	16287
839.369	16402
839.506	16558
839.643	16478
839.781	16150
839.918	16204
840.055	16215
840.193	16196
840.33	16124
840.467	16181
840.604	16207
840.742	16481
840.879	16169
841.016	16059
841.153	16116
841.29	16375
841.427	16287
841.564	16143
841.701	16371
841.838	16078
841.975	16002
842.112	16120
842.249	16002
842.385	15850
842.522	16192
842.659	16002
842.796	15945
842.933	15941
843.069	15907
843.206	15911
843.343	16063
843.479	15960
843.616	16093
843.752	15739
843.889	15728
844.025	15960
844.162	15705
844.298	15945
844.435	15854
844.571	15732
844.708	15972
844.844	15979
844.98	15899
845.117	15827
845.253	15793
845.389	15682
845.525	15759
845.661	15793
845.798	15766
845.934	15762
846.07	15656
846.206	15842
846.342	15800
846.478	15614
846.614	15473
846.75	15351
846.886	15317
847.022	15401
847.158	15283
847.294	15321
847.429	15462
847.565	15367
847.701	15553
847.837	15097
847.972	15077
848.108	15188
848.244	15173
848.379	15024
848.515	14952
848.65	14994
848.786	14876
848.921	14944
849.057	14929
849.192	15070
849.328	14902
849.463	14960
849.598	14910
849.734	14868
849.869	14845
850.004	14678
850.14	14716
850.275	14746
850.41	14678
850.545	14625
850.68	14686
850.815	14667
850.95	14750
851.085	14948
851.22	14826
851.355	14720
851.49	14689
851.625	14659
851.76	14632
851.895	14663
852.03	14697
852.165	14682
852.299	14670
852.434	14746
852.569	14777
852.703	14731
852.838	14883
852.973	14838
853.107	14842
853.242	14731
853.376	14667
853.511	14427
853.645	14503
853.78	14720
853.914	14598
854.048	14503
854.183	14507
854.317	14587
854.451	14689
854.585	14644
854.72	14473
854.854	14644
854.988	14613
855.122	14564
855.256	14473
855.39	14503
855.524	14606
855.658	14644
855.792	14651
855.926	14556
856.06	14594
856.194	14659
856.327	14526
856.461	14644
856.595	14457
856.729	14533
856.862	14659
856.996	14545
857.13	14625
857.263	14655
857.397	14746
857.53	14583
857.664	14617
857.797	14659
857.931	14811
858.064	14606
858.197	14754
858.331	14495
858.464	14480
858.597	14473
858.731	14587
858.864	14484
858.997	14461
859.13	14518
859.263	14590
859.396	14564
859.529	14514
859.662	14579
859.795	14503
859.928	14552
860.061	14682
860.194	14674
860.327	14549
860.46	14518
860.592	14625
860.725	14667
860.858	14769
860.99	14587
861.123	14499
861.256	14480
861.388	14560
861.521	15119
861.653	14408
861.786	14461
861.918	14419
862.05	14469
862.183	14434
862.315	14514
862.447	14670
862.58	14522
862.712	14351
862.844	14317
862.976	14404
863.108	14362
863.24	14712
863.372	14271
863.504	14168
863.636	14267
863.768	14332
863.9	14370
864.032	14221
864.164	14309
864.296	14339
864.428	14408
864.559	14476
864.691	14385
864.823	14438
864.954	14328
865.086	14400
865.217	14419
865.349	14301
865.48	14362
865.612	14377
865.743	14503
865.875	14294
866.006	14290
866.137	14263
866.269	14313
866.4	14328
866.531	14229
866.662	14233
866.793	14214
866.924	14172
867.055	14305
867.186	14317
867.317	14221
867.448	14381
867.579	14176
867.71	14103
867.841	14195
867.972	14313
868.103	14324
868.233	14332
868.364	14286
868.495	14408
868.625	14613
868.756	14693
868.886	14514
869.017	14640
869.147	14590
869.278	14632
869.408	14625
869.539	14564
869.669	14568
869.799	14682
869.929	14697
870.06	14674
870.19	14883
870.32	14842
870.45	14918
870.58	14910
870.71	15024
870.84	15108
870.97	14956
871.1	14883
871.23	15135
871.36	15161
871.489	15066
871.619	15024
871.749	15203
871.879	15161
872.008	15359
872.138	15176
872.267	15146
872.397	15039
872.526	15043
872.656	14921
872.785	14929
872.915	15157
873.044	15264
873.173	15188
873.303	15218
873.432	15260
873.561	15252
873.69	15199
873.819	15298
873.948	15329
874.077	15195
874.206	15104
874.335	15169
874.464	15363
874.593	15606
874.722	15389
874.851	15507
874.979	15584
875.108	15576
875.237	15431
875.365	15496
875.494	15469
875.623	15549
875.751	15553
875.88	15534
876.008	15629
876.136	15682
876.265	15861
876.393	16059
876.521	16010
876.65	15979
876.778	15907
876.906	15842
877.034	15880
877.162	15857
877.29	15892
877.418	15998
877.546	15953
877.674	15937
877.802	15953
877.93	15934
878.058	15949
878.185	15800
878.313	15937
878.441	15892
878.568	15823
878.696	15873
878.824	15964
878.951	16002
879.079	16211
879.206	16291
879.333	16219
879.461	16059
879.588	16097
879.715	16207
879.842	16299
879.97	16078
880.097	15736
880.224	15823
880.351	15774
880.478	15785
880.605	15800
880.732	15846
880.859	16116
880.986	15804
881.112	15865
881.239	15747
881.366	15534
881.493	15492
881.619	15462
881.746	15405
881.872	15458
881.999	15370
882.125	15405
882.252	15435
882.378	15485
882.505	15561
882.631	15488
882.757	15272
882.883	15268
883.01	15230
883.136	15176
883.262	15161
883.388	15146
883.514	15340
883.64	15321
883.766	15169
883.892	15062
884.018	15150
884.143	15252
884.269	15367
884.395	15062
884.52	14971
884.646	15005
884.772	14868
884.897	14861
885.023	14921
885.148	15074
885.274	15176
885.399	15066
885.524	15043
885.65	14918
885.775	14883
885.9	14975
886.025	15173
886.15	15074
886.275	14929
886.4	14906
886.525	14948
886.65	14910
886.775	14883
886.9	14990
887.025	15214
887.149	14933
887.274	14781
887.399	14651
887.523	14746
887.648	14632
887.773	14716
887.897	14762
888.021	14826
888.146	14758
888.27	14823
888.395	14937
888.519	14823
888.643	14853
888.767	14769
888.891	14720
889.015	14587
889.139	14682
889.263	14648
889.387	14765
889.511	14880
889.635	14758
889.759	14488
889.883	14613
890.006	14705
890.13	14785
890.254	14495
890.377	14640
890.501	14526
890.624	14332
890.748	14381
890.871	14427
890.995	14298
891.118	14275
891.241	14286
891.364	14305
891.488	14366
891.611	14332
891.734	14332
891.857	14404
891.98	14320
892.103	14389
892.226	14366
892.349	14286
892.471	14157
892.594	14339
892.717	14400
892.839	14370
892.962	14336
893.085	14385
893.207	14320
893.33	14229
893.452	14225
893.575	14400
893.697	14309
893.819	14514
893.941	14594
894.064	14564
894.186	14339
894.308	14298
894.43	14412
894.552	14571
894.674	14412
894.796	14298
894.918	14317
895.04	14377
895.161	14484
895.283	14446
895.405	14522
895.526	14499
895.648	14511
895.769	14385
895.891	14454
896.012	14568
896.134	14571
896.255	14533
896.376	14446
896.498	14492
896.619	14594
896.74	14499
896.861	14640
896.982	14937
897.103	14933
897.224	14823
897.345	14701
897.466	14705
897.587	14663
897.708	14857
897.828	14845
897.949	14811
898.07	14678
898.19	14739
898.311	14785
898.431	14777
898.552	14834
898.672	14925
898.792	14895
898.913	14925
899.033	14861
899.153	14743
899.273	14594
899.393	14644
899.513	14701
899.633	14705
899.753	14689
899.873	14594
899.993	14731
900.113	14701
900.232	14724
900.352	14640
900.472	14613
900.591	14644
900.711	14636
900.83	14507
900.95	14629
901.069	14689
901.189	14446
901.308	14248
901.427	14259
901.546	14259
901.665	14328
901.784	14267
901.904	14050
902.023	13963
902.141	13883
902.26	13906
902.379	13921
902.498	13936
902.617	13734
902.735	13803
902.854	13704
902.973	13788
903.091	13578
903.21	13605
903.328	13499
903.446	13453
903.565	13327
903.683	13381
903.801	13266
903.919	13392
904.038	13449
904.156	13171
904.274	13129
904.392	13118
904.51	13091
904.627	13209
904.745	13145
904.863	13259
904.981	12981
905.098	12840
905.216	12878
905.334	12890
905.451	12875
905.569	12840
905.686	12886
905.803	12825
905.921	12639
906.038	12772
906.155	12684
906.272	12570
906.389	12684
906.506	12395
906.623	12528
906.74	12414
906.857	12300
906.974	12418
907.091	12399
907.208	12639
907.324	12589
907.441	12357
907.557	12209
907.674	12148
907.79	12186
907.907	12091
908.023	12144
908.139	12163
908.256	12186
908.372	12235
908.488	12022
908.604	11984
908.72	11904
908.836	12007
908.952	11840
909.068	11954
909.184	12060
909.3	11912
909.415	11961
909.531	11935
909.647	11703
909.762	11684
909.878	11726
909.993	11714
910.108	11722
910.224	11707
910.339	11707
910.454	11665
910.57	11543
910.685	11512
910.8	11840
910.915	11668
911.03	11535
911.145	11379
911.259	11402
911.374	11315
911.489	11303
911.604	11395
911.718	11189
911.833	11250
911.947	11003
912.062	10984
912.176	11147
912.291	11155
912.405	11136
912.519	11337
912.633	11436
912.748	11246
912.862	11220
912.976	11010
913.09	10965
913.204	11075
913.318	11071
913.431	11204
913.545	11121
913.659	11086
913.772	11094
913.886	10908
914	10896
914.113	10984
914.226	11045
914.34	10984
914.453	10850
914.566	11022
914.68	10847
914.793	10858
914.906	10668
915.019	10618
915.132	10626
915.245	10679
915.358	10618
915.47	10733
915.583	10702
915.696	10744
915.809	10771
915.921	10733
916.034	10603
916.146	10580
916.259	10664
916.371	10721
916.483	10641
916.595	10523
916.708	10622
916.82	10641
916.932	10558
917.044	10550
917.156	10542
917.268	10363
917.38	10546
917.491	10550
917.603	10500
917.715	10573
917.826	10607
917.938	10500
918.049	10287
918.161	10500
918.272	10641
918.384	10634
918.495	10424
918.606	10329
918.717	10352
918.828	10318
918.939	10413
919.05	10253
919.161	10341
919.272	10147
919.383	10230
919.494	10409
919.604	10569
919.715	10344
919.826	10219
919.936	10325
920.047	10470
920.157	10413
920.267	10584
920.378	10402
920.488	10379
920.598	10645
920.708	10702
920.818	10603
920.928	10596
921.038	10759
921.148	10588
921.258	10402
921.368	10310
921.477	10173
921.587	10177
921.697	10105
921.806	10261
921.916	10109
922.025	9953
922.134	9903
922.244	9884
922.353	9934
922.462	9766
922.571	9789
922.68	9603
922.789	9584
922.898	9629
923.007	9610
923.116	9625
923.224	9660
923.333	9618
923.442	9515
923.55	9450
923.659	9488
923.767	9587
923.876	9401
923.984	9553
924.092	9306
924.201	9488
924.309	9485
924.417	9500
924.525	9405
924.633	9469
924.741	10405
924.849	9233
924.956	9382
925.064	9256
925.172	9207
925.279	9336
925.387	9249
925.494	9272
925.602	9355
925.709	9287
925.816	9203
925.924	9298
926.031	9291
926.138	9291
926.245	9279
926.352	9169
926.459	9374
926.566	9412
926.673	9173
926.779	9093
926.886	9188
926.993	8982
927.099	8990
927.206	9024
927.312	9020
927.419	9013
927.525	8982
927.631	9017
927.737	8963
927.843	8864
927.95	8705
928.056	8864
928.162	8857
928.267	8883
928.373	9420
928.479	8979
928.585	8701
928.69	8811
928.796	8895
928.901	8781
929.007	8705
929.112	8796
929.218	8766
929.323	8648
929.428	8648
929.533	8792
929.638	8610
929.743	8549
929.848	8697
929.953	8655
930.058	8590
930.163	8412
930.267	8404
930.372	8583
930.477	8423
930.581	8610
930.685	8503
930.79	8377
930.894	8385
930.998	8351
931.103	8503
931.207	8214
931.311	8119
931.415	8043
931.519	7890
931.623	7925
