Data from test_V78500241_1042.txt Node
Date: Fri Mar 25 14:40:58 CST 2022
User: usil
Spectrometer: V785-0024
Trigger mode: 0
Integration Time (sec): 4.000000E-1
Scans to average: 1
Nonlinearity correction enabled: false
Boxcar width: 0
Storing dark spectrum: false
XAxis mode: Wavelengths
Number of Pixels in Spectrum: 1024
>>>>>Begin Spectral Data<<<<<
801.071	22930
801.214	22889
801.356	22481
801.499	22451
801.641	22344
801.783	22291
801.926	22325
802.068	22131
802.211	22029
802.353	21903
802.496	21739
802.638	21781
802.78	21629
802.923	21694
803.065	21587
803.208	21511
803.35	21705
803.492	21625
803.635	21663
803.777	21523
803.919	21671
804.061	21850
804.204	21633
804.346	21660
804.488	21488
804.63	21488
804.773	21458
804.915	21557
805.057	21823
805.199	21435
805.341	21595
805.483	21561
805.626	21622
805.768	21439
805.91	21469
806.052	21511
806.194	21466
806.336	21720
806.478	21610
806.62	21504
806.762	21652
806.904	21709
807.046	21949
807.188	21865
807.33	21838
807.472	22036
807.614	22013
807.756	21964
807.898	21861
808.04	21941
808.182	21899
808.324	22067
808.465	22135
808.607	22424
808.749	22717
808.891	22675
809.033	22797
809.174	22557
809.316	22512
809.458	22459
809.6	22276
809.741	22249
809.883	22211
810.025	22185
810.166	22196
810.308	22249
810.45	22082
810.591	22074
810.733	21895
810.875	21816
811.016	21724
811.158	21705
811.299	21850
811.441	21968
811.582	21827
811.724	21641
811.865	21576
812.007	21759
812.148	21728
812.29	21903
812.431	21915
812.573	22063
812.714	22105
812.855	22295
812.997	22211
813.138	22421
813.279	22348
813.421	22246
813.562	22185
813.703	22048
813.845	21835
813.986	21652
814.127	21538
814.268	21313
814.41	21454
814.551	21230
814.692	21272
814.833	21161
814.974	21252
815.115	21283
815.256	21104
815.397	21127
815.539	21108
815.68	20910
815.821	20910
815.962	21024
816.103	20876
816.244	20807
816.385	20792
816.526	20674
816.666	20689
816.807	20465
816.948	20476
817.089	20564
817.23	20385
817.371	20431
817.512	20347
817.653	20347
817.793	20427
817.934	20556
818.075	20492
818.216	20396
818.356	20317
818.497	20199
818.638	20069
818.778	20107
818.919	20046
819.06	20199
819.2	20244
819.341	20400
819.481	20290
819.622	20377
819.762	20590
819.903	20587
820.043	20488
820.184	20358
820.324	20442
820.465	20385
820.605	20488
820.746	20465
820.886	20202
821.026	20282
821.167	20381
821.307	20324
821.447	20358
821.588	20161
821.728	20031
821.868	19902
822.008	19814
822.149	19784
822.289	19795
822.429	19529
822.569	19590
822.709	19594
822.849	19301
822.99	19297
823.13	19335
823.27	19259
823.41	19129
823.55	19023
823.69	19057
823.83	19133
823.97	19069
824.11	18913
824.25	18947
824.389	18909
824.529	18852
824.669	18909
824.809	18996
824.949	19076
825.089	18981
825.228	18871
825.368	18703
825.508	18684
825.648	18631
825.787	18665
825.927	18707
826.067	18551
826.206	18620
826.346	18642
826.485	18798
826.625	18589
826.765	18639
826.904	18566
827.044	18422
827.183	18414
827.323	18403
827.462	18350
827.601	18357
827.741	18262
827.88	18304
828.02	18266
828.159	18391
828.298	18315
828.437	18361
828.577	18323
828.716	18441
828.855	18273
828.994	18114
829.134	18045
829.273	18114
829.412	18045
829.551	18030
829.69	18041
829.829	18076
829.968	18213
830.107	18144
830.246	18148
830.385	17988
830.524	18007
830.663	17920
830.802	17847
830.941	17733
831.08	17634
831.219	17752
831.357	17813
831.496	17946
831.635	17726
831.774	17589
831.913	17649
832.051	17467
832.19	17512
832.329	17516
832.467	17322
832.606	17322
832.744	17330
832.883	17372
833.022	17296
833.16	17421
833.299	17547
833.437	17429
833.576	17512
833.714	17452
833.852	17589
833.991	17551
834.129	17497
834.267	17562
834.406	17364
834.544	17482
834.682	17444
834.821	17478
834.959	17630
835.097	17463
835.235	17497
835.373	17471
835.511	17406
835.65	17288
835.788	17288
835.926	17155
836.064	17105
836.202	17140
836.34	17318
836.478	17356
836.615	17341
836.753	17337
836.891	17364
837.029	17318
837.167	17307
837.305	17231
837.443	17288
837.58	17025
837.718	17296
837.856	17185
837.993	17128
838.131	17239
838.269	17170
838.406	17159
838.544	17083
838.681	16854
838.819	16968
838.956	16672
839.094	16725
839.231	16736
839.369	16923
839.506	17250
839.643	17018
839.781	16801
839.918	16793
840.055	16744
840.193	16683
840.33	16569
840.467	16797
840.604	16755
840.742	16942
840.879	16538
841.016	16698
841.153	16603
841.29	16839
841.427	16835
841.564	16752
841.701	16774
841.838	16698
841.975	16588
842.112	16675
842.249	16580
842.385	16561
842.522	16698
842.659	16523
842.796	16478
842.933	16580
843.069	16447
843.206	16535
843.343	16542
843.479	16459
843.616	16531
843.752	16310
843.889	16352
844.025	16497
844.162	16253
844.298	16459
844.435	16329
844.571	16196
844.708	16363
844.844	16531
844.98	16470
845.117	16504
845.253	16257
845.389	16249
845.525	16398
845.661	16607
845.798	16733
845.934	16889
846.07	16961
846.206	16930
846.342	16812
846.478	16599
846.614	16295
846.75	15972
846.886	15964
847.022	15945
847.158	15922
847.294	15892
847.429	15964
847.565	15884
847.701	16036
847.837	15675
847.972	15572
848.108	15614
848.244	15667
848.379	15530
848.515	15523
848.65	15291
848.786	15477
848.921	15450
849.057	15496
849.192	15545
849.328	15538
849.463	15439
849.598	15466
849.734	15268
849.869	15336
850.004	15161
850.14	15252
850.275	15226
850.41	15195
850.545	15249
850.68	15123
850.815	15218
850.95	15138
851.085	15412
851.22	15351
851.355	15233
851.49	15157
851.625	15119
851.76	15203
851.895	15161
852.03	15100
852.165	15169
852.299	15218
852.434	15272
852.569	15249
852.703	15241
852.838	15275
852.973	15351
853.107	15272
853.242	15264
853.376	15146
853.511	14994
853.645	15081
853.78	15222
853.914	15001
854.048	15058
854.183	15013
854.317	15169
854.451	15264
854.585	15157
854.72	15150
854.854	15192
854.988	14986
855.122	15070
855.256	14899
855.39	14998
855.524	15157
855.658	15093
855.792	15169
855.926	15150
856.06	15211
856.194	15279
856.327	15066
856.461	15131
856.595	15066
856.729	15104
856.862	15188
856.996	15146
857.13	15142
857.263	15188
857.397	15214
857.53	15142
857.664	15131
857.797	15192
857.931	15211
858.064	15093
858.197	15222
858.331	15138
858.464	15039
858.597	14971
858.731	15085
858.864	15028
858.997	15085
859.13	15074
859.263	15097
859.396	15180
859.529	15127
859.662	14986
859.795	15028
859.928	15058
860.061	15233
860.194	15287
860.327	15161
860.46	14990
860.592	15192
860.725	15287
860.858	15230
860.99	15161
861.123	15104
861.256	15112
861.388	15104
861.521	15804
861.653	14910
861.786	14994
861.918	14861
862.05	14963
862.183	15081
862.315	15070
862.447	15097
862.58	15005
862.712	14895
862.844	14853
862.976	14864
863.108	14891
863.24	15370
863.372	14785
863.504	14952
863.636	14872
863.768	14937
863.9	14933
864.032	14819
864.164	14895
864.296	14914
864.428	14883
864.559	14975
864.691	14979
864.823	15005
864.954	14857
865.086	14895
865.217	14921
865.349	14796
865.48	14876
865.612	14994
865.743	14979
865.875	14887
866.006	14762
866.137	14834
866.269	14807
866.4	14868
866.531	14804
866.662	14788
866.793	14712
866.924	14826
867.055	14804
867.186	14826
867.317	14746
867.448	14750
867.579	14830
867.71	14765
867.841	14701
867.972	14773
868.103	14891
868.233	14769
868.364	14929
868.495	14937
868.625	15093
868.756	15176
868.886	15009
869.017	15009
869.147	15241
869.278	15222
869.408	15051
869.539	15081
869.669	15146
869.799	15192
869.929	15188
870.06	15169
870.19	15340
870.32	15348
870.45	15477
870.58	15393
870.71	15580
870.84	15587
870.97	15401
871.1	15500
871.23	15675
871.36	15717
871.489	15618
871.619	15591
871.749	15679
871.879	15770
872.008	15732
872.138	15679
872.267	15663
872.397	15553
872.526	15416
872.656	15462
872.785	15530
872.915	15755
873.044	15785
873.173	15667
873.303	15781
873.432	15743
873.561	15816
873.69	15682
873.819	15819
873.948	15835
874.077	15724
874.206	15690
874.335	15797
874.464	15892
874.593	15972
874.722	15968
874.851	16078
874.979	16055
875.108	16074
875.237	15964
875.365	15934
875.494	16051
875.623	16124
875.751	16017
875.88	16093
876.008	16166
876.136	16177
876.265	16413
876.393	16641
876.521	16443
876.65	16580
876.778	16489
876.906	16535
877.034	16402
877.162	16390
877.29	16421
877.418	16474
877.546	16485
877.674	16573
877.802	16508
877.93	16428
878.058	16451
878.185	16360
878.313	16535
878.441	16538
878.568	16303
878.696	16531
878.824	16637
878.951	16660
879.079	16805
879.206	17029
879.333	16896
879.461	16904
879.588	16999
879.715	17064
879.842	17098
879.97	16885
880.097	16500
880.224	16432
880.351	16451
880.478	16447
880.605	16325
880.732	16352
880.859	16736
880.986	16432
881.112	16580
881.239	16280
881.366	16177
881.493	16128
881.619	16006
881.746	16082
881.872	16013
881.999	16162
882.125	15979
882.252	16078
882.378	16120
882.505	16204
882.631	15983
882.757	15797
882.883	15945
883.01	15888
883.136	15682
883.262	15781
883.388	15751
883.514	15953
883.64	15915
883.766	15720
883.892	15679
884.018	15686
884.143	15964
884.269	15907
884.395	15599
884.52	15587
884.646	15675
884.772	15500
884.897	15526
885.023	15618
885.148	15633
885.274	15682
885.399	15641
885.524	15652
885.65	15587
885.775	15549
885.9	15633
886.025	15663
886.15	15637
886.275	15454
886.4	15416
886.525	15500
886.65	15496
886.775	15454
886.9	15500
887.025	15686
887.149	15561
887.274	15294
887.399	15294
887.523	15252
887.648	15218
887.773	15252
887.897	15401
888.021	15230
888.146	15313
888.27	15564
888.395	15401
888.519	15336
888.643	15310
888.767	15374
888.891	15245
889.015	15211
889.139	15157
889.263	15161
889.387	15340
889.511	15348
889.635	15298
889.759	15131
889.883	15112
890.006	15184
890.13	15203
890.254	15119
890.377	15055
890.501	14872
890.624	14872
890.748	14994
890.871	14982
890.995	14750
891.118	14667
891.241	14804
891.364	14864
891.488	14990
891.611	14845
891.734	14807
891.857	14902
891.98	14826
892.103	14834
892.226	14868
892.349	14769
892.471	14727
892.594	14769
892.717	14804
892.839	14720
892.962	14800
893.085	14845
893.207	14834
893.33	14678
893.452	14705
893.575	14811
893.697	14800
893.819	15036
893.941	15058
894.064	14986
894.186	14769
894.308	14686
894.43	14914
894.552	14948
894.674	14929
894.796	14659
894.918	14845
895.04	14811
895.161	14925
895.283	14777
895.405	14811
895.526	14963
895.648	14963
895.769	14906
895.891	14986
896.012	14994
896.134	14906
896.255	14948
896.376	14834
896.498	14948
896.619	14956
896.74	14975
896.861	14990
896.982	15355
897.103	15401
897.224	15150
897.345	15119
897.466	15097
897.587	15211
897.708	15317
897.828	15199
897.949	15135
898.07	15085
898.19	15192
898.311	15317
898.431	15260
898.552	15370
898.672	15294
898.792	15355
898.913	15340
899.033	15218
899.153	15058
899.273	15062
899.393	15127
899.513	15119
899.633	15100
899.753	15135
899.873	15100
899.993	15157
900.113	15089
900.232	15207
900.352	15142
900.472	15005
900.591	14952
900.711	15020
900.83	14921
900.95	15077
901.069	15051
901.189	14944
901.308	14727
901.427	14511
901.546	14640
901.665	14659
901.784	14701
901.904	14568
902.023	14404
902.141	14294
902.26	14278
902.379	14358
902.498	14161
902.617	14058
902.735	14237
902.854	14123
902.973	14172
903.091	13967
903.21	13928
903.328	13932
903.446	13936
903.565	13765
903.683	13662
903.801	13616
903.919	13788
904.038	13670
904.156	13567
904.274	13674
904.392	13518
904.51	13506
904.627	13518
904.745	13578
904.863	13662
904.981	13384
905.098	13331
905.216	13312
905.334	13343
905.451	13266
905.569	13198
905.686	13266
905.803	13209
905.921	13042
906.038	13072
906.155	13042
906.272	13000
906.389	12966
906.506	12878
906.623	12810
906.74	12757
906.857	12783
906.974	12726
907.091	12913
907.208	12916
907.324	12856
907.441	12726
907.557	12563
907.674	12665
907.79	12494
907.907	12570
908.023	12623
908.139	12601
908.256	12464
908.372	12521
908.488	12414
908.604	12338
908.72	12300
908.836	12277
908.952	12277
909.068	12304
909.184	12437
909.3	12304
909.415	12289
909.531	12384
909.647	12136
909.762	12079
909.878	11996
909.993	12015
910.108	12091
910.224	12049
910.339	12133
910.454	11958
910.57	11984
910.685	11927
910.8	12186
910.915	12140
911.03	11984
911.145	11783
911.259	11809
911.374	11817
911.489	11630
911.604	11649
911.718	11463
911.833	11611
911.947	11330
912.062	11398
912.176	11509
912.291	11619
912.405	11455
912.519	11756
912.633	11737
912.748	11630
912.862	11505
912.976	11444
913.09	11334
913.204	11345
913.318	11398
913.431	11524
913.545	11467
913.659	11577
913.772	11410
913.886	11296
914	11189
914.113	11296
914.226	11379
914.34	11299
914.453	11174
914.566	11311
914.68	11231
914.793	11265
914.906	10942
915.019	10881
915.132	10915
915.245	11006
915.358	11037
915.47	10999
915.583	11041
915.696	11025
915.809	11181
915.921	11151
916.034	10942
916.146	10938
916.259	10968
916.371	11025
916.483	11014
916.595	10869
916.708	10961
916.82	10987
916.932	10938
917.044	10889
917.156	10889
917.268	10854
917.38	10805
917.491	10778
917.603	10793
917.715	10877
917.826	10930
917.938	10786
918.049	10687
918.161	10767
918.272	10915
918.384	10968
918.495	10767
918.606	10611
918.717	10580
918.828	10733
918.939	10717
919.05	10561
919.161	10668
919.272	10523
919.383	10584
919.494	10710
919.604	10877
919.715	10653
919.826	10569
919.936	10664
920.047	10771
920.157	10736
920.267	10881
920.378	10763
920.488	10672
920.598	10904
920.708	10938
920.818	10919
920.928	10873
921.038	11067
921.148	10961
921.258	10653
921.368	10641
921.477	10577
921.587	10504
921.697	10451
921.806	10565
921.916	10413
922.025	10215
922.134	10234
922.244	10169
922.353	10322
922.462	10029
922.571	10074
922.68	9983
922.789	9911
922.898	9899
923.007	9835
923.116	9975
923.224	9960
923.333	9926
923.442	9842
923.55	9789
923.659	9785
923.767	9892
923.876	9724
923.984	9823
924.092	9755
924.201	9747
924.309	9747
924.417	9743
924.525	9751
924.633	9762
924.741	10641
924.849	9553
924.956	9736
925.064	9545
925.172	9507
925.279	9500
925.387	9694
925.494	9599
925.602	9686
925.709	9641
925.816	9496
925.924	9561
926.031	9701
926.138	9534
926.245	9644
926.352	9386
926.459	9564
926.566	9644
926.673	9542
926.779	9424
926.886	9447
926.993	9329
927.099	9310
927.206	9203
927.312	9275
927.419	9329
927.525	9310
927.631	9359
927.737	9169
927.843	9199
927.95	9070
928.056	9157
928.162	9169
928.267	9188
928.373	9888
928.479	9241
928.585	9058
928.69	9154
928.796	9287
928.901	9070
929.007	8902
929.112	9070
929.218	9047
929.323	9001
929.428	8948
929.533	9062
929.638	8868
929.743	8998
929.848	9055
929.953	8967
930.058	8838
930.163	8697
930.267	8830
930.372	8902
930.477	8750
930.581	8918
930.685	8792
930.79	8644
930.894	8644
930.998	8571
931.103	8701
931.207	8480
931.311	8370
931.415	8305
931.519	8096
931.623	8145
