Data from test_V78500241_702.txt Node
Date: Fri Mar 25 14:38:36 CST 2022
User: usil
Spectrometer: V785-0024
Trigger mode: 0
Integration Time (sec): 4.000000E-1
Scans to average: 1
Nonlinearity correction enabled: false
Boxcar width: 0
Storing dark spectrum: false
XAxis mode: Wavelengths
Number of Pixels in Spectrum: 1024
>>>>>Begin Spectral Data<<<<<
801.071	27926
801.214	27641
801.356	27424
801.499	27450
801.641	27233
801.783	27268
801.926	27157
802.068	27180
802.211	27119
802.353	26979
802.496	26758
802.638	26724
802.78	26731
802.923	26727
803.065	26731
803.208	26659
803.35	26636
803.492	26750
803.635	26868
803.777	26746
803.919	26838
804.061	27188
804.204	26956
804.346	26868
804.488	26868
804.63	27096
804.773	27001
804.915	27024
805.057	27104
805.199	27173
805.341	27325
805.483	27538
805.626	27447
805.768	27526
805.91	27705
806.052	27747
806.194	27770
806.336	28204
806.478	28295
806.62	28382
806.762	28691
806.904	29102
807.046	29512
807.188	29908
807.33	30399
807.472	30764
807.614	31552
807.756	32423
807.898	33583
808.04	35143
808.182	37091
808.324	39956
808.465	42821
808.607	46192
808.749	49110
808.891	50883
809.033	50918
809.174	49251
809.316	46641
809.458	42909
809.6	39637
809.741	36810
809.883	34542
810.025	33138
810.166	31917
810.308	31251
810.45	30555
810.591	30087
810.733	29547
810.875	29037
811.016	28736
811.158	28421
811.299	28417
811.441	28344
811.582	28177
811.724	27892
811.865	27911
812.007	27724
812.148	27629
812.29	27682
812.431	27739
812.573	27732
812.714	27762
812.855	27861
812.997	27914
813.138	27998
813.279	27850
813.421	27682
813.562	27488
813.703	27443
813.845	27237
813.986	27051
814.127	26667
814.268	26571
814.41	26583
814.551	26507
814.692	26564
814.833	26385
814.974	26495
815.115	26389
815.256	26282
815.397	26282
815.539	26145
815.68	26103
815.821	25932
815.962	26115
816.103	25959
816.244	25921
816.385	25818
816.526	25677
816.666	25499
816.807	25297
816.948	25358
817.089	25400
817.23	25335
817.371	25282
817.512	25171
817.653	25316
817.793	25289
817.934	25289
818.075	25263
818.216	25255
818.356	25206
818.497	25179
818.638	24909
818.778	24962
818.919	24932
819.06	24844
819.2	25091
819.341	25145
819.481	25057
819.622	25247
819.762	25365
819.903	25251
820.043	25289
820.184	25202
820.324	25133
820.465	25099
820.605	25034
820.746	25069
820.886	24837
821.026	24890
821.167	24905
821.307	25046
821.447	24970
821.588	24715
821.728	24540
821.868	24426
822.008	24384
822.149	24266
822.289	24140
822.429	24129
822.569	24095
822.709	24057
822.849	23775
822.99	23726
823.13	23707
823.27	23627
823.41	23581
823.55	23547
823.69	23646
823.83	23604
823.97	23387
824.11	23341
824.25	23284
824.389	23353
824.529	23322
824.669	23322
824.809	23337
824.949	23543
825.089	23444
825.228	23311
825.368	23181
825.508	23155
825.648	23117
825.787	23155
825.927	23147
826.067	23094
826.206	23132
826.346	23071
826.485	23109
826.625	23067
826.765	23128
826.904	23147
827.044	22850
827.183	22869
827.323	22782
827.462	22790
827.601	22687
827.741	22729
827.88	22778
828.02	22710
828.159	22752
828.298	22790
828.437	22702
828.577	22645
828.716	22733
828.855	22668
828.994	22462
829.134	22500
829.273	22531
829.412	22363
829.551	22253
829.69	22318
829.829	22352
829.968	22519
830.107	22447
830.246	22337
830.385	22333
830.524	22314
830.663	22200
830.802	22181
830.941	22051
831.08	21956
831.219	21979
831.357	22074
831.496	22329
831.635	22166
831.774	21846
831.913	21972
832.051	21903
832.19	21975
832.329	21926
832.467	21915
832.606	21751
832.744	21838
832.883	21960
833.022	22010
833.16	22036
833.299	22234
833.437	22318
833.576	22580
833.714	22592
833.852	22858
833.991	22847
834.129	23025
834.267	23056
834.406	22961
834.544	22961
834.682	22767
834.821	22645
834.959	22557
835.097	22173
835.235	22135
835.373	22204
835.511	22044
835.65	21892
835.788	21785
835.926	21572
836.064	21492
836.202	21492
836.34	21606
836.478	21675
836.615	21648
836.753	21595
836.891	21606
837.029	21572
837.167	21424
837.305	21393
837.443	21393
837.58	21222
837.718	21378
837.856	21420
837.993	21154
838.131	21321
838.269	21275
838.406	21230
838.544	21081
838.681	21104
838.819	20902
838.956	20697
839.094	20777
839.231	20845
839.369	20887
839.506	21203
839.643	20918
839.781	20693
839.918	20686
840.055	20735
840.193	20762
840.33	20762
840.467	20750
840.604	20746
840.742	21028
840.879	20606
841.016	20708
841.153	20579
841.29	20750
841.427	20682
841.564	20781
841.701	20689
841.838	20785
841.975	20625
842.112	20537
842.249	20564
842.385	20465
842.522	20720
842.659	20556
842.796	20552
842.933	20617
843.069	20587
843.206	20617
843.343	20571
843.479	20754
843.616	20655
843.752	20514
843.889	20533
844.025	20785
844.162	20625
844.298	20906
844.435	20971
844.571	21211
844.708	21500
844.844	21880
844.98	22478
845.117	23060
845.253	23916
845.389	25795
845.525	29448
845.661	35353
845.798	42391
845.934	47554
846.07	49407
846.206	47889
846.342	43084
846.478	36178
846.614	30258
846.75	26328
846.886	23965
847.022	22679
847.158	21709
847.294	21154
847.429	21043
847.565	20724
847.701	20701
847.837	20176
847.972	19978
848.108	19951
848.244	19791
848.379	19750
848.515	19635
848.65	19613
848.786	19552
848.921	19586
849.057	19571
849.192	19594
849.328	19582
849.463	19472
849.598	19400
849.734	19365
849.869	19259
850.004	19148
850.14	19126
850.275	19194
850.41	19069
850.545	19148
850.68	19206
850.815	19324
850.95	19072
851.085	19274
851.22	19156
851.355	19057
851.49	19046
851.625	18962
851.76	19194
851.895	18954
852.03	19088
852.165	19206
852.299	19171
852.434	19225
852.569	19133
852.703	19266
852.838	19335
852.973	19236
853.107	19369
853.242	19217
853.376	19107
853.511	19099
853.645	19129
853.78	19369
853.914	19362
854.048	19263
854.183	19346
854.317	19362
854.451	19468
854.585	19510
854.72	19285
854.854	19480
854.988	19259
855.122	19236
855.256	18981
855.39	19175
855.524	19320
855.658	19194
855.792	19050
855.926	19046
856.06	19164
856.194	19057
856.327	19050
856.461	18871
856.595	18875
856.729	18985
856.862	18932
856.996	18856
857.13	18894
857.263	19031
857.397	19065
857.53	18981
857.664	18909
857.797	18958
857.931	18985
858.064	18779
858.197	19015
858.331	18867
858.464	18798
858.597	18722
858.731	18776
858.864	18738
858.997	18757
859.13	18829
859.263	18814
859.396	18852
859.529	18734
859.662	18711
859.795	18677
859.928	18840
860.061	18886
860.194	18882
860.327	18779
860.46	18817
860.592	18791
860.725	18894
860.858	18867
860.99	18719
861.123	18635
861.256	18642
861.388	18738
861.521	19388
861.653	18627
861.786	18452
861.918	18502
862.05	18779
862.183	18768
862.315	18768
862.447	18696
862.58	18578
862.712	18547
862.844	18437
862.976	18563
863.108	18502
863.24	18806
863.372	18330
863.504	18486
863.636	18445
863.768	18399
863.9	18502
864.032	18319
864.164	18391
864.296	18384
864.428	18509
864.559	18441
864.691	18513
864.823	18319
864.954	18391
865.086	18365
865.217	18353
865.349	18220
865.48	18448
865.612	18308
865.743	18490
865.875	18311
866.006	18315
866.137	18376
866.269	18281
866.4	18327
866.531	18266
866.662	18220
866.793	18304
866.924	18270
867.055	18350
867.186	18308
867.317	18178
867.448	18247
867.579	18201
867.71	18167
867.841	18197
867.972	18330
868.103	18258
868.233	18239
868.364	18369
868.495	18327
868.625	18467
868.756	18646
868.886	18418
869.017	18528
869.147	18669
869.278	18654
869.408	18593
869.539	18551
869.669	18604
869.799	18517
869.929	18631
870.06	18654
870.19	18844
870.32	18966
870.45	18981
870.58	19042
870.71	19076
870.84	19107
870.97	18863
871.1	19031
871.23	19240
871.36	19263
871.489	19126
871.619	19164
871.749	19293
871.879	19331
872.008	19381
872.138	19236
872.267	19358
872.397	19187
872.526	19171
872.656	19247
872.785	19213
872.915	19312
873.044	19563
873.173	19331
873.303	19597
873.432	19548
873.561	19601
873.69	19434
873.819	19559
873.948	19605
874.077	19639
874.206	19616
874.335	19708
874.464	19868
874.593	19997
874.722	19955
874.851	20035
874.979	20115
875.108	19993
875.237	20073
875.365	20107
875.494	20199
875.623	20210
875.751	20343
875.88	20404
876.008	20385
876.136	20507
876.265	20853
876.393	21001
876.521	21066
876.65	21047
876.778	21100
876.906	21036
877.034	21237
877.162	21165
877.29	21279
877.418	21389
877.546	21447
877.674	21797
877.802	21682
877.93	21960
878.058	22013
878.185	22063
878.313	22497
878.441	22748
878.568	23121
878.696	23642
878.824	24502
878.951	25715
879.079	27348
879.206	29258
879.333	31460
879.461	33108
879.588	34200
879.715	34147
879.842	33370
879.97	31510
880.097	29261
880.224	27660
880.351	26716
880.478	25696
880.605	24916
880.732	24688
880.859	24547
880.986	24224
881.112	24136
881.239	23828
881.366	23699
881.493	23676
881.619	23623
881.746	23627
881.872	23748
881.999	23786
882.125	23649
882.252	23923
882.378	23878
882.505	23969
882.631	23817
882.757	23691
882.883	23726
883.01	23764
883.136	23726
883.262	23596
883.388	23501
883.514	23691
883.64	23691
883.766	23535
883.892	23448
884.018	23459
884.143	23726
884.269	23764
884.395	23406
884.52	23326
884.646	23630
884.772	23315
884.897	23296
885.023	23490
885.148	23463
885.274	23406
885.399	23322
885.524	23147
885.65	23018
885.775	22892
885.9	22702
886.025	22630
886.15	22508
886.275	22405
886.4	22010
886.525	22078
886.65	21732
886.775	21732
886.9	21865
887.025	21907
887.149	21515
887.274	21252
887.399	21226
887.523	21020
887.648	20895
887.773	20792
887.897	20880
888.021	20682
888.146	20590
888.27	20701
888.395	20659
888.519	20678
888.643	20465
888.767	20552
888.891	20305
889.015	20206
889.139	20294
889.263	20046
889.387	20138
889.511	20225
889.635	20046
889.759	19936
889.883	19906
890.006	19841
890.13	19936
890.254	19677
890.377	19696
890.501	19457
890.624	19540
890.748	19464
890.871	19457
890.995	19293
891.118	19221
891.241	19240
891.364	19217
891.488	19217
891.611	19099
891.734	19095
891.857	19091
891.98	19027
892.103	19000
892.226	18901
892.349	18821
892.471	18791
892.594	18859
892.717	18924
892.839	18700
892.962	18745
893.085	18852
893.207	18700
893.33	18551
893.452	18684
893.575	18684
893.697	18661
893.819	18837
893.941	18730
894.064	18688
894.186	18525
894.308	18311
894.43	18452
894.552	18593
894.674	18502
894.796	18308
894.918	18357
895.04	18330
895.161	18399
895.283	18334
895.405	18292
895.526	18342
895.648	18235
895.769	18254
895.891	18323
896.012	18292
896.134	18258
896.255	18289
896.376	18163
896.498	18174
896.619	18273
896.74	18330
896.861	18311
896.982	18528
897.103	18658
897.224	18513
897.345	18388
897.466	18262
897.587	18407
897.708	18536
897.828	18353
897.949	18357
898.07	18194
898.19	18247
898.311	18441
898.431	18342
898.552	18399
898.672	18479
898.792	18490
898.913	18289
899.033	18270
899.153	18273
899.273	18117
899.393	18174
899.513	18232
899.633	18190
899.753	18174
899.873	18072
899.993	18174
900.113	18091
900.232	18281
900.352	18171
900.472	18121
900.591	17920
900.711	17969
900.83	17882
900.95	18026
901.069	18087
901.189	17931
901.308	17653
901.427	17627
901.546	17497
901.665	17589
901.784	17562
901.904	17459
902.023	17212
902.141	17071
902.26	17102
902.379	16995
902.498	16961
902.617	17056
902.735	17086
902.854	17018
902.973	16881
903.091	16634
903.21	16607
903.328	16675
903.446	16447
903.565	16413
903.683	16459
903.801	16318
903.919	16382
904.038	16322
904.156	16185
904.274	16226
904.392	16143
904.51	16154
904.627	16135
904.745	16253
904.863	16196
904.981	15907
905.098	15816
905.216	15865
905.334	15949
905.451	15865
905.569	15789
905.686	15800
905.803	15739
905.921	15553
906.038	15732
906.155	15580
906.272	15428
906.389	15443
906.506	15332
906.623	15336
906.74	15249
906.857	15241
906.974	15203
907.091	15264
907.208	15370
907.324	15313
907.441	15256
907.557	15062
907.674	15123
907.79	15017
907.907	14952
908.023	15032
908.139	14979
908.256	14963
908.372	14921
908.488	14902
908.604	14800
908.72	14686
908.836	14750
908.952	14629
909.068	14705
909.184	14819
909.3	14663
909.415	14788
909.531	14667
909.647	14412
909.762	14381
909.878	14408
909.993	14503
910.108	14404
910.224	14370
910.339	14374
910.454	14343
910.57	14320
910.685	14191
910.8	14640
910.915	14415
911.03	14324
911.145	14130
911.259	14031
911.374	14096
911.489	14069
911.604	13986
911.718	13860
911.833	13841
911.947	13723
912.062	13582
912.176	13788
912.291	13811
912.405	13833
912.519	13913
912.633	13940
912.748	13826
912.862	13894
912.976	13647
913.09	13525
913.204	13712
913.318	13674
913.431	13761
913.545	13731
913.659	13712
913.772	13704
913.886	13495
914	13533
914.113	13571
914.226	13578
914.34	13525
914.453	13422
914.566	13616
914.68	13506
914.793	13407
914.906	13198
915.019	13247
915.132	13168
915.245	13149
915.358	13244
915.47	13232
915.583	13232
915.696	13285
915.809	13350
915.921	13350
916.034	13152
916.146	13198
916.259	13110
916.371	13247
916.483	13289
916.595	13080
916.708	13194
916.82	13126
916.932	13217
917.044	13110
917.156	13061
917.268	13057
917.38	13038
917.491	12894
917.603	12981
917.715	12989
917.826	13046
917.938	12993
918.049	12768
918.161	12848
918.272	13004
918.384	13015
918.495	12878
918.606	12642
918.717	12597
918.828	12760
918.939	12703
919.05	12551
919.161	12631
919.272	12407
919.383	12555
919.494	12734
919.604	12935
919.715	12673
919.826	12559
919.936	12601
920.047	12806
920.157	12707
920.267	12783
920.378	12722
920.488	12627
920.598	12779
920.708	12943
920.818	12829
920.928	12764
921.038	12897
921.148	12947
921.258	12616
921.368	12593
921.477	12429
921.587	12418
921.697	12418
921.806	12437
921.916	12270
922.025	12114
922.134	12114
922.244	11992
922.353	12076
922.462	11950
922.571	11946
922.68	11752
922.789	11726
922.898	11840
923.007	11676
923.116	11745
923.224	11688
923.333	11703
923.442	11596
923.55	11600
923.659	11608
923.767	11627
923.876	11547
923.984	11676
924.092	11547
924.201	11543
924.309	11501
924.417	11543
924.525	11532
924.633	11501
924.741	12384
924.849	11246
924.956	11448
925.064	11360
925.172	11242
925.279	11193
925.387	11280
925.494	11307
925.602	11467
925.709	11414
925.816	11121
925.924	11223
926.031	11288
926.138	11235
926.245	11280
926.352	11235
926.459	11303
926.566	11273
926.673	11201
926.779	11052
926.886	11045
926.993	10927
927.099	10877
927.206	10869
927.312	10778
927.419	10900
927.525	10927
927.631	10930
927.737	10767
927.843	10790
927.95	10714
928.056	10793
928.162	10755
928.267	10778
928.373	11315
928.479	10828
928.585	10694
928.69	10729
928.796	10763
928.901	10615
929.007	10493
929.112	10675
929.218	10577
929.323	10542
929.428	10538
929.533	10523
929.638	10470
929.743	10504
929.848	10554
929.953	10409
930.058	10341
930.163	10112
930.267	10215
930.372	10417
930.477	10242
930.581	10337
930.685	10322
930.79	10101
930.894	10227
930.998	10147
931.103	10284
931.207	9876
931.311	9857
931.415	9789
931.519	9595
931.623	9549
