Data from test_V78500241_1568.txt Node
Date: Fri Mar 25 14:44:37 CST 2022
User: usil
Spectrometer: V785-0024
Trigger mode: 0
Integration Time (sec): 4.000000E-1
Scans to average: 1
Nonlinearity correction enabled: false
Boxcar width: 0
Storing dark spectrum: false
XAxis mode: Wavelengths
Number of Pixels in Spectrum: 1024
>>>>>Begin Spectral Data<<<<<
801.071	22398
801.214	22333
801.356	22158
801.499	21941
801.641	21781
801.783	21781
801.926	21876
802.068	21755
802.211	21701
802.353	21561
802.496	21165
802.638	21226
802.78	21344
802.923	21313
803.065	21116
803.208	21089
803.35	21131
803.492	21241
803.635	21256
803.777	21096
803.919	21123
804.061	21412
804.204	21062
804.346	21036
804.488	20982
804.63	21127
804.773	20906
804.915	21051
805.057	21161
805.199	20891
805.341	21104
805.483	21176
805.626	21192
805.768	21024
805.91	21039
806.052	21024
806.194	20979
806.336	21192
806.478	21020
806.62	20960
806.762	21017
806.904	21226
807.046	21412
807.188	21443
807.33	21450
807.472	21435
807.614	21329
807.756	21389
807.898	21287
808.04	21081
808.182	21154
808.324	21245
808.465	21317
808.607	21496
808.749	21591
808.891	21709
809.033	21633
809.174	21599
809.316	21485
809.458	21458
809.6	21420
809.741	21450
809.883	21462
810.025	21713
810.166	21572
810.308	21614
810.45	21545
810.591	21511
810.733	21393
810.875	21272
811.016	21176
811.158	21237
811.299	21283
811.441	21348
811.582	21401
811.724	21306
811.865	21214
812.007	21146
812.148	21203
812.29	21161
812.431	21367
812.573	21439
812.714	21671
812.855	21603
812.997	21819
813.138	21892
813.279	21869
813.421	21751
813.562	21542
813.703	21545
813.845	21310
813.986	21108
814.127	20861
814.268	20842
814.41	20845
814.551	20823
814.692	20815
814.833	20598
814.974	20754
815.115	20727
815.256	20640
815.397	20648
815.539	20636
815.68	20511
815.821	20484
815.962	20594
816.103	20522
816.244	20324
816.385	20339
816.526	20263
816.666	20027
816.807	20008
816.948	19936
817.089	20138
817.23	20001
817.371	19921
817.512	19967
817.653	19753
817.793	19906
817.934	20005
818.075	19974
818.216	19963
818.356	19753
818.497	19700
818.638	19616
818.778	19628
818.919	19540
819.06	19594
819.2	19693
819.341	19753
819.481	19738
819.622	19909
819.762	20058
819.903	19917
820.043	19974
820.184	19776
820.324	19898
820.465	19967
820.605	19936
820.746	19822
820.886	19693
821.026	19909
821.167	19852
821.307	20001
821.447	19795
821.588	19597
821.728	19597
821.868	19369
822.008	19175
822.149	19278
822.289	19198
822.429	19000
822.569	18916
822.709	19023
822.849	18791
822.99	18749
823.13	18825
823.27	18772
823.41	18544
823.55	18498
823.69	18460
823.83	18593
823.97	18578
824.11	18384
824.25	18311
824.389	18304
824.529	18399
824.669	18365
824.809	18517
824.949	18372
825.089	18323
825.228	18350
825.368	18239
825.508	18167
825.648	18121
825.787	18155
825.927	18201
826.067	18125
826.206	18110
826.346	18209
826.485	18186
826.625	18121
826.765	18178
826.904	18057
827.044	17927
827.183	17935
827.323	17851
827.462	17836
827.601	17874
827.741	17836
827.88	17741
828.02	17634
828.159	17737
828.298	17798
828.437	17893
828.577	17718
828.716	17828
828.855	17741
828.994	17589
829.134	17543
829.273	17543
829.412	17486
829.551	17497
829.69	17478
829.829	17493
829.968	17646
830.107	17634
830.246	17604
830.385	17501
830.524	17433
830.663	17322
830.802	17185
830.941	17189
831.08	17315
831.219	17246
831.357	17147
831.496	17433
831.635	17261
831.774	17128
831.913	17105
832.051	16980
832.19	16919
832.329	17003
832.467	16839
832.606	16835
832.744	16904
832.883	16854
833.022	16771
833.16	16858
833.299	16930
833.437	17014
833.576	16881
833.714	16976
833.852	16885
833.991	16980
834.129	16923
834.267	16915
834.406	16858
834.544	16942
834.682	16927
834.821	16862
834.959	17060
835.097	16854
835.235	16961
835.373	16862
835.511	17010
835.65	16774
835.788	16835
835.926	16672
836.064	16523
836.202	16516
836.34	16748
836.478	16877
836.615	16847
836.753	16748
836.891	16896
837.029	16866
837.167	16740
837.305	16622
837.443	16656
837.58	16698
837.718	16630
837.856	16599
837.993	16618
838.131	16561
838.269	16603
838.406	16569
838.544	16478
838.681	16417
838.819	16432
838.956	16143
839.094	16147
839.231	16238
839.369	16329
839.506	16664
839.643	16474
839.781	16139
839.918	16166
840.055	16166
840.193	16166
840.33	16200
840.467	16101
840.604	16230
840.742	16428
840.879	15994
841.016	16010
841.153	16090
841.29	16211
841.427	16124
841.564	16230
841.701	16249
841.838	16162
841.975	16074
842.112	16124
842.249	15949
842.385	15918
842.522	16234
842.659	15911
842.796	15911
842.933	15972
843.069	16002
843.206	15816
843.343	16135
843.479	16044
843.616	16048
843.752	15747
843.889	15762
844.025	15922
844.162	15633
844.298	15842
844.435	15724
844.571	15614
844.708	15717
844.844	15922
844.98	15835
845.117	15918
845.253	15698
845.389	15713
845.525	15724
845.661	15789
845.798	15564
845.934	15739
846.07	15633
846.206	15755
846.342	15823
846.478	15637
846.614	15504
846.75	15393
846.886	15325
847.022	15336
847.158	15302
847.294	15306
847.429	15378
847.565	15291
847.701	15561
847.837	15055
847.972	15036
848.108	15211
848.244	15116
848.379	14921
848.515	14914
848.65	14876
848.786	14899
848.921	14899
849.057	14899
849.192	14994
849.328	14887
849.463	14990
849.598	14883
849.734	14857
849.869	14708
850.004	14727
850.14	14678
850.275	14663
850.41	14621
850.545	14720
850.68	14602
850.815	14743
850.95	14686
851.085	14868
851.22	14735
851.355	14686
851.49	14621
851.625	14579
851.76	14602
851.895	14537
852.03	14564
852.165	14625
852.299	14651
852.434	14651
852.569	14731
852.703	14773
852.838	14724
852.973	14819
853.107	14739
853.242	14651
853.376	14598
853.511	14362
853.645	14495
853.78	14674
853.914	14511
854.048	14590
854.183	14526
854.317	14632
854.451	14724
854.585	14473
854.72	14457
854.854	14541
854.988	14415
855.122	14514
855.256	14469
855.39	14442
855.524	14667
855.658	14507
855.792	14495
855.926	14552
856.06	14537
856.194	14560
856.327	14613
856.461	14545
856.595	14522
856.729	14511
856.862	14693
856.996	14678
857.13	14602
857.263	14659
857.397	14667
857.53	14568
857.664	14545
857.797	14545
857.931	14731
858.064	14552
858.197	14693
858.331	14545
858.464	14522
858.597	14461
858.731	14545
858.864	14556
858.997	14469
859.13	14583
859.263	14568
859.396	14602
859.529	14537
859.662	14461
859.795	14412
859.928	14499
860.061	14644
860.194	14731
860.327	14571
860.46	14533
860.592	14625
860.725	14693
860.858	14701
860.99	14514
861.123	14442
861.256	14377
861.388	14507
861.521	15104
861.653	14393
861.786	14450
861.918	14427
862.05	14503
862.183	14511
862.315	14434
862.447	14552
862.58	14446
862.712	14267
862.844	14263
862.976	14374
863.108	14282
863.24	14811
863.372	14244
863.504	14275
863.636	14313
863.768	14412
863.9	14263
864.032	14199
864.164	14332
864.296	14393
864.428	14457
864.559	14408
864.691	14393
864.823	14358
864.954	14370
865.086	14339
865.217	14355
865.349	14275
865.48	14237
865.612	14324
865.743	14461
865.875	14286
866.006	14259
866.137	14294
866.269	14225
866.4	14324
866.531	14259
866.662	14187
866.793	14229
866.924	14259
867.055	14332
867.186	14229
867.317	14237
867.448	14237
867.579	14123
867.71	14180
867.841	14123
867.972	14240
868.103	14225
868.233	14259
868.364	14313
868.495	14355
868.625	14427
868.756	14579
868.886	14438
869.017	14537
869.147	14689
869.278	14629
869.408	14476
869.539	14533
869.669	14625
869.799	14583
869.929	14674
870.06	14598
870.19	14887
870.32	14815
870.45	14845
870.58	14929
870.71	14948
870.84	14944
870.97	14982
871.1	14948
871.23	15180
871.36	15112
871.489	15108
871.619	15131
871.749	15192
871.879	15112
872.008	15279
872.138	15127
872.267	15051
872.397	15017
872.526	14994
872.656	14994
872.785	14880
872.915	15123
873.044	15218
873.173	15085
873.303	15226
873.432	15207
873.561	15268
873.69	15249
873.819	15199
873.948	15302
874.077	15184
874.206	15222
874.335	15287
874.464	15378
874.593	15424
874.722	15526
874.851	15515
874.979	15538
875.108	15507
875.237	15519
875.365	15351
875.494	15500
875.623	15610
875.751	15466
875.88	15477
876.008	15606
876.136	15774
876.265	15861
876.393	16143
876.521	16025
876.65	16048
876.778	15926
876.906	15876
877.034	15835
877.162	15934
877.29	15819
877.418	15934
877.546	15979
877.674	15934
877.802	15987
877.93	15873
878.058	15941
878.185	15808
878.313	15884
878.441	15850
878.568	15774
878.696	15846
878.824	16006
878.951	16002
879.079	16090
879.206	16310
879.333	16192
879.461	16051
879.588	16101
879.715	16116
879.842	16363
879.97	16147
880.097	15755
880.224	15724
880.351	15743
880.478	15842
880.605	15759
880.732	15781
880.859	15941
880.986	15724
881.112	15835
881.239	15781
881.366	15580
881.493	15485
881.619	15412
881.746	15389
881.872	15412
881.999	15401
882.125	15313
882.252	15485
882.378	15374
882.505	15614
882.631	15386
882.757	15256
882.883	15287
883.01	15287
883.136	15165
883.262	15154
883.388	15085
883.514	15344
883.64	15260
883.766	15169
883.892	15116
884.018	14975
884.143	15222
884.269	15348
884.395	15043
884.52	14971
884.646	14952
884.772	14842
884.897	14872
885.023	14937
885.148	14982
885.274	15074
885.399	15077
885.524	14933
885.65	14929
885.775	14998
885.9	14937
886.025	15036
886.15	15066
886.275	14895
886.4	14785
886.525	14887
886.65	14929
886.775	14838
886.9	15036
887.025	15051
887.149	14914
887.274	14735
887.399	14651
887.523	14811
887.648	14670
887.773	14689
887.897	14868
888.021	14796
888.146	14743
888.27	14823
888.395	14804
888.519	14705
888.643	14807
888.767	14868
888.891	14625
889.015	14533
889.139	14648
889.263	14613
889.387	14674
889.511	14781
889.635	14625
889.759	14644
889.883	14701
890.006	14629
890.13	14667
890.254	14560
890.377	14545
890.501	14389
890.624	14412
890.748	14556
890.871	14473
890.995	14294
891.118	14240
891.241	14275
891.364	14286
891.488	14374
891.611	14298
891.734	14362
891.857	14324
891.98	14396
892.103	14317
892.226	14317
892.349	14271
892.471	14180
892.594	14271
892.717	14286
892.839	14313
892.962	14317
893.085	14442
893.207	14347
893.33	14145
893.452	14237
893.575	14256
893.697	14320
893.819	14450
893.941	14450
894.064	14381
894.186	14248
894.308	14328
894.43	14461
894.552	14457
894.674	14537
894.796	14271
894.918	14389
895.04	14252
895.161	14499
895.283	14457
895.405	14324
895.526	14381
895.648	14393
895.769	14442
895.891	14469
896.012	14473
896.134	14507
896.255	14492
896.376	14507
896.498	14450
896.619	14537
896.74	14560
896.861	14484
896.982	14853
897.103	14864
897.224	14727
897.345	14701
897.466	14708
897.587	14674
897.708	14826
897.828	14868
897.949	14716
898.07	14693
898.19	14796
898.311	14845
898.431	14674
898.552	14785
898.672	15009
898.792	14918
898.913	14853
899.033	14746
899.153	14629
899.273	14556
899.393	14590
899.513	14644
899.633	14727
899.753	14697
899.873	14621
899.993	14750
900.113	14739
900.232	14701
900.352	14594
900.472	14545
900.591	14541
900.711	14514
900.83	14590
900.95	14598
901.069	14697
901.189	14457
901.308	14290
901.427	14153
901.546	14206
901.665	14225
901.784	14313
901.904	14096
902.023	13997
902.141	13868
902.26	13868
902.379	13928
902.498	13689
902.617	13788
902.735	13807
902.854	13685
902.973	13666
903.091	13544
903.21	13476
903.328	13540
903.446	13407
903.565	13350
903.683	13327
903.801	13244
903.919	13171
904.038	13202
904.156	13209
904.274	13278
904.392	13137
904.51	13129
904.627	13114
904.745	13187
904.863	13198
904.981	12996
905.098	12886
905.216	12856
905.334	12886
905.451	12817
905.569	12787
905.686	12932
905.803	12821
905.921	12669
906.038	12810
906.155	12650
906.272	12547
906.389	12540
906.506	12490
906.623	12388
906.74	12437
906.857	12304
906.974	12334
907.091	12399
907.208	12536
907.324	12365
907.441	12350
907.557	12117
907.674	12186
907.79	12117
907.907	12117
908.023	12121
908.139	12186
908.256	12121
908.372	12152
908.488	12030
908.604	11927
908.72	11935
908.836	11885
908.952	11889
909.068	11961
909.184	12057
909.3	11901
909.415	11992
909.531	11942
909.647	11741
909.762	11737
909.878	11741
909.993	11642
910.108	11710
910.224	11699
910.339	11737
910.454	11585
910.57	11611
910.685	11535
910.8	11798
910.915	11630
911.03	11532
911.145	11497
911.259	11341
911.374	11501
911.489	11334
911.604	11315
911.718	11117
911.833	11197
911.947	11155
912.062	11003
912.176	11162
912.291	11128
912.405	11220
912.519	11337
912.633	11337
912.748	11246
912.862	11216
912.976	11018
913.09	10995
913.204	10991
913.318	11014
913.431	11124
913.545	11064
913.659	11155
913.772	11033
913.886	10927
914	10904
914.113	11025
914.226	11079
914.34	10896
914.453	10812
914.566	10934
914.68	10869
914.793	10892
914.906	10687
915.019	10664
915.132	10573
915.245	10588
915.358	10683
915.47	10603
915.583	10706
915.696	10763
915.809	10736
915.921	10755
916.034	10653
916.146	10630
916.259	10599
916.371	10649
916.483	10660
916.595	10481
916.708	10554
916.82	10603
916.932	10550
917.044	10573
917.156	10592
917.268	10447
917.38	10466
917.491	10421
917.603	10398
917.715	10527
917.826	10561
917.938	10443
918.049	10295
918.161	10516
918.272	10584
918.384	10577
918.495	10440
918.606	10356
918.717	10268
918.828	10371
918.939	10421
919.05	10322
919.161	10276
919.272	10143
919.383	10200
919.494	10318
919.604	10531
919.715	10371
919.826	10287
919.936	10329
920.047	10409
920.157	10291
920.267	10531
920.378	10402
920.488	10333
920.598	10683
920.708	10710
920.818	10538
920.928	10550
921.038	10729
921.148	10744
921.258	10344
921.368	10303
921.477	10261
921.587	10166
921.697	10109
921.806	10238
921.916	10120
922.025	9937
922.134	9846
922.244	9873
922.353	9930
922.462	9774
922.571	9751
922.68	9644
922.789	9603
922.898	9587
923.007	9549
923.116	9694
923.224	9504
923.333	9572
923.442	9485
923.55	9477
923.659	9496
923.767	9576
923.876	9462
923.984	9557
924.092	9393
924.201	9458
924.309	9435
924.417	9473
924.525	9389
924.633	9485
924.741	10344
924.849	9211
924.956	9424
925.064	9275
925.172	9176
925.279	9214
925.387	9272
925.494	9310
925.602	9466
925.709	9302
925.816	9211
925.924	9260
926.031	9325
926.138	9188
926.245	9291
926.352	9180
926.459	9302
926.566	9291
926.673	9138
926.779	9093
926.886	9055
926.993	8998
927.099	8952
927.206	8956
927.312	8914
927.419	9001
927.525	8895
927.631	8979
927.737	8891
927.843	8853
927.95	8758
928.056	8769
928.162	8887
928.267	8952
928.373	9405
928.479	8990
928.585	8716
928.69	8872
928.796	8842
928.901	8762
929.007	8625
929.112	8838
929.218	8735
929.323	8674
929.428	8655
929.533	8777
929.638	8651
929.743	8648
929.848	8735
929.953	8632
930.058	8526
930.163	8366
930.267	8499
930.372	8644
930.477	8446
930.581	8762
930.685	8503
930.79	8393
930.894	8355
930.998	8351
931.103	8457
931.207	8225
931.311	8145
931.415	8081
931.519	7883
931.623	7822
