Data from test_V78500241_3294.txt Node
Date: Fri Mar 25 14:56:39 CST 2022
User: usil
Spectrometer: V785-0024
Trigger mode: 0
Integration Time (sec): 4.000000E-1
Scans to average: 1
Nonlinearity correction enabled: false
Boxcar width: 0
Storing dark spectrum: false
XAxis mode: Wavelengths
Number of Pixels in Spectrum: 1024
>>>>>Begin Spectral Data<<<<<
801.071	21964
801.214	21922
801.356	21454
801.499	21549
801.641	21359
801.783	21336
801.926	21439
802.068	21401
802.211	21260
802.353	21055
802.496	20990
802.638	20891
802.78	20731
802.923	20765
803.065	20655
803.208	20769
803.35	20632
803.492	20906
803.635	20887
803.777	20762
803.919	20830
804.061	21093
804.204	20826
804.346	20659
804.488	20640
804.63	20655
804.773	20564
804.915	20507
805.057	20708
805.199	20674
805.341	20689
805.483	20640
805.626	20549
805.768	20511
805.91	20598
806.052	20545
806.194	20522
806.336	20891
806.478	20492
806.62	20663
806.762	20632
806.904	20731
807.046	20971
807.188	20944
807.33	20868
807.472	20990
807.614	20910
807.756	20823
807.898	20648
808.04	20693
808.182	20762
808.324	20655
808.465	20708
808.607	20838
808.749	20944
808.891	21096
809.033	21001
809.174	20921
809.316	20785
809.458	20937
809.6	20921
809.741	20952
809.883	21032
810.025	21028
810.166	21112
810.308	21135
810.45	21169
810.591	21051
810.733	20716
810.875	20735
811.016	20606
811.158	20632
811.299	20777
811.441	20925
811.582	20910
811.724	20720
811.865	20735
812.007	20644
812.148	20640
812.29	20701
812.431	20830
812.573	21047
812.714	21047
812.855	21230
812.997	21211
813.138	21439
813.279	21321
813.421	21252
813.562	21169
813.703	20914
813.845	20941
813.986	20594
814.127	20408
814.268	20290
814.41	20320
814.551	20187
814.692	20415
814.833	20126
814.974	20244
815.115	20282
815.256	20016
815.397	20046
815.539	20195
815.68	20024
815.821	19989
815.962	19997
816.103	19936
816.244	19864
816.385	19696
816.526	19734
816.666	19514
816.807	19422
816.948	19502
817.089	19575
817.23	19445
817.371	19358
817.512	19358
817.653	19365
817.793	19384
817.934	19327
818.075	19396
818.216	19297
818.356	19381
818.497	19232
818.638	19118
818.778	19076
818.919	19091
819.06	18993
819.2	19168
819.341	19251
819.481	19225
819.622	19392
819.762	19632
819.903	19438
820.043	19350
820.184	19369
820.324	19415
820.465	19430
820.605	19403
820.746	19316
820.886	19171
821.026	19346
821.167	19373
821.307	19369
821.447	19304
821.588	19118
821.728	19114
821.868	18939
822.008	18867
822.149	18779
822.289	18795
822.429	18551
822.569	18509
822.709	18532
822.849	18315
822.99	18171
823.13	18285
823.27	18178
823.41	18106
823.55	18045
823.69	18083
823.83	18102
823.97	18091
824.11	17878
824.25	17882
824.389	17779
824.529	17950
824.669	17901
824.809	17893
824.949	17821
825.089	17866
825.228	17771
825.368	17577
825.508	17668
825.648	17741
825.787	17737
825.927	17619
826.067	17497
826.206	17562
826.346	17619
826.485	17657
826.625	17577
826.765	17840
826.904	17741
827.044	17440
827.183	17398
827.323	17280
827.462	17341
827.601	17315
827.741	17220
827.88	17433
828.02	17239
828.159	17296
828.298	17402
828.437	17402
828.577	17246
828.716	17490
828.855	17220
828.994	17143
829.134	17048
829.273	17033
829.412	17033
829.551	16987
829.69	17086
829.829	17121
829.968	17216
830.107	17162
830.246	17064
830.385	17052
830.524	16987
830.663	16987
830.802	16835
830.941	16679
831.08	16710
831.219	16725
831.357	16679
831.496	16915
831.635	16763
831.774	16668
831.913	16558
832.051	16523
832.19	16424
832.329	16649
832.467	16417
832.606	16318
832.744	16314
832.883	16322
833.022	16318
833.16	16352
833.299	16432
833.437	16531
833.576	16398
833.714	16493
833.852	16519
833.991	16508
834.129	16554
834.267	16527
834.406	16519
834.544	16474
834.682	16462
834.821	16447
834.959	16550
835.097	16363
835.235	16500
835.373	16493
835.511	16500
835.65	16341
835.788	16272
835.926	16257
836.064	16124
836.202	16131
836.34	16341
836.478	16424
836.615	16276
836.753	16329
836.891	16432
837.029	16390
837.167	16268
837.305	16303
837.443	16299
837.58	16207
837.718	16268
837.856	16242
837.993	16131
838.131	16207
838.269	16150
838.406	16158
838.544	16071
838.681	16006
838.819	15956
838.956	15831
839.094	15823
839.231	15835
839.369	15812
839.506	16261
839.643	16120
839.781	15717
839.918	15728
840.055	15785
840.193	15854
840.33	15865
840.467	15812
840.604	15888
840.742	15994
840.879	15663
841.016	15705
841.153	15800
841.29	15827
841.427	15808
841.564	15819
841.701	15823
841.838	15675
841.975	15625
842.112	15835
842.249	15614
842.385	15572
842.522	15816
842.659	15587
842.796	15523
842.933	15523
843.069	15568
843.206	15538
843.343	15614
843.479	15458
843.616	15515
843.752	15245
843.889	15317
844.025	15412
844.162	15237
844.298	15473
844.435	15359
844.571	15291
844.708	15401
844.844	15458
844.98	15443
845.117	15435
845.253	15348
845.389	15214
845.525	15252
845.661	15176
845.798	15150
845.934	15252
846.07	15089
846.206	15184
846.342	15298
846.478	15154
846.614	14944
846.75	14914
846.886	14941
847.022	15047
847.158	14876
847.294	14883
847.429	14914
847.565	14914
847.701	15108
847.837	14678
847.972	14617
848.108	14705
848.244	14773
848.379	14594
848.515	14549
848.65	14507
848.786	14511
848.921	14545
849.057	14674
849.192	14632
849.328	14518
849.463	14484
849.598	14518
849.734	14457
849.869	14381
850.004	14259
850.14	14294
850.275	14278
850.41	14237
850.545	14244
850.68	14191
850.815	14313
850.95	14206
851.085	14476
851.22	14404
851.355	14355
851.49	14313
851.625	14164
851.76	14336
851.895	14126
852.03	14199
852.165	14286
852.299	14309
852.434	14267
852.569	14282
852.703	14305
852.838	14309
852.973	14503
853.107	14385
853.242	14244
853.376	14161
853.511	14111
853.645	14088
853.78	14252
853.914	14210
854.048	14096
854.183	14088
854.317	14221
854.451	14320
854.585	14138
854.72	14199
854.854	14214
854.988	14088
855.122	14119
855.256	14027
855.39	14115
855.524	14195
855.658	14225
855.792	14176
855.926	14126
856.06	14176
856.194	14313
856.327	14157
856.461	14012
856.595	14069
856.729	14206
856.862	14252
856.996	14202
857.13	14206
857.263	14290
857.397	14339
857.53	14142
857.664	14290
857.797	14161
857.931	14263
858.064	14248
858.197	14313
858.331	14153
858.464	14100
858.597	14134
858.731	14046
858.864	14176
858.997	14172
859.13	14180
859.263	14256
859.396	14206
859.529	14123
859.662	14096
859.795	14054
859.928	14115
860.061	14347
860.194	14309
860.327	14168
860.46	14157
860.592	14347
860.725	14286
860.858	14233
860.99	14142
861.123	14077
861.256	14119
861.388	14157
861.521	14998
861.653	14058
861.786	13947
861.918	14027
862.05	14103
862.183	14164
862.315	14138
862.447	14130
862.58	14092
862.712	14054
862.844	13917
862.976	14073
863.108	14024
863.24	14240
863.372	13849
863.504	13925
863.636	13909
863.768	14027
863.9	13944
864.032	13894
864.164	13970
864.296	13913
864.428	14096
864.559	14050
864.691	14046
864.823	13982
864.954	13967
865.086	13902
865.217	13967
865.349	13894
865.48	13868
865.612	13902
865.743	13978
865.875	14005
866.006	13856
866.137	13986
866.269	13879
866.4	13936
866.531	13902
866.662	13807
866.793	13890
866.924	13860
867.055	13909
867.186	13944
867.317	13841
867.448	13795
867.579	13776
867.71	13772
867.841	13868
867.972	14043
868.103	13868
868.233	13989
868.364	13879
868.495	14005
868.625	14107
868.756	14233
868.886	14111
869.017	14237
869.147	14343
869.278	14320
869.408	14267
869.539	14191
869.669	14339
869.799	14206
869.929	14271
870.06	14286
870.19	14415
870.32	14389
870.45	14556
870.58	14587
870.71	14682
870.84	14644
870.97	14530
871.1	14469
871.23	14750
871.36	14811
871.489	14682
871.619	14693
871.749	14750
871.879	14819
872.008	14868
872.138	14830
872.267	14785
872.397	14682
872.526	14667
872.656	14640
872.785	14590
872.915	14762
873.044	14864
873.173	14765
873.303	14796
873.432	14880
873.561	14921
873.69	14914
873.819	14754
873.948	14937
874.077	14811
874.206	14815
874.335	14777
874.464	15039
874.593	15157
874.722	15013
874.851	15199
874.979	15180
875.108	15123
875.237	15173
875.365	14986
875.494	15123
875.623	15188
875.751	15180
875.88	15097
876.008	15275
876.136	15321
876.265	15553
876.393	15724
876.521	15644
876.65	15682
876.778	15542
876.906	15576
877.034	15599
877.162	15641
877.29	15488
877.418	15568
877.546	15587
877.674	15584
877.802	15538
877.93	15526
878.058	15538
878.185	15466
878.313	15477
878.441	15561
878.568	15412
878.696	15500
878.824	15610
878.951	15690
879.079	15720
879.206	15816
879.333	15789
879.461	15568
879.588	15682
879.715	15774
879.842	15842
879.97	15610
880.097	15401
880.224	15363
880.351	15401
880.478	15496
880.605	15416
880.732	15424
880.859	15614
880.986	15458
881.112	15370
881.239	15332
881.366	15180
881.493	15142
881.619	14986
881.746	15001
881.872	15051
881.999	15127
882.125	15028
882.252	15077
882.378	15070
882.505	15272
882.631	15017
882.757	14849
882.883	14925
883.01	14872
883.136	14785
883.262	14682
883.388	14792
883.514	15032
883.64	14967
883.766	14781
883.892	14746
884.018	14716
884.143	14899
884.269	14990
884.395	14617
884.52	14636
884.646	14610
884.772	14503
884.897	14514
885.023	14571
885.148	14644
885.274	14693
885.399	14746
885.524	14632
885.65	14663
885.775	14598
885.9	14629
886.025	14689
886.15	14621
886.275	14549
886.4	14476
886.525	14560
886.65	14598
886.775	14583
886.9	14750
887.025	14788
887.149	14606
887.274	14492
887.399	14309
887.523	14393
887.648	14358
887.773	14336
887.897	14518
888.021	14568
888.146	14374
888.27	14469
888.395	14579
888.519	14442
888.643	14385
888.767	14518
888.891	14446
889.015	14252
889.139	14286
889.263	14259
889.387	14377
889.511	14412
889.635	14499
889.759	14240
889.883	14252
890.006	14320
890.13	14396
890.254	14206
890.377	14275
890.501	14005
890.624	14119
890.748	14187
890.871	13970
890.995	13936
891.118	13871
891.241	13978
891.364	14020
891.488	13997
891.611	13944
891.734	13940
891.857	14069
891.98	13955
892.103	14031
892.226	13959
892.349	13978
892.471	13875
892.594	13974
892.717	14005
892.839	13986
892.962	13967
893.085	14191
893.207	13917
893.33	13936
893.452	13940
893.575	14012
893.697	13940
893.819	14157
893.941	14195
894.064	14168
894.186	13993
894.308	13894
894.43	14115
894.552	14248
894.674	14149
894.796	14046
894.918	14016
895.04	14050
895.161	14088
895.283	14073
895.405	14043
895.526	14153
895.648	14016
895.769	14107
895.891	14168
896.012	14221
896.134	14142
896.255	14199
896.376	14031
896.498	14153
896.619	14195
896.74	14183
896.861	14187
896.982	14495
897.103	14625
897.224	14469
897.345	14480
897.466	14282
897.587	14476
897.708	14564
897.828	14499
897.949	14381
898.07	14355
898.19	14412
898.311	14598
898.431	14469
898.552	14427
898.672	14507
898.792	14705
898.913	14537
899.033	14423
899.153	14286
899.273	14374
899.393	14347
899.513	14393
899.633	14374
899.753	14389
899.873	14324
899.993	14381
900.113	14381
900.232	14324
900.352	14309
900.472	14210
900.591	14199
900.711	14294
900.83	14111
900.95	14377
901.069	14374
901.189	14119
901.308	13879
901.427	13845
901.546	13997
901.665	13932
901.784	13902
901.904	13734
902.023	13677
902.141	13483
902.26	13468
902.379	13575
902.498	13476
902.617	13335
902.735	13510
902.854	13434
902.973	13419
903.091	13293
903.21	13266
903.328	13202
903.446	13156
903.565	13103
903.683	13164
903.801	13046
903.919	13023
904.038	13012
904.156	12916
904.274	13046
904.392	12882
904.51	12829
904.627	12875
904.745	12943
904.863	12932
904.981	12662
905.098	12494
905.216	12513
905.334	12582
905.451	12627
905.569	12593
905.686	12601
905.803	12502
905.921	12441
906.038	12471
906.155	12395
906.272	12232
906.389	12334
906.506	12209
906.623	12102
906.74	12102
906.857	12057
906.974	12053
907.091	12171
907.208	12254
907.324	12224
907.441	12152
907.557	12007
907.674	11889
907.79	11836
907.907	12015
908.023	11961
908.139	11863
908.256	11878
908.372	11832
908.488	11786
908.604	11665
908.72	11657
908.836	11680
908.952	11630
909.068	11707
909.184	11748
909.3	11710
909.415	11786
909.531	11680
909.647	11516
909.762	11421
909.878	11398
909.993	11455
910.108	11471
910.224	11391
910.339	11463
910.454	11356
910.57	11360
910.685	11296
910.8	11562
910.915	11433
911.03	11349
911.145	11208
911.259	11155
911.374	11140
911.489	11105
911.604	11056
911.718	10881
911.833	10930
911.947	10759
912.062	10714
912.176	10877
912.291	10900
912.405	10900
912.519	11033
912.633	11025
912.748	11010
912.862	10976
912.976	10782
913.09	10698
913.204	10801
913.318	10805
913.431	10908
913.545	10828
913.659	10873
913.772	10740
913.886	10668
914	10698
914.113	10748
914.226	10725
914.34	10736
914.453	10584
914.566	10637
914.68	10546
914.793	10516
914.906	10398
915.019	10325
915.132	10344
915.245	10352
915.358	10462
915.47	10375
915.583	10489
915.696	10462
915.809	10542
915.921	10519
916.034	10424
916.146	10352
916.259	10344
916.371	10394
916.483	10466
916.595	10280
916.708	10348
916.82	10390
916.932	10295
917.044	10291
917.156	10310
917.268	10238
917.38	10234
917.491	10169
917.603	10249
917.715	10318
917.826	10318
917.938	10181
918.049	10090
918.161	10287
918.272	10402
918.384	10360
918.495	10253
918.606	10139
918.717	10097
918.828	10112
918.939	10093
919.05	10063
919.161	10059
919.272	9945
919.383	10036
919.494	10166
919.604	10299
919.715	10154
919.826	10086
919.936	10135
920.047	10272
920.157	10181
920.267	10333
920.378	10196
920.488	10131
920.598	10329
920.708	10470
920.818	10371
920.928	10333
921.038	10478
921.148	10398
921.258	10238
921.368	10086
921.477	9918
921.587	9987
921.697	9800
921.806	9983
921.916	9953
922.025	9709
922.134	9679
922.244	9713
922.353	9835
922.462	9679
922.571	9511
922.68	9420
922.789	9355
922.898	9458
923.007	9374
923.116	9450
923.224	9389
923.333	9336
923.442	9306
923.55	9195
923.659	9302
923.767	9302
923.876	9222
923.984	9275
924.092	9211
924.201	9233
924.309	9310
924.417	9279
924.525	9245
924.633	9199
924.741	10147
924.849	8960
924.956	9207
925.064	9074
925.172	8918
925.279	9028
925.387	9028
925.494	9066
925.602	9154
925.709	9131
925.816	9013
925.924	9062
926.031	9138
926.138	9055
926.245	9097
926.352	9058
926.459	9135
926.566	9097
926.673	9017
926.779	8887
926.886	8929
926.993	8777
927.099	8842
927.206	8746
927.312	8731
927.419	8777
927.525	8769
927.631	8842
927.737	8724
927.843	8632
927.95	8583
928.056	8693
928.162	8735
928.267	8724
928.373	9207
928.479	8773
928.585	8503
928.69	8708
928.796	8689
928.901	8530
929.007	8480
929.112	8579
929.218	8545
929.323	8507
929.428	8442
929.533	8632
929.638	8400
929.743	8442
929.848	8454
929.953	8541
930.058	8362
930.163	8248
930.267	8336
930.372	8374
930.477	8191
930.581	8480
930.685	8343
930.79	8214
930.894	8259
930.998	8134
931.103	8339
931.207	7959
931.311	8016
931.415	7837
931.519	7715
931.623	7753
