Data from test_V78500241_3513.txt Node
Date: Fri Mar 25 14:58:10 CST 2022
User: usil
Spectrometer: V785-0024
Trigger mode: 0
Integration Time (sec): 4.000000E-1
Scans to average: 1
Nonlinearity correction enabled: false
Boxcar width: 0
Storing dark spectrum: false
XAxis mode: Wavelengths
Number of Pixels in Spectrum: 1024
>>>>>Begin Spectral Data<<<<<
801.071	21873
801.214	21968
801.356	21515
801.499	21545
801.641	21393
801.783	21214
801.926	21332
802.068	21188
802.211	21264
802.353	21058
802.496	20891
802.638	20804
802.78	20712
802.923	20705
803.065	20720
803.208	20636
803.35	20689
803.492	20857
803.635	20708
803.777	20625
803.919	20769
804.061	21013
804.204	20682
804.346	20488
804.488	20568
804.63	20632
804.773	20431
804.915	20476
805.057	20648
805.199	20473
805.341	20587
805.483	20659
805.626	20526
805.768	20457
805.91	20583
806.052	20571
806.194	20434
806.336	20674
806.478	20480
806.62	20446
806.762	20568
806.904	20659
807.046	20849
807.188	20921
807.33	20921
807.472	20902
807.614	20796
807.756	20743
807.898	20689
808.04	20598
808.182	20541
808.324	20545
808.465	20640
808.607	20689
808.749	20910
808.891	20986
809.033	21096
809.174	20986
809.316	20750
809.458	20826
809.6	20838
809.741	20937
809.883	20990
810.025	20979
810.166	20975
810.308	21085
810.45	21001
810.591	20819
810.733	20701
810.875	20689
811.016	20526
811.158	20541
811.299	20708
811.441	20815
811.582	20830
811.724	20689
811.865	20640
812.007	20564
812.148	20598
812.29	20648
812.431	20693
812.573	20868
812.714	21043
812.855	21169
812.997	21176
813.138	21488
813.279	21291
813.421	21108
813.562	21043
813.703	20830
813.845	20804
813.986	20541
814.127	20298
814.268	20317
814.41	20206
814.551	20259
814.692	20237
814.833	20130
814.974	20103
815.115	20138
815.256	20054
815.397	20145
815.539	20012
815.68	19970
815.821	19894
815.962	19936
816.103	19887
816.244	19727
816.385	19655
816.526	19696
816.666	19457
816.807	19251
816.948	19400
817.089	19419
817.23	19438
817.371	19381
817.512	19343
817.653	19263
817.793	19217
817.934	19289
818.075	19335
818.216	19343
818.356	19240
818.497	19084
818.638	18970
818.778	18989
818.919	18920
819.06	18996
819.2	19152
819.341	19221
819.481	19088
819.622	19362
819.762	19449
819.903	19369
820.043	19358
820.184	19244
820.324	19301
820.465	19324
820.605	19247
820.746	19175
820.886	19122
821.026	19362
821.167	19198
821.307	19354
821.447	19266
821.588	19164
821.728	18939
821.868	18886
822.008	18681
822.149	18707
822.289	18669
822.429	18445
822.569	18426
822.709	18433
822.849	18194
822.99	18289
823.13	18121
823.27	18190
823.41	18072
823.55	17946
823.69	18007
823.83	18038
823.97	18022
824.11	17760
824.25	17665
824.389	17882
824.529	17832
824.669	17859
824.809	17889
824.949	17946
825.089	17866
825.228	17817
825.368	17528
825.508	17509
825.648	17611
825.787	17627
825.927	17520
826.067	17482
826.206	17493
826.346	17524
826.485	17471
826.625	17532
826.765	17649
826.904	17619
827.044	17364
827.183	17269
827.323	17250
827.462	17311
827.601	17326
827.741	17326
827.88	17242
828.02	17170
828.159	17254
828.298	17204
828.437	17376
828.577	17174
828.716	17387
828.855	17174
828.994	16980
829.134	17067
829.273	17056
829.412	17033
829.551	16896
829.69	16889
829.829	17033
829.968	17147
830.107	17041
830.246	17018
830.385	16961
830.524	16923
830.663	16934
830.802	16721
830.941	16687
831.08	16656
831.219	16664
831.357	16778
831.496	16816
831.635	16615
831.774	16558
831.913	16474
832.051	16424
832.19	16386
832.329	16356
832.467	16371
832.606	16257
832.744	16379
832.883	16371
833.022	16249
833.16	16287
833.299	16436
833.437	16375
833.576	16436
833.714	16428
833.852	16356
833.991	16497
834.129	16493
834.267	16409
834.406	16310
834.544	16573
834.682	16432
834.821	16405
834.959	16664
835.097	16322
835.235	16485
835.373	16379
835.511	16405
835.65	16405
835.788	16314
835.926	16150
836.064	16139
836.202	16139
836.34	16318
836.478	16451
836.615	16325
836.753	16348
836.891	16421
837.029	16314
837.167	16299
837.305	16192
837.443	16185
837.58	16082
837.718	16318
837.856	16211
837.993	16143
838.131	16272
838.269	16109
838.406	16116
838.544	16093
838.681	15953
838.819	15865
838.956	15701
839.094	15694
839.231	15789
839.369	15865
839.506	16124
839.643	16090
839.781	15873
839.918	15835
840.055	15785
840.193	15759
840.33	15690
840.467	15774
840.604	15823
840.742	16010
840.879	15530
841.016	15724
841.153	15648
841.29	15876
841.427	15876
841.564	15698
841.701	15739
841.838	15656
841.975	15690
842.112	15648
842.249	15538
842.385	15450
842.522	15568
842.659	15545
842.796	15496
842.933	15610
843.069	15473
843.206	15447
843.343	15580
843.479	15591
843.616	15549
843.752	15294
843.889	15310
844.025	15397
844.162	15279
844.298	15431
844.435	15378
844.571	15256
844.708	15386
844.844	15515
844.98	15496
845.117	15488
845.253	15211
845.389	15135
845.525	15214
845.661	15256
845.798	15047
845.934	15218
846.07	15013
846.206	15108
846.342	15256
846.478	15055
846.614	14967
846.75	14929
846.886	14853
847.022	14933
847.158	14895
847.294	14967
847.429	15024
847.565	14872
847.701	15077
847.837	14617
847.972	14560
848.108	14708
848.244	14746
848.379	14655
848.515	14499
848.65	14606
848.786	14530
848.921	14552
849.057	14613
849.192	14533
849.328	14556
849.463	14514
849.598	14488
849.734	14358
849.869	14370
850.004	14218
850.14	14301
850.275	14298
850.41	14229
850.545	14271
850.68	14145
850.815	14214
850.95	14259
851.085	14442
851.22	14415
851.355	14317
851.49	14225
851.625	14290
851.76	14229
851.895	14206
852.03	14024
852.165	14240
852.299	14339
852.434	14313
852.569	14301
852.703	14362
852.838	14404
852.973	14412
853.107	14355
853.242	14415
853.376	14233
853.511	14043
853.645	14081
853.78	14358
853.914	14153
854.048	14084
854.183	14157
854.317	14191
854.451	14328
854.585	14187
854.72	14088
854.854	14180
854.988	14065
855.122	14164
855.256	14050
855.39	14088
855.524	14191
855.658	14233
855.792	14180
855.926	14183
856.06	14191
856.194	14298
856.327	14149
856.461	14088
856.595	14100
856.729	14233
856.862	14233
856.996	14195
857.13	14195
857.263	14259
857.397	14313
857.53	14199
857.664	14202
857.797	14362
857.931	14271
858.064	14115
858.197	14237
858.331	14077
858.464	14142
858.597	14058
858.731	14214
858.864	14191
858.997	14138
859.13	14161
859.263	14206
859.396	14259
859.529	14237
859.662	14111
859.795	14035
859.928	14172
860.061	14320
860.194	14404
860.327	14161
860.46	14123
860.592	14339
860.725	14309
860.858	14332
860.99	14145
861.123	14126
861.256	14103
861.388	14271
861.521	14998
861.653	14145
861.786	13909
861.918	14031
862.05	14123
862.183	14065
862.315	14100
862.447	14259
862.58	14145
862.712	13864
862.844	13875
862.976	14149
863.108	14008
863.24	14381
863.372	13940
863.504	13982
863.636	13909
863.768	13986
863.9	13951
864.032	13871
864.164	13913
864.296	14035
864.428	14149
864.559	14031
864.691	13997
864.823	14107
864.954	14020
865.086	14069
865.217	13921
865.349	13906
865.48	13906
865.612	13932
865.743	14126
865.875	13944
866.006	13860
866.137	13936
866.269	13883
866.4	13822
866.531	13871
866.662	13868
866.793	13757
866.924	13890
867.055	13959
867.186	13951
867.317	13868
867.448	13704
867.579	13871
867.71	13879
867.841	13833
867.972	13879
868.103	13928
868.233	13879
868.364	13868
868.495	13898
868.625	14183
868.756	14271
868.886	14107
869.017	14077
869.147	14271
869.278	14317
869.408	14107
869.539	14214
869.669	14172
869.799	14206
869.929	14332
870.06	14240
870.19	14495
870.32	14408
870.45	14549
870.58	14689
870.71	14712
870.84	14632
870.97	14575
871.1	14629
871.23	14697
871.36	14750
871.489	14667
871.619	14796
871.749	14670
871.879	14834
872.008	14762
872.138	14765
872.267	14705
872.397	14655
872.526	14568
872.656	14560
872.785	14651
872.915	14727
873.044	14929
873.173	14788
873.303	14842
873.432	14868
873.561	14899
873.69	14910
873.819	14876
873.948	14902
874.077	14811
874.206	14800
874.335	14925
874.464	15085
874.593	15245
874.722	15081
874.851	15135
874.979	15268
875.108	15249
875.237	15108
875.365	15093
875.494	15180
875.623	15199
875.751	15112
875.88	15199
876.008	15321
876.136	15359
876.265	15496
876.393	15698
876.521	15690
876.65	15686
876.778	15660
876.906	15561
877.034	15599
877.162	15576
877.29	15534
877.418	15481
877.546	15595
877.674	15584
877.802	15515
877.93	15545
878.058	15576
878.185	15473
878.313	15504
878.441	15587
878.568	15401
878.696	15488
878.824	15660
878.951	15660
879.079	15755
879.206	15774
879.333	15656
879.461	15561
879.588	15709
879.715	15804
879.842	15911
879.97	15705
880.097	15412
880.224	15443
880.351	15523
880.478	15485
880.605	15332
880.732	15393
880.859	15610
880.986	15481
881.112	15420
881.239	15249
881.366	15199
881.493	15077
881.619	15017
881.746	15154
881.872	14994
881.999	15043
882.125	14994
882.252	15135
882.378	15135
882.505	15283
882.631	15051
882.757	14899
882.883	14842
883.01	14914
883.136	14819
883.262	14765
883.388	14708
883.514	14849
883.64	14853
883.766	14883
883.892	14663
884.018	14750
884.143	14891
884.269	14944
884.395	14724
884.52	14533
884.646	14511
884.772	14415
884.897	14514
885.023	14678
885.148	14697
885.274	14746
885.399	14648
885.524	14617
885.65	14701
885.775	14598
885.9	14613
886.025	14686
886.15	14632
886.275	14617
886.4	14533
886.525	14530
886.65	14533
886.775	14419
886.9	14693
887.025	14815
887.149	14537
887.274	14404
887.399	14431
887.523	14438
887.648	14298
887.773	14358
887.897	14564
888.021	14503
888.146	14518
888.27	14476
888.395	14549
888.519	14465
888.643	14492
888.767	14347
888.891	14317
889.015	14172
889.139	14362
889.263	14248
889.387	14324
889.511	14415
889.635	14438
889.759	14313
889.883	14347
890.006	14347
890.13	14431
890.254	14202
890.377	14240
890.501	14100
890.624	14145
890.748	14100
890.871	14050
890.995	14001
891.118	13951
891.241	13982
891.364	13982
891.488	14088
891.611	13989
891.734	14054
891.857	14008
891.98	13955
892.103	14058
892.226	14084
892.349	13967
892.471	13814
892.594	13841
892.717	13986
892.839	14054
892.962	14043
893.085	13963
893.207	14050
893.33	13860
893.452	14050
893.575	14069
893.697	13989
893.819	14183
893.941	14229
894.064	14035
894.186	14054
894.308	13978
894.43	14172
894.552	14259
894.674	14077
894.796	13913
894.918	14103
895.04	13993
895.161	14126
895.283	14111
895.405	14084
895.526	14157
895.648	14111
895.769	14138
895.891	14195
896.012	14225
896.134	14210
896.255	14168
896.376	14142
896.498	14062
896.619	14218
896.74	14176
896.861	14195
896.982	14594
897.103	14667
897.224	14545
897.345	14404
897.466	14362
897.587	14415
897.708	14613
897.828	14511
897.949	14339
898.07	14324
898.19	14400
898.311	14484
898.431	14438
898.552	14610
898.672	14651
898.792	14682
898.913	14632
899.033	14476
899.153	14446
899.273	14301
899.393	14385
899.513	14339
899.633	14263
899.753	14400
899.873	14309
899.993	14503
900.113	14301
900.232	14381
900.352	14389
900.472	14298
900.591	14161
900.711	14229
900.83	14240
900.95	14282
901.069	14256
901.189	14233
901.308	13898
901.427	13955
901.546	13909
901.665	13845
901.784	13921
901.904	13852
902.023	13750
902.141	13556
902.26	13499
902.379	13552
902.498	13518
902.617	13525
902.735	13533
902.854	13537
902.973	13472
903.091	13202
903.21	13198
903.328	13270
903.446	13133
903.565	13160
903.683	13099
903.801	12924
903.919	13118
904.038	13012
904.156	12905
904.274	12928
904.392	12878
904.51	12905
904.627	12859
904.745	12928
904.863	12882
904.981	12665
905.098	12597
905.216	12604
905.334	12540
905.451	12601
905.569	12547
905.686	12582
905.803	12578
905.921	12357
906.038	12551
906.155	12410
906.272	12319
906.389	12361
906.506	12171
906.623	12136
906.74	12148
906.857	12087
906.974	12175
907.091	12144
907.208	12281
907.324	12194
907.441	12057
907.557	11904
907.674	11927
907.79	11912
907.907	11859
908.023	12011
908.139	11901
908.256	11805
908.372	11783
908.488	11779
908.604	11638
908.72	11703
908.836	11672
908.952	11627
909.068	11688
909.184	11767
909.3	11737
909.415	11699
909.531	11630
909.647	11444
909.762	11463
909.878	11410
909.993	11414
910.108	11490
910.224	11349
910.339	11364
910.454	11345
910.57	11269
910.685	11273
910.8	11497
910.915	11471
911.03	11311
911.145	11246
911.259	11159
911.374	11216
911.489	11098
911.604	10942
911.718	10858
911.833	10934
911.947	10763
912.062	10744
912.176	10915
912.291	10881
912.405	10854
912.519	11170
912.633	11136
912.748	10946
912.862	10919
912.976	10740
913.09	10645
913.204	10752
913.318	10771
913.431	10873
913.545	10911
913.659	10866
913.772	10786
913.886	10714
914	10717
914.113	10736
914.226	10782
914.34	10752
914.453	10554
914.566	10672
914.68	10637
914.793	10538
914.906	10417
915.019	10360
915.132	10272
915.245	10382
915.358	10360
915.47	10519
915.583	10474
915.696	10440
915.809	10580
915.921	10565
916.034	10512
916.146	10436
916.259	10329
916.371	10451
916.483	10428
916.595	10253
916.708	10371
916.82	10375
916.932	10375
917.044	10363
917.156	10272
917.268	10204
917.38	10284
917.491	10265
917.603	10223
917.715	10363
917.826	10398
917.938	10253
918.049	10268
918.161	10249
918.272	10341
918.384	10386
918.495	10253
918.606	10143
918.717	10063
918.828	10185
918.939	10147
919.05	9994
919.161	10162
919.272	9937
919.383	10010
919.494	10120
919.604	10337
919.715	10059
919.826	10021
919.936	10135
920.047	10215
920.157	10169
920.267	10287
920.378	10181
920.488	10162
920.598	10363
920.708	10508
920.818	10322
920.928	10348
921.038	10485
921.148	10405
921.258	10200
921.368	10055
921.477	10021
921.587	10006
921.697	9892
921.806	10029
921.916	9857
922.025	9740
922.134	9682
922.244	9705
922.353	9713
922.462	9614
922.571	9549
922.68	9359
922.789	9336
922.898	9428
923.007	9416
923.116	9435
923.224	9382
923.333	9485
923.442	9268
923.55	9253
923.659	9412
923.767	9355
923.876	9275
923.984	9291
924.092	9222
924.201	9272
924.309	9268
924.417	9249
924.525	9188
924.633	9207
924.741	9979
924.849	8994
924.956	9260
925.064	9009
925.172	8963
925.279	9005
925.387	9055
925.494	9028
925.602	9154
925.709	9135
925.816	9024
925.924	9039
926.031	9150
926.138	9047
926.245	9074
926.352	9005
926.459	9165
926.566	9199
926.673	8963
926.779	8971
926.886	8914
926.993	8773
927.099	8815
927.206	8754
927.312	8731
927.419	8849
927.525	8788
927.631	8914
927.737	8750
927.843	8659
927.95	8587
928.056	8632
928.162	8727
928.267	8708
928.373	9355
928.479	8823
928.585	8511
928.69	8629
928.796	8731
928.901	8533
929.007	8495
929.112	8590
929.218	8568
929.323	8564
929.428	8473
929.533	8625
929.638	8393
929.743	8457
929.848	8533
929.953	8537
930.058	8419
930.163	8225
930.267	8305
930.372	8431
930.477	8191
930.581	8526
930.685	8343
930.79	8172
930.894	8214
930.998	8187
931.103	8370
931.207	7986
931.311	7959
931.415	7864
931.519	7727
931.623	7715
