Data from test_V78500241_170.txt Node
Date: Fri Mar 25 14:34:54 CST 2022
User: usil
Spectrometer: V785-0024
Trigger mode: 0
Integration Time (sec): 4.000000E-1
Scans to average: 1
Nonlinearity correction enabled: false
Boxcar width: 0
Storing dark spectrum: false
XAxis mode: Wavelengths
Number of Pixels in Spectrum: 1024
>>>>>Begin Spectral Data<<<<<
801.071	28797
801.214	28672
801.356	28352
801.499	28272
801.641	28154
801.783	28143
801.926	28238
802.068	27979
802.211	27930
802.353	28032
802.496	27728
802.638	27599
802.78	27804
802.923	27629
803.065	27557
803.208	27557
803.35	27694
803.492	27911
803.635	27713
803.777	27785
803.919	27914
804.061	28139
804.204	27789
804.346	27663
804.488	27762
804.63	27762
804.773	27629
804.915	27831
805.057	28013
805.199	27759
805.341	27861
805.483	27994
805.626	27869
805.768	27789
805.91	27972
806.052	27922
806.194	27964
806.336	28196
806.478	28040
806.62	28040
806.762	28074
806.904	28485
807.046	28630
807.188	28557
807.33	28538
807.472	28759
807.614	28835
807.756	28972
807.898	28824
808.04	28919
808.182	29235
808.324	29729
808.465	30144
808.607	30467
808.749	31038
808.891	31285
809.033	31335
809.174	30939
809.316	30760
809.458	30194
809.6	29691
809.741	29353
809.883	29341
810.025	29299
810.166	29029
810.308	29147
810.45	28904
810.591	28824
810.733	28713
810.875	28493
811.016	28367
811.158	28276
811.299	28390
811.441	28512
811.582	28466
811.724	28154
811.865	28287
812.007	28295
812.148	28253
812.29	28322
812.431	28382
812.573	28538
812.714	28634
812.855	28790
812.997	28805
813.138	28809
813.279	28915
813.421	28679
813.562	28615
813.703	28466
813.845	28440
813.986	27968
814.127	27861
814.268	27907
814.41	27857
814.551	27751
814.692	27854
814.833	27724
814.974	27705
815.115	27682
815.256	27671
815.397	27614
815.539	27599
815.68	27427
815.821	27355
815.962	27545
816.103	27469
816.244	27268
816.385	27154
816.526	27184
816.666	26994
816.807	26899
816.948	27017
817.089	26982
817.23	26906
817.371	26899
817.512	26853
817.653	26754
817.793	26705
817.934	26823
818.075	26746
818.216	26914
818.356	26743
818.497	26598
818.638	26606
818.778	26571
818.919	26587
819.06	26602
819.2	26602
819.341	26716
819.481	26838
819.622	26887
819.762	27245
819.903	26906
820.043	26921
820.184	26902
820.324	26921
820.465	26910
820.605	26800
820.746	26606
820.886	26667
821.026	26579
821.167	26507
821.307	26785
821.447	26735
821.588	26682
821.728	26389
821.868	26339
822.008	26065
822.149	26130
822.289	26142
822.429	25864
822.569	25849
822.709	25723
822.849	25635
822.99	25578
823.13	25472
823.27	25529
823.41	25377
823.55	25259
823.69	25457
823.83	25362
823.97	25129
824.11	25221
824.25	25164
824.389	25217
824.529	25129
824.669	25065
824.809	25312
824.949	25225
825.089	25301
825.228	25118
825.368	24817
825.508	25023
825.648	24924
825.787	24989
825.927	24916
826.067	24878
826.206	24928
826.346	25031
826.485	24958
826.625	25008
826.765	25061
826.904	24844
827.044	24673
827.183	24783
827.323	24703
827.462	24665
827.601	24677
827.741	24536
827.88	24639
828.02	24475
828.159	24475
828.298	24513
828.437	24654
828.577	24433
828.716	24578
828.855	24555
828.994	24319
829.134	24315
829.273	24479
829.412	24224
829.551	24224
829.69	24197
829.829	24186
829.968	24304
830.107	24376
830.246	24235
830.385	24144
830.524	24136
830.663	24057
830.802	23878
830.941	23878
831.08	23897
831.219	23897
831.357	23779
831.496	23988
831.635	23764
831.774	23745
831.913	23608
832.051	23703
832.19	23604
832.329	23520
832.467	23531
832.606	23505
832.744	23501
832.883	23467
833.022	23474
833.16	23608
833.299	23570
833.437	23573
833.576	23627
833.714	23634
833.852	23665
833.991	23573
834.129	23733
834.267	23566
834.406	23592
834.544	23581
834.682	23554
834.821	23516
834.959	23718
835.097	23547
835.235	23615
835.373	23490
835.511	23497
835.65	23337
835.788	23277
835.926	23181
836.064	23022
836.202	23223
836.34	23227
836.478	23444
836.615	23117
836.753	23337
836.891	23364
837.029	23341
837.167	23181
837.305	23132
837.443	23132
837.58	23060
837.718	23200
837.856	23064
837.993	23124
838.131	23071
838.269	22984
838.406	23033
838.544	22934
838.681	22748
838.819	22706
838.956	22542
839.094	22596
839.231	22466
839.369	22580
839.506	22930
839.643	22805
839.781	22493
839.918	22390
840.055	22459
840.193	22497
840.33	22314
840.467	22363
840.604	22466
840.742	22561
840.879	22177
841.016	22249
841.153	22337
841.29	22607
841.427	22447
841.564	22451
841.701	22284
841.838	22257
841.975	22303
842.112	22109
842.249	22150
842.385	22139
842.522	22272
842.659	22154
842.796	22044
842.933	22017
843.069	22055
843.206	22021
843.343	22097
843.479	22120
843.616	22162
843.752	21880
843.889	21994
844.025	22070
844.162	21850
844.298	21953
844.435	21880
844.571	21797
844.708	21983
844.844	22234
844.98	22272
845.117	22284
845.253	22219
845.389	22424
845.525	22831
845.661	23520
845.798	24045
845.934	24962
846.07	25099
846.206	25145
846.342	24616
846.478	23684
846.614	22801
846.75	22177
846.886	21873
847.022	21739
847.158	21576
847.294	21542
847.429	21450
847.565	21298
847.701	21515
847.837	21032
847.972	21131
848.108	21195
848.244	21142
848.379	21055
848.515	20830
848.65	20785
848.786	20788
848.921	20842
849.057	20921
849.192	20956
849.328	20910
849.463	20952
849.598	20906
849.734	20720
849.869	20785
850.004	20533
850.14	20651
850.275	20613
850.41	20503
850.545	20556
850.68	20526
850.815	20606
850.95	20743
851.085	20629
851.22	20689
851.355	20609
851.49	20503
851.625	20571
851.76	20507
851.895	20442
852.03	20476
852.165	20549
852.299	20625
852.434	20705
852.569	20545
852.703	20457
852.838	20575
852.973	20670
853.107	20602
853.242	20461
853.376	20412
853.511	20320
853.645	20313
853.78	20617
853.914	20351
854.048	20381
854.183	20400
854.317	20423
854.451	20560
854.585	20347
854.72	20370
854.854	20469
854.988	20252
855.122	20271
855.256	20347
855.39	20381
855.524	20488
855.658	20317
855.792	20412
855.926	20434
856.06	20473
856.194	20526
856.327	20415
856.461	20282
856.595	20434
856.729	20313
856.862	20362
856.996	20347
857.13	20450
857.263	20530
857.397	20298
857.53	20339
857.664	20431
857.797	20442
857.931	20362
858.064	20339
858.197	20427
858.331	20328
858.464	20271
858.597	20240
858.731	20370
858.864	20202
858.997	20298
859.13	20168
859.263	20404
859.396	20351
859.529	20355
859.662	20275
859.795	20218
859.928	20180
860.061	20351
860.194	20366
860.327	20290
860.46	20259
860.592	20305
860.725	20465
860.858	20370
860.99	20301
861.123	20210
861.256	20206
861.388	20199
861.521	20804
861.653	20145
861.786	20126
861.918	20111
862.05	20164
862.183	20389
862.315	20408
862.447	20259
862.58	20225
862.712	20111
862.844	20046
862.976	20107
863.108	20103
863.24	20278
863.372	19928
863.504	19917
863.636	19997
863.768	20016
863.9	19833
864.032	19864
864.164	19868
864.296	19974
864.428	20054
864.559	20088
864.691	19978
864.823	19849
864.954	19997
865.086	19879
865.217	19860
865.349	19814
865.48	19921
865.612	19921
865.743	20008
865.875	19921
866.006	19856
866.137	19814
866.269	19860
866.4	19906
866.531	19830
866.662	19761
866.793	19795
866.924	19845
867.055	19868
867.186	19715
867.317	19795
867.448	19674
867.579	19898
867.71	19712
867.841	19761
867.972	19837
868.103	19715
868.233	19742
868.364	19830
868.495	19940
868.625	19959
868.756	20191
868.886	19955
869.017	19974
869.147	20122
869.278	20221
869.408	20134
869.539	20012
869.669	20069
869.799	20161
869.929	20100
870.06	20111
870.19	20351
870.32	20278
870.45	20442
870.58	20473
870.71	20473
870.84	20431
870.97	20339
871.1	20488
871.23	20625
871.36	20598
871.489	20530
871.619	20609
871.749	20568
871.879	20629
872.008	20674
872.138	20705
872.267	20708
872.397	20492
872.526	20530
872.656	20465
872.785	20461
872.915	20697
873.044	20746
873.173	20594
873.303	20826
873.432	20796
873.561	20849
873.69	20659
873.819	20689
873.948	20689
874.077	20792
874.206	20549
874.335	20590
874.464	20762
874.593	20929
874.722	20880
874.851	20906
874.979	21070
875.108	21005
875.237	20895
875.365	20921
875.494	20960
875.623	20956
875.751	20914
875.88	21020
876.008	21070
876.136	21252
876.265	21439
876.393	21614
876.521	21389
876.65	21504
876.778	21439
876.906	21412
877.034	21393
877.162	21477
877.29	21397
877.418	21473
877.546	21587
877.674	21447
877.802	21549
877.93	21542
878.058	21420
878.185	21389
878.313	21576
878.441	21599
878.568	21519
878.696	21701
878.824	21907
878.951	22078
879.079	22314
879.206	22656
879.333	22759
879.461	22908
879.588	23143
879.715	23277
879.842	23200
879.97	22801
880.097	22261
880.224	21975
880.351	21884
880.478	21873
880.605	21778
880.732	21686
880.859	21838
880.986	21629
881.112	21736
881.239	21462
881.366	21382
881.493	21477
881.619	21199
881.746	21142
881.872	21260
881.999	21329
882.125	21340
882.252	21287
882.378	21310
882.505	21348
882.631	21169
882.757	21058
882.883	21154
883.01	20998
883.136	20868
883.262	20861
883.388	20842
883.514	20853
883.64	21039
883.766	21047
883.892	20720
884.018	20910
884.143	21028
884.269	20998
884.395	20785
884.52	20667
884.646	20617
884.772	20602
884.897	20499
885.023	20758
885.148	20746
885.274	20609
885.399	20689
885.524	20640
885.65	20526
885.775	20526
885.9	20636
886.025	20556
886.15	20659
886.275	20442
886.4	20351
886.525	20434
886.65	20328
886.775	20332
886.9	20457
887.025	20571
887.149	20495
887.274	20161
887.399	20111
887.523	20199
887.648	20050
887.773	20050
887.897	20149
888.021	20130
888.146	20027
888.27	20225
888.395	20103
888.519	20149
888.643	20031
888.767	20103
888.891	20008
889.015	19826
889.139	19738
889.263	19883
889.387	19974
889.511	19986
889.635	20008
889.759	19761
889.883	19719
890.006	19795
890.13	19959
890.254	19769
890.377	19761
890.501	19559
890.624	19491
890.748	19548
890.871	19430
890.995	19434
891.118	19331
891.241	19301
891.364	19274
891.488	19441
891.611	19362
891.734	19301
891.857	19403
891.98	19373
892.103	19460
892.226	19434
892.349	19270
892.471	19152
892.594	19259
892.717	19255
892.839	19255
892.962	19232
893.085	19362
893.207	19148
893.33	19061
893.452	19225
893.575	19282
893.697	19206
893.819	19445
893.941	19316
894.064	19263
894.186	19072
894.308	19099
894.43	19312
894.552	19316
894.674	19335
894.796	19027
894.918	19247
895.04	19183
895.161	19251
895.283	19244
895.405	19122
895.526	19263
895.648	19251
895.769	19168
895.891	19270
896.012	19278
896.134	19259
896.255	19297
896.376	19080
896.498	19244
896.619	19228
896.74	19308
896.861	19259
896.982	19594
897.103	19670
897.224	19495
897.345	19499
897.466	19464
897.587	19464
897.708	19666
897.828	19403
897.949	19480
898.07	19202
898.19	19240
898.311	19567
898.431	19369
898.552	19365
898.672	19525
898.792	19369
898.913	19392
899.033	19244
899.153	19244
899.273	19118
899.393	19110
899.513	19217
899.633	19148
899.753	19084
899.873	19088
899.993	19152
900.113	19091
900.232	19183
900.352	19175
900.472	18989
900.591	18939
900.711	18939
900.83	18863
900.95	19004
901.069	19175
901.189	18863
901.308	18612
901.427	18509
901.546	18650
901.665	18525
901.784	18597
901.904	18498
902.023	18426
902.141	18197
902.26	18045
902.379	18125
902.498	18117
902.617	17897
902.735	18133
902.854	18068
902.973	17969
903.091	17809
903.21	17718
903.328	17657
903.446	17722
903.565	17573
903.683	17467
903.801	17421
903.919	17436
904.038	17474
904.156	17349
904.274	17474
904.392	17254
904.51	17242
904.627	17334
904.745	17235
904.863	17345
904.981	16991
905.098	16934
905.216	16911
905.334	16976
905.451	16995
905.569	16858
905.686	16896
905.803	16927
905.921	16767
906.038	16801
906.155	16892
906.272	16710
906.389	16717
906.506	16478
906.623	16440
906.74	16497
906.857	16287
906.974	16344
907.091	16485
907.208	16497
907.324	16493
907.441	16341
907.557	16150
907.674	16204
907.79	16040
907.907	16109
908.023	16230
908.139	16128
908.256	16090
908.372	16067
908.488	15983
908.604	15835
908.72	15827
908.836	15956
908.952	15759
909.068	15854
909.184	16006
909.3	15816
909.415	15850
909.531	15755
909.647	15553
909.762	15595
909.878	15405
909.993	15591
910.108	15481
910.224	15534
910.339	15488
910.454	15447
910.57	15408
910.685	15344
910.8	15599
910.915	15481
911.03	15317
911.145	15226
911.259	15226
911.374	15184
911.489	15085
911.604	14910
911.718	14868
911.833	14906
911.947	14872
912.062	14716
912.176	14853
912.291	14838
912.405	14826
912.519	15036
912.633	15070
912.748	14845
912.862	14880
912.976	14621
913.09	14655
913.204	14667
913.318	14762
913.431	14815
913.545	14727
913.659	14826
913.772	14651
913.886	14545
914	14541
914.113	14636
914.226	14648
914.34	14590
914.453	14389
914.566	14587
914.68	14408
914.793	14431
914.906	14225
915.019	14103
915.132	14069
915.245	14164
915.358	14206
915.47	14126
915.583	14134
915.696	14256
915.809	14244
915.921	14320
916.034	14043
916.146	14077
916.259	14046
916.371	14084
916.483	14081
916.595	13909
916.708	14081
916.82	13959
916.932	14001
917.044	14008
917.156	13982
917.268	13784
917.38	13837
917.491	13746
917.603	13750
917.715	13883
917.826	13928
917.938	13769
918.049	13769
918.161	13822
918.272	13845
918.384	13849
918.495	13803
918.606	13662
918.717	13575
918.828	13620
918.939	13624
919.05	13502
919.161	13552
919.272	13422
919.383	13422
919.494	13670
919.604	13731
919.715	13556
919.826	13468
919.936	13537
920.047	13616
920.157	13483
920.267	13719
920.378	13578
920.488	13605
920.598	13750
920.708	13845
920.818	13624
920.928	13597
921.038	13727
921.148	13822
921.258	13548
921.368	13381
921.477	13343
921.587	13308
921.697	13225
921.806	13331
921.916	13129
922.025	13023
922.134	12954
922.244	12966
922.353	13046
922.462	12856
922.571	12783
922.68	12604
922.789	12620
922.898	12642
923.007	12452
923.116	12616
923.224	12566
923.333	12551
923.442	12483
923.55	12437
923.659	12426
923.767	12544
923.876	12403
923.984	12429
924.092	12334
924.201	12323
924.309	12376
924.417	12289
924.525	12300
924.633	12205
924.741	13168
924.849	12106
924.956	12216
925.064	12064
925.172	12007
925.279	12076
925.387	12098
925.494	12022
925.602	12129
925.709	12117
925.816	12034
925.924	12015
926.031	12110
926.138	11958
926.245	12068
926.352	11927
926.459	12121
926.566	12003
926.673	11916
926.779	11851
926.886	11786
926.993	11703
927.099	11653
927.206	11566
927.312	11570
927.419	11695
927.525	11737
927.631	11699
927.737	11547
927.843	11455
927.95	11395
928.056	11474
928.162	11463
928.267	11592
928.373	12228
928.479	11505
928.585	11326
928.69	11478
928.796	11490
928.901	11372
929.007	11185
929.112	11315
929.218	11334
929.323	11307
929.428	11185
929.533	11440
929.638	11147
929.743	11197
929.848	11265
929.953	11117
930.058	11090
930.163	10927
930.267	10953
930.372	11064
930.477	10885
930.581	11128
930.685	10889
930.79	10763
930.894	10843
930.998	10797
931.103	10968
931.207	10584
931.311	10523
931.415	10398
931.519	10238
931.623	10253
