Data from test_V78500241_735.txt Node
Date: Fri Mar 25 14:38:50 CST 2022
User: usil
Spectrometer: V785-0024
Trigger mode: 0
Integration Time (sec): 4.000000E-1
Scans to average: 1
Nonlinearity correction enabled: false
Boxcar width: 0
Storing dark spectrum: false
XAxis mode: Wavelengths
Number of Pixels in Spectrum: 1024
>>>>>Begin Spectral Data<<<<<
801.071	27291
801.214	27230
801.356	27024
801.499	26895
801.641	26693
801.783	26606
801.926	26705
802.068	26560
802.211	26499
802.353	26450
802.496	26248
802.638	26138
802.78	26122
802.923	26092
803.065	25966
803.208	26073
803.35	26096
803.492	26130
803.635	26301
803.777	26187
803.919	26324
804.061	26804
804.204	26381
804.346	26126
804.488	26374
804.63	26404
804.773	26221
804.915	26545
805.057	26587
805.199	26564
805.341	26815
805.483	26925
805.626	26895
805.768	26975
805.91	27024
806.052	27062
806.194	27306
806.336	27641
806.478	27675
806.62	27812
806.762	28070
806.904	28478
807.046	29102
807.188	29406
807.33	29904
807.472	30536
807.614	31099
807.756	32035
807.898	33184
808.04	34679
808.182	36947
808.324	39629
808.465	42760
808.607	46181
808.749	49164
808.891	51070
809.033	51085
809.174	49647
809.316	46637
809.458	42875
809.6	39530
809.741	36570
809.883	34090
810.025	32804
810.166	31594
810.308	30753
810.45	30091
810.591	29516
810.733	28809
810.875	28455
811.016	28276
811.158	27964
811.299	27766
811.441	27892
811.582	27549
811.724	27332
811.865	27260
812.007	27039
812.148	26990
812.29	26979
812.431	27260
812.573	27241
812.714	27146
812.855	27363
812.997	27408
813.138	27291
813.279	27313
813.421	27096
813.562	27089
813.703	26613
813.845	26648
813.986	26366
814.127	26172
814.268	26043
814.41	25837
814.551	25871
814.692	25966
814.833	25742
814.974	25814
815.115	25685
815.256	25575
815.397	25491
815.539	25628
815.68	25533
815.821	25377
815.962	25331
816.103	25384
816.244	25259
816.385	24981
816.526	25175
816.666	24882
816.807	24684
816.948	24795
817.089	24863
817.23	24753
817.371	24646
817.512	24681
817.653	24570
817.793	24604
817.934	24490
818.075	24544
818.216	24635
818.356	24559
818.497	24471
818.638	24247
818.778	24201
818.919	24357
819.06	24281
819.2	24273
819.341	24410
819.481	24403
819.622	24494
819.762	24741
819.903	24669
820.043	24677
820.184	24540
820.324	24475
820.465	24445
820.605	24441
820.746	24433
820.886	24194
821.026	24372
821.167	24285
821.307	24410
821.447	24228
821.588	24129
821.728	23973
821.868	23870
822.008	23630
822.149	23562
822.289	23455
822.429	23356
822.569	23376
822.709	23337
822.849	23174
822.99	23006
823.13	23105
823.27	22908
823.41	22877
823.55	22782
823.69	22999
823.83	22866
823.97	22873
824.11	22767
824.25	22557
824.389	22504
824.529	22725
824.669	22710
824.809	22828
824.949	22702
825.089	22615
825.228	22656
825.368	22447
825.508	22455
825.648	22360
825.787	22459
825.927	22470
826.067	22424
826.206	22314
826.346	22535
826.485	22508
826.625	22459
826.765	22512
826.904	22337
827.044	22253
827.183	22204
827.323	21953
827.462	22078
827.601	22219
827.741	22112
827.88	22040
828.02	21926
828.159	22029
828.298	22101
828.437	22215
828.577	21918
828.716	22177
828.855	21884
828.994	21766
829.134	21770
829.273	21766
829.412	21747
829.551	21736
829.69	21724
829.829	21720
829.968	21838
830.107	21835
830.246	21800
830.385	21736
830.524	21587
830.663	21462
830.802	21511
830.941	21275
831.08	21291
831.219	21492
831.357	21458
831.496	21580
831.635	21298
831.774	21317
831.913	21313
832.051	21233
832.19	21291
832.329	21275
832.467	21169
832.606	21230
832.744	21207
832.883	21226
833.022	21298
833.16	21553
833.299	21656
833.437	21713
833.576	21861
833.714	21998
833.852	22154
833.991	22306
834.129	22485
834.267	22356
834.406	22128
834.544	22325
834.682	22090
834.821	21979
834.959	21945
835.097	21755
835.235	21690
835.373	21492
835.511	21412
835.65	21256
835.788	21180
835.926	21028
836.064	20986
836.202	20880
836.34	21055
836.478	21051
836.615	20963
836.753	20967
836.891	21055
837.029	20960
837.167	20785
837.305	20724
837.443	20735
837.58	20659
837.718	20644
837.856	20636
837.993	20606
838.131	20781
838.269	20568
838.406	20598
838.544	20427
838.681	20275
838.819	20362
838.956	20134
839.094	20191
839.231	20385
839.369	20218
839.506	20526
839.643	20385
839.781	20275
839.918	20088
840.055	20130
840.193	20043
840.33	20081
840.467	20191
840.604	20126
840.742	20351
840.879	19936
841.016	19974
841.153	19925
841.29	20244
841.427	20130
841.564	20157
841.701	20058
841.838	20107
841.975	19982
842.112	20069
842.249	19993
842.385	19894
842.522	20149
842.659	19955
842.796	19894
842.933	19978
843.069	19887
843.206	19936
843.343	20081
843.479	20027
843.616	20119
843.752	19959
843.889	19967
844.025	20103
844.162	20008
844.298	20324
844.435	20419
844.571	20522
844.708	20823
844.844	21275
844.98	21854
845.117	22512
845.253	23421
845.389	25369
845.525	29212
845.661	35219
845.798	42433
845.934	47874
846.07	49810
846.206	48045
846.342	43110
846.478	36022
846.614	29916
846.75	25936
846.886	23577
847.022	22207
847.158	21180
847.294	20826
847.429	20320
847.565	20031
847.701	20164
847.837	19510
847.972	19324
848.108	19434
848.244	19346
848.379	19088
848.515	18932
848.65	18985
848.786	19004
848.921	18958
849.057	18913
849.192	18993
849.328	18947
849.463	18852
849.598	18795
849.734	18745
849.869	18753
850.004	18585
850.14	18627
850.275	18673
850.41	18467
850.545	18612
850.68	18528
850.815	18658
850.95	18460
851.085	18703
851.22	18597
851.355	18597
851.49	18547
851.625	18479
851.76	18604
851.895	18460
852.03	18483
852.165	18456
852.299	18593
852.434	18749
852.569	18627
852.703	18665
852.838	18760
852.973	18798
853.107	18795
853.242	18551
853.376	18635
853.511	18528
853.645	18696
853.78	18837
853.914	18764
854.048	18696
854.183	18875
854.317	18905
854.451	18981
854.585	18798
854.72	18741
854.854	18935
854.988	18673
855.122	18601
855.256	18361
855.39	18574
855.524	18544
855.658	18578
855.792	18551
855.926	18513
856.06	18544
856.194	18509
856.327	18403
856.461	18407
856.595	18308
856.729	18388
856.862	18479
856.996	18323
857.13	18418
857.263	18521
857.397	18513
857.53	18277
857.664	18330
857.797	18292
857.931	18384
858.064	18292
858.197	18361
858.331	18311
858.464	18216
858.597	18087
858.731	18228
858.864	18232
858.997	18209
859.13	18197
859.263	18285
859.396	18380
859.529	18216
859.662	18304
859.795	18079
859.928	18114
860.061	18289
860.194	18346
860.327	18209
860.46	18190
860.592	18205
860.725	18251
860.858	18190
860.99	18186
861.123	18072
861.256	18095
861.388	18167
861.521	18817
861.653	18007
861.786	17942
861.918	18015
862.05	18098
862.183	18098
862.315	18140
862.447	18163
862.58	18087
862.712	17931
862.844	17764
862.976	17923
863.108	17824
863.24	18395
863.372	17657
863.504	17897
863.636	17897
863.768	17790
863.9	17889
864.032	17878
864.164	17783
864.296	17813
864.428	17878
864.559	17977
864.691	18003
864.823	17992
864.954	17790
865.086	17859
865.217	17935
865.349	17748
865.48	17817
865.612	17745
865.743	18003
865.875	17790
866.006	17627
866.137	17786
866.269	17809
866.4	17703
866.531	17775
866.662	17703
866.793	17649
866.924	17653
867.055	17790
867.186	17691
867.317	17805
867.448	17615
867.579	17634
867.71	17630
867.841	17600
867.972	17733
868.103	17832
868.233	17779
868.364	17726
868.495	17783
868.625	18091
868.756	18041
868.886	17882
869.017	17916
869.147	18171
869.278	18159
869.408	17992
869.539	17988
869.669	18117
869.799	18087
869.929	18243
870.06	18091
870.19	18388
870.32	18228
870.45	18494
870.58	18418
870.71	18521
870.84	18502
870.97	18494
871.1	18388
871.23	18601
871.36	18688
871.489	18601
871.619	18658
871.749	18688
871.879	18840
872.008	18787
872.138	18844
872.267	18844
872.397	18627
872.526	18589
872.656	18719
872.785	18776
872.915	18844
873.044	18890
873.173	18878
873.303	18970
873.432	19031
873.561	18996
873.69	18947
873.819	19027
873.948	19129
874.077	19019
874.206	19088
874.335	19156
874.464	19343
874.593	19480
874.722	19441
874.851	19575
874.979	19696
875.108	19601
875.237	19552
875.365	19552
875.494	19571
875.623	19761
875.751	19719
875.88	19845
876.008	20020
876.136	19917
876.265	20278
876.393	20461
876.521	20629
876.65	20613
876.778	20651
876.906	20583
877.034	20556
877.162	20853
877.29	20834
877.418	20823
877.546	21051
877.674	21062
877.802	21321
877.93	21310
878.058	21557
878.185	21755
878.313	22063
878.441	22398
878.568	22767
878.696	23242
878.824	24178
878.951	25403
879.079	27154
879.206	29147
879.333	31232
879.461	33157
879.588	34192
879.715	34261
879.842	33351
879.97	31449
880.097	29174
880.224	27443
880.351	26183
880.478	25312
880.605	24559
880.732	24281
880.859	24224
880.986	23805
881.112	23615
881.239	23478
881.366	23273
881.493	23265
881.619	23383
881.746	23277
881.872	23246
881.999	23254
882.125	23303
882.252	23444
882.378	23501
882.505	23554
882.631	23512
882.757	23322
882.883	23421
883.01	23311
883.136	23387
883.262	23231
883.388	23193
883.514	23318
883.64	23269
883.766	23197
883.892	23117
884.018	23094
884.143	23284
884.269	23395
884.395	23094
884.52	23044
884.646	23067
884.772	23083
884.897	23014
885.023	23056
885.148	23079
885.274	23193
885.399	23029
885.524	22717
885.65	22752
885.775	22573
885.9	22325
886.025	22333
886.15	22173
886.275	21945
886.4	21660
886.525	21751
886.65	21454
886.775	21431
886.9	21397
887.025	21424
887.149	21062
887.274	20819
887.399	20743
887.523	20739
887.648	20442
887.773	20385
887.897	20434
888.021	20286
888.146	20149
888.27	20233
888.395	20301
888.519	20020
888.643	20096
888.767	20111
888.891	19913
889.015	19769
889.139	19807
889.263	19609
889.387	19734
889.511	19780
889.635	19651
889.759	19540
889.883	19422
890.006	19407
890.13	19540
890.254	19285
890.377	19274
890.501	19179
890.624	18989
890.748	19206
890.871	18951
890.995	18787
891.118	18616
891.241	18757
891.364	18798
891.488	18806
891.611	18764
891.734	18681
891.857	18631
891.98	18684
892.103	18707
892.226	18498
892.349	18429
892.471	18319
892.594	18323
892.717	18365
892.839	18251
892.962	18311
893.085	18388
893.207	18220
893.33	18163
893.452	18003
893.575	18182
893.697	18270
893.819	18323
893.941	18247
894.064	18182
894.186	17965
894.308	17954
894.43	18072
894.552	18224
894.674	18095
894.796	17927
894.918	17931
895.04	17870
895.161	17923
895.283	17840
895.405	17893
895.526	17920
895.648	17802
895.769	17935
895.891	17897
896.012	17904
896.134	17802
896.255	17836
896.376	17729
896.498	17832
896.619	17946
896.74	17859
896.861	17779
896.982	18015
897.103	18201
897.224	17958
897.345	17965
897.466	17954
897.587	17923
897.708	18125
897.828	17992
897.949	17935
898.07	17775
898.19	17847
898.311	18060
898.431	17847
898.552	17939
898.672	18133
898.792	18053
898.913	18068
899.033	17866
899.153	17737
899.273	17710
899.393	17665
899.513	17775
899.633	17748
899.753	17699
899.873	17695
899.993	17748
900.113	17710
900.232	17680
900.352	17672
900.472	17554
900.591	17474
900.711	17478
900.83	17417
900.95	17642
901.069	17687
901.189	17345
901.308	17231
901.427	17003
901.546	17124
901.665	17151
901.784	17132
901.904	17003
902.023	16862
902.141	16630
902.26	16592
902.379	16755
902.498	16466
902.617	16588
902.735	16573
902.854	16474
902.973	16344
903.091	16177
903.21	16147
903.328	16257
903.446	16044
903.565	15972
903.683	16029
903.801	15823
903.919	15945
904.038	15857
904.156	15850
904.274	15842
904.392	15755
904.51	15819
904.627	15720
904.745	15831
904.863	15747
904.981	15469
905.098	15321
905.216	15393
905.334	15408
905.451	15302
905.569	15291
905.686	15386
905.803	15363
905.921	15150
906.038	15233
906.155	15218
906.272	15036
906.389	15112
906.506	14914
906.623	14921
906.74	14887
906.857	14804
906.974	14731
907.091	14914
907.208	14975
907.324	14975
907.441	14815
907.557	14621
907.674	14590
907.79	14408
907.907	14571
908.023	14606
908.139	14568
908.256	14537
908.372	14514
908.488	14507
908.604	14396
908.72	14290
908.836	14320
908.952	14298
909.068	14332
909.184	14404
909.3	14286
909.415	14275
909.531	14225
909.647	14126
909.762	14020
909.878	14092
909.993	13997
910.108	14069
910.224	13936
910.339	14024
910.454	13921
910.57	13909
910.685	13780
910.8	14084
910.915	14001
911.03	13860
911.145	13803
911.259	13753
911.374	13750
911.489	13575
911.604	13624
911.718	13415
911.833	13491
911.947	13365
912.062	13327
912.176	13460
912.291	13499
912.405	13377
912.519	13609
912.633	13662
912.748	13472
912.862	13449
912.976	13293
913.09	13213
913.204	13251
913.318	13217
913.431	13411
913.545	13343
913.659	13422
913.772	13236
913.886	13080
914	13110
914.113	13221
914.226	13297
914.34	13225
914.453	13091
914.566	13114
914.68	13053
914.793	13114
914.906	12916
915.019	12795
915.132	12783
915.245	12833
915.358	12871
915.47	12890
915.583	12852
915.696	12886
915.809	12981
915.921	12966
916.034	12791
916.146	12806
916.259	12840
916.371	12852
916.483	12935
916.595	12837
916.708	12859
916.82	12833
916.932	12707
917.044	12837
917.156	12722
917.268	12673
917.38	12646
917.491	12627
917.603	12608
917.715	12745
917.826	12700
917.938	12563
918.049	12525
918.161	12486
918.272	12623
918.384	12700
918.495	12582
918.606	12429
918.717	12369
918.828	12448
918.939	12369
919.05	12251
919.161	12266
919.272	12125
919.383	12163
919.494	12414
919.604	12559
919.715	12277
919.826	12311
919.936	12369
920.047	12456
920.157	12437
920.267	12528
920.378	12369
920.488	12342
920.598	12452
920.708	12726
920.818	12483
920.928	12490
921.038	12582
921.148	12620
921.258	12311
921.368	12197
921.477	12129
921.587	12015
921.697	12019
921.806	12136
921.916	12068
922.025	11809
922.134	11843
922.244	11714
922.353	11843
922.462	11615
922.571	11539
922.68	11455
922.789	11440
922.898	11585
923.007	11383
923.116	11383
923.224	11436
923.333	11436
923.442	11337
923.55	11311
923.659	11277
923.767	11376
923.876	11174
923.984	11337
924.092	11227
924.201	11265
924.309	11261
924.417	11299
924.525	11242
924.633	11178
924.741	11939
924.849	11041
924.956	11083
925.064	10976
925.172	11010
925.279	10991
925.387	11022
925.494	10991
925.602	11166
925.709	11079
925.816	10930
925.924	11006
926.031	11128
926.138	10919
926.245	11079
926.352	10839
926.459	11022
926.566	11029
926.673	10854
926.779	10797
926.886	10759
926.993	10656
927.099	10664
927.206	10577
927.312	10550
927.419	10694
927.525	10592
927.631	10706
927.737	10573
927.843	10535
927.95	10409
928.056	10512
928.162	10455
928.267	10580
928.373	10968
928.479	10523
928.585	10333
928.69	10497
928.796	10523
928.901	10371
929.007	10211
929.112	10360
929.218	10417
929.323	10310
929.428	10238
929.533	10417
929.638	10280
929.743	10169
929.848	10249
929.953	10299
930.058	10116
930.163	10082
930.267	10006
930.372	10135
930.477	9941
930.581	10215
930.685	10002
930.79	9945
930.894	9956
930.998	9827
931.103	10002
931.207	9690
931.311	9667
931.415	9507
931.519	9344
931.623	9298
