Data from test_V78500241_1209.txt Node
Date: Fri Mar 25 14:42:08 CST 2022
User: usil
Spectrometer: V785-0024
Trigger mode: 0
Integration Time (sec): 4.000000E-1
Scans to average: 1
Nonlinearity correction enabled: false
Boxcar width: 0
Storing dark spectrum: false
XAxis mode: Wavelengths
Number of Pixels in Spectrum: 1024
>>>>>Begin Spectral Data<<<<<
801.071	22352
801.214	22333
801.356	21998
801.499	21968
801.641	21793
801.783	21660
801.926	21816
802.068	21823
802.211	21663
802.353	21641
802.496	21435
802.638	21226
802.78	21264
802.923	21066
803.065	21112
803.208	21036
803.35	21142
803.492	21214
803.635	21275
803.777	21100
803.919	21260
804.061	21424
804.204	21127
804.346	21154
804.488	20975
804.63	21131
804.773	20853
804.915	21089
805.057	21207
805.199	20963
805.341	21146
805.483	21017
805.626	21085
805.768	20944
805.91	20948
806.052	21024
806.194	20982
806.336	21233
806.478	21009
806.62	21009
806.762	21157
806.904	21291
807.046	21332
807.188	21408
807.33	21397
807.472	21397
807.614	21462
807.756	21370
807.898	21233
808.04	21116
808.182	21165
808.324	21119
808.465	21218
808.607	21416
808.749	21462
808.891	21610
809.033	21663
809.174	21622
809.316	21511
809.458	21595
809.6	21462
809.741	21603
809.883	21477
810.025	21625
810.166	21580
810.308	21545
810.45	21591
810.591	21443
810.733	21332
810.875	21279
811.016	21165
811.158	21192
811.299	21241
811.441	21355
811.582	21408
811.724	21146
811.865	21272
812.007	21108
812.148	21275
812.29	21195
812.431	21317
812.573	21500
812.714	21686
812.855	21686
812.997	21789
813.138	21850
813.279	21808
813.421	21812
813.562	21644
813.703	21496
813.845	21313
813.986	21009
814.127	20963
814.268	20834
814.41	20769
814.551	20800
814.692	20823
814.833	20640
814.974	20735
815.115	20727
815.256	20594
815.397	20579
815.539	20632
815.68	20461
815.821	20488
815.962	20526
816.103	20476
816.244	20473
816.385	20332
816.526	20149
816.666	20130
816.807	19898
816.948	20008
817.089	20035
817.23	20005
817.371	19860
817.512	19860
817.653	19951
817.793	19791
817.934	19917
818.075	20039
818.216	19997
818.356	19852
818.497	19734
818.638	19658
818.778	19635
818.919	19655
819.06	19651
819.2	19860
819.341	19734
819.481	19830
819.622	19921
819.762	20218
819.903	20119
820.043	19982
820.184	19951
820.324	19879
820.465	19997
820.605	19925
820.746	19856
820.886	19788
821.026	19830
821.167	19890
821.307	19860
821.447	19818
821.588	19757
821.728	19582
821.868	19373
822.008	19316
822.149	19343
822.289	19285
822.429	19122
822.569	19008
822.709	19031
822.849	18852
822.99	18783
823.13	18764
823.27	18875
823.41	18627
823.55	18601
823.69	18559
823.83	18460
823.97	18532
824.11	18483
824.25	18414
824.389	18338
824.529	18391
824.669	18467
824.809	18456
824.949	18555
825.089	18426
825.228	18353
825.368	18388
825.508	18190
825.648	18243
825.787	18174
825.927	18243
826.067	18178
826.206	18254
826.346	18209
826.485	18281
826.625	18281
826.765	18224
826.904	18117
827.044	17874
827.183	17901
827.323	17737
827.462	17939
827.601	17893
827.741	17897
827.88	17870
828.02	17851
828.159	17866
828.298	17984
828.437	17992
828.577	17832
828.716	18072
828.855	17809
828.994	17577
829.134	17573
829.273	17703
829.412	17547
829.551	17577
829.69	17707
829.829	17680
829.968	17657
830.107	17596
830.246	17585
830.385	17566
830.524	17436
830.663	17478
830.802	17425
830.941	17239
831.08	17231
831.219	17356
831.357	17353
831.496	17379
831.635	17269
831.774	17128
831.913	17105
832.051	17048
832.19	17124
832.329	17098
832.467	17041
832.606	16877
832.744	16820
832.883	16854
833.022	17014
833.16	16999
833.299	16938
833.437	17033
833.576	17098
833.714	16999
833.852	17052
833.991	17022
834.129	17185
834.267	17010
834.406	17010
834.544	17056
834.682	17045
834.821	17003
834.959	17189
835.097	16911
835.235	17105
835.373	17052
835.511	17079
835.65	16873
835.788	16911
835.926	16748
836.064	16748
836.202	16721
836.34	16934
836.478	17010
836.615	16938
836.753	16942
836.891	17006
837.029	16949
837.167	16934
837.305	16797
837.443	16771
837.58	16850
837.718	16774
837.856	16828
837.993	16672
838.131	16843
838.269	16786
838.406	16721
838.544	16725
838.681	16500
838.819	16451
838.956	16348
839.094	16291
839.231	16424
839.369	16443
839.506	16778
839.643	16580
839.781	16436
839.918	16272
840.055	16329
840.193	16394
840.33	16272
840.467	16230
840.604	16375
840.742	16558
840.879	16207
841.016	16238
841.153	16211
841.29	16421
841.427	16322
841.564	16310
841.701	16405
841.838	16238
841.975	16173
842.112	16242
842.249	16074
842.385	16067
842.522	16451
842.659	16105
842.796	16116
842.933	16204
843.069	16078
843.206	16036
843.343	16249
843.479	16128
843.616	16280
843.752	15949
843.889	15747
844.025	16055
844.162	15884
844.298	16002
844.435	15956
844.571	15892
844.708	16036
844.844	16112
844.98	16154
845.117	15960
845.253	15987
845.389	15831
845.525	15873
845.661	15774
845.798	15842
845.934	15937
846.07	15739
846.206	15842
846.342	15915
846.478	15675
846.614	15572
846.75	15507
846.886	15435
847.022	15553
847.158	15515
847.294	15447
847.429	15545
847.565	15382
847.701	15720
847.837	15252
847.972	15176
848.108	15397
848.244	15268
848.379	15058
848.515	15081
848.65	15017
848.786	15066
848.921	15123
849.057	15214
849.192	15230
849.328	15116
849.463	15036
849.598	14956
849.734	14929
849.869	14967
850.004	14872
850.14	15001
850.275	14857
850.41	14773
850.545	14826
850.68	14834
850.815	14994
850.95	14872
851.085	15028
851.22	14982
851.355	14887
851.49	14838
851.625	14815
851.76	14716
851.895	14716
852.03	14743
852.165	14804
852.299	14857
852.434	14960
852.569	14872
852.703	14876
852.838	14804
852.973	14925
853.107	14952
853.242	14811
853.376	14651
853.511	14549
853.645	14670
853.78	14762
853.914	14720
854.048	14583
854.183	14640
854.317	14678
854.451	14823
854.585	14708
854.72	14636
854.854	14762
854.988	14644
855.122	14617
855.256	14495
855.39	14667
855.524	14731
855.658	14762
855.792	14693
855.926	14670
856.06	14781
856.194	14788
856.327	14682
856.461	14701
856.595	14629
856.729	14705
856.862	14792
856.996	14682
857.13	14758
857.263	14769
857.397	14838
857.53	14674
857.664	14796
857.797	14807
857.931	14849
858.064	14651
858.197	14819
858.331	14720
858.464	14674
858.597	14613
858.731	14720
858.864	14602
858.997	14678
859.13	14678
859.263	14762
859.396	14712
859.529	14640
859.662	14731
859.795	14712
859.928	14785
860.061	14929
860.194	14857
860.327	14663
860.46	14682
860.592	14773
860.725	14769
860.858	14762
860.99	14705
861.123	14648
861.256	14571
861.388	14689
861.521	15397
861.653	14629
861.786	14606
861.918	14514
862.05	14537
862.183	14598
862.315	14705
862.447	14750
862.58	14697
862.712	14492
862.844	14389
862.976	14514
863.108	14484
863.24	14963
863.372	14412
863.504	14537
863.636	14389
863.768	14469
863.9	14503
864.032	14400
864.164	14389
864.296	14617
864.428	14670
864.559	14526
864.691	14636
864.823	14537
864.954	14587
865.086	14511
865.217	14427
865.349	14412
865.48	14374
865.612	14412
865.743	14594
865.875	14434
866.006	14434
866.137	14434
866.269	14427
866.4	14503
866.531	14309
866.662	14389
866.793	14374
866.924	14495
867.055	14461
867.186	14343
867.317	14419
867.448	14351
867.579	14374
867.71	14385
867.841	14377
867.972	14434
868.103	14438
868.233	14408
868.364	14450
868.495	14503
868.625	14678
868.756	14750
868.886	14655
869.017	14636
869.147	14769
869.278	14796
869.408	14674
869.539	14598
869.669	14686
869.799	14693
869.929	14842
870.06	14750
870.19	14979
870.32	14982
870.45	15085
870.58	15142
870.71	15230
870.84	15165
870.97	15116
871.1	15036
871.23	15195
871.36	15294
871.489	15154
871.619	15241
871.749	15313
871.879	15359
872.008	15367
872.138	15313
872.267	15298
872.397	15127
872.526	15154
872.656	15112
872.785	15131
872.915	15344
873.044	15382
873.173	15287
873.303	15447
873.432	15359
873.561	15416
873.69	15443
873.819	15389
873.948	15435
874.077	15397
874.206	15291
874.335	15329
874.464	15519
874.593	15618
874.722	15511
874.851	15751
874.979	15717
875.108	15793
875.237	15595
875.365	15568
875.494	15564
875.623	15690
875.751	15599
875.88	15637
876.008	15743
876.136	15915
876.265	16048
876.393	16128
876.521	16093
876.65	16169
876.778	16090
876.906	16112
877.034	16036
877.162	16074
877.29	15949
877.418	16051
877.546	16067
877.674	16090
877.802	16150
877.93	16036
878.058	16101
878.185	16002
878.313	16051
878.441	16032
878.568	15960
878.696	16105
878.824	16040
878.951	16063
879.079	16356
879.206	16459
879.333	16223
879.461	16276
879.588	16280
879.715	16382
879.842	16318
879.97	16124
880.097	15983
880.224	15915
880.351	16002
880.478	15869
880.605	15895
880.732	15930
880.859	16204
880.986	15934
881.112	15998
881.239	15819
881.366	15694
881.493	15599
881.619	15603
881.746	15690
881.872	15652
881.999	15614
882.125	15450
882.252	15610
882.378	15618
882.505	15751
882.631	15424
882.757	15424
882.883	15397
883.01	15344
883.136	15260
883.262	15184
883.388	15188
883.514	15378
883.64	15477
883.766	15329
883.892	15176
884.018	15283
884.143	15382
884.269	15431
884.395	15157
884.52	15085
884.646	15119
884.772	14982
884.897	14910
885.023	15150
885.148	15199
885.274	15173
885.399	15150
885.524	15009
885.65	15131
885.775	15146
885.9	15001
886.025	15203
886.15	15218
886.275	15066
886.4	14925
886.525	15020
886.65	15085
886.775	14952
886.9	15173
887.025	15317
887.149	14960
887.274	14990
887.399	14880
887.523	14880
887.648	14769
887.773	14823
887.897	14979
888.021	14918
888.146	14906
888.27	15047
888.395	15051
888.519	14921
888.643	14918
888.767	14986
888.891	14773
889.015	14792
889.139	14830
889.263	14674
889.387	14868
889.511	14963
889.635	14800
889.759	14845
889.883	14804
890.006	14769
890.13	14788
890.254	14754
890.377	14731
890.501	14507
890.624	14530
890.748	14568
890.871	14552
890.995	14518
891.118	14317
891.241	14465
891.364	14427
891.488	14549
891.611	14488
891.734	14476
891.857	14495
891.98	14473
892.103	14598
892.226	14530
892.349	14427
892.471	14339
892.594	14431
892.717	14423
892.839	14347
892.962	14511
893.085	14530
893.207	14393
893.33	14362
893.452	14301
893.575	14571
893.697	14313
893.819	14571
893.941	14667
894.064	14552
894.186	14461
894.308	14442
894.43	14503
894.552	14682
894.674	14537
894.796	14317
894.918	14499
895.04	14454
895.161	14568
895.283	14613
895.405	14442
895.526	14579
895.648	14606
895.769	14602
895.891	14606
896.012	14625
896.134	14678
896.255	14575
896.376	14594
896.498	14689
896.619	14594
896.74	14571
896.861	14617
896.982	14891
897.103	15043
897.224	14937
897.345	14815
897.466	14724
897.587	14887
897.708	15024
897.828	14834
897.949	14895
898.07	14746
898.19	14815
898.311	14948
898.431	14944
898.552	14975
898.672	15077
898.792	15020
898.913	15001
899.033	14845
899.153	14853
899.273	14674
899.393	14731
899.513	14906
899.633	14807
899.753	14819
899.873	14815
899.993	14830
900.113	14746
900.232	14800
900.352	14765
900.472	14670
900.591	14606
900.711	14701
900.83	14602
900.95	14686
901.069	14819
901.189	14556
901.308	14366
901.427	14263
901.546	14332
901.665	14328
901.784	14370
901.904	14164
902.023	14088
902.141	13906
902.26	13818
902.379	13986
902.498	13875
902.617	13795
902.735	13879
902.854	13868
902.973	13784
903.091	13616
903.21	13647
903.328	13636
903.446	13590
903.565	13445
903.683	13548
903.801	13419
903.919	13335
904.038	13362
904.156	13247
904.274	13297
904.392	13278
904.51	13282
904.627	13282
904.745	13304
904.863	13270
904.981	13133
905.098	13080
905.216	12894
905.334	12901
905.451	12894
905.569	12890
905.686	13008
905.803	12882
905.921	12764
906.038	12966
906.155	12817
906.272	12642
906.389	12665
906.506	12597
906.623	12506
906.74	12426
906.857	12437
906.974	12445
907.091	12509
907.208	12681
907.324	12627
907.441	12448
907.557	12319
907.674	12311
907.79	12311
907.907	12201
908.023	12273
908.139	12201
908.256	12201
908.372	12213
908.488	12152
908.604	12121
908.72	11969
908.836	12072
908.952	12087
909.068	11950
909.184	12106
909.3	12049
909.415	12041
909.531	12049
909.647	11855
909.762	11809
909.878	11767
909.993	11805
910.108	11847
910.224	11771
910.339	11843
910.454	11657
910.57	11646
910.685	11543
910.8	11961
910.915	11794
911.03	11623
911.145	11657
911.259	11448
911.374	11528
911.489	11455
911.604	11414
911.718	11288
911.833	11277
911.947	11220
912.062	11090
912.176	11231
912.291	11254
912.405	11239
912.519	11433
912.633	11425
912.748	11284
912.862	11239
912.976	11109
913.09	11041
913.204	11056
913.318	11128
913.431	11258
913.545	11223
913.659	11155
913.772	11166
913.886	11098
914	10938
914.113	11102
914.226	11090
914.34	11003
914.453	10984
914.566	11159
914.68	10949
914.793	10995
914.906	10771
915.019	10748
915.132	10565
915.245	10675
915.358	10694
915.47	10755
915.583	10820
915.696	10782
915.809	10904
915.921	10927
916.034	10687
916.146	10733
916.259	10729
916.371	10869
916.483	10759
916.595	10656
916.708	10752
916.82	10782
916.932	10679
917.044	10656
917.156	10641
917.268	10485
917.38	10554
917.491	10519
917.603	10656
917.715	10596
917.826	10618
917.938	10508
918.049	10352
918.161	10637
918.272	10653
918.384	10725
918.495	10622
918.606	10462
918.717	10398
918.828	10466
918.939	10459
919.05	10382
919.161	10459
919.272	10284
919.383	10386
919.494	10421
919.604	10653
919.715	10481
919.826	10390
919.936	10466
920.047	10554
920.157	10462
920.267	10615
920.378	10519
920.488	10451
920.598	10672
920.708	10843
920.818	10664
920.928	10649
921.038	10786
921.148	10782
921.258	10451
921.368	10390
921.477	10276
921.587	10310
921.697	10120
921.806	10348
921.916	10158
922.025	10021
922.134	9975
922.244	9987
922.353	10032
922.462	9903
922.571	9816
922.68	9652
922.789	9660
922.898	9732
923.007	9648
923.116	9770
923.224	9675
923.333	9713
923.442	9637
923.55	9515
923.659	9690
923.767	9641
923.876	9473
923.984	9614
924.092	9504
924.201	9625
924.309	9584
924.417	9561
924.525	9473
924.633	9492
924.741	10276
924.849	9329
924.956	9496
925.064	9306
925.172	9279
925.279	9310
925.387	9268
925.494	9340
925.602	9450
925.709	9469
925.816	9279
925.924	9264
926.031	9435
926.138	9325
926.245	9374
926.352	9226
926.459	9317
926.566	9367
926.673	9283
926.779	9230
926.886	9203
926.993	9081
927.099	9085
927.206	8998
927.312	9070
927.419	9039
927.525	9070
927.631	9097
927.737	8887
927.843	8891
927.95	8746
928.056	8944
928.162	8921
928.267	8998
928.373	9576
928.479	9005
928.585	8773
928.69	8941
928.796	8971
928.901	8834
929.007	8731
929.112	8914
929.218	8849
929.323	8819
929.428	8674
929.533	8868
929.638	8663
929.743	8750
929.848	8830
929.953	8758
930.058	8674
930.163	8492
930.267	8568
930.372	8705
930.477	8446
930.581	8769
930.685	8549
930.79	8374
930.894	8526
930.998	8404
931.103	8556
931.207	8237
931.311	8229
931.415	8172
931.519	7989
931.623	8024
