Data from test_V78500241_2075.txt Node
Date: Fri Mar 25 14:48:09 CST 2022
User: usil
Spectrometer: V785-0024
Trigger mode: 0
Integration Time (sec): 4.000000E-1
Scans to average: 1
Nonlinearity correction enabled: false
Boxcar width: 0
Storing dark spectrum: false
XAxis mode: Wavelengths
Number of Pixels in Spectrum: 1024
>>>>>Begin Spectral Data<<<<<
801.071	22143
801.214	21949
801.356	21732
801.499	21709
801.641	21447
801.783	21530
801.926	21523
802.068	21416
802.211	21408
802.353	21351
802.496	20944
802.638	20971
802.78	21093
802.923	20868
803.065	20769
803.208	20739
803.35	20640
803.492	20933
803.635	20990
803.777	20815
803.919	20956
804.061	21165
804.204	20853
804.346	20887
804.488	20686
804.63	20777
804.773	20629
804.915	20769
805.057	20735
805.199	20697
805.341	20864
805.483	20823
805.626	20826
805.768	20670
805.91	20667
806.052	20735
806.194	20632
806.336	20785
806.478	20686
806.62	20727
806.762	20727
806.904	20998
807.046	21211
807.188	21024
807.33	21036
807.472	21116
807.614	21081
807.756	20944
807.898	20830
808.04	20800
808.182	20796
808.324	20883
808.465	20921
808.607	20998
808.749	21173
808.891	21226
809.033	21291
809.174	21211
809.316	21070
809.458	21066
809.6	21062
809.741	21116
809.883	21264
810.025	21329
810.166	21355
810.308	21249
810.45	21256
810.591	21085
810.733	20929
810.875	20918
811.016	20811
811.158	20842
811.299	21055
811.441	21085
811.582	21051
811.724	20857
811.865	20804
812.007	20864
812.148	20819
812.29	20872
812.431	21039
812.573	21100
812.714	21336
812.855	21412
812.997	21454
813.138	21538
813.279	21485
813.421	21325
813.562	21283
813.703	20960
813.845	21062
813.986	20842
814.127	20594
814.268	20579
814.41	20545
814.551	20446
814.692	20450
814.833	20309
814.974	20305
815.115	20393
815.256	20187
815.397	20317
815.539	20298
815.68	20225
815.821	20100
815.962	20107
816.103	20077
816.244	19894
816.385	19963
816.526	19807
816.666	19837
816.807	19715
816.948	19632
817.089	19655
817.23	19620
817.371	19540
817.512	19674
817.653	19594
817.793	19556
817.934	19643
818.075	19628
818.216	19605
818.356	19403
818.497	19339
818.638	19236
818.778	19247
818.919	19209
819.06	19289
819.2	19358
819.341	19491
819.481	19419
819.622	19609
819.762	19772
819.903	19616
820.043	19616
820.184	19491
820.324	19468
820.465	19643
820.605	19632
820.746	19518
820.886	19434
821.026	19533
821.167	19518
821.307	19529
821.447	19472
821.588	19350
821.728	19263
821.868	19217
822.008	19027
822.149	18875
822.289	18962
822.429	18669
822.569	18738
822.709	18681
822.849	18452
822.99	18365
823.13	18418
823.27	18544
823.41	18357
823.55	18251
823.69	18254
823.83	18369
823.97	18178
824.11	18117
824.25	18034
824.389	18011
824.529	18007
824.669	17965
824.809	18140
824.949	18076
825.089	18019
825.228	18087
825.368	17863
825.508	17878
825.648	17893
825.787	17836
825.927	17805
826.067	17767
826.206	17726
826.346	17851
826.485	17824
826.625	17843
826.765	17847
826.904	17767
827.044	17532
827.183	17509
827.323	17505
827.462	17604
827.601	17558
827.741	17482
827.88	17486
828.02	17452
828.159	17459
828.298	17436
828.437	17524
828.577	17547
828.716	17630
828.855	17433
828.994	17345
829.134	17227
829.273	17277
829.412	17223
829.551	17174
829.69	17216
829.829	17322
829.968	17387
830.107	17318
830.246	17277
830.385	17166
830.524	16995
830.663	16999
830.802	16984
830.941	16858
831.08	16911
831.219	16927
831.357	16854
831.496	17151
831.635	16854
831.774	16687
831.913	16881
832.051	16622
832.19	16679
832.329	16596
832.467	16599
832.606	16500
832.744	16508
832.883	16455
833.022	16542
833.16	16622
833.299	16596
833.437	16493
833.576	16641
833.714	16634
833.852	16630
833.991	16660
834.129	16694
834.267	16717
834.406	16675
834.544	16729
834.682	16634
834.821	16664
834.959	16793
835.097	16516
835.235	16778
835.373	16653
835.511	16618
835.65	16478
835.788	16538
835.926	16421
836.064	16379
836.202	16265
836.34	16550
836.478	16626
836.615	16485
836.753	16428
836.891	16641
837.029	16485
837.167	16459
837.305	16516
837.443	16440
837.58	16363
837.718	16432
837.856	16436
837.993	16386
838.131	16253
838.269	16341
838.406	16382
838.544	16314
838.681	16017
838.819	16067
838.956	15907
839.094	15956
839.231	15949
839.369	16055
839.506	16306
839.643	16086
839.781	15987
839.918	15827
840.055	15953
840.193	15915
840.33	15975
840.467	15880
840.604	15934
840.742	16257
840.879	15770
841.016	15899
841.153	15926
841.29	16086
841.427	15968
841.564	15987
841.701	15956
841.838	15869
841.975	15751
842.112	15850
842.249	15747
842.385	15720
842.522	15892
842.659	15709
842.796	15686
842.933	15728
843.069	15694
843.206	15732
843.343	15762
843.479	15690
843.616	15717
843.752	15564
843.889	15481
844.025	15686
844.162	15462
844.298	15686
844.435	15572
844.571	15477
844.708	15587
844.844	15705
844.98	15618
845.117	15587
845.253	15424
845.389	15450
845.525	15542
845.661	15454
845.798	15336
845.934	15332
846.07	15298
846.206	15363
846.342	15458
846.478	15374
846.614	15119
846.75	14986
846.886	15024
847.022	15169
847.158	15176
847.294	15108
847.429	15165
847.565	15070
847.701	15367
847.837	14906
847.972	14762
848.108	14864
848.244	14830
848.379	14769
848.515	14720
848.65	14693
848.786	14625
848.921	14720
849.057	14902
849.192	14689
849.328	14644
849.463	14693
849.598	14644
849.734	14598
849.869	14530
850.004	14480
850.14	14514
850.275	14408
850.41	14370
850.545	14351
850.68	14377
850.815	14518
850.95	14419
851.085	14659
851.22	14476
851.355	14396
851.49	14408
851.625	14446
851.76	14438
851.895	14415
852.03	14233
852.165	14347
852.299	14514
852.434	14507
852.569	14488
852.703	14446
852.838	14587
852.973	14663
853.107	14655
853.242	14377
853.376	14339
853.511	14275
853.645	14229
853.78	14473
853.914	14267
854.048	14290
854.183	14294
854.317	14328
854.451	14412
854.585	14332
854.72	14324
854.854	14362
854.988	14134
855.122	14267
855.256	14214
855.39	14157
855.524	14427
855.658	14400
855.792	14286
855.926	14389
856.06	14294
856.194	14396
856.327	14347
856.461	14248
856.595	14233
856.729	14225
856.862	14385
856.996	14355
857.13	14336
857.263	14454
857.397	14419
857.53	14358
857.664	14393
857.797	14465
857.931	14385
858.064	14294
858.197	14324
858.331	14278
858.464	14317
858.597	14240
858.731	14351
858.864	14282
858.997	14282
859.13	14339
859.263	14324
859.396	14351
859.529	14320
859.662	14294
859.795	14244
859.928	14309
860.061	14488
860.194	14499
860.327	14324
860.46	14301
860.592	14431
860.725	14473
860.858	14404
860.99	14396
861.123	14153
861.256	14282
861.388	14309
861.521	14994
861.653	14149
861.786	14229
861.918	14275
862.05	14221
862.183	14240
862.315	14240
862.447	14305
862.58	14294
862.712	14058
862.844	13978
862.976	14069
863.108	14065
863.24	14351
863.372	13970
863.504	14077
863.636	14077
863.768	14119
863.9	14138
864.032	13982
864.164	14046
864.296	14119
864.428	14252
864.559	14138
864.691	14218
864.823	14157
864.954	14138
865.086	14092
865.217	14130
865.349	13997
865.48	14077
865.612	14069
865.743	14138
865.875	14126
866.006	14092
866.137	14096
866.269	14069
866.4	14062
866.531	14043
866.662	14031
866.793	14008
866.924	14088
867.055	13978
867.186	14088
867.317	14088
867.448	14035
867.579	14005
867.71	13989
867.841	13989
867.972	14081
868.103	14020
868.233	14054
868.364	14058
868.495	14096
868.625	14358
868.756	14431
868.886	14282
869.017	14332
869.147	14488
869.278	14434
869.408	14427
869.539	14298
869.669	14442
869.799	14446
869.929	14507
870.06	14495
870.19	14644
870.32	14564
870.45	14750
870.58	14800
870.71	14826
870.84	14929
870.97	14731
871.1	14724
871.23	14941
871.36	14933
871.489	14796
871.619	14956
871.749	14941
871.879	14933
872.008	15070
872.138	15009
872.267	14891
872.397	14918
872.526	14769
872.656	14758
872.785	14750
872.915	14941
873.044	15089
873.173	14910
873.303	15039
873.432	14994
873.561	15131
873.69	15032
873.819	14963
873.948	15116
874.077	15020
874.206	14937
874.335	15051
874.464	15104
874.593	15245
874.722	15150
874.851	15416
874.979	15313
875.108	15344
875.237	15298
875.365	15252
875.494	15287
875.623	15424
875.751	15325
875.88	15329
876.008	15431
876.136	15428
876.265	15724
876.393	15869
876.521	15899
876.65	15785
876.778	15800
876.906	15709
877.034	15580
877.162	15629
877.29	15679
877.418	15755
877.546	15766
877.674	15732
877.802	15766
877.93	15816
878.058	15686
878.185	15660
878.313	15660
878.441	15698
878.568	15694
878.696	15599
878.824	15785
878.951	15766
879.079	16002
879.206	16025
879.333	15911
879.461	15762
879.588	15785
879.715	15915
879.842	16025
879.97	15800
880.097	15492
880.224	15545
880.351	15622
880.478	15637
880.605	15580
880.732	15591
880.859	15816
880.986	15519
881.112	15682
881.239	15466
881.366	15348
881.493	15291
881.619	15199
881.746	15188
881.872	15260
881.999	15203
882.125	15268
882.252	15279
882.378	15230
882.505	15359
882.631	15214
882.757	15089
882.883	15028
883.01	15001
883.136	15024
883.262	14887
883.388	14929
883.514	15093
883.64	15062
883.766	14979
883.892	14895
884.018	14906
884.143	15043
884.269	15028
884.395	14788
884.52	14800
884.646	14746
884.772	14765
884.897	14674
885.023	14754
885.148	14838
885.274	14906
885.399	14807
885.524	14773
885.65	14750
885.775	14769
885.9	14651
886.025	14952
886.15	14785
886.275	14663
886.4	14678
886.525	14727
886.65	14796
886.775	14682
886.9	14876
887.025	15032
887.149	14625
887.274	14651
887.399	14545
887.523	14594
887.648	14484
887.773	14511
887.897	14697
888.021	14720
888.146	14530
888.27	14682
888.395	14689
888.519	14659
888.643	14663
888.767	14663
888.891	14552
889.015	14404
889.139	14446
889.263	14442
889.387	14499
889.511	14636
889.635	14648
889.759	14492
889.883	14461
890.006	14507
890.13	14556
890.254	14339
890.377	14446
890.501	14263
890.624	14202
890.748	14244
890.871	14218
890.995	14103
891.118	14092
891.241	14259
891.364	14195
891.488	14206
891.611	14195
891.734	14225
891.857	14130
891.98	14202
892.103	14225
892.226	14233
892.349	14161
892.471	14016
892.594	14138
892.717	14180
892.839	14168
892.962	14142
893.085	14225
893.207	14111
893.33	13986
893.452	14054
893.575	14237
893.697	14027
893.819	14301
893.941	14434
894.064	14301
894.186	14092
894.308	14077
894.43	14256
894.552	14336
894.674	14381
894.796	14164
894.918	14161
895.04	14176
895.161	14336
895.283	14286
895.405	14134
895.526	14237
895.648	14195
895.769	14278
895.891	14347
896.012	14374
896.134	14339
896.255	14244
896.376	14263
896.498	14362
896.619	14427
896.74	14415
896.861	14408
896.982	14651
897.103	14765
897.224	14617
897.345	14575
897.466	14499
897.587	14526
897.708	14655
897.828	14568
897.949	14377
898.07	14480
898.19	14545
898.311	14785
898.431	14625
898.552	14678
898.672	14735
898.792	14773
898.913	14743
899.033	14625
899.153	14454
899.273	14408
899.393	14511
899.513	14518
899.633	14419
899.753	14583
899.873	14549
899.993	14442
900.113	14503
900.232	14518
900.352	14499
900.472	14484
900.591	14404
900.711	14385
900.83	14450
900.95	14446
901.069	14480
901.189	14358
901.308	14115
901.427	14005
901.546	13932
901.665	14138
901.784	14039
901.904	13959
902.023	13818
902.141	13685
902.26	13578
902.379	13746
902.498	13578
902.617	13540
902.735	13597
902.854	13601
902.973	13613
903.091	13369
903.21	13316
903.328	13301
903.446	13301
903.565	13156
903.683	13259
903.801	13141
903.919	13255
904.038	13171
904.156	12932
904.274	13198
904.392	12996
904.51	12996
904.627	13069
904.745	13069
904.863	12947
904.981	12726
905.098	12722
905.216	12669
905.334	12760
905.451	12760
905.569	12635
905.686	12734
905.803	12783
905.921	12566
906.038	12601
906.155	12551
906.272	12338
906.389	12479
906.506	12369
906.623	12338
906.74	12346
906.857	12194
906.974	12205
907.091	12273
907.208	12456
907.324	12277
907.441	12262
907.557	12072
907.674	11984
907.79	11942
907.907	12007
908.023	12026
908.139	12083
908.256	12007
908.372	11923
908.488	11878
908.604	11843
908.72	11802
908.836	11745
908.952	11775
909.068	11824
909.184	11942
909.3	11828
909.415	11908
909.531	11874
909.647	11596
909.762	11562
909.878	11585
909.993	11630
910.108	11486
910.224	11528
910.339	11630
910.454	11562
910.57	11444
910.685	11356
910.8	11657
910.915	11474
911.03	11497
911.145	11284
911.259	11296
911.374	11277
911.489	11201
911.604	11166
911.718	11098
911.833	11014
911.947	10911
912.062	10908
912.176	10984
912.291	11025
912.405	11136
912.519	11155
912.633	11269
912.748	11113
912.862	11010
912.976	11022
913.09	10748
913.204	10850
913.318	10873
913.431	11037
913.545	10999
913.659	11045
913.772	10972
913.886	10797
914	10740
914.113	10908
914.226	10892
914.34	10900
914.453	10736
914.566	10862
914.68	10774
914.793	10679
914.906	10584
915.019	10455
915.132	10402
915.245	10481
915.358	10470
915.47	10531
915.583	10596
915.696	10535
915.809	10656
915.921	10702
916.034	10535
916.146	10580
916.259	10481
916.371	10660
916.483	10527
916.595	10417
916.708	10466
916.82	10478
916.932	10504
917.044	10424
917.156	10432
917.268	10352
917.38	10295
917.491	10276
917.603	10367
917.715	10443
917.826	10337
917.938	10257
918.049	10322
918.161	10390
918.272	10535
918.384	10481
918.495	10356
918.606	10219
918.717	10181
918.828	10219
918.939	10303
919.05	10166
919.161	10188
919.272	10055
919.383	10105
919.494	10246
919.604	10500
919.715	10215
919.826	10101
919.936	10253
920.047	10337
920.157	10287
920.267	10504
920.378	10360
920.488	10253
920.598	10352
920.708	10634
920.818	10504
920.928	10405
921.038	10611
921.148	10573
921.258	10268
921.368	10230
921.477	10090
921.587	10071
921.697	10051
921.806	10139
921.916	9975
922.025	9785
922.134	9781
922.244	9838
922.353	9762
922.462	9736
922.571	9622
922.68	9492
922.789	9462
922.898	9526
923.007	9443
923.116	9450
923.224	9485
923.333	9428
923.442	9397
923.55	9393
923.659	9424
923.767	9462
923.876	9340
923.984	9336
924.092	9291
924.201	9313
924.309	9306
924.417	9386
924.525	9306
924.633	9317
924.741	10253
924.849	9138
924.956	9317
925.064	9146
925.172	9058
925.279	9112
925.387	9104
925.494	9093
925.602	9317
925.709	9268
925.816	9077
925.924	9093
926.031	9230
926.138	9176
926.245	9195
926.352	9051
926.459	9241
926.566	9298
926.673	9104
926.779	9024
926.886	9024
926.993	8842
927.099	8819
927.206	8788
927.312	8769
927.419	8861
927.525	8925
927.631	8914
927.737	8804
927.843	8705
927.95	8636
928.056	8762
928.162	8785
928.267	8838
928.373	9405
928.479	8876
928.585	8686
928.69	8750
928.796	8807
928.901	8651
929.007	8518
929.112	8705
929.218	8629
929.323	8640
929.428	8511
929.533	8682
929.638	8514
929.743	8629
929.848	8606
929.953	8587
930.058	8427
930.163	8271
930.267	8370
930.372	8530
930.477	8279
930.581	8541
930.685	8465
930.79	8271
930.894	8419
930.998	8286
931.103	8408
931.207	8107
931.311	8073
931.415	7955
931.519	7811
931.623	7830
