Data from test_V78500241_3365.txt Node
Date: Fri Mar 25 14:57:08 CST 2022
User: usil
Spectrometer: V785-0024
Trigger mode: 0
Integration Time (sec): 4.000000E-1
Scans to average: 1
Nonlinearity correction enabled: false
Boxcar width: 0
Storing dark spectrum: false
XAxis mode: Wavelengths
Number of Pixels in Spectrum: 1024
>>>>>Begin Spectral Data<<<<<
801.071	21922
801.214	21743
801.356	21595
801.499	21564
801.641	21268
801.783	21256
801.926	21321
802.068	21256
802.211	21211
802.353	21043
802.496	20864
802.638	20849
802.78	20724
802.923	20648
803.065	20537
803.208	20632
803.35	20632
803.492	20659
803.635	20754
803.777	20579
803.919	20705
804.061	20975
804.204	20735
804.346	20526
804.488	20583
804.63	20568
804.773	20389
804.915	20484
805.057	20579
805.199	20545
805.341	20552
805.483	20651
805.626	20724
805.768	20343
805.91	20495
806.052	20621
806.194	20461
806.336	20609
806.478	20427
806.62	20571
806.762	20655
806.904	20765
807.046	20823
807.188	20902
807.33	20762
807.472	20785
807.614	20845
807.756	20819
807.898	20697
808.04	20583
808.182	20537
808.324	20579
808.465	20693
808.607	20895
808.749	20891
808.891	20944
809.033	21001
809.174	20918
809.316	20929
809.458	20731
809.6	20788
809.741	20887
809.883	20880
810.025	21005
810.166	20971
810.308	21036
810.45	21024
810.591	20929
810.733	20689
810.875	20682
811.016	20674
811.158	20530
811.299	20689
811.441	20625
811.582	20864
811.724	20655
811.865	20644
812.007	20682
812.148	20564
812.29	20609
812.431	20811
812.573	20902
812.714	21047
812.855	21062
812.997	21264
813.138	21359
813.279	21256
813.421	21230
813.562	21066
813.703	20864
813.845	20769
813.986	20526
814.127	20336
814.268	20233
814.41	20324
814.551	20153
814.692	20275
814.833	20077
814.974	20119
815.115	20244
815.256	20005
815.397	20077
815.539	20020
815.68	20043
815.821	19761
815.962	19925
816.103	19936
816.244	19731
816.385	19693
816.526	19670
816.666	19487
816.807	19346
816.948	19426
817.089	19529
817.23	19354
817.371	19377
817.512	19346
817.653	19240
817.793	19225
817.934	19232
818.075	19381
818.216	19483
818.356	19297
818.497	19118
818.638	18928
818.778	19000
818.919	19072
819.06	19000
819.2	19099
819.341	19194
819.481	19194
819.622	19365
819.762	19472
819.903	19388
820.043	19362
820.184	19422
820.324	19320
820.465	19445
820.605	19278
820.746	19312
820.886	19168
821.026	19228
821.167	19270
821.307	19381
821.447	19190
821.588	19088
821.728	18970
821.868	18871
822.008	18669
822.149	18684
822.289	18665
822.429	18456
822.569	18369
822.709	18338
822.849	18243
822.99	18262
823.13	18159
823.27	18285
823.41	18098
823.55	18030
823.69	18011
823.83	17942
823.97	17897
824.11	17748
824.25	17805
824.389	17680
824.529	17847
824.669	17786
824.809	17828
824.949	17923
825.089	17794
825.228	17805
825.368	17608
825.508	17630
825.648	17539
825.787	17577
825.927	17634
826.067	17528
826.206	17448
826.346	17547
826.485	17596
826.625	17535
826.765	17642
826.904	17596
827.044	17334
827.183	17322
827.323	17307
827.462	17269
827.601	17277
827.741	17265
827.88	17254
828.02	17136
828.159	17296
828.298	17372
828.437	17353
828.577	17094
828.716	17398
828.855	17231
828.994	17037
829.134	16972
829.273	17033
829.412	16919
829.551	16934
829.69	16961
829.829	17029
829.968	17117
830.107	17045
830.246	17056
830.385	16946
830.524	16991
830.663	16858
830.802	16778
830.941	16634
831.08	16664
831.219	16698
831.357	16740
831.496	16881
831.635	16592
831.774	16535
831.913	16527
832.051	16405
832.19	16390
832.329	16504
832.467	16371
832.606	16246
832.744	16360
832.883	16341
833.022	16379
833.16	16379
833.299	16287
833.437	16424
833.576	16291
833.714	16485
833.852	16459
833.991	16474
834.129	16478
834.267	16436
834.406	16440
834.544	16497
834.682	16417
834.821	16394
834.959	16596
835.097	16352
835.235	16542
835.373	16421
835.511	16538
835.65	16390
835.788	16261
835.926	16154
836.064	16135
836.202	16040
836.34	16333
836.478	16329
836.615	16265
836.753	16295
836.891	16303
837.029	16417
837.167	16169
837.305	16211
837.443	16211
837.58	16051
837.718	16268
837.856	16109
837.993	16112
838.131	16246
838.269	16150
838.406	16207
838.544	16040
838.681	15983
838.819	15854
838.956	15694
839.094	15667
839.231	15804
839.369	15861
839.506	16131
839.643	16006
839.781	15762
839.918	15732
840.055	15781
840.193	15732
840.33	15747
840.467	15728
840.604	15766
840.742	15934
840.879	15660
841.016	15610
841.153	15724
841.29	15770
841.427	15648
841.564	15751
841.701	15785
841.838	15770
841.975	15625
842.112	15679
842.249	15549
842.385	15420
842.522	15774
842.659	15580
842.796	15530
842.933	15614
843.069	15485
843.206	15439
843.343	15637
843.479	15572
843.616	15553
843.752	15424
843.889	15260
844.025	15481
844.162	15351
844.298	15405
844.435	15256
844.571	15260
844.708	15355
844.844	15576
844.98	15504
845.117	15416
845.253	15218
845.389	15112
845.525	15207
845.661	15230
845.798	15077
845.934	15173
846.07	15093
846.206	15138
846.342	15180
846.478	15127
846.614	14914
846.75	14895
846.886	14830
847.022	14956
847.158	15028
847.294	14918
847.429	14971
847.565	14838
847.701	15154
847.837	14667
847.972	14579
848.108	14644
848.244	14697
848.379	14533
848.515	14495
848.65	14442
848.786	14495
848.921	14568
849.057	14568
849.192	14499
849.328	14598
849.463	14549
849.598	14469
849.734	14442
849.869	14332
850.004	14218
850.14	14267
850.275	14278
850.41	14164
850.545	14221
850.68	14229
850.815	14347
850.95	14305
851.085	14313
851.22	14313
851.355	14267
851.49	14256
851.625	14180
851.76	14290
851.895	14145
852.03	14145
852.165	14275
852.299	14305
852.434	14271
852.569	14301
852.703	14244
852.838	14332
852.973	14305
853.107	14389
853.242	14123
853.376	14172
853.511	14024
853.645	14172
853.78	14195
853.914	14138
854.048	14039
854.183	14016
854.317	14176
854.451	14263
854.585	14138
854.72	14039
854.854	14111
854.988	14016
855.122	14062
855.256	13947
855.39	14119
855.524	14210
855.658	14187
855.792	14180
855.926	14233
856.06	14229
856.194	14259
856.327	14164
856.461	14046
856.595	14123
856.729	14100
856.862	14267
856.996	14100
857.13	14180
857.263	14324
857.397	14183
857.53	14100
857.664	14225
857.797	14161
857.931	14218
858.064	14172
858.197	14252
858.331	14145
858.464	14237
858.597	14001
858.731	14050
858.864	14103
858.997	14130
859.13	14183
859.263	14202
859.396	14282
859.529	14100
859.662	14187
859.795	14126
859.928	14298
860.061	14339
860.194	14434
860.327	14218
860.46	14248
860.592	14248
860.725	14298
860.858	14237
860.99	14206
861.123	14058
861.256	14039
861.388	14206
861.521	14899
861.653	13982
861.786	13963
861.918	14012
862.05	14050
862.183	14016
862.315	14058
862.447	14138
862.58	14100
862.712	13890
862.844	13871
862.976	13982
863.108	13963
863.24	14404
863.372	13849
863.504	13906
863.636	13944
863.768	13928
863.9	13898
864.032	13845
864.164	13860
864.296	14001
864.428	14077
864.559	14058
864.691	14016
864.823	14050
864.954	14065
865.086	13936
865.217	13944
865.349	13811
865.48	13875
865.612	13902
865.743	14081
865.875	13944
866.006	13807
866.137	13925
866.269	13830
866.4	13902
866.531	13826
866.662	13818
866.793	13898
866.924	13841
867.055	13909
867.186	13947
867.317	13921
867.448	13761
867.579	13856
867.71	13788
867.841	13799
867.972	13864
868.103	13852
868.233	13917
868.364	13856
868.495	13894
868.625	14149
868.756	14248
868.886	14065
869.017	14046
869.147	14218
869.278	14317
869.408	14168
869.539	14111
869.669	14343
869.799	14168
869.929	14282
870.06	14317
870.19	14533
870.32	14431
870.45	14526
870.58	14610
870.71	14667
870.84	14750
870.97	14541
871.1	14602
871.23	14769
871.36	14785
871.489	14655
871.619	14716
871.749	14743
871.879	14815
872.008	14826
872.138	14777
872.267	14705
872.397	14613
872.526	14583
872.656	14503
872.785	14552
872.915	14838
873.044	14830
873.173	14834
873.303	14880
873.432	14861
873.561	14876
873.69	14769
873.819	14807
873.948	14861
874.077	14823
874.206	14792
874.335	14861
874.464	15005
874.593	15089
874.722	15013
874.851	15127
874.979	15180
875.108	15222
875.237	15150
875.365	15024
875.494	15081
875.623	15211
875.751	15070
875.88	15112
876.008	15344
876.136	15321
876.265	15511
876.393	15679
876.521	15629
876.65	15637
876.778	15587
876.906	15504
877.034	15401
877.162	15523
877.29	15519
877.418	15549
877.546	15542
877.674	15572
877.802	15534
877.93	15564
878.058	15542
878.185	15408
878.313	15431
878.441	15641
878.568	15450
878.696	15538
878.824	15488
878.951	15652
879.079	15755
879.206	15831
879.333	15743
879.461	15549
879.588	15629
879.715	15705
879.842	15842
879.97	15568
880.097	15401
880.224	15332
880.351	15340
880.478	15450
880.605	15351
880.732	15386
880.859	15572
880.986	15363
881.112	15447
881.239	15241
881.366	15218
881.493	15032
881.619	14956
881.746	15051
881.872	15116
881.999	14971
882.125	14971
882.252	15169
882.378	15161
882.505	15214
882.631	15017
882.757	14948
882.883	14834
883.01	14750
883.136	14857
883.262	14750
883.388	14724
883.514	14880
883.64	14861
883.766	14838
883.892	14697
884.018	14735
884.143	14842
884.269	14925
884.395	14644
884.52	14526
884.646	14598
884.772	14526
884.897	14408
885.023	14514
885.148	14701
885.274	14739
885.399	14731
885.524	14545
885.65	14629
885.775	14636
885.9	14552
886.025	14667
886.15	14651
886.275	14495
886.4	14587
886.525	14518
886.65	14537
886.775	14556
886.9	14712
887.025	14731
887.149	14590
887.274	14393
887.399	14374
887.523	14431
887.648	14282
887.773	14218
887.897	14434
888.021	14400
888.146	14358
888.27	14488
888.395	14594
888.519	14393
888.643	14507
888.767	14465
888.891	14290
889.015	14225
889.139	14393
889.263	14214
889.387	14473
889.511	14526
889.635	14450
889.759	14180
889.883	14271
890.006	14248
890.13	14374
890.254	14202
890.377	14248
890.501	14088
890.624	14001
890.748	14119
890.871	13974
890.995	13959
891.118	13868
891.241	13947
891.364	13921
891.488	14050
891.611	13925
891.734	13951
891.857	14062
891.98	13959
892.103	14016
892.226	14035
892.349	13913
892.471	13772
892.594	13913
892.717	13921
892.839	13997
892.962	14046
893.085	14016
893.207	14024
893.33	13807
893.452	13917
893.575	14077
893.697	14027
893.819	14164
893.941	14187
894.064	14145
894.186	13959
894.308	13913
894.43	14073
894.552	14107
894.674	14107
894.796	13989
894.918	14005
895.04	13997
895.161	14221
895.283	14088
895.405	13955
895.526	14081
895.648	14130
895.769	14142
895.891	14157
896.012	14176
896.134	14199
896.255	14107
896.376	14199
896.498	14077
896.619	14168
896.74	14229
896.861	14282
896.982	14556
897.103	14610
897.224	14480
897.345	14438
897.466	14366
897.587	14465
897.708	14571
897.828	14488
897.949	14339
898.07	14366
898.19	14309
898.311	14514
898.431	14442
898.552	14522
898.672	14556
898.792	14617
898.913	14564
899.033	14434
899.153	14347
899.273	14263
899.393	14389
899.513	14324
899.633	14339
899.753	14400
899.873	14374
899.993	14412
900.113	14362
900.232	14366
900.352	14343
900.472	14339
900.591	14202
900.711	14301
900.83	14202
900.95	14343
901.069	14370
901.189	14233
901.308	13978
901.427	13906
901.546	13989
901.665	13894
901.784	13909
901.904	13883
902.023	13689
902.141	13540
902.26	13483
902.379	13575
902.498	13472
902.617	13434
902.735	13636
902.854	13518
902.973	13472
903.091	13194
903.21	13160
903.328	13232
903.446	13137
903.565	13080
903.683	13099
903.801	13019
903.919	13072
904.038	13076
904.156	12951
904.274	12966
904.392	12886
904.51	12848
904.627	12951
904.745	12913
904.863	12916
904.981	12753
905.098	12696
905.216	12593
905.334	12650
905.451	12593
905.569	12570
905.686	12635
905.803	12597
905.921	12372
906.038	12555
906.155	12300
906.272	12216
906.389	12342
906.506	12136
906.623	12220
906.74	12167
906.857	12011
906.974	11992
907.091	12163
907.208	12296
907.324	12262
907.441	12129
907.557	11904
907.674	11939
907.79	11847
907.907	11950
908.023	11969
908.139	11954
908.256	11882
908.372	11939
908.488	11790
908.604	11741
908.72	11665
908.836	11745
908.952	11573
909.068	11748
909.184	11737
909.3	11691
909.415	11703
909.531	11695
909.647	11467
909.762	11459
909.878	11490
909.993	11512
910.108	11417
910.224	11482
910.339	11433
910.454	11383
910.57	11334
910.685	11227
910.8	11566
910.915	11406
911.03	11349
911.145	11143
911.259	11143
911.374	11189
911.489	11060
911.604	11041
911.718	10961
911.833	10942
911.947	10782
912.062	10702
912.176	10904
912.291	10999
912.405	10873
912.519	11143
912.633	11064
912.748	10908
912.862	10908
912.976	10740
913.09	10683
913.204	10740
913.318	10831
913.431	10862
913.545	10908
913.659	10873
913.772	10881
913.886	10721
914	10790
914.113	10793
914.226	10778
914.34	10797
914.453	10554
914.566	10824
914.68	10592
914.793	10634
914.906	10485
915.019	10417
915.132	10375
915.245	10390
915.358	10375
915.47	10386
915.583	10428
915.696	10478
915.809	10519
915.921	10634
916.034	10417
916.146	10348
916.259	10424
916.371	10474
916.483	10504
916.595	10333
916.708	10379
916.82	10443
916.932	10447
917.044	10390
917.156	10287
917.268	10303
917.38	10306
917.491	10268
917.603	10295
917.715	10417
917.826	10417
917.938	10287
918.049	10147
918.161	10257
918.272	10413
918.384	10386
918.495	10295
918.606	10181
918.717	10139
918.828	10181
918.939	10211
919.05	10112
919.161	10135
919.272	9865
919.383	10097
919.494	10230
919.604	10402
919.715	10173
919.826	10128
919.936	10071
920.047	10242
920.157	10162
920.267	10417
920.378	10215
920.488	10150
920.598	10371
920.708	10497
920.818	10325
920.928	10371
921.038	10531
921.148	10436
921.258	10265
921.368	10120
921.477	10086
921.587	10029
921.697	9953
921.806	10006
921.916	9994
922.025	9800
922.134	9686
922.244	9606
922.353	9766
922.462	9549
922.571	9603
922.68	9519
922.789	9420
922.898	9363
923.007	9412
923.116	9507
923.224	9424
923.333	9386
923.442	9348
923.55	9291
923.659	9310
923.767	9332
923.876	9260
923.984	9336
924.092	9310
924.201	9317
924.309	9272
924.417	9302
924.525	9241
924.633	9279
924.741	10131
924.849	9024
924.956	9218
925.064	9039
925.172	8998
925.279	9020
925.387	9108
925.494	9169
925.602	9146
925.709	9104
925.816	8998
925.924	9077
926.031	9165
926.138	9119
926.245	9135
926.352	8948
926.459	9188
926.566	9230
926.673	9028
926.779	8895
926.886	8967
926.993	8853
927.099	8788
927.206	8720
927.312	8819
927.419	8849
927.525	8823
927.631	8800
927.737	8769
927.843	8720
927.95	8663
928.056	8697
928.162	8746
928.267	8724
928.373	9317
928.479	8800
928.585	8541
928.69	8663
928.796	8659
928.901	8571
929.007	8499
929.112	8579
929.218	8549
929.323	8480
929.428	8507
929.533	8617
929.638	8461
929.743	8423
929.848	8526
929.953	8438
930.058	8419
930.163	8298
930.267	8294
930.372	8492
930.477	8225
930.581	8552
930.685	8381
930.79	8183
930.894	8271
930.998	8256
931.103	8317
931.207	8050
931.311	7986
931.415	7951
931.519	7757
931.623	7696
