Data from test_V78500241_2394.txt Node
Date: Fri Mar 25 14:50:22 CST 2022
User: usil
Spectrometer: V785-0024
Trigger mode: 0
Integration Time (sec): 4.000000E-1
Scans to average: 1
Nonlinearity correction enabled: false
Boxcar width: 0
Storing dark spectrum: false
XAxis mode: Wavelengths
Number of Pixels in Spectrum: 1024
>>>>>Begin Spectral Data<<<<<
801.071	22105
801.214	22032
801.356	21774
801.499	21755
801.641	21477
801.783	21450
801.926	21481
802.068	21587
802.211	21431
802.353	21211
802.496	21047
802.638	21013
802.78	21009
802.923	20876
803.065	20853
803.208	20811
803.35	20811
803.492	20899
803.635	20902
803.777	20876
803.919	20956
804.061	21116
804.204	20876
804.346	20815
804.488	20651
804.63	20777
804.773	20701
804.915	20868
805.057	20792
805.199	20765
805.341	20754
805.483	20899
805.626	20823
805.768	20670
805.91	20872
806.052	20716
806.194	20708
806.336	20948
806.478	20708
806.62	20777
806.762	20823
806.904	21013
807.046	21093
807.188	21070
807.33	21161
807.472	21009
807.614	20921
807.756	20902
807.898	20819
808.04	20777
808.182	20811
808.324	20899
808.465	20834
808.607	20986
808.749	21108
808.891	21249
809.033	21473
809.174	21116
809.316	20982
809.458	21074
809.6	21157
809.741	21089
809.883	21116
810.025	21233
810.166	21241
810.308	21378
810.45	21203
810.591	21058
810.733	21093
810.875	20887
811.016	20769
811.158	20739
811.299	21047
811.441	21013
811.582	21020
811.724	20834
811.865	20853
812.007	20883
812.148	20777
812.29	20925
812.431	21051
812.573	21192
812.714	21317
812.855	21359
812.997	21530
813.138	21679
813.279	21485
813.421	21477
813.562	21283
813.703	21279
813.845	21028
813.986	20781
814.127	20476
814.268	20503
814.41	20583
814.551	20461
814.692	20590
814.833	20366
814.974	20332
815.115	20404
815.256	20309
815.397	20309
815.539	20317
815.68	20221
815.821	20088
815.962	20195
816.103	20058
816.244	20050
816.385	19940
816.526	19883
816.666	19708
816.807	19525
816.948	19613
817.089	19590
817.23	19643
817.371	19578
817.512	19605
817.653	19594
817.793	19472
817.934	19499
818.075	19476
818.216	19525
818.356	19571
818.497	19381
818.638	19168
818.778	19358
818.919	19343
819.06	19266
819.2	19388
819.341	19495
819.481	19449
819.622	19594
819.762	19780
819.903	19571
820.043	19632
820.184	19521
820.324	19559
820.465	19628
820.605	19521
820.746	19537
820.886	19365
821.026	19422
821.167	19346
821.307	19529
821.447	19578
821.588	19487
821.728	19183
821.868	19042
822.008	19027
822.149	18856
822.289	18947
822.429	18783
822.569	18650
822.709	18589
822.849	18365
822.99	18403
823.13	18346
823.27	18365
823.41	18273
823.55	18171
823.69	18372
823.83	18323
823.97	18216
824.11	18041
824.25	17996
824.389	18083
824.529	18079
824.669	18068
824.809	18129
824.949	18117
825.089	18049
825.228	18053
825.368	17847
825.508	17874
825.648	17809
825.787	17878
825.927	17874
826.067	17901
826.206	17866
826.346	17790
826.485	17912
826.625	17748
826.765	17950
826.904	17813
827.044	17604
827.183	17573
827.323	17440
827.462	17596
827.601	17501
827.741	17455
827.88	17539
828.02	17402
828.159	17532
828.298	17524
828.437	17611
828.577	17528
828.716	17623
828.855	17452
828.994	17303
829.134	17250
829.273	17307
829.412	17246
829.551	17197
829.69	17353
829.829	17284
829.968	17273
830.107	17379
830.246	17318
830.385	17159
830.524	17170
830.663	17083
830.802	17006
830.941	16812
831.08	16923
831.219	16953
831.357	16934
831.496	17079
831.635	16831
831.774	16847
831.913	16793
832.051	16725
832.19	16645
832.329	16713
832.467	16615
832.606	16523
832.744	16485
832.883	16596
833.022	16455
833.16	16615
833.299	16558
833.437	16672
833.576	16615
833.714	16637
833.852	16626
833.991	16611
834.129	16584
834.267	16656
834.406	16672
834.544	16656
834.682	16641
834.821	16622
834.959	16812
835.097	16641
835.235	16672
835.373	16649
835.511	16748
835.65	16489
835.788	16451
835.926	16367
836.064	16287
836.202	16375
836.34	16603
836.478	16649
836.615	16531
836.753	16519
836.891	16622
837.029	16550
837.167	16436
837.305	16424
837.443	16348
837.58	16318
837.718	16398
837.856	16485
837.993	16291
838.131	16375
838.269	16325
838.406	16287
838.544	16371
838.681	16051
838.819	16093
838.956	15880
839.094	15899
839.231	15972
839.369	16082
839.506	16295
839.643	16150
839.781	15975
839.918	15812
840.055	15979
840.193	15972
840.33	15972
840.467	15911
840.604	15915
840.742	16158
840.879	15827
841.016	15709
841.153	15797
841.29	15956
841.427	15991
841.564	15949
841.701	16002
841.838	15861
841.975	15781
842.112	15770
842.249	15720
842.385	15538
842.522	15869
842.659	15686
842.796	15606
842.933	15671
843.069	15557
843.206	15648
843.343	15774
843.479	15694
843.616	15789
843.752	15481
843.889	15462
844.025	15701
844.162	15485
844.298	15724
844.435	15405
844.571	15447
844.708	15557
844.844	15660
844.98	15576
845.117	15587
845.253	15526
845.389	15329
845.525	15382
845.661	15420
845.798	15222
845.934	15408
846.07	15214
846.206	15435
846.342	15412
846.478	15355
846.614	15138
846.75	15020
846.886	15108
847.022	15150
847.158	15055
847.294	15184
847.429	15055
847.565	14986
847.701	15294
847.837	14883
847.972	14708
848.108	14842
848.244	14857
848.379	14621
848.515	14746
848.65	14674
848.786	14712
848.921	14564
849.057	14743
849.192	14712
849.328	14579
849.463	14667
849.598	14636
849.734	14632
849.869	14503
850.004	14385
850.14	14514
850.275	14480
850.41	14317
850.545	14427
850.68	14404
850.815	14454
850.95	14377
851.085	14511
851.22	14556
851.355	14438
851.49	14389
851.625	14305
851.76	14362
851.895	14366
852.03	14313
852.165	14324
852.299	14389
852.434	14457
852.569	14454
852.703	14469
852.838	14499
852.973	14556
853.107	14613
853.242	14286
853.376	14320
853.511	14199
853.645	14191
853.78	14511
853.914	14309
854.048	14271
854.183	14244
854.317	14275
854.451	14480
854.585	14206
854.72	14237
854.854	14252
854.988	14233
855.122	14362
855.256	14187
855.39	14259
855.524	14377
855.658	14317
855.792	14313
855.926	14377
856.06	14328
856.194	14469
856.327	14294
856.461	14145
856.595	14286
856.729	14336
856.862	14358
856.996	14309
857.13	14351
857.263	14366
857.397	14457
857.53	14309
857.664	14389
857.797	14358
857.931	14400
858.064	14362
858.197	14343
858.331	14263
858.464	14244
858.597	14168
858.731	14233
858.864	14290
858.997	14237
859.13	14370
859.263	14370
859.396	14370
859.529	14259
859.662	14290
859.795	14294
859.928	14381
860.061	14400
860.194	14438
860.327	14244
860.46	14202
860.592	14404
860.725	14465
860.858	14522
860.99	14282
861.123	14259
861.256	14183
861.388	14282
861.521	14899
861.653	14256
861.786	14111
861.918	14134
862.05	14309
862.183	14229
862.315	14290
862.447	14362
862.58	14256
862.712	14031
862.844	14088
862.976	14138
863.108	14077
863.24	14484
863.372	14005
863.504	14058
863.636	14062
863.768	14123
863.9	14039
864.032	14058
864.164	14039
864.296	14149
864.428	14229
864.559	14119
864.691	14157
864.823	14058
864.954	14202
865.086	14069
865.217	14077
865.349	13989
865.48	14050
865.612	14119
865.743	14119
865.875	13959
866.006	14046
866.137	14008
866.269	14103
866.4	14088
866.531	13997
866.662	14020
866.793	14016
866.924	13986
867.055	13997
867.186	13974
867.317	13944
867.448	13993
867.579	13986
867.71	13928
867.841	13982
867.972	13959
868.103	14092
868.233	14043
868.364	14126
868.495	14043
868.625	14229
868.756	14434
868.886	14267
869.017	14419
869.147	14423
869.278	14404
869.408	14324
869.539	14240
869.669	14343
869.799	14282
869.929	14374
870.06	14446
870.19	14560
870.32	14640
870.45	14579
870.58	14674
870.71	14845
870.84	14777
870.97	14629
871.1	14735
871.23	14823
871.36	14952
871.489	14750
871.619	14800
871.749	14857
871.879	14967
872.008	14941
872.138	14925
872.267	14807
872.397	14724
872.526	14743
872.656	14746
872.785	14762
872.915	14956
873.044	15081
873.173	14971
873.303	14921
873.432	14902
873.561	14971
873.69	14948
873.819	14868
873.948	14994
874.077	14986
874.206	14902
874.335	14948
874.464	15116
874.593	15249
874.722	15272
874.851	15264
874.979	15317
875.108	15291
875.237	15226
875.365	15165
875.494	15249
875.623	15332
875.751	15279
875.88	15245
876.008	15386
876.136	15466
876.265	15675
876.393	15846
876.521	15755
876.65	15766
876.778	15690
876.906	15671
877.034	15644
877.162	15709
877.29	15671
877.418	15705
877.546	15694
877.674	15595
877.802	15603
877.93	15694
878.058	15637
878.185	15519
878.313	15701
878.441	15663
878.568	15519
878.696	15614
878.824	15736
878.951	15774
879.079	15846
879.206	15903
879.333	15808
879.461	15667
879.588	15694
879.715	15804
879.842	15945
879.97	15774
880.097	15629
880.224	15492
880.351	15568
880.478	15622
880.605	15496
880.732	15488
880.859	15736
880.986	15530
881.112	15549
881.239	15405
881.366	15340
881.493	15245
881.619	15081
881.746	15154
881.872	15108
881.999	15146
882.125	15119
882.252	15351
882.378	15180
882.505	15332
882.631	15176
882.757	14948
882.883	15058
883.01	15100
883.136	15017
883.262	14895
883.388	14773
883.514	15020
883.64	15032
883.766	14914
883.892	14773
884.018	14830
884.143	14933
884.269	15058
884.395	14735
884.52	14686
884.646	14731
884.772	14743
884.897	14537
885.023	14727
885.148	14830
885.274	14971
885.399	14796
885.524	14724
885.65	14686
885.775	14777
885.9	14701
886.025	14868
886.15	14804
886.275	14667
886.4	14651
886.525	14648
886.65	14621
886.775	14549
886.9	14788
887.025	14906
887.149	14659
887.274	14590
887.399	14598
887.523	14495
887.648	14454
887.773	14438
887.897	14705
888.021	14613
888.146	14454
888.27	14568
888.395	14686
888.519	14518
888.643	14689
888.767	14545
888.891	14423
889.015	14343
889.139	14495
889.263	14355
889.387	14480
889.511	14511
889.635	14583
889.759	14358
889.883	14347
890.006	14419
890.13	14549
890.254	14252
890.377	14317
890.501	14168
890.624	14161
890.748	14259
890.871	14164
890.995	14050
891.118	13986
891.241	14088
891.364	14145
891.488	14237
891.611	14062
891.734	14123
891.857	14123
891.98	14111
892.103	14218
892.226	14103
892.349	14062
892.471	13967
892.594	14050
892.717	14073
892.839	14103
892.962	14157
893.085	14081
893.207	14058
893.33	14073
893.452	14115
893.575	14123
893.697	14081
893.819	14259
893.941	14339
894.064	14275
894.186	14058
894.308	13993
894.43	14259
894.552	14313
894.674	14176
894.796	14039
894.918	14142
895.04	14172
895.161	14271
895.283	14164
895.405	14123
895.526	14164
895.648	14138
895.769	14240
895.891	14187
896.012	14381
896.134	14294
896.255	14328
896.376	14225
896.498	14233
896.619	14347
896.74	14313
896.861	14404
896.982	14640
897.103	14743
897.224	14549
897.345	14598
897.466	14343
897.587	14473
897.708	14583
897.828	14518
897.949	14495
898.07	14431
898.19	14560
898.311	14682
898.431	14610
898.552	14636
898.672	14708
898.792	14720
898.913	14655
899.033	14583
899.153	14454
899.273	14339
899.393	14355
899.513	14454
899.633	14522
899.753	14476
899.873	14473
899.993	14484
900.113	14415
900.232	14549
900.352	14457
900.472	14370
900.591	14278
900.711	14427
900.83	14294
900.95	14412
901.069	14511
901.189	14195
901.308	14100
901.427	14062
901.546	13989
901.665	14119
901.784	14005
901.904	13890
902.023	13830
902.141	13552
902.26	13639
902.379	13647
902.498	13563
902.617	13464
902.735	13582
902.854	13468
902.973	13403
903.091	13293
903.21	13247
903.328	13350
903.446	13259
903.565	13206
903.683	13137
903.801	13031
903.919	13118
904.038	13110
904.156	13019
904.274	13031
904.392	12996
904.51	12970
904.627	12932
904.745	12962
904.863	13008
904.981	12700
905.098	12642
905.216	12604
905.334	12574
905.451	12749
905.569	12585
905.686	12662
905.803	12623
905.921	12475
906.038	12677
906.155	12521
906.272	12327
906.389	12346
906.506	12262
906.623	12239
906.74	12258
906.857	12205
906.974	12182
907.091	12357
907.208	12429
907.324	12300
907.441	12159
907.557	12015
907.674	12019
907.79	11927
907.907	11912
908.023	11977
908.139	11984
908.256	11904
908.372	11912
908.488	11954
908.604	11707
908.72	11775
908.836	11684
908.952	11741
909.068	11729
909.184	11931
909.3	11802
909.415	11882
909.531	11790
909.647	11547
909.762	11543
909.878	11455
909.993	11532
910.108	11474
910.224	11410
910.339	11490
910.454	11433
910.57	11414
910.685	11356
910.8	11596
910.915	11520
911.03	11341
911.145	11250
911.259	11223
911.374	11223
911.489	11140
911.604	11105
911.718	11010
911.833	10949
911.947	10862
912.062	10771
912.176	11003
912.291	10991
912.405	10946
912.519	11239
912.633	11193
912.748	11045
912.862	10946
912.976	10862
913.09	10748
913.204	10843
913.318	10919
913.431	10965
913.545	10915
913.659	11003
913.772	10885
913.886	10717
914	10706
914.113	10889
914.226	10824
914.34	10828
914.453	10607
914.566	10850
914.68	10691
914.793	10710
914.906	10466
915.019	10485
915.132	10390
915.245	10516
915.358	10493
915.47	10493
915.583	10519
915.696	10519
915.809	10573
915.921	10653
916.034	10504
916.146	10379
916.259	10436
916.371	10546
916.483	10569
916.595	10428
916.708	10341
916.82	10504
916.932	10318
917.044	10363
917.156	10455
917.268	10276
917.38	10280
917.491	10207
917.603	10310
917.715	10371
917.826	10363
917.938	10246
918.049	10196
918.161	10249
918.272	10459
918.384	10432
918.495	10337
918.606	10131
918.717	10059
918.828	10173
918.939	10192
919.05	10093
919.161	10150
919.272	9880
919.383	10059
919.494	10253
919.604	10409
919.715	10188
919.826	10128
919.936	10318
920.047	10394
920.157	10227
920.267	10402
920.378	10257
920.488	10166
920.598	10390
920.708	10497
920.818	10375
920.928	10474
921.038	10630
921.148	10538
921.258	10341
921.368	10169
921.477	10040
921.587	10040
921.697	9930
921.806	10078
921.916	9979
922.025	9732
922.134	9762
922.244	9785
922.353	9720
922.462	9667
922.571	9549
922.68	9401
922.789	9458
922.898	9477
923.007	9397
923.116	9435
923.224	9420
923.333	9408
923.442	9317
923.55	9420
923.659	9298
923.767	9393
923.876	9268
923.984	9405
924.092	9268
924.201	9340
924.309	9298
924.417	9344
924.525	9222
924.633	9332
924.741	10074
924.849	9074
924.956	9249
925.064	9108
925.172	9013
925.279	9017
925.387	9104
925.494	9058
925.602	9222
925.709	9245
925.816	9119
925.924	9161
926.031	9203
926.138	9157
926.245	9176
926.352	9074
926.459	9184
926.566	9188
926.673	9017
926.779	8982
926.886	8994
926.993	8876
927.099	8842
927.206	8739
927.312	8754
927.419	8883
927.525	8826
927.631	8914
927.737	8689
927.843	8705
927.95	8632
928.056	8720
928.162	8762
928.267	8739
928.373	9374
928.479	8872
928.585	8644
928.69	8670
928.796	8807
928.901	8655
929.007	8476
929.112	8632
929.218	8598
929.323	8575
929.428	8598
929.533	8678
929.638	8446
929.743	8533
929.848	8583
929.953	8484
930.058	8415
930.163	8317
930.267	8336
930.372	8537
930.477	8263
930.581	8533
930.685	8419
930.79	8168
930.894	8313
930.998	8202
931.103	8389
931.207	8119
931.311	8020
931.415	7864
931.519	7772
931.623	7753
