Data from test_V78500241_1194.txt Node
Date: Fri Mar 25 14:42:01 CST 2022
User: usil
Spectrometer: V785-0024
Trigger mode: 0
Integration Time (sec): 4.000000E-1
Scans to average: 1
Nonlinearity correction enabled: false
Boxcar width: 0
Storing dark spectrum: false
XAxis mode: Wavelengths
Number of Pixels in Spectrum: 1024
>>>>>Begin Spectral Data<<<<<
801.071	22497
801.214	22295
801.356	22211
801.499	22101
801.641	21926
801.783	21907
801.926	21892
802.068	21736
802.211	21667
802.353	21595
802.496	21454
802.638	21363
802.78	21344
802.923	21211
803.065	21222
803.208	21195
803.35	21214
803.492	21264
803.635	21310
803.777	21195
803.919	21237
804.061	21515
804.204	21332
804.346	21157
804.488	21036
804.63	21013
804.773	20937
804.915	21173
805.057	21100
805.199	21028
805.341	21184
805.483	20986
805.626	21222
805.768	20979
805.91	21157
806.052	21096
806.194	20998
806.336	21081
806.478	21142
806.62	21039
806.762	21138
806.904	21249
807.046	21431
807.188	21488
807.33	21374
807.472	21393
807.614	21443
807.756	21458
807.898	21348
808.04	21260
808.182	21195
808.324	21344
808.465	21336
808.607	21450
808.749	21561
808.891	21603
809.033	21736
809.174	21618
809.316	21485
809.458	21580
809.6	21515
809.741	21568
809.883	21610
810.025	21599
810.166	21656
810.308	21557
810.45	21759
810.591	21519
810.733	21382
810.875	21195
811.016	21214
811.158	21150
811.299	21378
811.441	21310
811.582	21389
811.724	21275
811.865	21222
812.007	21317
812.148	21260
812.29	21348
812.431	21542
812.573	21523
812.714	21652
812.855	21747
812.997	21823
813.138	21994
813.279	21861
813.421	21831
813.562	21690
813.703	21622
813.845	21466
813.986	21081
814.127	20853
814.268	20982
814.41	20842
814.551	20792
814.692	20769
814.833	20769
814.974	20765
815.115	20750
815.256	20613
815.397	20743
815.539	20602
815.68	20583
815.821	20503
815.962	20625
816.103	20495
816.244	20366
816.385	20377
816.526	20309
816.666	20031
816.807	19993
816.948	19997
817.089	20062
817.23	20016
817.371	20050
817.512	19982
817.653	19894
817.793	19871
817.934	19974
818.075	19944
818.216	19928
818.356	19932
818.497	19772
818.638	19594
818.778	19700
818.919	19674
819.06	19742
819.2	19791
819.341	19894
819.481	19921
819.622	20016
819.762	20153
819.903	20016
820.043	20039
820.184	19947
820.324	19883
820.465	20096
820.605	20027
820.746	19833
820.886	19742
821.026	19887
821.167	19917
821.307	20005
821.447	19868
821.588	19849
821.728	19624
821.868	19594
822.008	19415
822.149	19259
822.289	19362
822.429	19088
822.569	19008
822.709	19103
822.849	18810
822.99	18897
823.13	18810
823.27	18886
823.41	18654
823.55	18589
823.69	18791
823.83	18631
823.97	18639
824.11	18464
824.25	18509
824.389	18437
824.529	18502
824.669	18437
824.809	18582
824.949	18604
825.089	18498
825.228	18479
825.368	18327
825.508	18357
825.648	18300
825.787	18251
825.927	18407
826.067	18220
826.206	18270
826.346	18300
826.485	18296
826.625	18304
826.765	18350
826.904	18281
827.044	18060
827.183	18053
827.323	17980
827.462	18026
827.601	17996
827.741	17870
827.88	17999
828.02	17870
828.159	17882
828.298	18049
828.437	17996
828.577	17874
828.716	18022
828.855	17851
828.994	17718
829.134	17680
829.273	17687
829.412	17634
829.551	17638
829.69	17726
829.829	17771
829.968	17904
830.107	17691
830.246	17817
830.385	17634
830.524	17646
830.663	17589
830.802	17436
830.941	17387
831.08	17280
831.219	17307
831.357	17410
831.496	17520
831.635	17356
831.774	17185
831.913	17273
832.051	17147
832.19	17121
832.329	17216
832.467	16957
832.606	16858
832.744	16995
832.883	17022
833.022	17060
833.16	17037
833.299	16972
833.437	17060
833.576	17064
833.714	17117
833.852	17109
833.991	17162
834.129	17204
834.267	17124
834.406	17124
834.544	17109
834.682	17037
834.821	17060
834.959	17341
835.097	17140
835.235	17185
835.373	17056
835.511	17193
835.65	17025
835.788	16953
835.926	16911
836.064	16923
836.202	16774
836.34	17064
836.478	17041
836.615	16991
836.753	17071
836.891	17071
837.029	17033
837.167	17060
837.305	16991
837.443	16889
837.58	16797
837.718	16961
837.856	16877
837.993	16847
838.131	16790
838.269	16782
838.406	16733
838.544	16740
838.681	16459
838.819	16474
838.956	16371
839.094	16462
839.231	16333
839.369	16558
839.506	16698
839.643	16637
839.781	16455
839.918	16352
840.055	16329
840.193	16390
840.33	16390
840.467	16405
840.604	16386
840.742	16546
840.879	16306
841.016	16284
841.153	16375
841.29	16478
841.427	16386
841.564	16428
841.701	16379
841.838	16394
841.975	16310
842.112	16348
842.249	16192
842.385	16131
842.522	16360
842.659	16166
842.796	16082
842.933	16257
843.069	16135
843.206	16086
843.343	16265
843.479	16181
843.616	16082
843.752	15953
843.889	16059
844.025	16082
844.162	15934
844.298	16051
844.435	15953
844.571	16006
844.708	15987
844.844	16109
844.98	16147
845.117	16063
845.253	15911
845.389	15846
845.525	15998
845.661	15846
845.798	15827
845.934	15892
846.07	15823
846.206	15846
846.342	15888
846.478	15800
846.614	15648
846.75	15511
846.886	15488
847.022	15587
847.158	15629
847.294	15557
847.429	15549
847.565	15454
847.701	15793
847.837	15256
847.972	15131
848.108	15336
848.244	15332
848.379	15195
848.515	15161
848.65	15047
848.786	15051
848.921	15150
849.057	15260
849.192	15146
849.328	15131
849.463	15169
849.598	15161
849.734	15001
849.869	15009
850.004	14891
850.14	14868
850.275	14941
850.41	14727
850.545	14864
850.68	14971
850.815	14933
850.95	14845
851.085	15062
851.22	15001
851.355	14956
851.49	14876
851.625	14902
851.76	14979
851.895	14849
852.03	14765
852.165	14853
852.299	14834
852.434	14895
852.569	14906
852.703	14914
852.838	14963
852.973	15017
853.107	14994
853.242	14899
853.376	14701
853.511	14621
853.645	14716
853.78	14937
853.914	14750
854.048	14762
854.183	14708
854.317	14769
854.451	14944
854.585	14861
854.72	14758
854.854	14861
854.988	14746
855.122	14735
855.256	14530
855.39	14765
855.524	14925
855.658	14762
855.792	14636
855.926	14750
856.06	14807
856.194	14750
856.327	14800
856.461	14796
856.595	14750
856.729	14762
856.862	14834
856.996	14830
857.13	14781
857.263	14880
857.397	14815
857.53	14735
857.664	14773
857.797	14902
857.931	14796
858.064	14758
858.197	14750
858.331	14731
858.464	14716
858.597	14689
858.731	14708
858.864	14712
858.997	14697
859.13	14754
859.263	14746
859.396	14815
859.529	14773
859.662	14735
859.795	14621
859.928	14712
860.061	14925
860.194	14902
860.327	14842
860.46	14727
860.592	14933
860.725	14876
860.858	14796
860.99	14720
861.123	14724
861.256	14739
861.388	14777
861.521	15454
861.653	14651
861.786	14522
861.918	14571
862.05	14678
862.183	14640
862.315	14655
862.447	14750
862.58	14708
862.712	14530
862.844	14431
862.976	14583
863.108	14587
863.24	15089
863.372	14469
863.504	14492
863.636	14522
863.768	14488
863.9	14552
864.032	14442
864.164	14518
864.296	14564
864.428	14549
864.559	14564
864.691	14549
864.823	14606
864.954	14564
865.086	14594
865.217	14492
865.349	14488
865.48	14495
865.612	14450
865.743	14610
865.875	14526
866.006	14419
866.137	14461
866.269	14492
866.4	14518
866.531	14454
866.662	14473
866.793	14514
866.924	14423
867.055	14484
867.186	14328
867.317	14434
867.448	14495
867.579	14396
867.71	14480
867.841	14457
867.972	14438
868.103	14446
868.233	14480
868.364	14419
868.495	14640
868.625	14705
868.756	14861
868.886	14651
869.017	14743
869.147	14876
869.278	14902
869.408	14754
869.539	14705
869.669	14853
869.799	14807
869.929	14910
870.06	14937
870.19	15070
870.32	14914
870.45	15032
870.58	15176
870.71	15291
870.84	15211
870.97	15093
871.1	15119
871.23	15367
871.36	15359
871.489	15249
871.619	15378
871.749	15336
871.879	15405
872.008	15447
872.138	15340
872.267	15344
872.397	15222
872.526	15233
872.656	15093
872.785	15256
872.915	15355
873.044	15447
873.173	15294
873.303	15443
873.432	15462
873.561	15488
873.69	15313
873.819	15344
873.948	15466
874.077	15374
874.206	15370
874.335	15397
874.464	15564
874.593	15686
874.722	15667
874.851	15690
874.979	15732
875.108	15698
875.237	15644
875.365	15599
875.494	15625
875.623	15781
875.751	15675
875.88	15739
876.008	15778
876.136	15835
876.265	16105
876.393	16249
876.521	16295
876.65	16162
876.778	16025
876.906	16181
877.034	15956
877.162	16086
877.29	15998
877.418	16067
877.546	16097
877.674	16074
877.802	16063
877.93	16093
878.058	16002
878.185	16032
878.313	16048
878.441	16048
878.568	15972
878.696	15983
878.824	16177
878.951	16204
879.079	16242
879.206	16474
879.333	16287
879.461	16192
879.588	16253
879.715	16402
879.842	16440
879.97	16306
880.097	15979
880.224	15937
880.351	15979
880.478	16036
880.605	15903
880.732	15895
880.859	16192
880.986	15941
881.112	16013
881.239	15934
881.366	15747
881.493	15667
881.619	15743
881.746	15690
881.872	15542
881.999	15595
882.125	15568
882.252	15667
882.378	15629
882.505	15694
882.631	15485
882.757	15507
882.883	15519
883.01	15447
883.136	15458
883.262	15306
883.388	15325
883.514	15405
883.64	15450
883.766	15317
883.892	15306
884.018	15195
884.143	15416
884.269	15561
884.395	15252
884.52	15017
884.646	15051
884.772	15173
884.897	15150
885.023	15093
885.148	15256
885.274	15405
885.399	15176
885.524	15165
885.65	15154
885.775	15085
885.9	15119
886.025	15252
886.15	15074
886.275	15089
886.4	15077
886.525	15070
886.65	14986
886.775	15157
886.9	15283
887.025	15336
887.149	15055
887.274	14990
887.399	14853
887.523	14842
887.648	14807
887.773	14849
887.897	14956
888.021	15020
888.146	14895
888.27	15077
888.395	15127
888.519	14994
888.643	15005
888.767	15089
888.891	14727
889.015	14800
889.139	14876
889.263	14758
889.387	14921
889.511	14986
889.635	14834
889.759	14750
889.883	14750
890.006	14853
890.13	14849
890.254	14701
890.377	14731
890.501	14598
890.624	14678
890.748	14571
890.871	14575
890.995	14404
891.118	14450
891.241	14511
891.364	14446
891.488	14594
891.611	14484
891.734	14473
891.857	14644
891.98	14511
892.103	14549
892.226	14571
892.349	14480
892.471	14339
892.594	14442
892.717	14442
892.839	14412
892.962	14495
893.085	14545
893.207	14533
893.33	14324
893.452	14347
893.575	14682
893.697	14560
893.819	14476
893.941	14708
894.064	14602
894.186	14446
894.308	14503
894.43	14644
894.552	14689
894.674	14568
894.796	14450
894.918	14480
895.04	14465
895.161	14731
895.283	14587
895.405	14701
895.526	14571
895.648	14587
895.769	14659
895.891	14686
896.012	14705
896.134	14571
896.255	14663
896.376	14651
896.498	14697
896.619	14731
896.74	14606
896.861	14746
896.982	14956
897.103	15070
897.224	15062
897.345	15043
897.466	14872
897.587	14914
897.708	15043
897.828	14960
897.949	14853
898.07	14788
898.19	14899
898.311	15066
898.431	14902
898.552	14952
898.672	15055
898.792	15104
898.913	15104
899.033	14834
899.153	14895
899.273	14727
899.393	14804
899.513	14853
899.633	14819
899.753	14906
899.873	14811
899.993	14906
900.113	14880
900.232	14796
900.352	14826
900.472	14686
900.591	14678
900.711	14720
900.83	14678
900.95	14750
901.069	14670
901.189	14556
901.308	14480
901.427	14370
901.546	14415
901.665	14469
901.784	14336
901.904	14199
902.023	14233
902.141	13837
902.26	13932
902.379	14050
902.498	13826
902.617	13913
902.735	13967
902.854	14001
902.973	13944
903.091	13559
903.21	13597
903.328	13628
903.446	13594
903.565	13487
903.683	13567
903.801	13514
903.919	13365
904.038	13362
904.156	13346
904.274	13312
904.392	13304
904.51	13255
904.627	13274
904.745	13339
904.863	13388
904.981	13103
905.098	12989
905.216	12890
905.334	12958
905.451	13042
905.569	12928
905.686	13027
905.803	12989
905.921	12810
906.038	12875
906.155	12844
906.272	12772
906.389	12791
906.506	12589
906.623	12509
906.74	12536
906.857	12475
906.974	12570
907.091	12700
907.208	12768
907.324	12612
907.441	12544
907.557	12384
907.674	12327
907.79	12319
907.907	12342
908.023	12323
908.139	12262
908.256	12270
908.372	12197
908.488	12270
908.604	12121
908.72	12011
908.836	12091
908.952	12019
909.068	12114
909.184	12194
909.3	12064
909.415	12186
909.531	12095
909.647	11870
909.762	11847
909.878	11885
909.993	11809
910.108	11836
910.224	11779
910.339	11893
910.454	11710
910.57	11623
910.685	11668
910.8	11942
910.915	11855
911.03	11828
911.145	11627
911.259	11577
911.374	11532
911.489	11417
911.604	11471
911.718	11318
911.833	11349
911.947	11204
912.062	11098
912.176	11280
912.291	11299
912.405	11303
912.519	11436
912.633	11482
912.748	11345
912.862	11345
912.976	11197
913.09	11025
913.204	11185
913.318	11128
913.431	11269
913.545	11246
913.659	11296
913.772	11147
913.886	11041
914	11052
914.113	11181
914.226	11132
914.34	11094
914.453	11003
914.566	11060
914.68	11018
914.793	10946
914.906	10858
915.019	10805
915.132	10683
915.245	10793
915.358	10797
915.47	10786
915.583	10729
915.696	10908
915.809	10919
915.921	10984
916.034	10767
916.146	10683
916.259	10702
916.371	10797
916.483	10820
916.595	10679
916.708	10771
916.82	10763
916.932	10691
917.044	10630
917.156	10675
917.268	10531
917.38	10573
917.491	10538
917.603	10558
917.715	10679
917.826	10698
917.938	10577
918.049	10443
918.161	10611
918.272	10725
918.384	10771
918.495	10603
918.606	10516
918.717	10451
918.828	10413
918.939	10550
919.05	10390
919.161	10394
919.272	10192
919.383	10333
919.494	10580
919.604	10691
919.715	10451
919.826	10341
919.936	10455
920.047	10622
920.157	10417
920.267	10645
920.378	10508
920.488	10489
920.598	10656
920.708	10843
920.818	10672
920.928	10596
921.038	10767
921.148	10710
921.258	10531
921.368	10398
921.477	10310
921.587	10344
921.697	10196
921.806	10287
921.916	10249
922.025	10071
922.134	9994
922.244	10006
922.353	9994
922.462	9922
922.571	9838
922.68	9671
922.789	9736
922.898	9705
923.007	9603
923.116	9759
923.224	9724
923.333	9682
923.442	9682
923.55	9549
923.659	9648
923.767	9641
923.876	9504
923.984	9606
924.092	9450
924.201	9603
924.309	9572
924.417	9595
924.525	9507
924.633	9477
924.741	10306
924.849	9389
924.956	9542
925.064	9310
925.172	9230
925.279	9367
925.387	9405
925.494	9401
925.602	9485
925.709	9367
925.816	9268
925.924	9344
926.031	9416
926.138	9279
926.245	9370
926.352	9298
926.459	9428
926.566	9538
926.673	9279
926.779	9199
926.886	9138
926.993	9066
927.099	9032
927.206	9024
927.312	9009
927.419	9077
927.525	9089
927.631	9135
927.737	8979
927.843	8937
927.95	8815
928.056	8906
928.162	8994
928.267	8967
928.373	9534
928.479	9017
928.585	8849
928.69	8952
928.796	8933
928.901	8887
929.007	8724
929.112	8807
929.218	8868
929.323	8705
929.428	8762
929.533	8941
929.638	8682
929.743	8777
929.848	8796
929.953	8746
930.058	8655
930.163	8526
930.267	8526
930.372	8712
930.477	8461
930.581	8781
930.685	8629
930.79	8507
930.894	8549
930.998	8507
931.103	8636
931.207	8298
931.311	8282
931.415	8172
931.519	7959
931.623	8001
