Data from test_V78500241_3014.txt Node
Date: Fri Mar 25 14:54:42 CST 2022
User: usil
Spectrometer: V785-0024
Trigger mode: 0
Integration Time (sec): 4.000000E-1
Scans to average: 1
Nonlinearity correction enabled: false
Boxcar width: 0
Storing dark spectrum: false
XAxis mode: Wavelengths
Number of Pixels in Spectrum: 1024
>>>>>Begin Spectral Data<<<<<
801.071	22067
801.214	22036
801.356	21755
801.499	21622
801.641	21405
801.783	21389
801.926	21363
802.068	21291
802.211	21325
802.353	21237
802.496	20994
802.638	21005
802.78	20857
802.923	20891
803.065	20716
803.208	20746
803.35	20838
803.492	20861
803.635	20994
803.777	20701
803.919	20895
804.061	21165
804.204	20986
804.346	20727
804.488	20701
804.63	20705
804.773	20667
804.915	20773
805.057	20819
805.199	20739
805.341	20769
805.483	20811
805.626	20762
805.768	20667
805.91	20727
806.052	20796
806.194	20644
806.336	20838
806.478	20727
806.62	20674
806.762	20777
806.904	20937
807.046	21150
807.188	21058
807.33	21142
807.472	21066
807.614	21013
807.756	20986
807.898	20906
808.04	20648
808.182	20823
808.324	20754
808.465	20941
808.607	21005
808.749	21051
808.891	21214
809.033	21226
809.174	21207
809.316	20967
809.458	21184
809.6	21089
809.741	21146
809.883	21112
810.025	21252
810.166	21256
810.308	21154
810.45	21199
810.591	21131
810.733	20910
810.875	20899
811.016	20792
811.158	20674
811.299	20899
811.441	20845
811.582	20952
811.724	20861
811.865	20788
812.007	20819
812.148	20956
812.29	20918
812.431	20998
812.573	21096
812.714	21351
812.855	21378
812.997	21545
813.138	21660
813.279	21416
813.421	21317
813.562	21291
813.703	21188
813.845	21017
813.986	20655
814.127	20602
814.268	20518
814.41	20499
814.551	20480
814.692	20518
814.833	20374
814.974	20309
815.115	20431
815.256	20278
815.397	20244
815.539	20351
815.68	20164
815.821	20172
815.962	20100
816.103	20062
816.244	20111
816.385	19902
816.526	19864
816.666	19772
816.807	19655
816.948	19616
817.089	19601
817.23	19655
817.371	19601
817.512	19632
817.653	19518
817.793	19582
817.934	19525
818.075	19666
818.216	19578
818.356	19537
818.497	19331
818.638	19228
818.778	19194
818.919	19274
819.06	19183
819.2	19343
819.341	19548
819.481	19388
819.622	19514
819.762	19772
819.903	19635
820.043	19655
820.184	19472
820.324	19571
820.465	19616
820.605	19521
820.746	19556
820.886	19304
821.026	19426
821.167	19521
821.307	19605
821.447	19430
821.588	19346
821.728	19263
821.868	18943
822.008	18985
822.149	18863
822.289	18840
822.429	18715
822.569	18681
822.709	18639
822.849	18433
822.99	18384
823.13	18369
823.27	18418
823.41	18224
823.55	18125
823.69	18190
823.83	18220
823.97	18079
824.11	18030
824.25	17901
824.389	17931
824.529	17977
824.669	17912
824.809	18079
824.949	18095
825.089	18041
825.228	17946
825.368	17798
825.508	17813
825.648	17859
825.787	17764
825.927	17821
826.067	17786
826.206	17707
826.346	17752
826.485	17840
826.625	17779
826.765	17958
826.904	17821
827.044	17532
827.183	17455
827.323	17463
827.462	17471
827.601	17490
827.741	17486
827.88	17520
828.02	17376
828.159	17395
828.298	17417
828.437	17478
828.577	17406
828.716	17532
828.855	17345
828.994	17121
829.134	17185
829.273	17174
829.412	17014
829.551	17136
829.69	17109
829.829	17181
829.968	17292
830.107	17235
830.246	17204
830.385	17151
830.524	17105
830.663	17045
830.802	16885
830.941	16805
831.08	16793
831.219	16984
831.357	16801
831.496	16961
831.635	16786
831.774	16691
831.913	16793
832.051	16668
832.19	16546
832.329	16660
832.467	16481
832.606	16459
832.744	16455
832.883	16512
833.022	16462
833.16	16489
833.299	16474
833.437	16550
833.576	16641
833.714	16535
833.852	16565
833.991	16527
834.129	16649
834.267	16649
834.406	16546
834.544	16451
834.682	16603
834.821	16542
834.959	16778
835.097	16519
835.235	16618
835.373	16512
835.511	16531
835.65	16493
835.788	16409
835.926	16390
836.064	16280
836.202	16215
836.34	16417
836.478	16538
836.615	16428
836.753	16329
836.891	16558
837.029	16421
837.167	16344
837.305	16360
837.443	16329
837.58	16291
837.718	16398
837.856	16322
837.993	16169
838.131	16287
838.269	16276
838.406	16249
838.544	16074
838.681	16010
838.819	15991
838.956	15865
839.094	15785
839.231	15857
839.369	15915
839.506	16318
839.643	16051
839.781	15838
839.918	15827
840.055	15812
840.193	15873
840.33	15698
840.467	15865
840.604	15865
840.742	16097
840.879	15633
841.016	15857
841.153	15759
841.29	15888
841.427	15762
841.564	15816
841.701	15766
841.838	15781
841.975	15804
842.112	15816
842.249	15523
842.385	15568
842.522	15778
842.659	15648
842.796	15561
842.933	15561
843.069	15473
843.206	15454
843.343	15774
843.479	15648
843.616	15606
843.752	15431
843.889	15336
844.025	15488
844.162	15329
844.298	15428
844.435	15450
844.571	15348
844.708	15435
844.844	15534
844.98	15599
845.117	15485
845.253	15386
845.389	15268
845.525	15363
845.661	15173
845.798	15169
845.934	15272
846.07	15256
846.206	15233
846.342	15268
846.478	15180
846.614	15032
846.75	14899
846.886	14963
847.022	15058
847.158	14960
847.294	14967
847.429	14998
847.565	14986
847.701	15104
847.837	14693
847.972	14670
848.108	14743
848.244	14724
848.379	14636
848.515	14552
848.65	14594
848.786	14564
848.921	14636
849.057	14678
849.192	14735
849.328	14606
849.463	14560
849.598	14533
849.734	14465
849.869	14473
850.004	14389
850.14	14294
850.275	14290
850.41	14298
850.545	14290
850.68	14385
850.815	14271
850.95	14347
851.085	14541
851.22	14473
851.355	14389
851.49	14377
851.625	14385
851.76	14271
851.895	14267
852.03	14183
852.165	14324
852.299	14374
852.434	14438
852.569	14393
852.703	14366
852.838	14427
852.973	14431
853.107	14499
853.242	14339
853.376	14164
853.511	14134
853.645	14195
853.78	14362
853.914	14206
854.048	14214
854.183	14164
854.317	14187
854.451	14351
854.585	14282
854.72	14187
854.854	14248
854.988	14164
855.122	14187
855.256	14035
855.39	14153
855.524	14206
855.658	14187
855.792	14275
855.926	14244
856.06	14298
856.194	14339
856.327	14229
856.461	14119
856.595	14164
856.729	14088
856.862	14286
856.996	14286
857.13	14229
857.263	14267
857.397	14351
857.53	14214
857.664	14240
857.797	14305
857.931	14351
858.064	14282
858.197	14301
858.331	14157
858.464	14107
858.597	14031
858.731	14195
858.864	14172
858.997	14164
859.13	14126
859.263	14271
859.396	14252
859.529	14088
859.662	14180
859.795	14191
859.928	14161
860.061	14362
860.194	14389
860.327	14218
860.46	14218
860.592	14278
860.725	14381
860.858	14370
860.99	14161
861.123	14119
861.256	14130
861.388	14176
861.521	14845
861.653	14008
861.786	14027
861.918	14020
862.05	14092
862.183	14214
862.315	14199
862.447	14233
862.58	14134
862.712	13989
862.844	13944
862.976	14020
863.108	14027
863.24	14408
863.372	13871
863.504	13967
863.636	14088
863.768	14119
863.9	14001
864.032	13997
864.164	13814
864.296	13947
864.428	14088
864.559	14054
864.691	14039
864.823	13970
864.954	13947
865.086	13993
865.217	13955
865.349	13940
865.48	13921
865.612	13974
865.743	14134
865.875	13925
866.006	13909
866.137	14058
866.269	14001
866.4	13940
866.531	13913
866.662	13917
866.793	14024
866.924	13894
867.055	13959
867.186	13993
867.317	13986
867.448	13852
867.579	13875
867.71	13833
867.841	13890
867.972	14062
868.103	13959
868.233	13932
868.364	13993
868.495	14027
868.625	14164
868.756	14370
868.886	14130
869.017	14157
869.147	14244
869.278	14320
869.408	14206
869.539	14214
869.669	14324
869.799	14256
869.929	14358
870.06	14282
870.19	14526
870.32	14442
870.45	14530
870.58	14587
870.71	14667
870.84	14735
870.97	14560
871.1	14556
871.23	14758
871.36	14788
871.489	14644
871.619	14712
871.749	14861
871.879	14853
872.008	14971
872.138	14807
872.267	14765
872.397	14625
872.526	14629
872.656	14568
872.785	14640
872.915	14792
873.044	14891
873.173	14887
873.303	14887
873.432	14937
873.561	14956
873.69	14906
873.819	14804
873.948	14929
874.077	14876
874.206	14727
874.335	14918
874.464	15047
874.593	15176
874.722	15135
874.851	15161
874.979	15165
875.108	15226
875.237	15165
875.365	15020
875.494	15074
875.623	15169
875.751	15119
875.88	15237
876.008	15294
876.136	15386
876.265	15614
876.393	15709
876.521	15728
876.65	15591
876.778	15618
876.906	15519
877.034	15523
877.162	15656
877.29	15603
877.418	15538
877.546	15625
877.674	15587
877.802	15580
877.93	15557
878.058	15534
878.185	15576
878.313	15530
878.441	15690
878.568	15428
878.696	15488
878.824	15454
878.951	15675
879.079	15747
879.206	15895
879.333	15835
879.461	15709
879.588	15686
879.715	15762
879.842	15884
879.97	15671
880.097	15519
880.224	15416
880.351	15473
880.478	15523
880.605	15351
880.732	15469
880.859	15717
880.986	15450
881.112	15435
881.239	15488
881.366	15272
881.493	15154
881.619	15093
881.746	15161
881.872	15047
881.999	15039
882.125	15058
882.252	15207
882.378	15245
882.505	15226
882.631	14994
882.757	14994
882.883	14994
883.01	15039
883.136	14838
883.262	14777
883.388	14754
883.514	15001
883.64	14967
883.766	14834
883.892	14845
884.018	14807
884.143	14960
884.269	14982
884.395	14682
884.52	14644
884.646	14659
884.772	14594
884.897	14556
885.023	14640
885.148	14705
885.274	14765
885.399	14682
885.524	14602
885.65	14651
885.775	14727
885.9	14606
886.025	14746
886.15	14610
886.275	14579
886.4	14552
886.525	14663
886.65	14507
886.775	14537
886.9	14781
887.025	14853
887.149	14701
887.274	14522
887.399	14450
887.523	14366
887.648	14381
887.773	14355
887.897	14625
888.021	14568
888.146	14389
888.27	14514
888.395	14629
888.519	14454
888.643	14537
888.767	14518
888.891	14408
889.015	14358
889.139	14396
889.263	14301
889.387	14606
889.511	14579
889.635	14457
889.759	14298
889.883	14317
890.006	14336
890.13	14393
890.254	14313
890.377	14286
890.501	14168
890.624	14183
890.748	14240
890.871	14081
890.995	13955
891.118	13925
891.241	14039
891.364	14008
891.488	14191
891.611	13974
891.734	14001
891.857	14134
891.98	14039
892.103	14096
892.226	14046
892.349	14012
892.471	13913
892.594	14005
892.717	14126
892.839	14092
892.962	14046
893.085	14157
893.207	14092
893.33	13906
893.452	13989
893.575	14058
893.697	13955
893.819	14248
893.941	14237
894.064	14229
894.186	13928
894.308	13970
894.43	14119
894.552	14161
894.674	14191
894.796	13944
894.918	14115
895.04	14020
895.161	14275
895.283	14229
895.405	14107
895.526	14229
895.648	14172
895.769	14183
895.891	14237
896.012	14248
896.134	14164
896.255	14172
896.376	14214
896.498	14218
896.619	14263
896.74	14187
896.861	14275
896.982	14492
897.103	14758
897.224	14499
897.345	14480
897.466	14351
897.587	14469
897.708	14514
897.828	14556
897.949	14473
898.07	14419
898.19	14507
898.311	14606
898.431	14537
898.552	14530
898.672	14693
898.792	14651
898.913	14621
899.033	14533
899.153	14438
899.273	14343
899.393	14457
899.513	14423
899.633	14473
899.753	14450
899.873	14381
899.993	14412
900.113	14431
900.232	14427
900.352	14457
900.472	14328
900.591	14332
900.711	14294
900.83	14214
900.95	14396
901.069	14431
901.189	14180
901.308	14005
901.427	13955
901.546	13917
901.665	13974
901.784	13974
901.904	13894
902.023	13875
902.141	13693
902.26	13491
902.379	13537
902.498	13578
902.617	13472
902.735	13582
902.854	13632
902.973	13453
903.091	13297
903.21	13331
903.328	13297
903.446	13156
903.565	13091
903.683	13114
903.801	13019
903.919	13034
904.038	13091
904.156	12909
904.274	13008
904.392	12924
904.51	12943
904.627	12863
904.745	12996
904.863	12981
904.981	12681
905.098	12665
905.216	12673
905.334	12635
905.451	12654
905.569	12570
905.686	12681
905.803	12627
905.921	12410
906.038	12486
906.155	12486
906.272	12357
906.389	12350
906.506	12270
906.623	12277
906.74	12163
906.857	12057
906.974	12076
907.091	12213
907.208	12342
907.324	12167
907.441	12163
907.557	11901
907.674	11939
907.79	11878
907.907	11908
908.023	11954
908.139	12041
908.256	11965
908.372	11859
908.488	11908
908.604	11699
908.72	11718
908.836	11729
908.952	11634
909.068	11756
909.184	11824
909.3	11695
909.415	11733
909.531	11657
909.647	11474
909.762	11532
909.878	11467
909.993	11535
910.108	11395
910.224	11383
910.339	11486
910.454	11349
910.57	11330
910.685	11311
910.8	11539
910.915	11482
911.03	11330
911.145	11193
911.259	11128
911.374	11201
911.489	11102
911.604	11022
911.718	11022
911.833	10953
911.947	10889
912.062	10835
912.176	10919
912.291	10908
912.405	10976
912.519	11128
912.633	11208
912.748	10927
912.862	10911
912.976	10774
913.09	10599
913.204	10793
913.318	10816
913.431	10980
913.545	10927
913.659	10946
913.772	10740
913.886	10740
914	10691
914.113	10801
914.226	10778
914.34	10744
914.453	10603
914.566	10809
914.68	10702
914.793	10618
914.906	10485
915.019	10489
915.132	10417
915.245	10478
915.358	10546
915.47	10493
915.583	10447
915.696	10516
915.809	10573
915.921	10637
916.034	10466
916.146	10379
916.259	10424
916.371	10512
916.483	10462
916.595	10375
916.708	10432
916.82	10295
916.932	10348
917.044	10348
917.156	10398
917.268	10200
917.38	10310
917.491	10230
917.603	10325
917.715	10382
917.826	10386
917.938	10295
918.049	10223
918.161	10306
918.272	10459
918.384	10432
918.495	10344
918.606	10181
918.717	10101
918.828	10181
918.939	10227
919.05	10128
919.161	10181
919.272	9956
919.383	10048
919.494	10253
919.604	10379
919.715	10147
919.826	10177
919.936	10177
920.047	10223
920.157	10204
920.267	10371
920.378	10196
920.488	10227
920.598	10280
920.708	10485
920.818	10405
920.928	10318
921.038	10558
921.148	10504
921.258	10242
921.368	10109
921.477	10059
921.587	10055
921.697	9915
921.806	10074
921.916	9857
922.025	9774
922.134	9766
922.244	9705
922.353	9781
922.462	9644
922.571	9488
922.68	9462
922.789	9462
922.898	9405
923.007	9340
923.116	9492
923.224	9412
923.333	9447
923.442	9253
923.55	9317
923.659	9344
923.767	9408
923.876	9268
923.984	9363
924.092	9283
924.201	9348
924.309	9256
924.417	9382
924.525	9245
924.633	9249
924.741	10166
924.849	9074
924.956	9241
925.064	9074
925.172	8994
925.279	8971
925.387	9123
925.494	9081
925.602	9260
925.709	9116
925.816	9074
925.924	9097
926.031	9195
926.138	9135
926.245	9154
926.352	8998
926.459	9214
926.566	9184
926.673	9062
926.779	8925
926.886	8902
926.993	8785
927.099	8769
927.206	8796
927.312	8762
927.419	8864
927.525	8845
927.631	8796
927.737	8785
927.843	8754
927.95	8648
928.056	8743
928.162	8724
928.267	8769
928.373	9249
928.479	8819
928.585	8610
928.69	8689
928.796	8754
928.901	8636
929.007	8533
929.112	8621
929.218	8590
929.323	8598
929.428	8522
929.533	8651
929.638	8511
929.743	8480
929.848	8545
929.953	8549
930.058	8408
930.163	8294
930.267	8290
930.372	8404
930.477	8248
930.581	8495
930.685	8366
930.79	8187
930.894	8248
930.998	8229
931.103	8385
931.207	8084
931.311	7978
931.415	7875
931.519	7696
931.623	7776
