Data from test_V78500241_3691.txt Node
Date: Fri Mar 25 14:59:25 CST 2022
User: usil
Spectrometer: V785-0024
Trigger mode: 0
Integration Time (sec): 4.000000E-1
Scans to average: 1
Nonlinearity correction enabled: false
Boxcar width: 0
Storing dark spectrum: false
XAxis mode: Wavelengths
Number of Pixels in Spectrum: 1024
>>>>>Begin Spectral Data<<<<<
801.071	21892
801.214	21739
801.356	21648
801.499	21367
801.641	21340
801.783	21332
801.926	21329
802.068	21241
802.211	21237
802.353	20982
802.496	20891
802.638	20777
802.78	20655
802.923	20644
803.065	20537
803.208	20526
803.35	20583
803.492	20693
803.635	20651
803.777	20507
803.919	20590
804.061	20929
804.204	20693
804.346	20434
804.488	20503
804.63	20594
804.773	20442
804.915	20427
805.057	20602
805.199	20400
805.341	20530
805.483	20594
805.626	20545
805.768	20465
805.91	20473
806.052	20590
806.194	20579
806.336	20556
806.478	20419
806.62	20370
806.762	20480
806.904	20716
807.046	20804
807.188	20765
807.33	20960
807.472	20864
807.614	20632
807.756	20697
807.898	20598
808.04	20522
808.182	20537
808.324	20552
808.465	20693
808.607	20754
808.749	20792
808.891	20937
809.033	20990
809.174	20800
809.316	20712
809.458	20804
809.6	20876
809.741	20937
809.883	20765
810.025	20998
810.166	21005
810.308	20986
810.45	20941
810.591	20853
810.733	20632
810.875	20575
811.016	20514
811.158	20488
811.299	20716
811.441	20758
811.582	20807
811.724	20769
811.865	20533
812.007	20568
812.148	20564
812.29	20648
812.431	20735
812.573	20933
812.714	21081
812.855	21104
812.997	21226
813.138	21382
813.279	21188
813.421	21093
813.562	20994
813.703	20876
813.845	20750
813.986	20476
814.127	20202
814.268	20195
814.41	20210
814.551	20142
814.692	20164
814.833	20130
814.974	20046
815.115	20138
815.256	20024
815.397	20001
815.539	19974
815.68	19875
815.821	19921
815.962	19826
816.103	19799
816.244	19685
816.385	19616
816.526	19544
816.666	19449
816.807	19236
816.948	19464
817.089	19346
817.23	19324
817.371	19225
817.512	19221
817.653	19137
817.793	19179
817.934	19339
818.075	19255
818.216	19365
818.356	19114
818.497	19065
818.638	18916
818.778	18909
818.919	18951
819.06	18996
819.2	19084
819.341	19065
819.481	19209
819.622	19308
819.762	19407
819.903	19316
820.043	19358
820.184	19209
820.324	19301
820.465	19236
820.605	19160
820.746	19293
820.886	19050
821.026	19175
821.167	19289
821.307	19137
821.447	19297
821.588	19103
821.728	18913
821.868	18821
822.008	18642
822.149	18711
822.289	18684
822.429	18494
822.569	18327
822.709	18391
822.849	18148
822.99	18114
823.13	18072
823.27	18091
823.41	17965
823.55	17904
823.69	18060
823.83	18091
823.97	17821
824.11	17760
824.25	17764
824.389	17703
824.529	17741
824.669	17745
824.809	17882
824.949	17737
825.089	17832
825.228	17817
825.368	17490
825.508	17490
825.648	17558
825.787	17478
825.927	17547
826.067	17440
826.206	17406
826.346	17570
826.485	17471
826.625	17337
826.765	17657
826.904	17512
827.044	17227
827.183	17258
827.323	17246
827.462	17250
827.601	17181
827.741	17204
827.88	17140
828.02	17124
828.159	17208
828.298	17239
828.437	17181
828.577	17090
828.716	17372
828.855	17140
828.994	16949
829.134	17075
829.273	17117
829.412	16858
829.551	16862
829.69	16896
829.829	17060
829.968	17003
830.107	17090
830.246	17022
830.385	16923
830.524	16915
830.663	16736
830.802	16656
830.941	16474
831.08	16554
831.219	16653
831.357	16641
831.496	16824
831.635	16588
831.774	16481
831.913	16432
832.051	16367
832.19	16394
832.329	16493
832.467	16360
832.606	16226
832.744	16200
832.883	16253
833.022	16166
833.16	16287
833.299	16333
833.437	16325
833.576	16344
833.714	16344
833.852	16428
833.991	16394
834.129	16443
834.267	16421
834.406	16337
834.544	16382
834.682	16481
834.821	16352
834.959	16573
835.097	16291
835.235	16519
835.373	16455
835.511	16402
835.65	16230
835.788	16303
835.926	16124
836.064	16093
836.202	16105
836.34	16337
836.478	16284
836.615	16314
836.753	16306
836.891	16249
837.029	16382
837.167	16230
837.305	16181
837.443	16154
837.58	16124
837.718	16268
837.856	16131
837.993	16097
838.131	16177
838.269	16109
838.406	16063
838.544	16109
838.681	15846
838.819	15812
838.956	15808
839.094	15610
839.231	15644
839.369	15857
839.506	16097
839.643	16017
839.781	15686
839.918	15564
840.055	15686
840.193	15789
840.33	15675
840.467	15759
840.604	15679
840.742	15922
840.879	15545
841.016	15576
841.153	15610
841.29	15774
841.427	15755
841.564	15804
841.701	15789
841.838	15671
841.975	15614
842.112	15599
842.249	15587
842.385	15393
842.522	15652
842.659	15477
842.796	15454
842.933	15321
843.069	15458
843.206	15405
843.343	15557
843.479	15526
843.616	15519
843.752	15298
843.889	15332
844.025	15393
844.162	15222
844.298	15401
844.435	15241
844.571	15237
844.708	15317
844.844	15431
844.98	15386
845.117	15367
845.253	15195
845.389	15093
845.525	15173
845.661	15154
845.798	15036
845.934	15108
846.07	15116
846.206	15047
846.342	15211
846.478	14971
846.614	14948
846.75	14800
846.886	14773
847.022	14921
847.158	14819
847.294	14811
847.429	14842
847.565	14902
847.701	15127
847.837	14663
847.972	14629
848.108	14739
848.244	14632
848.379	14446
848.515	14431
848.65	14465
848.786	14389
848.921	14442
849.057	14503
849.192	14492
849.328	14511
849.463	14438
849.598	14366
849.734	14381
849.869	14328
850.004	14172
850.14	14278
850.275	14176
850.41	14233
850.545	14100
850.68	14229
850.815	14282
850.95	14187
851.085	14294
851.22	14351
851.355	14187
851.49	14275
851.625	14153
851.76	14210
851.895	14077
852.03	14107
852.165	14248
852.299	14263
852.434	14267
852.569	14229
852.703	14202
852.838	14313
852.973	14309
853.107	14370
853.242	14161
853.376	14134
853.511	13959
853.645	14081
853.78	14233
853.914	14157
854.048	14050
854.183	14069
854.317	14069
854.451	14229
854.585	14111
854.72	14008
854.854	14130
854.988	14031
855.122	14020
855.256	13932
855.39	14134
855.524	14164
855.658	14119
855.792	14107
855.926	14157
856.06	14157
856.194	14180
856.327	14035
856.461	14031
856.595	14107
856.729	14092
856.862	14176
856.996	14058
857.13	14149
857.263	14290
857.397	14240
857.53	14084
857.664	14096
857.797	14180
857.931	14210
858.064	14157
858.197	14176
858.331	14050
858.464	14031
858.597	13967
858.731	14031
858.864	14096
858.997	14130
859.13	14180
859.263	14115
859.396	14168
859.529	14069
859.662	14081
859.795	14050
859.928	14123
860.061	14324
860.194	14381
860.327	14180
860.46	14058
860.592	14328
860.725	14229
860.858	14240
860.99	14039
861.123	13989
861.256	13986
861.388	14164
861.521	14739
861.653	13982
861.786	13940
861.918	13944
862.05	14054
862.183	14039
862.315	14092
862.447	14195
862.58	14084
862.712	13837
862.844	13830
862.976	13925
863.108	13982
863.24	14347
863.372	13852
863.504	13944
863.636	13833
863.768	14024
863.9	13940
864.032	13719
864.164	13830
864.296	13909
864.428	13959
864.559	13944
864.691	13921
864.823	13894
864.954	13963
865.086	13879
865.217	13837
865.349	13765
865.48	13875
865.612	13913
865.743	14058
865.875	13860
866.006	13845
866.137	13921
866.269	13852
866.4	13936
866.531	13890
866.662	13845
866.793	13909
866.924	13856
867.055	13928
867.186	13974
867.317	13807
867.448	13807
867.579	13731
867.71	13833
867.841	13845
867.972	13864
868.103	13799
868.233	13986
868.364	13913
868.495	13970
868.625	14077
868.756	14233
868.886	14069
869.017	14073
869.147	14237
869.278	14199
869.408	14138
869.539	14100
869.669	14218
869.799	14134
869.929	14328
870.06	14210
870.19	14450
870.32	14446
870.45	14446
870.58	14492
870.71	14556
870.84	14674
870.97	14522
871.1	14511
871.23	14682
871.36	14792
871.489	14594
871.619	14556
871.749	14705
871.879	14724
872.008	14845
872.138	14670
872.267	14796
872.397	14590
872.526	14594
872.656	14514
872.785	14644
872.915	14773
873.044	14876
873.173	14765
873.303	14807
873.432	14773
873.561	14853
873.69	14830
873.819	14727
873.948	14815
874.077	14823
874.206	14838
874.335	14769
874.464	14952
874.593	15009
874.722	14975
874.851	15036
874.979	15245
875.108	15165
875.237	15085
875.365	15074
875.494	15066
875.623	15157
875.751	15161
875.88	15233
876.008	15264
876.136	15329
876.265	15599
876.393	15644
876.521	15606
876.65	15561
876.778	15682
876.906	15378
877.034	15431
877.162	15557
877.29	15439
877.418	15485
877.546	15447
877.674	15561
877.802	15492
877.93	15488
878.058	15473
878.185	15435
878.313	15557
878.441	15561
878.568	15397
878.696	15450
878.824	15492
878.951	15473
879.079	15679
879.206	15785
879.333	15644
879.461	15587
879.588	15515
879.715	15603
879.842	15831
879.97	15580
880.097	15355
880.224	15310
880.351	15279
880.478	15386
880.605	15279
880.732	15340
880.859	15538
880.986	15367
881.112	15389
881.239	15241
881.366	15005
881.493	14944
881.619	14998
881.746	15024
881.872	15070
881.999	14994
882.125	15070
882.252	15081
882.378	15108
882.505	15249
882.631	15017
882.757	14834
882.883	14971
883.01	14944
883.136	14743
883.262	14678
883.388	14617
883.514	14792
883.64	14887
883.766	14754
883.892	14697
884.018	14693
884.143	14845
884.269	14963
884.395	14571
884.52	14545
884.646	14499
884.772	14549
884.897	14419
885.023	14526
885.148	14708
885.274	14754
885.399	14636
885.524	14545
885.65	14480
885.775	14526
885.9	14503
886.025	14640
886.15	14621
886.275	14492
886.4	14454
886.525	14442
886.65	14434
886.775	14473
886.9	14701
887.025	14754
887.149	14598
887.274	14511
887.399	14305
887.523	14328
887.648	14290
887.773	14244
887.897	14454
888.021	14526
888.146	14298
888.27	14514
888.395	14503
888.519	14400
888.643	14400
888.767	14480
888.891	14298
889.015	14286
889.139	14317
889.263	14267
889.387	14362
889.511	14461
889.635	14522
889.759	14271
889.883	14275
890.006	14259
890.13	14309
890.254	14035
890.377	14218
890.501	14043
890.624	14050
890.748	14100
890.871	14050
890.995	13818
891.118	13917
891.241	13909
891.364	13898
891.488	14069
891.611	14115
891.734	13894
891.857	14046
891.98	13913
892.103	14031
892.226	13978
892.349	13902
892.471	13784
892.594	13841
892.717	13932
892.839	13955
892.962	13917
893.085	14058
893.207	13944
893.33	13887
893.452	13830
893.575	14031
893.697	13898
893.819	14111
893.941	14180
894.064	14092
894.186	13902
894.308	13906
894.43	14062
894.552	14050
894.674	14062
894.796	14031
894.918	14027
895.04	14005
895.161	14138
895.283	14153
895.405	14016
895.526	14046
895.648	14092
895.769	14054
895.891	14084
896.012	14149
896.134	14180
896.255	14187
896.376	14016
896.498	14107
896.619	14199
896.74	14153
896.861	14153
896.982	14499
897.103	14522
897.224	14351
897.345	14473
897.466	14355
897.587	14298
897.708	14594
897.828	14476
897.949	14278
898.07	14183
898.19	14423
898.311	14492
898.431	14450
898.552	14393
898.672	14552
898.792	14648
898.913	14590
899.033	14389
899.153	14343
899.273	14221
899.393	14343
899.513	14294
899.633	14237
899.753	14317
899.873	14278
899.993	14450
900.113	14275
900.232	14351
900.352	14309
900.472	14210
900.591	14202
900.711	14252
900.83	14183
900.95	14328
901.069	14298
901.189	14088
901.308	13928
901.427	13887
901.546	13837
901.665	13970
901.784	13871
901.904	13715
902.023	13693
902.141	13521
902.26	13457
902.379	13510
902.498	13362
902.617	13339
902.735	13495
902.854	13438
902.973	13350
903.091	13183
903.21	13141
903.328	13183
903.446	13118
903.565	12905
903.683	13042
903.801	12901
903.919	12981
904.038	12939
904.156	12867
904.274	12928
904.392	12878
904.51	12871
904.627	12757
904.745	12852
904.863	12787
904.981	12703
905.098	12494
905.216	12616
905.334	12578
905.451	12540
905.569	12448
905.686	12536
905.803	12380
905.921	12353
906.038	12456
906.155	12372
906.272	12175
906.389	12228
906.506	12178
906.623	12167
906.74	12129
906.857	11897
906.974	12003
907.091	12213
907.208	12266
907.324	12129
907.441	12045
907.557	11935
907.674	11863
907.79	11817
907.907	11832
908.023	11942
908.139	11851
908.256	11809
908.372	11832
908.488	11893
908.604	11760
908.72	11661
908.836	11600
908.952	11634
909.068	11676
909.184	11783
909.3	11611
909.415	11680
909.531	11684
909.647	11497
909.762	11440
909.878	11356
909.993	11459
910.108	11364
910.224	11337
910.339	11330
910.454	11311
910.57	11239
910.685	11250
910.8	11398
910.915	11467
911.03	11242
911.145	11105
911.259	11094
911.374	11090
911.489	11064
911.604	10999
911.718	10911
911.833	10942
911.947	10706
912.062	10740
912.176	10835
912.291	10896
912.405	10801
912.519	11094
912.633	11132
912.748	10965
912.862	10881
912.976	10721
913.09	10622
913.204	10679
913.318	10771
913.431	10923
913.545	10786
913.659	10767
913.772	10748
913.886	10656
914	10478
914.113	10717
914.226	10668
914.34	10645
914.453	10500
914.566	10721
914.68	10546
914.793	10546
914.906	10402
915.019	10310
915.132	10306
915.245	10360
915.358	10352
915.47	10428
915.583	10352
915.696	10379
915.809	10466
915.921	10558
916.034	10215
916.146	10303
916.259	10268
916.371	10459
916.483	10447
916.595	10303
916.708	10352
916.82	10299
916.932	10261
917.044	10230
917.156	10265
917.268	10242
917.38	10207
917.491	10219
917.603	10253
917.715	10310
917.826	10242
917.938	10215
918.049	10112
918.161	10196
918.272	10398
918.384	10432
918.495	10185
918.606	10086
918.717	10082
918.828	10078
918.939	10131
919.05	10036
919.161	10071
919.272	9911
919.383	9945
919.494	10154
919.604	10367
919.715	10120
919.826	10074
919.936	10086
920.047	10116
920.157	10090
920.267	10329
920.378	10169
920.488	10063
920.598	10303
920.708	10424
920.818	10253
920.928	10287
921.038	10375
921.148	10538
921.258	10143
921.368	10059
921.477	9945
921.587	9846
921.697	9865
921.806	9960
921.916	9785
922.025	9705
922.134	9667
922.244	9599
922.353	9656
922.462	9549
922.571	9496
922.68	9416
922.789	9447
922.898	9428
923.007	9329
923.116	9382
923.224	9370
923.333	9306
923.442	9241
923.55	9291
923.659	9287
923.767	9294
923.876	9207
923.984	9283
924.092	9199
924.201	9272
924.309	9294
924.417	9268
924.525	9161
924.633	9253
924.741	9903
924.849	8994
924.956	9135
925.064	8982
925.172	8952
925.279	8963
925.387	9097
925.494	9020
925.602	9195
925.709	9081
925.816	8895
925.924	8990
926.031	9097
926.138	9070
926.245	9036
926.352	8967
926.459	9146
926.566	9081
926.673	8963
926.779	8883
926.886	8861
926.993	8758
927.099	8788
927.206	8693
927.312	8724
927.419	8781
927.525	8758
927.631	8811
927.737	8678
927.843	8701
927.95	8514
928.056	8625
928.162	8739
928.267	8796
928.373	9211
928.479	8769
928.585	8556
928.69	8670
928.796	8659
928.901	8564
929.007	8438
929.112	8518
929.218	8514
929.323	8507
929.428	8393
929.533	8598
929.638	8393
929.743	8476
929.848	8484
929.953	8454
930.058	8385
930.163	8237
930.267	8252
930.372	8412
930.477	8206
930.581	8476
930.685	8305
930.79	8111
930.894	8206
930.998	8130
931.103	8256
931.207	8016
931.311	7925
931.415	7860
931.519	7712
931.623	7712
