Data from test_V78500241_3360.txt Node
Date: Fri Mar 25 14:57:06 CST 2022
User: usil
Spectrometer: V785-0024
Trigger mode: 0
Integration Time (sec): 4.000000E-1
Scans to average: 1
Nonlinearity correction enabled: false
Boxcar width: 0
Storing dark spectrum: false
XAxis mode: Wavelengths
Number of Pixels in Spectrum: 1024
>>>>>Begin Spectral Data<<<<<
801.071	21895
801.214	21831
801.356	21743
801.499	21428
801.641	21363
801.783	21214
801.926	21344
802.068	21332
802.211	21317
802.353	21184
802.496	20937
802.638	20914
802.78	20819
802.923	20693
803.065	20533
803.208	20537
803.35	20594
803.492	20773
803.635	20712
803.777	20621
803.919	20838
804.061	20876
804.204	20678
804.346	20552
804.488	20602
804.63	20674
804.773	20454
804.915	20583
805.057	20648
805.199	20594
805.341	20655
805.483	20670
805.626	20686
805.768	20454
805.91	20526
806.052	20541
806.194	20385
806.336	20708
806.478	20347
806.62	20427
806.762	20613
806.904	20648
807.046	20891
807.188	20792
807.33	20891
807.472	20918
807.614	20788
807.756	20724
807.898	20617
808.04	20678
808.182	20659
808.324	20651
808.465	20667
808.607	20819
808.749	20887
808.891	20948
809.033	21077
809.174	20925
809.316	20739
809.458	20914
809.6	20857
809.741	20941
809.883	20960
810.025	21005
810.166	21020
810.308	20944
810.45	21005
810.591	20918
810.733	20716
810.875	20785
811.016	20648
811.158	20560
811.299	20651
811.441	20830
811.582	20807
811.724	20571
811.865	20651
812.007	20720
812.148	20625
812.29	20762
812.431	20857
812.573	20963
812.714	21039
812.855	21043
812.997	21237
813.138	21374
813.279	21169
813.421	21039
813.562	21100
813.703	20853
813.845	20849
813.986	20495
814.127	20389
814.268	20313
814.41	20195
814.551	20100
814.692	20263
814.833	20145
814.974	20126
815.115	20138
815.256	20195
815.397	20088
815.539	20225
815.68	19871
815.821	19719
815.962	19963
816.103	19849
816.244	19784
816.385	19750
816.526	19639
816.666	19464
816.807	19255
816.948	19373
817.089	19388
817.23	19369
817.371	19373
817.512	19365
817.653	19285
817.793	19194
817.934	19278
818.075	19289
818.216	19381
818.356	19225
818.497	19152
818.638	19034
818.778	19091
818.919	19065
819.06	19103
819.2	19110
819.341	19190
819.481	19202
819.622	19354
819.762	19521
819.903	19460
820.043	19396
820.184	19362
820.324	19221
820.465	19362
820.605	19240
820.746	19316
820.886	19171
821.026	19320
821.167	19190
821.307	19228
821.447	19293
821.588	19168
821.728	18958
821.868	18798
822.008	18764
822.149	18726
822.289	18635
822.429	18384
822.569	18384
822.709	18418
822.849	18254
822.99	18213
823.13	18194
823.27	18167
823.41	18041
823.55	17889
823.69	18129
823.83	17999
823.97	17984
824.11	17821
824.25	17741
824.389	17931
824.529	17878
824.669	17745
824.809	17851
824.949	17908
825.089	17802
825.228	17904
825.368	17558
825.508	17665
825.648	17634
825.787	17554
825.927	17630
826.067	17585
826.206	17543
826.346	17668
826.485	17543
826.625	17520
826.765	17672
826.904	17543
827.044	17368
827.183	17277
827.323	17299
827.462	17307
827.601	17372
827.741	17200
827.88	17299
828.02	17155
828.159	17242
828.298	17269
828.437	17421
828.577	17181
828.716	17433
828.855	17208
828.994	17113
829.134	16946
829.273	17060
829.412	17029
829.551	17010
829.69	17029
829.829	16987
829.968	17037
830.107	17037
830.246	17014
830.385	16953
830.524	17067
830.663	16854
830.802	16866
830.941	16596
831.08	16611
831.219	16717
831.357	16683
831.496	16759
831.635	16637
831.774	16588
831.913	16561
832.051	16363
832.19	16375
832.329	16402
832.467	16306
832.606	16242
832.744	16310
832.883	16402
833.022	16348
833.16	16272
833.299	16363
833.437	16322
833.576	16443
833.714	16394
833.852	16493
833.991	16432
834.129	16512
834.267	16489
834.406	16474
834.544	16497
834.682	16428
834.821	16386
834.959	16542
835.097	16432
835.235	16466
835.373	16386
835.511	16363
835.65	16265
835.788	16363
835.926	16177
836.064	16055
836.202	16166
836.34	16352
836.478	16459
836.615	16382
836.753	16413
836.891	16443
837.029	16337
837.167	16284
837.305	16188
837.443	16306
837.58	16112
837.718	16314
837.856	16280
837.993	16166
838.131	16246
838.269	16124
838.406	16147
838.544	16010
838.681	15960
838.819	15827
838.956	15743
839.094	15823
839.231	15789
839.369	15892
839.506	16093
839.643	16017
839.781	15762
839.918	15747
840.055	15701
840.193	15724
840.33	15739
840.467	15857
840.604	15785
840.742	16040
840.879	15584
841.016	15641
841.153	15564
841.29	15915
841.427	15751
841.564	15751
841.701	15812
841.838	15633
841.975	15644
842.112	15690
842.249	15610
842.385	15488
842.522	15762
842.659	15538
842.796	15534
842.933	15587
843.069	15420
843.206	15481
843.343	15587
843.479	15530
843.616	15606
843.752	15431
843.889	15302
844.025	15504
844.162	15272
844.298	15412
844.435	15348
844.571	15195
844.708	15367
844.844	15473
844.98	15591
845.117	15416
845.253	15370
845.389	15203
845.525	15252
845.661	15241
845.798	15070
845.934	15230
846.07	15039
846.206	15203
846.342	15306
846.478	15138
846.614	14967
846.75	14773
846.886	14902
847.022	15017
847.158	14956
847.294	14868
847.429	14861
847.565	14895
847.701	15081
847.837	14613
847.972	14659
848.108	14838
848.244	14632
848.379	14533
848.515	14450
848.65	14511
848.786	14446
848.921	14499
849.057	14556
849.192	14579
849.328	14556
849.463	14526
849.598	14438
849.734	14488
849.869	14271
850.004	14271
850.14	14298
850.275	14336
850.41	14187
850.545	14278
850.68	14145
850.815	14237
850.95	14157
851.085	14613
851.22	14427
851.355	14180
851.49	14199
851.625	14195
851.76	14351
851.895	14138
852.03	14126
852.165	14214
852.299	14324
852.434	14366
852.569	14271
852.703	14347
852.838	14339
852.973	14412
853.107	14404
853.242	14202
853.376	14176
853.511	14020
853.645	14062
853.78	14286
853.914	14134
854.048	14024
854.183	14130
854.317	14145
854.451	14324
854.585	14054
854.72	14115
854.854	14233
854.988	14043
855.122	14123
855.256	13932
855.39	14111
855.524	14267
855.658	14157
855.792	14111
855.926	14172
856.06	14225
856.194	14298
856.327	14111
856.461	14039
856.595	14107
856.729	14138
856.862	14233
856.996	14218
857.13	14214
857.263	14294
857.397	14271
857.53	14145
857.664	14183
857.797	14252
857.931	14172
858.064	14142
858.197	14229
858.331	14138
858.464	13989
858.597	14031
858.731	14065
858.864	14145
858.997	14092
859.13	14210
859.263	14332
859.396	14176
859.529	14168
859.662	14221
859.795	14084
859.928	14168
860.061	14332
860.194	14256
860.327	14172
860.46	14107
860.592	14275
860.725	14278
860.858	14202
860.99	14153
861.123	14058
861.256	14081
861.388	14092
861.521	14979
861.653	13970
861.786	14005
861.918	13974
862.05	14020
862.183	14149
862.315	14119
862.447	14256
862.58	14062
862.712	13932
862.844	13856
862.976	13978
863.108	13974
863.24	14431
863.372	13849
863.504	13982
863.636	13917
863.768	13959
863.9	13947
864.032	13864
864.164	13871
864.296	13909
864.428	14024
864.559	14069
864.691	13986
864.823	14024
864.954	14001
865.086	14050
865.217	13890
865.349	13814
865.48	13890
865.612	13955
865.743	13970
865.875	13887
866.006	13852
866.137	13864
866.269	13856
866.4	13871
866.531	13906
866.662	13852
866.793	13837
866.924	13875
867.055	13833
867.186	13909
867.317	13833
867.448	13826
867.579	13761
867.71	13845
867.841	13791
867.972	13845
868.103	13932
868.233	13898
868.364	13868
868.495	14046
868.625	14161
868.756	14278
868.886	14024
869.017	14119
869.147	14157
869.278	14240
869.408	14240
869.539	14111
869.669	14282
869.799	14138
869.929	14309
870.06	14240
870.19	14423
870.32	14488
870.45	14602
870.58	14629
870.71	14644
870.84	14670
870.97	14552
871.1	14537
871.23	14648
871.36	14716
871.489	14659
871.619	14769
871.749	14693
871.879	14849
872.008	14883
872.138	14708
872.267	14720
872.397	14632
872.526	14632
872.656	14556
872.785	14568
872.915	14765
873.044	14769
873.173	14807
873.303	14864
873.432	14899
873.561	14918
873.69	14758
873.819	14758
873.948	14891
874.077	14823
874.206	14811
874.335	14830
874.464	14941
874.593	15116
874.722	15058
874.851	15169
874.979	15154
875.108	15245
875.237	15089
875.365	14979
875.494	15100
875.623	15188
875.751	15089
875.88	15104
876.008	15275
876.136	15447
876.265	15568
876.393	15671
876.521	15591
876.65	15622
876.778	15534
876.906	15542
877.034	15363
877.162	15504
877.29	15435
877.418	15595
877.546	15450
877.674	15614
877.802	15553
877.93	15538
878.058	15485
878.185	15401
878.313	15519
878.441	15511
878.568	15325
878.696	15500
878.824	15641
878.951	15549
879.079	15629
879.206	15812
879.333	15633
879.461	15595
879.588	15625
879.715	15679
879.842	15804
879.97	15564
880.097	15370
880.224	15424
880.351	15332
880.478	15336
880.605	15332
880.732	15382
880.859	15564
880.986	15580
881.112	15386
881.239	15313
881.366	15154
881.493	15051
881.619	15093
881.746	15089
881.872	15100
881.999	14910
882.125	15047
882.252	15104
882.378	15081
882.505	15180
882.631	15020
882.757	14857
882.883	14857
883.01	14807
883.136	14804
883.262	14773
883.388	14739
883.514	15020
883.64	14899
883.766	14845
883.892	14724
884.018	14712
884.143	14826
884.269	14967
884.395	14663
884.52	14503
884.646	14640
884.772	14545
884.897	14442
885.023	14575
885.148	14727
885.274	14686
885.399	14701
885.524	14689
885.65	14724
885.775	14621
885.9	14644
886.025	14659
886.15	14735
886.275	14507
886.4	14385
886.525	14556
886.65	14495
886.775	14507
886.9	14842
887.025	14735
887.149	14522
887.274	14503
887.399	14404
887.523	14389
887.648	14396
887.773	14298
887.897	14461
888.021	14480
888.146	14400
888.27	14526
888.395	14537
888.519	14419
888.643	14507
888.767	14461
888.891	14271
889.015	14290
889.139	14256
889.263	14237
889.387	14366
889.511	14469
889.635	14362
889.759	14256
889.883	14240
890.006	14282
890.13	14374
890.254	14221
890.377	14195
890.501	14043
890.624	14084
890.748	14225
890.871	13997
890.995	13909
891.118	13906
891.241	13993
891.364	13944
891.488	14073
891.611	14043
891.734	14016
891.857	14069
891.98	13932
892.103	14069
892.226	14020
892.349	13932
892.471	13822
892.594	13963
892.717	13974
892.839	13845
892.962	13963
893.085	14168
893.207	13986
893.33	13833
893.452	13849
893.575	14130
893.697	13974
893.819	14157
893.941	14176
894.064	14187
894.186	13906
894.308	13951
894.43	14039
894.552	14168
894.674	14145
894.796	13898
894.918	13974
895.04	13989
895.161	14142
895.283	14161
895.405	14050
895.526	14050
895.648	14142
895.769	14149
895.891	14134
896.012	14221
896.134	14221
896.255	14092
896.376	14134
896.498	14172
896.619	14218
896.74	14138
896.861	14199
896.982	14419
897.103	14678
897.224	14488
897.345	14446
897.466	14366
897.587	14408
897.708	14511
897.828	14495
897.949	14377
898.07	14320
898.19	14400
898.311	14579
898.431	14419
898.552	14552
898.672	14610
898.792	14549
898.913	14530
899.033	14469
899.153	14404
899.273	14103
899.393	14415
899.513	14339
899.633	14393
899.753	14366
899.873	14244
899.993	14355
900.113	14358
900.232	14393
900.352	14355
900.472	14278
900.591	14248
900.711	14282
900.83	14157
900.95	14324
901.069	14370
901.189	14195
901.308	13902
901.427	13822
901.546	13818
901.665	13909
901.784	13871
901.904	13822
902.023	13662
902.141	13533
902.26	13472
902.379	13586
902.498	13438
902.617	13449
902.735	13552
902.854	13556
902.973	13483
903.091	13149
903.21	13149
903.328	13232
903.446	13107
903.565	13038
903.683	13069
903.801	13080
903.919	13000
904.038	12966
904.156	12852
904.274	12981
904.392	12871
904.51	12901
904.627	12833
904.745	12886
904.863	12958
904.981	12620
905.098	12654
905.216	12509
905.334	12563
905.451	12544
905.569	12544
905.686	12635
905.803	12471
905.921	12407
906.038	12467
906.155	12418
906.272	12292
906.389	12315
906.506	12155
906.623	12121
906.74	12030
906.857	12026
906.974	12064
907.091	12209
907.208	12258
907.324	12091
907.441	12015
907.557	11859
907.674	11847
907.79	11821
907.907	11904
908.023	11954
908.139	11798
908.256	11779
908.372	11882
908.488	11866
908.604	11760
908.72	11619
908.836	11596
908.952	11630
909.068	11589
909.184	11828
909.3	11608
909.415	11729
909.531	11672
909.647	11486
909.762	11421
909.878	11353
909.993	11471
910.108	11436
910.224	11398
910.339	11471
910.454	11311
910.57	11322
910.685	11227
910.8	11425
910.915	11391
911.03	11261
911.145	11189
911.259	11113
911.374	11113
911.489	11128
911.604	11037
911.718	10869
911.833	10980
911.947	10782
912.062	10691
912.176	10847
912.291	10885
912.405	10942
912.519	11067
912.633	11143
912.748	10961
912.862	10949
912.976	10744
913.09	10672
913.204	10774
913.318	10725
913.431	10812
913.545	10930
913.659	10873
913.772	10782
913.886	10653
914	10603
914.113	10828
914.226	10843
914.34	10740
914.453	10615
914.566	10755
914.68	10550
914.793	10577
914.906	10390
915.019	10348
915.132	10295
915.245	10405
915.358	10417
915.47	10402
915.583	10394
915.696	10436
915.809	10519
915.921	10527
916.034	10394
916.146	10421
916.259	10322
916.371	10455
916.483	10402
916.595	10306
916.708	10295
916.82	10344
916.932	10306
917.044	10272
917.156	10348
917.268	10246
917.38	10234
917.491	10276
917.603	10227
917.715	10303
917.826	10390
917.938	10211
918.049	10071
918.161	10219
918.272	10363
918.384	10379
918.495	10265
918.606	10162
918.717	10071
918.828	10166
918.939	10177
919.05	10105
919.161	10059
919.272	9926
919.383	10074
919.494	10154
919.604	10341
919.715	10128
919.826	10063
919.936	10063
920.047	10181
920.157	10139
920.267	10367
920.378	10093
920.488	10204
920.598	10405
920.708	10470
920.818	10333
920.928	10356
921.038	10516
921.148	10531
921.258	10230
921.368	10097
921.477	9998
921.587	9949
921.697	9915
921.806	10013
921.916	9846
922.025	9732
922.134	9679
922.244	9682
922.353	9679
922.462	9549
922.571	9542
922.68	9344
922.789	9397
922.898	9325
923.007	9378
923.116	9450
923.224	9424
923.333	9424
923.442	9245
923.55	9291
923.659	9306
923.767	9317
923.876	9192
923.984	9245
924.092	9169
924.201	9302
924.309	9214
924.417	9260
924.525	9165
924.633	9207
924.741	10120
924.849	9043
924.956	9150
925.064	9100
925.172	8944
925.279	9036
925.387	9154
925.494	9066
925.602	9214
925.709	9131
925.816	8956
925.924	9051
926.031	9157
926.138	9036
926.245	9077
926.352	8975
926.459	9112
926.566	9169
926.673	8986
926.779	8948
926.886	8910
926.993	8823
927.099	8746
927.206	8750
927.312	8667
927.419	8773
927.525	8708
927.631	8868
927.737	8788
927.843	8693
927.95	8613
928.056	8606
928.162	8655
928.267	8727
928.373	9313
928.479	8762
928.585	8587
928.69	8640
928.796	8667
928.901	8613
929.007	8446
929.112	8560
929.218	8480
929.323	8495
929.428	8454
929.533	8606
929.638	8374
929.743	8434
929.848	8541
929.953	8495
930.058	8389
930.163	8275
930.267	8237
930.372	8476
930.477	8199
930.581	8503
930.685	8339
930.79	8191
930.894	8248
930.998	8221
931.103	8301
931.207	7967
931.311	7978
931.415	7909
931.519	7727
931.623	7685
