Data from test_V78500241_2504.txt Node
Date: Fri Mar 25 14:51:08 CST 2022
User: usil
Spectrometer: V785-0024
Trigger mode: 0
Integration Time (sec): 4.000000E-1
Scans to average: 1
Nonlinearity correction enabled: false
Boxcar width: 0
Storing dark spectrum: false
XAxis mode: Wavelengths
Number of Pixels in Spectrum: 1024
>>>>>Begin Spectral Data<<<<<
801.071	22055
801.214	21994
801.356	21637
801.499	21629
801.641	21504
801.783	21462
801.926	21473
802.068	21504
802.211	21306
802.353	21264
802.496	21077
802.638	21074
802.78	20982
802.923	20769
803.065	20735
803.208	20682
803.35	20788
803.492	20910
803.635	20971
803.777	20804
803.919	20842
804.061	21169
804.204	20857
804.346	20648
804.488	20609
804.63	20754
804.773	20530
804.915	20598
805.057	20762
805.199	20674
805.341	20750
805.483	20773
805.626	20716
805.768	20583
805.91	20716
806.052	20743
806.194	20545
806.336	20800
806.478	20682
806.62	20594
806.762	20697
806.904	20845
807.046	21089
807.188	21036
807.33	21036
807.472	21112
807.614	20918
807.756	21070
807.898	20811
808.04	20746
808.182	20857
808.324	20667
808.465	20872
808.607	21017
808.749	21043
808.891	21089
809.033	21321
809.174	21123
809.316	20956
809.458	20979
809.6	21009
809.741	21085
809.883	21104
810.025	21283
810.166	21374
810.308	21222
810.45	21085
810.591	21169
810.733	21009
810.875	20724
811.016	20727
811.158	20686
811.299	20921
811.441	20979
811.582	20925
811.724	20811
811.865	20762
812.007	20788
812.148	20861
812.29	20864
812.431	21058
812.573	21184
812.714	21207
812.855	21397
812.997	21572
813.138	21507
813.279	21389
813.421	21428
813.562	21173
813.703	21032
813.845	20925
813.986	20697
814.127	20560
814.268	20434
814.41	20457
814.551	20419
814.692	20393
814.833	20256
814.974	20248
815.115	20298
815.256	20309
815.397	20191
815.539	20145
815.68	20134
815.821	20012
815.962	20126
816.103	20069
816.244	19894
816.385	19841
816.526	19879
816.666	19670
816.807	19396
816.948	19582
817.089	19708
817.23	19651
817.371	19480
817.512	19457
817.653	19476
817.793	19468
817.934	19468
818.075	19586
818.216	19548
818.356	19403
818.497	19293
818.638	19217
818.778	19183
818.919	19095
819.06	19293
819.2	19384
819.341	19506
819.481	19362
819.622	19381
819.762	19696
819.903	19609
820.043	19651
820.184	19521
820.324	19552
820.465	19537
820.605	19578
820.746	19415
820.886	19274
821.026	19422
821.167	19419
821.307	19476
821.447	19377
821.588	19228
821.728	19190
821.868	19012
822.008	18886
822.149	18814
822.289	18817
822.429	18661
822.569	18414
822.709	18635
822.849	18456
822.99	18346
823.13	18311
823.27	18292
823.41	18308
823.55	18152
823.69	18182
823.83	18239
823.97	18136
824.11	17996
824.25	17863
824.389	17958
824.529	17973
824.669	17904
824.809	17996
824.949	18064
825.089	17904
825.228	17973
825.368	17760
825.508	17756
825.648	17798
825.787	17798
825.927	17821
826.067	17802
826.206	17764
826.346	17824
826.485	17851
826.625	17703
826.765	17821
826.904	17733
827.044	17566
827.183	17482
827.323	17406
827.462	17535
827.601	17440
827.741	17395
827.88	17452
828.02	17318
828.159	17421
828.298	17368
828.437	17512
828.577	17326
828.716	17600
828.855	17383
828.994	17200
829.134	17254
829.273	17151
829.412	17197
829.551	17090
829.69	17132
829.829	17322
829.968	17303
830.107	17143
830.246	17117
830.385	17181
830.524	17041
830.663	17102
830.802	17003
830.941	16831
831.08	16721
831.219	16877
831.357	16839
831.496	16965
831.635	16809
831.774	16740
831.913	16637
832.051	16535
832.19	16554
832.329	16683
832.467	16535
832.606	16337
832.744	16531
832.883	16512
833.022	16421
833.16	16443
833.299	16527
833.437	16561
833.576	16470
833.714	16512
833.852	16565
833.991	16523
834.129	16645
834.267	16546
834.406	16603
834.544	16558
834.682	16618
834.821	16580
834.959	16740
835.097	16478
835.235	16710
835.373	16573
835.511	16455
835.65	16394
835.788	16386
835.926	16325
836.064	16162
836.202	16322
836.34	16421
836.478	16584
836.615	16459
836.753	16573
836.891	16470
837.029	16466
837.167	16409
837.305	16508
837.443	16291
837.58	16303
837.718	16363
837.856	16386
837.993	16265
838.131	16394
838.269	16287
838.406	16226
838.544	16173
838.681	16063
838.819	15960
838.956	15869
839.094	15941
839.231	15941
839.369	15953
839.506	16287
839.643	16192
839.781	15903
839.918	15857
840.055	15880
840.193	15797
840.33	15804
840.467	15945
840.604	15854
840.742	16067
840.879	15797
841.016	15846
841.153	15880
841.29	15937
841.427	15857
841.564	15804
841.701	15926
841.838	15846
841.975	15781
842.112	15835
842.249	15652
842.385	15686
842.522	15846
842.659	15739
842.796	15572
842.933	15660
843.069	15572
843.206	15591
843.343	15724
843.479	15701
843.616	15720
843.752	15504
843.889	15485
844.025	15603
844.162	15447
844.298	15507
844.435	15386
844.571	15481
844.708	15481
844.844	15599
844.98	15606
845.117	15507
845.253	15340
845.389	15272
845.525	15321
845.661	15435
845.798	15222
845.934	15272
846.07	15150
846.206	15245
846.342	15378
846.478	15241
846.614	15070
846.75	14948
846.886	15017
847.022	15085
847.158	15051
847.294	15055
847.429	15005
847.565	14967
847.701	15188
847.837	14731
847.972	14724
848.108	14807
848.244	14800
848.379	14697
848.515	14598
848.65	14625
848.786	14598
848.921	14587
849.057	14648
849.192	14781
849.328	14613
849.463	14568
849.598	14632
849.734	14560
849.869	14484
850.004	14351
850.14	14473
850.275	14442
850.41	14305
850.545	14332
850.68	14434
850.815	14320
850.95	14286
851.085	14530
851.22	14518
851.355	14252
851.49	14324
851.625	14396
851.76	14381
851.895	14362
852.03	14252
852.165	14286
852.299	14374
852.434	14404
852.569	14438
852.703	14423
852.838	14484
852.973	14530
853.107	14507
853.242	14233
853.376	14229
853.511	14161
853.645	14233
853.78	14282
853.914	14218
854.048	14263
854.183	14214
854.317	14339
854.451	14381
854.585	14195
854.72	14195
854.854	14313
854.988	14138
855.122	14210
855.256	14206
855.39	14237
855.524	14355
855.658	14248
855.792	14278
855.926	14282
856.06	14343
856.194	14320
856.327	14358
856.461	14138
856.595	14180
856.729	14225
856.862	14408
856.996	14271
857.13	14305
857.263	14313
857.397	14366
857.53	14233
857.664	14313
857.797	14324
857.931	14374
858.064	14358
858.197	14320
858.331	14237
858.464	14221
858.597	14214
858.731	14195
858.864	14229
858.997	14142
859.13	14225
859.263	14294
859.396	14389
859.529	14263
859.662	14168
859.795	14195
859.928	14168
860.061	14370
860.194	14366
860.327	14218
860.46	14157
860.592	14374
860.725	14347
860.858	14313
860.99	14286
861.123	14149
861.256	14286
861.388	14278
861.521	14838
861.653	14195
861.786	14100
861.918	14107
862.05	14229
862.183	14157
862.315	14221
862.447	14233
862.58	14126
862.712	13997
862.844	13906
862.976	14149
863.108	14062
863.24	14396
863.372	14020
863.504	13989
863.636	13959
863.768	13959
863.9	14062
864.032	13955
864.164	13963
864.296	14024
864.428	14100
864.559	14119
864.691	14107
864.823	14115
864.954	14020
865.086	13970
865.217	13997
865.349	13917
865.48	14043
865.612	14058
865.743	14191
865.875	13967
866.006	14031
866.137	14058
866.269	13959
866.4	13959
866.531	13936
866.662	13955
866.793	13887
866.924	13963
867.055	14039
867.186	13928
867.317	14020
867.448	14031
867.579	13982
867.71	13917
867.841	13963
867.972	13989
868.103	14001
868.233	14077
868.364	13997
868.495	14138
868.625	14233
868.756	14385
868.886	14199
869.017	14229
869.147	14290
869.278	14446
869.408	14290
869.539	14278
869.669	14415
869.799	14317
869.929	14415
870.06	14358
870.19	14545
870.32	14511
870.45	14556
870.58	14655
870.71	14750
870.84	14693
870.97	14640
871.1	14686
871.23	14933
871.36	14963
871.489	14769
871.619	14842
871.749	14853
871.879	14887
872.008	14887
872.138	14838
872.267	14910
872.397	14697
872.526	14777
872.656	14693
872.785	14743
872.915	14952
873.044	14956
873.173	14891
873.303	15032
873.432	15020
873.561	15009
873.69	14914
873.819	14971
873.948	14918
874.077	14914
874.206	14842
874.335	14994
874.464	15039
874.593	15195
874.722	15150
874.851	15199
874.979	15230
875.108	15260
875.237	15188
875.365	15051
875.494	15157
875.623	15329
875.751	15161
875.88	15256
876.008	15317
876.136	15511
876.265	15587
876.393	15774
876.521	15679
876.65	15755
876.778	15557
876.906	15599
877.034	15542
877.162	15557
877.29	15595
877.418	15766
877.546	15641
877.674	15603
877.802	15633
877.93	15637
878.058	15671
878.185	15458
878.313	15698
878.441	15694
878.568	15530
878.696	15618
878.824	15637
878.951	15808
879.079	15850
879.206	15960
879.333	15774
879.461	15660
879.588	15709
879.715	15800
879.842	15956
879.97	15759
880.097	15504
880.224	15481
880.351	15538
880.478	15515
880.605	15523
880.732	15515
880.859	15675
880.986	15485
881.112	15530
881.239	15397
881.366	15237
881.493	15237
881.619	15157
881.746	15203
881.872	15157
881.999	15161
882.125	15036
882.252	15230
882.378	15161
882.505	15291
882.631	15085
882.757	14921
882.883	15036
883.01	14929
883.136	14963
883.262	14845
883.388	14853
883.514	14921
883.64	15047
883.766	14925
883.892	14739
884.018	14743
884.143	14994
884.269	15013
884.395	14648
884.52	14777
884.646	14670
884.772	14545
884.897	14518
885.023	14670
885.148	14716
885.274	14834
885.399	14727
885.524	14701
885.65	14655
885.775	14731
885.9	14651
886.025	14788
886.15	14655
886.275	14689
886.4	14594
886.525	14674
886.65	14663
886.775	14579
886.9	14758
887.025	14963
887.149	14682
887.274	14431
887.399	14381
887.523	14454
887.648	14442
887.773	14317
887.897	14602
888.021	14590
888.146	14495
888.27	14579
888.395	14606
888.519	14587
888.643	14590
888.767	14583
888.891	14476
889.015	14320
889.139	14419
889.263	14355
889.387	14412
889.511	14602
889.635	14514
889.759	14442
889.883	14355
890.006	14488
890.13	14423
890.254	14377
890.377	14252
890.501	14145
890.624	14107
890.748	14176
890.871	14119
890.995	14119
891.118	13978
891.241	14065
891.364	14043
891.488	14161
891.611	14058
891.734	14020
891.857	14142
891.98	14240
892.103	14218
892.226	13993
892.349	13967
892.471	13982
892.594	14096
892.717	14103
892.839	14069
892.962	14058
893.085	14027
893.207	14065
893.33	13864
893.452	13967
893.575	14058
893.697	14046
893.819	14191
893.941	14305
894.064	14275
894.186	13993
894.308	14020
894.43	14221
894.552	14206
894.674	14225
894.796	14092
894.918	14039
895.04	14062
895.161	14225
895.283	14180
895.405	14054
895.526	14126
895.648	14183
895.769	14202
895.891	14301
896.012	14237
896.134	14214
896.255	14195
896.376	14225
896.498	14271
896.619	14157
896.74	14195
896.861	14347
896.982	14549
897.103	14686
897.224	14564
897.345	14503
897.466	14473
897.587	14476
897.708	14606
897.828	14518
897.949	14423
898.07	14370
898.19	14484
898.311	14606
898.431	14469
898.552	14621
898.672	14617
898.792	14697
898.913	14636
899.033	14473
899.153	14442
899.273	14389
899.393	14469
899.513	14465
899.633	14393
899.753	14507
899.873	14396
899.993	14465
900.113	14454
900.232	14450
900.352	14393
900.472	14377
900.591	14317
900.711	14328
900.83	14290
900.95	14495
901.069	14442
901.189	14301
901.308	13986
901.427	13925
901.546	14016
901.665	14046
901.784	14027
901.904	13925
902.023	13761
902.141	13506
902.26	13480
902.379	13655
902.498	13544
902.617	13434
902.735	13567
902.854	13605
902.973	13472
903.091	13316
903.21	13251
903.328	13236
903.446	13282
903.565	13141
903.683	13099
903.801	13076
903.919	13187
904.038	13206
904.156	12943
904.274	13069
904.392	12943
904.51	12973
904.627	12935
904.745	12935
904.863	12977
904.981	12795
905.098	12608
905.216	12677
905.334	12669
905.451	12692
905.569	12559
905.686	12646
905.803	12654
905.921	12441
906.038	12517
906.155	12448
906.272	12395
906.389	12350
906.506	12152
906.623	12251
906.74	12235
906.857	12091
906.974	12106
907.091	12281
907.208	12311
907.324	12171
907.441	12171
907.557	12011
907.674	12015
907.79	11946
907.907	11904
908.023	11980
908.139	11893
908.256	11882
908.372	11901
908.488	11882
908.604	11783
908.72	11722
908.836	11726
908.952	11691
909.068	11775
909.184	11779
909.3	11718
909.415	11771
909.531	11767
909.647	11512
909.762	11478
909.878	11490
909.993	11524
910.108	11493
910.224	11471
910.339	11471
910.454	11372
910.57	11391
910.685	11277
910.8	11528
910.915	11452
911.03	11395
911.145	11231
911.259	11193
911.374	11178
911.489	11147
911.604	11056
911.718	10984
911.833	11010
911.947	10881
912.062	10782
912.176	10968
912.291	10953
912.405	10934
912.519	11132
912.633	11094
912.748	11033
912.862	10927
912.976	10850
913.09	10687
913.204	10854
913.318	10824
913.431	10915
913.545	10930
913.659	10968
913.772	10782
913.886	10721
914	10710
914.113	10839
914.226	10782
914.34	10831
914.453	10668
914.566	10919
914.68	10691
914.793	10622
914.906	10497
915.019	10424
915.132	10386
915.245	10424
915.358	10535
915.47	10512
915.583	10478
915.696	10519
915.809	10592
915.921	10641
916.034	10481
916.146	10417
916.259	10379
916.371	10474
916.483	10485
916.595	10428
916.708	10428
916.82	10447
916.932	10417
917.044	10306
917.156	10356
917.268	10253
917.38	10310
917.491	10291
917.603	10265
917.715	10417
917.826	10398
917.938	10295
918.049	10131
918.161	10352
918.272	10402
918.384	10341
918.495	10295
918.606	10158
918.717	10139
918.828	10230
918.939	10192
919.05	9998
919.161	10166
919.272	9960
919.383	10036
919.494	10207
919.604	10379
919.715	10238
919.826	10120
919.936	10196
920.047	10291
920.157	10181
920.267	10284
920.378	10211
920.488	10196
920.598	10375
920.708	10611
920.818	10333
920.928	10371
921.038	10603
921.148	10588
921.258	10162
921.368	10196
921.477	10059
921.587	10021
921.697	9953
921.806	10109
921.916	9941
922.025	9827
922.134	9701
922.244	9690
922.353	9812
922.462	9618
922.571	9625
922.68	9561
922.789	9408
922.898	9416
923.007	9450
923.116	9458
923.224	9447
923.333	9454
923.442	9317
923.55	9355
923.659	9336
923.767	9439
923.876	9340
923.984	9344
924.092	9192
924.201	9302
924.309	9279
924.417	9306
924.525	9237
924.633	9253
924.741	10265
924.849	9161
924.956	9241
925.064	9127
925.172	8971
925.279	9066
925.387	9135
925.494	9093
925.602	9173
925.709	9176
925.816	9104
925.924	9093
926.031	9165
926.138	9135
926.245	9184
926.352	8990
926.459	9199
926.566	9199
926.673	9009
926.779	8979
926.886	8948
926.993	8864
927.099	8815
927.206	8800
927.312	8705
927.419	8868
927.525	8845
927.631	8895
927.737	8796
927.843	8724
927.95	8549
928.056	8708
928.162	8663
928.267	8785
928.373	9370
928.479	8743
928.585	8564
928.69	8701
928.796	8773
928.901	8564
929.007	8488
929.112	8617
929.218	8636
929.323	8564
929.428	8499
929.533	8644
929.638	8457
929.743	8461
929.848	8571
929.953	8507
930.058	8473
930.163	8347
930.267	8282
930.372	8438
930.477	8290
930.581	8499
930.685	8370
930.79	8259
930.894	8237
930.998	8259
931.103	8374
931.207	8050
931.311	8031
931.415	7940
931.519	7799
931.623	7761
