Data from test_V78500241_3368.txt Node
Date: Fri Mar 25 14:57:10 CST 2022
User: usil
Spectrometer: V785-0024
Trigger mode: 0
Integration Time (sec): 4.000000E-1
Scans to average: 1
Nonlinearity correction enabled: false
Boxcar width: 0
Storing dark spectrum: false
XAxis mode: Wavelengths
Number of Pixels in Spectrum: 1024
>>>>>Begin Spectral Data<<<<<
801.071	22006
801.214	21949
801.356	21534
801.499	21462
801.641	21397
801.783	21302
801.926	21397
802.068	21310
802.211	21252
802.353	21017
802.496	20834
802.638	20792
802.78	20743
802.923	20708
803.065	20533
803.208	20587
803.35	20617
803.492	20765
803.635	20697
803.777	20613
803.919	20815
804.061	20937
804.204	20651
804.346	20571
804.488	20499
804.63	20522
804.773	20476
804.915	20556
805.057	20667
805.199	20484
805.341	20697
805.483	20659
805.626	20716
805.768	20495
805.91	20674
806.052	20560
806.194	20488
806.336	20674
806.478	20526
806.62	20522
806.762	20503
806.904	20617
807.046	20990
807.188	20887
807.33	20796
807.472	20902
807.614	20712
807.756	20800
807.898	20670
808.04	20644
808.182	20667
808.324	20575
808.465	20594
808.607	20773
808.749	20918
808.891	20986
809.033	21017
809.174	20910
809.316	20834
809.458	20921
809.6	20834
809.741	20853
809.883	20982
810.025	21062
810.166	21028
810.308	20948
810.45	20971
810.591	20811
810.733	20800
810.875	20769
811.016	20545
811.158	20716
811.299	20640
811.441	20804
811.582	20769
811.724	20571
811.865	20556
812.007	20590
812.148	20533
812.29	20663
812.431	20902
812.573	20902
812.714	21013
812.855	21051
812.997	21233
813.138	21298
813.279	21188
813.421	21127
813.562	20979
813.703	20895
813.845	20720
813.986	20564
814.127	20385
814.268	20290
814.41	20229
814.551	20138
814.692	20092
814.833	20126
814.974	20119
815.115	20077
815.256	19978
815.397	20024
815.539	20062
815.68	19955
815.821	19704
815.962	20012
816.103	19955
816.244	19765
816.385	19674
816.526	19689
816.666	19491
816.807	19339
816.948	19457
817.089	19483
817.23	19464
817.371	19297
817.512	19282
817.653	19293
817.793	19190
817.934	19339
818.075	19377
818.216	19343
818.356	19255
818.497	19160
818.638	19046
818.778	19110
818.919	18970
819.06	19069
819.2	19202
819.341	19228
819.481	19148
819.622	19324
819.762	19483
819.903	19460
820.043	19350
820.184	19308
820.324	19247
820.465	19324
820.605	19244
820.746	19236
820.886	19228
821.026	19232
821.167	19217
821.307	19232
821.447	19244
821.588	19156
821.728	18985
821.868	18901
822.008	18684
822.149	18741
822.289	18753
822.429	18380
822.569	18391
822.709	18506
822.849	18117
822.99	18201
823.13	18178
823.27	18106
823.41	17904
823.55	18007
823.69	17889
823.83	18068
823.97	17961
824.11	17794
824.25	17760
824.389	17714
824.529	17904
824.669	17771
824.809	17878
824.949	17779
825.089	17878
825.228	17748
825.368	17615
825.508	17615
825.648	17463
825.787	17649
825.927	17581
826.067	17524
826.206	17524
826.346	17577
826.485	17516
826.625	17615
826.765	17646
826.904	17600
827.044	17410
827.183	17341
827.323	17250
827.462	17307
827.601	17261
827.741	17204
827.88	17246
828.02	17208
828.159	17227
828.298	17288
828.437	17406
828.577	17185
828.716	17345
828.855	17227
828.994	16976
829.134	16938
829.273	17067
829.412	16942
829.551	16953
829.69	17083
829.829	17075
829.968	17178
830.107	16915
830.246	17075
830.385	16892
830.524	16908
830.663	16740
830.802	16816
830.941	16668
831.08	16702
831.219	16706
831.357	16660
831.496	16839
831.635	16725
831.774	16580
831.913	16550
832.051	16447
832.19	16386
832.329	16447
832.467	16333
832.606	16360
832.744	16341
832.883	16261
833.022	16276
833.16	16417
833.299	16409
833.437	16325
833.576	16360
833.714	16344
833.852	16455
833.991	16451
834.129	16466
834.267	16443
834.406	16367
834.544	16371
834.682	16478
834.821	16474
834.959	16607
835.097	16333
835.235	16466
835.373	16493
835.511	16413
835.65	16322
835.788	16303
835.926	16200
836.064	16025
836.202	16226
836.34	16291
836.478	16272
836.615	16299
836.753	16325
836.891	16417
837.029	16265
837.167	16200
837.305	16200
837.443	16272
837.58	16128
837.718	16150
837.856	16158
837.993	16158
838.131	16181
838.269	16002
838.406	16162
838.544	16105
838.681	16013
838.819	15800
838.956	15766
839.094	15869
839.231	15778
839.369	15808
839.506	16143
839.643	15991
839.781	15781
839.918	15690
840.055	15850
840.193	15819
840.33	15705
840.467	15835
840.604	15831
840.742	15975
840.879	15633
841.016	15686
841.153	15622
841.29	15804
841.427	15835
841.564	15800
841.701	15861
841.838	15717
841.975	15660
842.112	15584
842.249	15568
842.385	15435
842.522	15732
842.659	15561
842.796	15523
842.933	15591
843.069	15370
843.206	15557
843.343	15660
843.479	15542
843.616	15534
843.752	15412
843.889	15287
844.025	15526
844.162	15260
844.298	15416
844.435	15252
844.571	15252
844.708	15435
844.844	15584
844.98	15488
845.117	15412
845.253	15332
845.389	15184
845.525	15283
845.661	15169
845.798	15161
845.934	15138
846.07	15085
846.206	15127
846.342	15188
846.478	15104
846.614	14998
846.75	14876
846.886	14739
847.022	14990
847.158	14944
847.294	14971
847.429	14842
847.565	14807
847.701	15089
847.837	14651
847.972	14594
848.108	14788
848.244	14735
848.379	14549
848.515	14465
848.65	14454
848.786	14404
848.921	14526
849.057	14579
849.192	14564
849.328	14492
849.463	14564
849.598	14579
849.734	14442
849.869	14389
850.004	14324
850.14	14286
850.275	14336
850.41	14218
850.545	14271
850.68	14271
850.815	14358
850.95	14278
851.085	14442
851.22	14404
851.355	14263
851.49	14267
851.625	14256
851.76	14259
851.895	14252
852.03	14142
852.165	14290
852.299	14263
852.434	14282
852.569	14218
852.703	14263
852.838	14298
852.973	14366
853.107	14385
853.242	14240
853.376	14115
853.511	14054
853.645	14073
853.78	14259
853.914	14199
854.048	14062
854.183	14069
854.317	14126
854.451	14320
854.585	14092
854.72	14103
854.854	14145
854.988	13989
855.122	14123
855.256	13887
855.39	14149
855.524	14275
855.658	14221
855.792	14054
855.926	14153
856.06	14195
856.194	14237
856.327	14054
856.461	14035
856.595	14020
856.729	14050
856.862	14282
856.996	14256
857.13	14256
857.263	14259
857.397	14324
857.53	14119
857.664	14153
857.797	14256
857.931	14259
858.064	14149
858.197	14267
858.331	14145
858.464	14024
858.597	14081
858.731	14107
858.864	14073
858.997	14096
859.13	14153
859.263	14199
859.396	14317
859.529	14043
859.662	14069
859.795	14096
859.928	14195
860.061	14298
860.194	14317
860.327	14199
860.46	14134
860.592	14168
860.725	14263
860.858	14393
860.99	14107
861.123	14073
861.256	14115
861.388	14164
861.521	14933
861.653	14153
861.786	13947
861.918	14039
862.05	14092
862.183	14092
862.315	14164
862.447	14191
862.58	14088
862.712	13883
862.844	13860
862.976	14027
863.108	13993
863.24	14408
863.372	13837
863.504	13940
863.636	13940
863.768	13928
863.9	14031
864.032	13887
864.164	13936
864.296	13951
864.428	14111
864.559	14069
864.691	14046
864.823	13959
864.954	14031
865.086	13906
865.217	13887
865.349	13807
865.48	13814
865.612	13890
865.743	14054
865.875	13970
866.006	13883
866.137	13978
866.269	13940
866.4	13940
866.531	13887
866.662	13852
866.793	13887
866.924	13856
867.055	13864
867.186	14016
867.317	13906
867.448	13734
867.579	13909
867.71	13845
867.841	13791
867.972	13932
868.103	13906
868.233	13837
868.364	13890
868.495	13959
868.625	14138
868.756	14256
868.886	14031
869.017	14168
869.147	14332
869.278	14214
869.408	14138
869.539	14195
869.669	14168
869.799	14237
869.929	14294
870.06	14221
870.19	14442
870.32	14454
870.45	14610
870.58	14587
870.71	14663
870.84	14583
870.97	14590
871.1	14438
871.23	14659
871.36	14674
871.489	14621
871.619	14735
871.749	14773
871.879	14689
872.008	14921
872.138	14826
872.267	14758
872.397	14594
872.526	14632
872.656	14629
872.785	14598
872.915	14853
873.044	14895
873.173	14792
873.303	14864
873.432	14834
873.561	14781
873.69	14773
873.819	14796
873.948	14906
874.077	14796
874.206	14804
874.335	14849
874.464	15024
874.593	15100
874.722	15039
874.851	15150
874.979	15169
875.108	15131
875.237	15093
875.365	15028
875.494	15085
875.623	15211
875.751	15089
875.88	15173
876.008	15313
876.136	15412
876.265	15587
876.393	15667
876.521	15572
876.65	15660
876.778	15682
876.906	15515
877.034	15488
877.162	15542
877.29	15408
877.418	15466
877.546	15542
877.674	15485
877.802	15561
877.93	15561
878.058	15439
878.185	15454
878.313	15534
878.441	15507
878.568	15256
878.696	15553
878.824	15622
878.951	15633
879.079	15778
879.206	15751
879.333	15736
879.461	15526
879.588	15625
879.715	15701
879.842	15838
879.97	15599
880.097	15374
880.224	15367
880.351	15420
880.478	15340
880.605	15325
880.732	15397
880.859	15530
880.986	15405
881.112	15420
881.239	15310
881.366	15272
881.493	15058
881.619	14986
881.746	15039
881.872	15131
881.999	15001
882.125	15001
882.252	15093
882.378	15097
882.505	15173
882.631	15127
882.757	14849
882.883	14948
883.01	14906
883.136	14887
883.262	14765
883.388	14762
883.514	14914
883.64	14979
883.766	14788
883.892	14705
884.018	14781
884.143	14880
884.269	14872
884.395	14613
884.52	14621
884.646	14518
884.772	14545
884.897	14526
885.023	14651
885.148	14705
885.274	14777
885.399	14682
885.524	14598
885.65	14579
885.775	14724
885.9	14560
886.025	14651
886.15	14606
886.275	14473
886.4	14511
886.525	14568
886.65	14446
886.775	14484
886.9	14735
887.025	14842
887.149	14556
887.274	14408
887.399	14438
887.523	14408
887.648	14347
887.773	14320
887.897	14469
888.021	14488
888.146	14370
888.27	14495
888.395	14495
888.519	14419
888.643	14446
888.767	14545
888.891	14339
889.015	14199
889.139	14282
889.263	14218
889.387	14358
889.511	14549
889.635	14400
889.759	14233
889.883	14202
890.006	14221
890.13	14450
890.254	14225
890.377	14221
890.501	14123
890.624	13997
890.748	14123
890.871	14005
890.995	13860
891.118	13772
891.241	13940
891.364	14012
891.488	14100
891.611	13963
891.734	14005
891.857	14027
891.98	13955
892.103	14016
892.226	13974
892.349	13974
892.471	13837
892.594	14016
892.717	13944
892.839	14024
892.962	14069
893.085	13970
893.207	14069
893.33	13833
893.452	13932
893.575	14084
893.697	13970
893.819	14103
893.941	14248
894.064	14275
894.186	13944
894.308	13940
894.43	14134
894.552	14282
894.674	14027
894.796	13875
894.918	14027
895.04	14012
895.161	14195
895.283	14043
895.405	13955
895.526	14157
895.648	14130
895.769	14130
895.891	14107
896.012	14199
896.134	14229
896.255	14050
896.376	14157
896.498	14100
896.619	14187
896.74	14092
896.861	14347
896.982	14522
897.103	14610
897.224	14404
897.345	14412
897.466	14366
897.587	14408
897.708	14590
897.828	14450
897.949	14381
898.07	14381
898.19	14408
898.311	14594
898.431	14454
898.552	14484
898.672	14575
898.792	14632
898.913	14598
899.033	14415
899.153	14374
899.273	14252
899.393	14259
899.513	14362
899.633	14336
899.753	14362
899.873	14282
899.993	14404
900.113	14301
900.232	14431
900.352	14389
900.472	14278
900.591	14157
900.711	14237
900.83	14176
900.95	14221
901.069	14267
901.189	14168
901.308	14005
901.427	13940
901.546	13845
901.665	13932
901.784	13967
901.904	13814
902.023	13685
902.141	13483
902.26	13457
902.379	13597
902.498	13403
902.617	13480
902.735	13396
902.854	13483
902.973	13426
903.091	13206
903.21	13084
903.328	13198
903.446	13046
903.565	13008
903.683	13031
903.801	12856
903.919	13023
904.038	12966
904.156	12806
904.274	12920
904.392	12840
904.51	12913
904.627	12875
904.745	12928
904.863	12878
904.981	12669
905.098	12582
905.216	12521
905.334	12509
905.451	12593
905.569	12555
905.686	12563
905.803	12604
905.921	12407
906.038	12452
906.155	12391
906.272	12372
906.389	12323
906.506	12247
906.623	12163
906.74	12216
906.857	12019
906.974	12072
907.091	12205
907.208	12186
907.324	12167
907.441	12144
907.557	11980
907.674	11942
907.79	11798
907.907	11836
908.023	11916
908.139	11935
908.256	11821
908.372	11745
908.488	11809
908.604	11699
908.72	11608
908.836	11630
908.952	11703
909.068	11665
909.184	11764
909.3	11558
909.415	11802
909.531	11646
909.647	11592
909.762	11444
909.878	11429
909.993	11368
910.108	11383
910.224	11360
910.339	11429
910.454	11292
910.57	11296
910.685	11227
910.8	11436
910.915	11452
911.03	11265
911.145	11159
911.259	11159
911.374	11067
911.489	11105
911.604	11003
911.718	10862
911.833	10873
911.947	10771
912.062	10664
912.176	10809
912.291	10938
912.405	10854
912.519	11086
912.633	11151
912.748	10961
912.862	10919
912.976	10714
913.09	10656
913.204	10641
913.318	10725
913.431	10919
913.545	10904
913.659	10904
913.772	10828
913.886	10694
914	10641
914.113	10763
914.226	10786
914.34	10755
914.453	10588
914.566	10782
914.68	10596
914.793	10645
914.906	10421
915.019	10337
915.132	10265
915.245	10405
915.358	10428
915.47	10451
915.583	10497
915.696	10485
915.809	10577
915.921	10577
916.034	10394
916.146	10352
916.259	10325
916.371	10455
916.483	10417
916.595	10280
916.708	10325
916.82	10322
916.932	10440
917.044	10310
917.156	10325
917.268	10234
917.38	10188
917.491	10227
917.603	10162
917.715	10325
917.826	10367
917.938	10207
918.049	10093
918.161	10192
918.272	10363
918.384	10390
918.495	10265
918.606	10200
918.717	10044
918.828	10093
918.939	10128
919.05	9979
919.161	10097
919.272	9972
919.383	9991
919.494	10150
919.604	10390
919.715	10120
919.826	10086
919.936	10093
920.047	10215
920.157	10204
920.267	10360
920.378	10185
920.488	10078
920.598	10356
920.708	10421
920.818	10348
920.928	10402
921.038	10432
921.148	10443
921.258	10173
921.368	10082
921.477	9979
921.587	9979
921.697	9846
921.806	10055
921.916	9918
922.025	9747
922.134	9709
922.244	9648
922.353	9709
922.462	9584
922.571	9595
922.68	9405
922.789	9348
922.898	9306
923.007	9298
923.116	9447
923.224	9454
923.333	9386
923.442	9279
923.55	9233
923.659	9321
923.767	9294
923.876	9218
923.984	9279
924.092	9165
924.201	9233
924.309	9275
924.417	9317
924.525	9154
924.633	9207
924.741	10124
924.849	9070
924.956	9180
925.064	9005
925.172	9005
925.279	8982
925.387	9108
925.494	9100
925.602	9165
925.709	9131
925.816	9001
925.924	9039
926.031	9138
926.138	9081
926.245	9116
926.352	8941
926.459	9135
926.566	9176
926.673	9036
926.779	8963
926.886	8899
926.993	8785
927.099	8811
927.206	8754
927.312	8720
927.419	8781
927.525	8731
927.631	8830
927.737	8701
927.843	8640
927.95	8514
928.056	8606
928.162	8670
928.267	8697
928.373	9344
928.479	8838
928.585	8541
928.69	8629
928.796	8739
928.901	8560
929.007	8419
929.112	8602
929.218	8514
929.323	8499
929.428	8549
929.533	8621
929.638	8408
929.743	8488
929.848	8484
929.953	8484
930.058	8461
930.163	8252
930.267	8237
930.372	8374
930.477	8168
930.581	8434
930.685	8313
930.79	8294
930.894	8237
930.998	8157
931.103	8328
931.207	8012
931.311	7906
931.415	7860
931.519	7715
931.623	7655
