Data from test_V78500241_1130.txt Node
Date: Fri Mar 25 14:41:35 CST 2022
User: usil
Spectrometer: V785-0024
Trigger mode: 0
Integration Time (sec): 4.000000E-1
Scans to average: 1
Nonlinearity correction enabled: false
Boxcar width: 0
Storing dark spectrum: false
XAxis mode: Wavelengths
Number of Pixels in Spectrum: 1024
>>>>>Begin Spectral Data<<<<<
801.071	22573
801.214	22550
801.356	22379
801.499	22147
801.641	22032
801.783	22036
801.926	22051
802.068	21876
802.211	21842
802.353	21724
802.496	21511
802.638	21424
802.78	21568
802.923	21351
803.065	21393
803.208	21325
803.35	21256
803.492	21420
803.635	21435
803.777	21348
803.919	21447
804.061	21637
804.204	21447
804.346	21199
804.488	21249
804.63	21313
804.773	21173
804.915	21180
805.057	21378
805.199	21260
805.341	21344
805.483	21260
805.626	21325
805.768	21211
805.91	21230
806.052	21298
806.194	21112
806.336	21382
806.478	21256
806.62	21161
806.762	21359
806.904	21424
807.046	21751
807.188	21656
807.33	21568
807.472	21705
807.614	21648
807.756	21599
807.898	21591
808.04	21370
808.182	21420
808.324	21515
808.465	21583
808.607	21690
808.749	21873
808.891	21892
809.033	22086
809.174	21949
809.316	21876
809.458	21717
809.6	21812
809.741	21766
809.883	21903
810.025	21968
810.166	21892
810.308	21819
810.45	21804
810.591	21728
810.733	21545
810.875	21507
811.016	21435
811.158	21408
811.299	21374
811.441	21538
811.582	21473
811.724	21519
811.865	21393
812.007	21473
812.148	21450
812.29	21386
812.431	21610
812.573	21766
812.714	21797
812.855	21884
812.997	22070
813.138	22211
813.279	22021
813.421	22013
813.562	21869
813.703	21793
813.845	21667
813.986	21397
814.127	21207
814.268	21024
814.41	21070
814.551	20967
814.692	21009
814.833	20929
814.974	20952
815.115	20998
815.256	20864
815.397	20899
815.539	20910
815.68	20804
815.821	20678
815.962	20815
816.103	20636
816.244	20644
816.385	20446
816.526	20530
816.666	20400
816.807	20176
816.948	20221
817.089	20225
817.23	20248
817.371	20130
817.512	20248
817.653	20161
817.793	20065
817.934	20218
818.075	20149
818.216	20225
818.356	20081
818.497	19970
818.638	19788
818.778	19849
818.919	19932
819.06	19845
819.2	19936
819.341	20054
819.481	20077
819.622	20088
819.762	20320
819.903	20252
820.043	20191
820.184	20259
820.324	20111
820.465	20161
820.605	20176
820.746	20126
820.886	19932
821.026	20122
821.167	20103
821.307	20081
821.447	20100
821.588	19841
821.728	19833
821.868	19674
822.008	19540
822.149	19552
822.289	19453
822.429	19297
822.569	19206
822.709	19240
822.849	19000
822.99	19046
823.13	19015
823.27	19008
823.41	18943
823.55	18821
823.69	18924
823.83	18802
823.97	18719
824.11	18639
824.25	18597
824.389	18612
824.529	18623
824.669	18521
824.809	18768
824.949	18715
825.089	18734
825.228	18612
825.368	18395
825.508	18353
825.648	18536
825.787	18403
825.927	18456
826.067	18353
826.206	18380
826.346	18490
826.485	18445
826.625	18403
826.765	18540
826.904	18376
827.044	18155
827.183	18076
827.323	18049
827.462	18243
827.601	18125
827.741	18015
827.88	18053
828.02	17931
828.159	18125
828.298	18098
828.437	18072
828.577	18068
828.716	18239
828.855	17980
828.994	17942
829.134	17840
829.273	17794
829.412	17733
829.551	17714
829.69	17851
829.829	17760
829.968	17961
830.107	17866
830.246	17893
830.385	17790
830.524	17646
830.663	17657
830.802	17566
830.941	17490
831.08	17547
831.219	17585
831.357	17524
831.496	17543
831.635	17490
831.774	17322
831.913	17376
832.051	17212
832.19	17136
832.329	17303
832.467	17083
832.606	17113
832.744	17121
832.883	17151
833.022	17083
833.16	17056
833.299	17113
833.437	17140
833.576	17242
833.714	17162
833.852	17231
833.991	17250
834.129	17364
834.267	17212
834.406	17204
834.544	17193
834.682	17200
834.821	17159
834.959	17326
835.097	17170
835.235	17265
835.373	17254
835.511	17231
835.65	17159
835.788	17159
835.926	16942
836.064	16957
836.202	16930
836.34	17151
836.478	17064
836.615	17029
836.753	17052
836.891	17197
837.029	17136
837.167	17029
837.305	17006
837.443	17018
837.58	16877
837.718	17014
837.856	17045
837.993	16961
838.131	16889
838.269	16881
838.406	16892
838.544	16828
838.681	16713
838.819	16672
838.956	16500
839.094	16447
839.231	16512
839.369	16645
839.506	16797
839.643	16774
839.781	16615
839.918	16497
840.055	16443
840.193	16527
840.33	16542
840.467	16489
840.604	16489
840.742	16797
840.879	16238
841.016	16424
841.153	16440
841.29	16694
841.427	16504
841.564	16554
841.701	16622
841.838	16367
841.975	16462
842.112	16424
842.249	16246
842.385	16367
842.522	16500
842.659	16291
842.796	16314
842.933	16272
843.069	16185
843.206	16261
843.343	16382
843.479	16318
843.616	16363
843.752	16116
843.889	16135
844.025	16147
844.162	16166
844.298	16090
844.435	16097
844.571	16086
844.708	16158
844.844	16128
844.98	16261
845.117	16169
845.253	16032
845.389	15937
845.525	16040
845.661	16048
845.798	16067
845.934	16196
846.07	16131
846.206	16299
846.342	16295
846.478	16124
846.614	15747
846.75	15694
846.886	15694
847.022	15724
847.158	15686
847.294	15690
847.429	15698
847.565	15633
847.701	15842
847.837	15332
847.972	15363
848.108	15420
848.244	15496
848.379	15241
848.515	15157
848.65	15112
848.786	15230
848.921	15321
849.057	15325
849.192	15355
849.328	15359
849.463	15245
849.598	15218
849.734	15199
849.869	15066
850.004	15089
850.14	14960
850.275	15017
850.41	14925
850.545	14895
850.68	14994
850.815	14937
850.95	15081
851.085	15112
851.22	15100
851.355	15051
851.49	14918
851.625	14899
851.76	15005
851.895	14944
852.03	14948
852.165	14929
852.299	15009
852.434	15074
852.569	15108
852.703	15009
852.838	14971
852.973	15188
853.107	15157
853.242	14925
853.376	14826
853.511	14838
853.645	14868
853.78	14944
853.914	14937
854.048	14868
854.183	14838
854.317	14906
854.451	14944
854.585	14834
854.72	14724
854.854	14823
854.988	14739
855.122	14792
855.256	14594
855.39	14819
855.524	14910
855.658	14876
855.792	14880
855.926	14929
856.06	14842
856.194	15032
856.327	14857
856.461	14796
856.595	14762
856.729	14872
856.862	14963
856.996	14899
857.13	14960
857.263	14998
857.397	14941
857.53	14864
857.664	14842
857.797	14876
857.931	14975
858.064	14842
858.197	14956
858.331	14731
858.464	14785
858.597	14727
858.731	14880
858.864	14781
858.997	14910
859.13	14960
859.263	14876
859.396	14902
859.529	14815
859.662	14800
859.795	14758
859.928	14819
860.061	14982
860.194	14994
860.327	14975
860.46	14788
860.592	14975
860.725	15013
860.858	14921
860.99	14758
861.123	14781
861.256	14868
861.388	14823
861.521	15591
861.653	14743
861.786	14781
861.918	14708
862.05	14746
862.183	14864
862.315	14773
862.447	14796
862.58	14811
862.712	14674
862.844	14583
862.976	14648
863.108	14651
863.24	15039
863.372	14461
863.504	14644
863.636	14537
863.768	14651
863.9	14617
864.032	14590
864.164	14598
864.296	14564
864.428	14781
864.559	14712
864.691	14712
864.823	14739
864.954	14575
865.086	14651
865.217	14648
865.349	14594
865.48	14617
865.612	14655
865.743	14724
865.875	14659
866.006	14571
866.137	14651
866.269	14518
866.4	14678
866.531	14552
866.662	14484
866.793	14617
866.924	14533
867.055	14636
867.186	14625
867.317	14571
867.448	14499
867.579	14454
867.71	14579
867.841	14469
867.972	14594
868.103	14610
868.233	14659
868.364	14667
868.495	14693
868.625	14792
868.756	14986
868.886	14746
869.017	14739
869.147	14830
869.278	14960
869.408	14842
869.539	14876
869.669	15020
869.799	14971
869.929	14963
870.06	14990
870.19	15097
870.32	15169
870.45	15252
870.58	15268
870.71	15329
870.84	15351
870.97	15138
871.1	15256
871.23	15428
871.36	15431
871.489	15367
871.619	15397
871.749	15473
871.879	15485
872.008	15545
872.138	15431
872.267	15389
872.397	15272
872.526	15218
872.656	15252
872.785	15313
872.915	15428
873.044	15412
873.173	15526
873.303	15580
873.432	15595
873.561	15507
873.69	15450
873.819	15553
873.948	15530
874.077	15473
874.206	15492
874.335	15466
874.464	15675
874.593	15663
874.722	15720
874.851	15846
874.979	15793
875.108	15819
875.237	15759
875.365	15785
875.494	15793
875.623	15873
875.751	15816
875.88	15873
876.008	16059
876.136	16051
876.265	16299
876.393	16382
876.521	16314
876.65	16238
876.778	16242
876.906	16188
877.034	16105
877.162	16242
877.29	16200
877.418	16173
877.546	16230
877.674	16246
877.802	16196
877.93	16219
878.058	16169
878.185	16086
878.313	16253
878.441	16173
878.568	16150
878.696	16207
878.824	16230
878.951	16405
879.079	16500
879.206	16675
879.333	16421
879.461	16379
879.588	16440
879.715	16561
879.842	16531
879.97	16333
880.097	16188
880.224	16135
880.351	16150
880.478	16071
880.605	16120
880.732	16097
880.859	16287
880.986	16105
881.112	16032
881.239	16051
881.366	15804
881.493	15770
881.619	15682
881.746	15736
881.872	15766
881.999	15694
882.125	15755
882.252	15781
882.378	15743
882.505	15888
882.631	15747
882.757	15469
882.883	15622
883.01	15447
883.136	15408
883.262	15454
883.388	15393
883.514	15591
883.64	15652
883.766	15507
883.892	15313
884.018	15340
884.143	15511
884.269	15599
884.395	15336
884.52	15268
884.646	15275
884.772	15161
884.897	15100
885.023	15313
885.148	15283
885.274	15447
885.399	15435
885.524	15252
885.65	15325
885.775	15291
885.9	15157
886.025	15329
886.15	15283
886.275	15249
886.4	15077
886.525	15058
886.65	15207
886.775	15211
886.9	15351
887.025	15428
887.149	15275
887.274	15028
887.399	14990
887.523	15001
887.648	15043
887.773	14975
887.897	15074
888.021	15154
888.146	14994
888.27	15142
888.395	15199
888.519	15150
888.643	15028
888.767	14979
888.891	14967
889.015	14883
889.139	14941
889.263	14845
889.387	14956
889.511	15116
889.635	15036
889.759	14899
889.883	14921
890.006	14994
890.13	15009
890.254	14804
890.377	14845
890.501	14788
890.624	14655
890.748	14663
890.871	14606
890.995	14492
891.118	14568
891.241	14575
891.364	14701
891.488	14678
891.611	14533
891.734	14648
891.857	14682
891.98	14689
892.103	14663
892.226	14598
892.349	14552
892.471	14427
892.594	14507
892.717	14590
892.839	14530
892.962	14606
893.085	14644
893.207	14526
893.33	14476
893.452	14476
893.575	14682
893.697	14526
893.819	14735
893.941	14804
894.064	14754
894.186	14514
894.308	14514
894.43	14705
894.552	14777
894.674	14697
894.796	14667
894.918	14579
895.04	14644
895.161	14731
895.283	14712
895.405	14670
895.526	14632
895.648	14693
895.769	14701
895.891	14716
896.012	14674
896.134	14739
896.255	14838
896.376	14613
896.498	14689
896.619	14712
896.74	14701
896.861	14921
896.982	15020
897.103	15199
897.224	15066
897.345	14998
897.466	14918
897.587	15032
897.708	15119
897.828	15055
897.949	14883
898.07	14849
898.19	15036
898.311	15142
898.431	15028
898.552	15017
898.672	15146
898.792	15169
898.913	15089
899.033	15081
899.153	14845
899.273	14887
899.393	14910
899.513	14914
899.633	14876
899.753	14975
899.873	14861
899.993	14925
900.113	14998
900.232	15028
900.352	14891
900.472	14823
900.591	14651
900.711	14777
900.83	14792
900.95	14811
901.069	14880
901.189	14727
901.308	14480
901.427	14431
901.546	14377
901.665	14541
901.784	14492
901.904	14336
902.023	14263
902.141	14115
902.26	14054
902.379	14142
902.498	13989
902.617	13963
902.735	13997
902.854	13978
902.973	13909
903.091	13681
903.21	13715
903.328	13776
903.446	13643
903.565	13578
903.683	13620
903.801	13556
903.919	13529
904.038	13544
904.156	13365
904.274	13499
904.392	13362
904.51	13354
904.627	13339
904.745	13460
904.863	13415
904.981	13198
905.098	13061
905.216	13088
905.334	13118
905.451	13084
905.569	13046
905.686	13091
905.803	13023
905.921	12916
906.038	13069
906.155	12825
906.272	12730
906.389	12817
906.506	12623
906.623	12642
906.74	12563
906.857	12540
906.974	12582
907.091	12677
907.208	12924
907.324	12726
907.441	12593
907.557	12353
907.674	12475
907.79	12266
907.907	12315
908.023	12395
908.139	12418
908.256	12369
908.372	12300
908.488	12292
908.604	12190
908.72	12205
908.836	12152
908.952	12079
909.068	12194
909.184	12232
909.3	12163
909.415	12190
909.531	12228
909.647	11931
909.762	11927
909.878	11904
909.993	11999
910.108	11832
910.224	11843
910.339	11908
910.454	11855
910.57	11863
910.685	11699
910.8	11958
910.915	11965
911.03	11718
911.145	11676
911.259	11543
911.374	11604
911.489	11497
911.604	11467
911.718	11421
911.833	11425
911.947	11303
912.062	11166
912.176	11315
912.291	11402
912.405	11395
912.519	11558
912.633	11562
912.748	11433
912.862	11330
912.976	11151
913.09	11204
913.204	11220
913.318	11235
913.431	11372
913.545	11360
913.659	11376
913.772	11250
913.886	11041
914	11041
914.113	11185
914.226	11258
914.34	11155
914.453	10995
914.566	11242
914.68	11014
914.793	11083
914.906	10858
915.019	10850
915.132	10778
915.245	10809
915.358	10843
915.47	10801
915.583	10911
915.696	10843
915.809	10930
915.921	11025
916.034	10854
916.146	10782
916.259	10759
916.371	10949
916.483	10805
916.595	10683
916.708	10733
916.82	10717
916.932	10729
917.044	10740
917.156	10710
917.268	10588
917.38	10691
917.491	10618
917.603	10611
917.715	10702
917.826	10710
917.938	10645
918.049	10489
918.161	10683
918.272	10858
918.384	10812
918.495	10645
918.606	10497
918.717	10436
918.828	10500
918.939	10573
919.05	10443
919.161	10481
919.272	10306
919.383	10390
919.494	10588
919.604	10771
919.715	10630
919.826	10436
919.936	10527
920.047	10637
920.157	10565
920.267	10733
920.378	10615
920.488	10497
920.598	10714
920.708	10919
920.818	10694
920.928	10778
921.038	10835
921.148	10869
921.258	10466
921.368	10424
921.477	10398
921.587	10432
921.697	10207
921.806	10371
921.916	10257
922.025	10139
922.134	10059
922.244	10025
922.353	10139
922.462	9991
922.571	9884
922.68	9717
922.789	9766
922.898	9876
923.007	9618
923.116	9835
923.224	9785
923.333	9789
923.442	9618
923.55	9606
923.659	9682
923.767	9652
923.876	9557
923.984	9755
924.092	9580
924.201	9603
924.309	9610
924.417	9629
924.525	9591
924.633	9618
924.741	10352
924.849	9439
924.956	9576
925.064	9313
925.172	9287
925.279	9317
925.387	9393
925.494	9370
925.602	9610
925.709	9431
925.816	9336
925.924	9382
926.031	9420
926.138	9408
926.245	9443
926.352	9313
926.459	9443
926.566	9526
926.673	9378
926.779	9313
926.886	9294
926.993	9165
927.099	9104
927.206	9085
927.312	9058
927.419	9165
927.525	9112
927.631	9150
927.737	8952
927.843	9009
927.95	8921
928.056	8998
928.162	8956
928.267	9051
928.373	9656
928.479	9150
928.585	8830
928.69	8918
928.796	9043
928.901	8925
929.007	8796
929.112	8902
929.218	8880
929.323	8811
929.428	8853
929.533	8990
929.638	8842
929.743	8826
929.848	8895
929.953	8712
930.058	8670
930.163	8537
930.267	8541
930.372	8708
930.477	8549
930.581	8815
930.685	8625
930.79	8495
930.894	8530
930.998	8507
931.103	8606
931.207	8263
931.311	8145
931.415	8191
931.519	8039
931.623	8005
