Data from test_V78500241_3635.txt Node
Date: Fri Mar 25 14:59:01 CST 2022
User: usil
Spectrometer: V785-0024
Trigger mode: 0
Integration Time (sec): 4.000000E-1
Scans to average: 1
Nonlinearity correction enabled: false
Boxcar width: 0
Storing dark spectrum: false
XAxis mode: Wavelengths
Number of Pixels in Spectrum: 1024
>>>>>Begin Spectral Data<<<<<
801.071	21816
801.214	21789
801.356	21549
801.499	21477
801.641	21443
801.783	21389
801.926	21363
802.068	21237
802.211	21211
802.353	21058
802.496	20902
802.638	20800
802.78	20659
802.923	20701
803.065	20488
803.208	20575
803.35	20621
803.492	20651
803.635	20720
803.777	20549
803.919	20629
804.061	20975
804.204	20743
804.346	20473
804.488	20419
804.63	20518
804.773	20446
804.915	20545
805.057	20522
805.199	20393
805.341	20587
805.483	20514
805.626	20556
805.768	20431
805.91	20503
806.052	20404
806.194	20362
806.336	20530
806.478	20400
806.62	20415
806.762	20518
806.904	20834
807.046	20887
807.188	20716
807.33	20868
807.472	20895
807.614	20693
807.756	20689
807.898	20549
808.04	20583
808.182	20522
808.324	20511
808.465	20598
808.607	20758
808.749	20914
808.891	20979
809.033	21184
809.174	20887
809.316	20743
809.458	20849
809.6	20739
809.741	20921
809.883	20845
810.025	20971
810.166	21062
810.308	20986
810.45	20921
810.591	20861
810.733	20648
810.875	20682
811.016	20488
811.158	20480
811.299	20632
811.441	20826
811.582	20727
811.724	20625
811.865	20583
812.007	20545
812.148	20598
812.29	20533
812.431	20773
812.573	21055
812.714	21013
812.855	21119
812.997	21222
813.138	21294
813.279	21317
813.421	21100
813.562	21066
813.703	20872
813.845	20682
813.986	20533
814.127	20320
814.268	20187
814.41	20187
814.551	20214
814.692	20278
814.833	20069
814.974	20164
815.115	20199
815.256	20016
815.397	20164
815.539	20039
815.68	19940
815.821	19898
815.962	19909
816.103	19799
816.244	19826
816.385	19708
816.526	19563
816.666	19354
816.807	19240
816.948	19392
817.089	19346
817.23	19335
817.371	19263
817.512	19327
817.653	19251
817.793	19164
817.934	19346
818.075	19236
818.216	19297
818.356	19091
818.497	19065
818.638	19095
818.778	19038
818.919	18867
819.06	18996
819.2	19065
819.341	19095
819.481	19122
819.622	19232
819.762	19480
819.903	19457
820.043	19381
820.184	19400
820.324	19270
820.465	19308
820.605	19255
820.746	19335
820.886	19107
821.026	19183
821.167	19187
821.307	19297
821.447	19247
821.588	19031
821.728	18913
821.868	18935
822.008	18654
822.149	18646
822.289	18559
822.429	18403
822.569	18369
822.709	18323
822.849	18174
822.99	18121
823.13	18121
823.27	18015
823.41	18064
823.55	17897
823.69	17988
823.83	17980
823.97	17912
824.11	17836
824.25	17733
824.389	17745
824.529	17866
824.669	17741
824.809	17882
824.949	17897
825.089	17809
825.228	17771
825.368	17570
825.508	17649
825.648	17611
825.787	17532
825.927	17558
826.067	17410
826.206	17512
826.346	17505
826.485	17615
826.625	17505
826.765	17589
826.904	17543
827.044	17341
827.183	17395
827.323	17151
827.462	17250
827.601	17204
827.741	17193
827.88	17269
828.02	17216
828.159	17292
828.298	17296
828.437	17269
828.577	17178
828.716	17220
828.855	17083
828.994	16949
829.134	16984
829.273	16930
829.412	16889
829.551	16919
829.69	16968
829.829	16995
829.968	17170
830.107	17018
830.246	16984
830.385	16877
830.524	16850
830.663	16877
830.802	16736
830.941	16706
831.08	16713
831.219	16668
831.357	16755
831.496	16854
831.635	16580
831.774	16535
831.913	16550
832.051	16367
832.19	16386
832.329	16352
832.467	16257
832.606	16337
832.744	16215
832.883	16299
833.022	16322
833.16	16322
833.299	16325
833.437	16306
833.576	16379
833.714	16287
833.852	16257
833.991	16230
834.129	16421
834.267	16481
834.406	16348
834.544	16360
834.682	16451
834.821	16375
834.959	16584
835.097	16272
835.235	16413
835.373	16402
835.511	16265
835.65	16265
835.788	16348
835.926	16078
836.064	16162
836.202	16154
836.34	16352
836.478	16348
836.615	16284
836.753	16436
836.891	16360
837.029	16299
837.167	16120
837.305	16173
837.443	16131
837.58	16147
837.718	16226
837.856	16169
837.993	16059
838.131	16116
838.269	16071
838.406	16124
838.544	16135
838.681	15895
838.819	15800
838.956	15819
839.094	15701
839.231	15808
839.369	15842
839.506	16048
839.643	15934
839.781	15774
839.918	15682
840.055	15724
840.193	15690
840.33	15720
840.467	15644
840.604	15709
840.742	15888
840.879	15545
841.016	15633
841.153	15606
841.29	15835
841.427	15743
841.564	15808
841.701	15755
841.838	15720
841.975	15637
842.112	15618
842.249	15561
842.385	15526
842.522	15679
842.659	15500
842.796	15458
842.933	15519
843.069	15405
843.206	15523
843.343	15580
843.479	15488
843.616	15507
843.752	15310
843.889	15272
844.025	15420
844.162	15279
844.298	15454
844.435	15241
844.571	15237
844.708	15405
844.844	15443
844.98	15420
845.117	15431
845.253	15199
845.389	15173
845.525	15184
845.661	15169
845.798	15077
845.934	15157
846.07	15020
846.206	15039
846.342	15233
846.478	15032
846.614	14872
846.75	14971
846.886	14925
847.022	14979
847.158	14906
847.294	14899
847.429	15024
847.565	14804
847.701	15142
847.837	14632
847.972	14659
848.108	14739
848.244	14667
848.379	14442
848.515	14473
848.65	14347
848.786	14476
848.921	14412
849.057	14545
849.192	14457
849.328	14484
849.463	14549
849.598	14415
849.734	14351
849.869	14278
850.004	14267
850.14	14271
850.275	14282
850.41	14046
850.545	14176
850.68	14187
850.815	14183
850.95	14225
851.085	14492
851.22	14309
851.355	14180
851.49	14199
851.625	14233
851.76	14138
851.895	14176
852.03	14096
852.165	14263
852.299	14210
852.434	14244
852.569	14271
852.703	14275
852.838	14408
852.973	14457
853.107	14385
853.242	14168
853.376	14065
853.511	13959
853.645	14027
853.78	14206
853.914	14100
854.048	14100
854.183	14001
854.317	14081
854.451	14328
854.585	14134
854.72	14077
854.854	14168
854.988	13936
855.122	14092
855.256	13974
855.39	14027
855.524	14172
855.658	14206
855.792	14172
855.926	14199
856.06	14210
856.194	14161
856.327	14183
856.461	14058
856.595	14035
856.729	14100
856.862	14138
856.996	14115
857.13	14221
857.263	14256
857.397	14244
857.53	14024
857.664	14088
857.797	14259
857.931	14202
858.064	14191
858.197	14157
858.331	14168
858.464	14016
858.597	13967
858.731	14024
858.864	14081
858.997	14119
859.13	14126
859.263	14157
859.396	14252
859.529	14218
859.662	14054
859.795	14035
859.928	14172
860.061	14313
860.194	14218
860.327	14161
860.46	14138
860.592	14176
860.725	14248
860.858	14218
860.99	14065
861.123	13970
861.256	14111
861.388	14077
861.521	14918
861.653	14012
861.786	13906
861.918	13909
862.05	14027
862.183	14054
862.315	14088
862.447	14088
862.58	14073
862.712	13845
862.844	13826
862.976	13925
863.108	14005
863.24	14343
863.372	13780
863.504	13864
863.636	13871
863.768	13978
863.9	13883
864.032	13875
864.164	13898
864.296	13902
864.428	14031
864.559	13925
864.691	13997
864.823	13894
864.954	13921
865.086	13898
865.217	13837
865.349	13811
865.48	13830
865.612	13928
865.743	14016
865.875	13830
866.006	13807
866.137	13841
866.269	13814
866.4	13845
866.531	13871
866.662	13909
866.793	13845
866.924	13887
867.055	13955
867.186	13890
867.317	13811
867.448	13887
867.579	13761
867.71	13883
867.841	13746
867.972	13837
868.103	13932
868.233	13856
868.364	13871
868.495	14001
868.625	14142
868.756	14244
868.886	14008
869.017	14096
869.147	14221
869.278	14252
869.408	14145
869.539	14142
869.669	14248
869.799	14218
869.929	14282
870.06	14195
870.19	14533
870.32	14347
870.45	14530
870.58	14541
870.71	14663
870.84	14705
870.97	14454
871.1	14541
871.23	14667
871.36	14788
871.489	14697
871.619	14659
871.749	14758
871.879	14777
872.008	14807
872.138	14720
872.267	14632
872.397	14549
872.526	14511
872.656	14594
872.785	14552
872.915	14750
873.044	14815
873.173	14864
873.303	14735
873.432	14762
873.561	14823
873.69	14765
873.819	14781
873.948	14925
874.077	14781
874.206	14754
874.335	14765
874.464	14921
874.593	15077
874.722	15161
874.851	15108
874.979	15138
875.108	15055
875.237	15036
875.365	15036
875.494	15112
875.623	15241
875.751	15127
875.88	15116
876.008	15188
876.136	15329
876.265	15549
876.393	15603
876.521	15561
876.65	15690
876.778	15572
876.906	15462
877.034	15382
877.162	15416
877.29	15466
877.418	15485
877.546	15542
877.674	15496
877.802	15572
877.93	15454
878.058	15351
878.185	15431
878.313	15420
878.441	15519
878.568	15294
878.696	15473
878.824	15523
878.951	15679
879.079	15720
879.206	15854
879.333	15622
879.461	15511
879.588	15679
879.715	15743
879.842	15842
879.97	15625
880.097	15412
880.224	15367
880.351	15393
880.478	15401
880.605	15321
880.732	15355
880.859	15568
880.986	15378
881.112	15412
881.239	15329
881.366	15173
881.493	15093
881.619	15062
881.746	15077
881.872	14941
881.999	14994
882.125	14944
882.252	14979
882.378	15112
882.505	15176
882.631	14979
882.757	14891
882.883	14902
883.01	14743
883.136	14815
883.262	14773
883.388	14667
883.514	14872
883.64	14876
883.766	14819
883.892	14716
884.018	14765
884.143	14906
884.269	14830
884.395	14724
884.52	14507
884.646	14560
884.772	14511
884.897	14469
885.023	14613
885.148	14598
885.274	14617
885.399	14667
885.524	14545
885.65	14518
885.775	14571
885.9	14511
886.025	14590
886.15	14610
886.275	14564
886.4	14476
886.525	14503
886.65	14537
886.775	14473
886.9	14594
887.025	14735
887.149	14530
887.274	14469
887.399	14339
887.523	14374
887.648	14210
887.773	14237
887.897	14400
888.021	14450
888.146	14263
888.27	14476
888.395	14465
888.519	14438
888.643	14381
888.767	14492
888.891	14271
889.015	14191
889.139	14278
889.263	14168
889.387	14415
889.511	14469
889.635	14358
889.759	14271
889.883	14244
890.006	14259
890.13	14419
890.254	14278
890.377	14256
890.501	14008
890.624	13955
890.748	14153
890.871	13928
890.995	13932
891.118	13826
891.241	13913
891.364	13989
891.488	14058
891.611	13978
891.734	13860
891.857	13932
891.98	13978
892.103	13993
892.226	14100
892.349	13951
892.471	13837
892.594	13967
892.717	14065
892.839	13883
892.962	14012
893.085	14024
893.207	14005
893.33	13738
893.452	13822
893.575	14012
893.697	13967
893.819	14145
893.941	14161
894.064	14202
894.186	13887
894.308	13898
894.43	14088
894.552	14221
894.674	14187
894.796	13868
894.918	14008
895.04	14039
895.161	14138
895.283	14016
895.405	13997
895.526	13970
895.648	14065
895.769	14031
895.891	14103
896.012	14153
896.134	14195
896.255	14130
896.376	14115
896.498	14088
896.619	14149
896.74	14199
896.861	14183
896.982	14492
897.103	14560
897.224	14362
897.345	14328
897.466	14385
897.587	14309
897.708	14476
897.828	14336
897.949	14419
898.07	14305
898.19	14389
898.311	14469
898.431	14400
898.552	14503
898.672	14454
898.792	14564
898.913	14522
899.033	14454
899.153	14328
899.273	14267
899.393	14309
899.513	14461
899.633	14275
899.753	14343
899.873	14309
899.993	14298
900.113	14294
900.232	14355
900.352	14385
900.472	14191
900.591	14161
900.711	14278
900.83	14123
900.95	14214
901.069	14290
901.189	14149
901.308	13917
901.427	13814
901.546	13879
901.665	13940
901.784	13856
901.904	13746
902.023	13689
902.141	13499
902.26	13381
902.379	13552
902.498	13426
902.617	13369
902.735	13460
902.854	13422
902.973	13388
903.091	13164
903.21	13206
903.328	13236
903.446	13118
903.565	13084
903.683	13069
903.801	12878
903.919	13027
904.038	13000
904.156	12867
904.274	12928
904.392	12833
904.51	12859
904.627	12814
904.745	12897
904.863	12981
904.981	12585
905.098	12559
905.216	12536
905.334	12665
905.451	12563
905.569	12612
905.686	12692
905.803	12650
905.921	12429
906.038	12486
906.155	12433
906.272	12205
906.389	12304
906.506	12213
906.623	12224
906.74	12171
906.857	11950
906.974	12007
907.091	12205
907.208	12342
907.324	12232
907.441	12057
907.557	11965
907.674	11984
907.79	11973
907.907	11866
908.023	12003
908.139	11889
908.256	11756
908.372	11805
908.488	11840
908.604	11756
908.72	11623
908.836	11722
908.952	11707
909.068	11695
909.184	11748
909.3	11642
909.415	11691
909.531	11756
909.647	11486
909.762	11387
909.878	11345
909.993	11497
910.108	11433
910.224	11421
910.339	11532
910.454	11322
910.57	11326
910.685	11246
910.8	11581
910.915	11429
911.03	11372
911.145	11269
911.259	11159
911.374	11231
911.489	11010
911.604	11071
911.718	10850
911.833	10946
911.947	10778
912.062	10767
912.176	10873
912.291	10881
912.405	10930
912.519	11121
912.633	11166
912.748	10987
912.862	10942
912.976	10786
913.09	10626
913.204	10698
913.318	10801
913.431	10892
913.545	10862
913.659	10927
913.772	10835
913.886	10653
914	10683
914.113	10850
914.226	10778
914.34	10797
914.453	10618
914.566	10748
914.68	10656
914.793	10580
914.906	10398
915.019	10303
915.132	10325
915.245	10402
915.358	10440
915.47	10386
915.583	10402
915.696	10436
915.809	10527
915.921	10538
916.034	10459
916.146	10356
916.259	10333
916.371	10447
916.483	10451
916.595	10348
916.708	10428
916.82	10402
916.932	10341
917.044	10280
917.156	10329
917.268	10207
917.38	10295
917.491	10272
917.603	10276
917.715	10398
917.826	10405
917.938	10204
918.049	10112
918.161	10363
918.272	10360
918.384	10371
918.495	10268
918.606	10196
918.717	9998
918.828	10169
918.939	10109
919.05	10021
919.161	10162
919.272	10021
919.383	9987
919.494	10181
919.604	10390
919.715	10219
919.826	10120
919.936	10093
920.047	10192
920.157	10173
920.267	10325
920.378	10276
920.488	10192
920.598	10337
920.708	10500
920.818	10303
920.928	10272
921.038	10485
921.148	10360
921.258	10185
921.368	10112
921.477	10044
921.587	10071
921.697	9895
921.806	10036
921.916	9892
922.025	9690
922.134	9622
922.244	9675
922.353	9770
922.462	9564
922.571	9584
922.68	9405
922.789	9435
922.898	9428
923.007	9336
923.116	9507
923.224	9367
923.333	9405
923.442	9351
923.55	9321
923.659	9298
923.767	9370
923.876	9298
923.984	9389
924.092	9184
924.201	9241
924.309	9294
924.417	9279
924.525	9169
924.633	9287
924.741	9975
924.849	9047
924.956	9157
925.064	9058
925.172	8998
925.279	8960
925.387	9028
925.494	9104
925.602	9199
925.709	9150
925.816	9047
925.924	9074
926.031	9150
926.138	9093
926.245	9066
926.352	9070
926.459	9112
926.566	9237
926.673	9028
926.779	8956
926.886	8918
926.993	8796
927.099	8781
927.206	8731
927.312	8712
927.419	8815
927.525	8785
927.631	8868
927.737	8686
927.843	8682
927.95	8579
928.056	8655
928.162	8705
928.267	8731
928.373	9207
928.479	8838
928.585	8579
928.69	8678
928.796	8670
928.901	8644
929.007	8507
929.112	8625
929.218	8590
929.323	8499
929.428	8583
929.533	8667
929.638	8473
929.743	8518
929.848	8518
929.953	8518
930.058	8377
930.163	8244
930.267	8240
930.372	8389
930.477	8248
930.581	8492
930.685	8309
930.79	8225
930.894	8263
930.998	8172
931.103	8309
931.207	8050
931.311	7963
931.415	7951
931.519	7715
931.623	7674
