Data from test_V78500241_3326.txt Node
Date: Fri Mar 25 14:56:52 CST 2022
User: usil
Spectrometer: V785-0024
Trigger mode: 0
Integration Time (sec): 4.000000E-1
Scans to average: 1
Nonlinearity correction enabled: false
Boxcar width: 0
Storing dark spectrum: false
XAxis mode: Wavelengths
Number of Pixels in Spectrum: 1024
>>>>>Begin Spectral Data<<<<<
801.071	21998
801.214	21865
801.356	21641
801.499	21458
801.641	21233
801.783	21374
801.926	21412
802.068	21260
802.211	21222
802.353	21184
802.496	20921
802.638	20910
802.78	20853
802.923	20632
803.065	20636
803.208	20545
803.35	20716
803.492	20773
803.635	20880
803.777	20575
803.919	20655
804.061	21028
804.204	20720
804.346	20648
804.488	20636
804.63	20640
804.773	20560
804.915	20427
805.057	20606
805.199	20625
805.341	20629
805.483	20674
805.626	20568
805.768	20499
805.91	20621
806.052	20636
806.194	20533
806.336	20682
806.478	20507
806.62	20590
806.762	20571
806.904	20727
807.046	21020
807.188	20785
807.33	20872
807.472	20944
807.614	20914
807.756	20792
807.898	20678
808.04	20484
808.182	20568
808.324	20644
808.465	20674
808.607	20777
808.749	21024
808.891	20944
809.033	21047
809.174	20990
809.316	20857
809.458	20868
809.6	20842
809.741	20887
809.883	20883
810.025	21081
810.166	21070
810.308	20952
810.45	21020
810.591	20887
810.733	20891
810.875	20708
811.016	20621
811.158	20556
811.299	20701
811.441	20788
811.582	20834
811.724	20644
811.865	20625
812.007	20632
812.148	20712
812.29	20705
812.431	20758
812.573	20998
812.714	21047
812.855	21173
812.997	21279
813.138	21313
813.279	21294
813.421	21123
813.562	21096
813.703	20944
813.845	20834
813.986	20537
814.127	20469
814.268	20237
814.41	20290
814.551	20240
814.692	20214
814.833	20168
814.974	20054
815.115	20240
815.256	20054
815.397	20084
815.539	20077
815.68	19970
815.821	19875
815.962	19871
816.103	19875
816.244	19708
816.385	19708
816.526	19715
816.666	19575
816.807	19392
816.948	19445
817.089	19533
817.23	19438
817.371	19346
817.512	19301
817.653	19308
817.793	19304
817.934	19400
818.075	19343
818.216	19445
818.356	19274
818.497	19171
818.638	18970
818.778	18905
818.919	19084
819.06	19076
819.2	19065
819.341	19084
819.481	19343
819.622	19358
819.762	19426
819.903	19483
820.043	19339
820.184	19346
820.324	19346
820.465	19460
820.605	19308
820.746	19209
820.886	19221
821.026	19228
821.167	19198
821.307	19377
821.447	19259
821.588	19190
821.728	19088
821.868	18924
822.008	18738
822.149	18700
822.289	18551
822.429	18555
822.569	18346
822.709	18418
822.849	18213
822.99	18228
823.13	18243
823.27	18167
823.41	18022
823.55	17988
823.69	17946
823.83	18079
823.97	17958
824.11	17722
824.25	17786
824.389	17836
824.529	17863
824.669	17908
824.809	17874
824.949	17840
825.089	17851
825.228	17874
825.368	17615
825.508	17592
825.648	17589
825.787	17676
825.927	17726
826.067	17566
826.206	17642
826.346	17554
826.485	17611
826.625	17501
826.765	17642
826.904	17634
827.044	17364
827.183	17269
827.323	17265
827.462	17334
827.601	17258
827.741	17345
827.88	17334
828.02	17159
828.159	17242
828.298	17273
828.437	17277
828.577	17265
828.716	17433
828.855	17292
828.994	17045
829.134	16957
829.273	17086
829.412	17067
829.551	17029
829.69	17025
829.829	17033
829.968	17151
830.107	17117
830.246	17094
830.385	17079
830.524	16904
830.663	16816
830.802	16881
830.941	16656
831.08	16660
831.219	16649
831.357	16698
831.496	16896
831.635	16580
831.774	16519
831.913	16424
832.051	16504
832.19	16470
832.329	16432
832.467	16310
832.606	16325
832.744	16329
832.883	16333
833.022	16295
833.16	16337
833.299	16371
833.437	16329
833.576	16443
833.714	16390
833.852	16424
833.991	16485
834.129	16493
834.267	16485
834.406	16402
834.544	16333
834.682	16497
834.821	16409
834.959	16523
835.097	16337
835.235	16500
835.373	16519
835.511	16325
835.65	16322
835.788	16322
835.926	16150
836.064	16120
836.202	16086
836.34	16287
836.478	16447
836.615	16238
836.753	16287
836.891	16348
837.029	16382
837.167	16265
837.305	16291
837.443	16230
837.58	16249
837.718	16394
837.856	16204
837.993	16124
838.131	16158
838.269	16173
838.406	16207
838.544	16078
838.681	15972
838.819	15812
838.956	15755
839.094	15743
839.231	15804
839.369	15808
839.506	16078
839.643	16017
839.781	15781
839.918	15755
840.055	15747
840.193	15751
840.33	15682
840.467	15755
840.604	15797
840.742	16032
840.879	15625
841.016	15667
841.153	15633
841.29	15915
841.427	15781
841.564	15854
841.701	15717
841.838	15808
841.975	15671
842.112	15698
842.249	15557
842.385	15564
842.522	15694
842.659	15542
842.796	15591
842.933	15606
843.069	15523
843.206	15458
843.343	15572
843.479	15431
843.616	15450
843.752	15412
843.889	15397
844.025	15511
844.162	15249
844.298	15393
844.435	15310
844.571	15291
844.708	15382
844.844	15504
844.98	15393
845.117	15370
845.253	15336
845.389	15268
845.525	15230
845.661	15176
845.798	15169
845.934	15119
846.07	15138
846.206	15116
846.342	15192
846.478	15077
846.614	14925
846.75	14967
846.886	15028
847.022	14994
847.158	14998
847.294	14880
847.429	14982
847.565	14933
847.701	15051
847.837	14708
847.972	14583
848.108	14765
848.244	14735
848.379	14492
848.515	14412
848.65	14476
848.786	14522
848.921	14522
849.057	14545
849.192	14659
849.328	14533
849.463	14522
849.598	14499
849.734	14423
849.869	14336
850.004	14389
850.14	14339
850.275	14370
850.41	14183
850.545	14221
850.68	14225
850.815	14374
850.95	14244
851.085	14465
851.22	14366
851.355	14370
851.49	14233
851.625	14324
851.76	14244
851.895	14142
852.03	14187
852.165	14221
852.299	14168
852.434	14343
852.569	14233
852.703	14164
852.838	14343
852.973	14374
853.107	14328
853.242	14286
853.376	14225
853.511	13947
853.645	14035
853.78	14324
853.914	14134
854.048	14024
854.183	14123
854.317	14115
854.451	14339
854.585	14123
854.72	14145
854.854	14248
854.988	14031
855.122	14103
855.256	13902
855.39	14157
855.524	14130
855.658	14180
855.792	14119
855.926	14225
856.06	14103
856.194	14191
856.327	14069
856.461	14130
856.595	14065
856.729	14119
856.862	14202
856.996	14126
857.13	14180
857.263	14259
857.397	14286
857.53	14157
857.664	14142
857.797	14172
857.931	14324
858.064	14168
858.197	14225
858.331	14157
858.464	14103
858.597	14081
858.731	14123
858.864	14130
858.997	14107
859.13	14240
859.263	14286
859.396	14180
859.529	14142
859.662	14123
859.795	14054
859.928	14084
860.061	14259
860.194	14305
860.327	14256
860.46	14142
860.592	14206
860.725	14267
860.858	14362
860.99	14092
861.123	14115
861.256	14126
861.388	14145
861.521	14979
861.653	13978
861.786	13883
861.918	13989
862.05	14088
862.183	14081
862.315	14123
862.447	14221
862.58	14100
862.712	13856
862.844	13894
862.976	14005
863.108	13967
863.24	14320
863.372	13841
863.504	13936
863.636	13963
863.768	13997
863.9	13887
864.032	13887
864.164	13894
864.296	13974
864.428	13936
864.559	14043
864.691	13978
864.823	13967
864.954	13963
865.086	13921
865.217	13894
865.349	13860
865.48	13833
865.612	13978
865.743	14016
865.875	13879
866.006	13890
866.137	13963
866.269	13883
866.4	13894
866.531	13913
866.662	13856
866.793	13879
866.924	13803
867.055	13921
867.186	13928
867.317	13826
867.448	13818
867.579	13818
867.71	13750
867.841	13788
867.972	13887
868.103	13928
868.233	13879
868.364	13986
868.495	13936
868.625	14115
868.756	14267
868.886	14164
869.017	14134
869.147	14313
869.278	14294
869.408	14252
869.539	14043
869.669	14229
869.799	14183
869.929	14301
870.06	14244
870.19	14476
870.32	14434
870.45	14587
870.58	14594
870.71	14663
870.84	14617
870.97	14594
871.1	14533
871.23	14762
871.36	14807
871.489	14667
871.619	14773
871.749	14716
871.879	14834
872.008	14910
872.138	14800
872.267	14785
872.397	14625
872.526	14617
872.656	14590
872.785	14552
872.915	14868
873.044	14811
873.173	14758
873.303	14956
873.432	14933
873.561	14952
873.69	14853
873.819	14864
873.948	14762
874.077	14804
874.206	14826
874.335	14868
874.464	15039
874.593	15097
874.722	15051
874.851	15154
874.979	15241
875.108	15279
875.237	15203
875.365	15108
875.494	15131
875.623	15203
875.751	15135
875.88	15252
876.008	15298
876.136	15344
876.265	15572
876.393	15831
876.521	15698
876.65	15736
876.778	15610
876.906	15648
877.034	15515
877.162	15530
877.29	15500
877.418	15504
877.546	15637
877.674	15587
877.802	15606
877.93	15580
878.058	15584
878.185	15515
878.313	15549
878.441	15622
878.568	15443
878.696	15488
878.824	15584
878.951	15652
879.079	15778
879.206	15876
879.333	15778
879.461	15751
879.588	15724
879.715	15701
879.842	15869
879.97	15785
880.097	15424
880.224	15469
880.351	15428
880.478	15507
880.605	15466
880.732	15443
880.859	15709
880.986	15504
881.112	15450
881.239	15370
881.366	15195
881.493	15188
881.619	15146
881.746	15123
881.872	15146
881.999	15032
882.125	15070
882.252	15131
882.378	15058
882.505	15275
882.631	14925
882.757	14933
882.883	14937
883.01	14880
883.136	14842
883.262	14727
883.388	14834
883.514	14906
883.64	14929
883.766	14937
883.892	14834
884.018	14678
884.143	14880
884.269	14956
884.395	14667
884.52	14583
884.646	14621
884.772	14522
884.897	14522
885.023	14511
885.148	14754
885.274	14902
885.399	14613
885.524	14636
885.65	14575
885.775	14689
885.9	14537
886.025	14705
886.15	14727
886.275	14511
886.4	14492
886.525	14518
886.65	14564
886.775	14564
886.9	14735
887.025	14830
887.149	14625
887.274	14446
887.399	14389
887.523	14423
887.648	14427
887.773	14320
887.897	14450
888.021	14442
888.146	14332
888.27	14590
888.395	14590
888.519	14412
888.643	14533
888.767	14602
888.891	14438
889.015	14202
889.139	14358
889.263	14180
889.387	14404
889.511	14507
889.635	14400
889.759	14267
889.883	14221
890.006	14343
890.13	14446
890.254	14294
890.377	14320
890.501	14107
890.624	14210
890.748	14100
890.871	14058
890.995	13978
891.118	14024
891.241	14024
891.364	13955
891.488	14164
891.611	13970
891.734	13997
891.857	14012
891.98	14081
892.103	14149
892.226	14005
892.349	14050
892.471	13890
892.594	14039
892.717	14050
892.839	14073
892.962	14062
893.085	14103
893.207	13928
893.33	13830
893.452	13947
893.575	14069
893.697	13989
893.819	14199
893.941	14267
894.064	14202
894.186	13940
894.308	13967
894.43	14115
894.552	14259
894.674	14214
894.796	13955
894.918	14126
895.04	14027
895.161	14115
895.283	14183
895.405	13970
895.526	14164
895.648	14126
895.769	14153
895.891	14229
896.012	14214
896.134	14256
896.255	14237
896.376	14199
896.498	14172
896.619	14244
896.74	14225
896.861	14214
896.982	14526
897.103	14644
897.224	14431
897.345	14495
897.466	14419
897.587	14336
897.708	14511
897.828	14473
897.949	14461
898.07	14404
898.19	14461
898.311	14560
898.431	14492
898.552	14522
898.672	14530
898.792	14701
898.913	14621
899.033	14469
899.153	14465
899.273	14332
899.393	14377
899.513	14446
899.633	14442
899.753	14396
899.873	14400
899.993	14415
900.113	14275
900.232	14473
900.352	14351
900.472	14343
900.591	14191
900.711	14240
900.83	14107
900.95	14294
901.069	14343
901.189	14221
901.308	13986
901.427	13932
901.546	13883
901.665	13925
901.784	14008
901.904	13837
902.023	13769
902.141	13460
902.26	13601
902.379	13563
902.498	13396
902.617	13502
902.735	13556
902.854	13434
902.973	13419
903.091	13225
903.21	13266
903.328	13274
903.446	13209
903.565	13065
903.683	13088
903.801	12996
903.919	13084
904.038	13129
904.156	12905
904.274	12901
904.392	12802
904.51	12871
904.627	12962
904.745	12890
904.863	12939
904.981	12654
905.098	12684
905.216	12563
905.334	12597
905.451	12604
905.569	12616
905.686	12627
905.803	12555
905.921	12365
906.038	12525
906.155	12380
906.272	12273
906.389	12399
906.506	12178
906.623	12254
906.74	12159
906.857	12007
906.974	12163
907.091	12239
907.208	12350
907.324	12175
907.441	12095
907.557	11901
907.674	11939
907.79	11847
907.907	11882
908.023	11942
908.139	11980
908.256	11889
908.372	11874
908.488	11821
908.604	11585
908.72	11661
908.836	11710
908.952	11691
909.068	11748
909.184	11855
909.3	11684
909.415	11741
909.531	11684
909.647	11516
909.762	11490
909.878	11410
909.993	11429
910.108	11341
910.224	11387
910.339	11516
910.454	11395
910.57	11254
910.685	11265
910.8	11592
910.915	11425
911.03	11322
911.145	11227
911.259	11147
911.374	11140
911.489	11083
911.604	11029
911.718	10957
911.833	10968
911.947	10793
912.062	10763
912.176	11018
912.291	10919
912.405	10869
912.519	11124
912.633	11121
912.748	11010
912.862	10862
912.976	10778
913.09	10675
913.204	10714
913.318	10873
913.431	10904
913.545	10892
913.659	10908
913.772	10755
913.886	10653
914	10660
914.113	10748
914.226	10805
914.34	10725
914.453	10653
914.566	10679
914.68	10717
914.793	10668
914.906	10455
915.019	10382
915.132	10398
915.245	10325
915.358	10485
915.47	10413
915.583	10428
915.696	10478
915.809	10538
915.921	10580
916.034	10394
916.146	10314
916.259	10360
916.371	10428
916.483	10493
916.595	10318
916.708	10367
916.82	10440
916.932	10375
917.044	10371
917.156	10272
917.268	10261
917.38	10242
917.491	10280
917.603	10230
917.715	10322
917.826	10428
917.938	10295
918.049	10139
918.161	10177
918.272	10375
918.384	10360
918.495	10344
918.606	10124
918.717	10044
918.828	10219
918.939	10139
919.05	10105
919.161	10093
919.272	9975
919.383	9991
919.494	10196
919.604	10382
919.715	10147
919.826	10116
919.936	10124
920.047	10207
920.157	10131
920.267	10322
920.378	10177
920.488	10128
920.598	10333
920.708	10500
920.818	10379
920.928	10322
921.038	10508
921.148	10519
921.258	10211
921.368	10131
921.477	9979
921.587	9991
921.697	9873
921.806	10055
921.916	9865
922.025	9793
922.134	9732
922.244	9641
922.353	9781
922.462	9622
922.571	9633
922.68	9538
922.789	9412
922.898	9435
923.007	9279
923.116	9416
923.224	9412
923.333	9393
923.442	9294
923.55	9195
923.659	9359
923.767	9408
923.876	9245
923.984	9279
924.092	9241
924.201	9275
924.309	9287
924.417	9363
924.525	9165
924.633	9222
924.741	10185
924.849	9043
924.956	9249
925.064	9097
925.172	8994
925.279	9047
925.387	9119
925.494	9077
925.602	9188
925.709	9123
925.816	9028
925.924	9062
926.031	9161
926.138	9032
926.245	9119
926.352	8925
926.459	9127
926.566	9218
926.673	9013
926.779	8914
926.886	8971
926.993	8785
927.099	8796
927.206	8689
927.312	8754
927.419	8819
927.525	8758
927.631	8815
927.737	8708
927.843	8507
927.95	8629
928.056	8678
928.162	8674
928.267	8731
928.373	9325
928.479	8697
928.585	8541
928.69	8625
928.796	8701
928.901	8549
929.007	8571
929.112	8606
929.218	8556
929.323	8575
929.428	8522
929.533	8648
929.638	8446
929.743	8495
929.848	8549
929.953	8522
930.058	8423
930.163	8168
930.267	8279
930.372	8465
930.477	8259
930.581	8503
930.685	8294
930.79	8202
930.894	8233
930.998	8199
931.103	8442
931.207	8012
931.311	7963
931.415	7894
931.519	7685
931.623	7666
