Data from test_V78500241_3620.txt Node
Date: Fri Mar 25 14:58:55 CST 2022
User: usil
Spectrometer: V785-0024
Trigger mode: 0
Integration Time (sec): 4.000000E-1
Scans to average: 1
Nonlinearity correction enabled: false
Boxcar width: 0
Storing dark spectrum: false
XAxis mode: Wavelengths
Number of Pixels in Spectrum: 1024
>>>>>Begin Spectral Data<<<<<
801.071	21941
801.214	21671
801.356	21534
801.499	21420
801.641	21367
801.783	21367
801.926	21363
802.068	21199
802.211	21165
802.353	21055
802.496	20754
802.638	20743
802.78	20834
802.923	20705
803.065	20396
803.208	20549
803.35	20575
803.492	20697
803.635	20739
803.777	20400
803.919	20655
804.061	20960
804.204	20754
804.346	20564
804.488	20480
804.63	20518
804.773	20400
804.915	20507
805.057	20579
805.199	20393
805.341	20533
805.483	20602
805.626	20613
805.768	20457
805.91	20427
806.052	20560
806.194	20381
806.336	20640
806.478	20594
806.62	20469
806.762	20552
806.904	20571
807.046	20899
807.188	20895
807.33	20762
807.472	20804
807.614	20632
807.756	20743
807.898	20689
808.04	20575
808.182	20514
808.324	20526
808.465	20598
808.607	20792
808.749	20781
808.891	20891
809.033	21131
809.174	20891
809.316	20868
809.458	20804
809.6	20830
809.741	20952
809.883	20925
810.025	20861
810.166	21039
810.308	21024
810.45	20998
810.591	20762
810.733	20735
810.875	20606
811.016	20533
811.158	20594
811.299	20727
811.441	20781
811.582	20769
811.724	20602
811.865	20579
812.007	20587
812.148	20594
812.29	20769
812.431	20773
812.573	20880
812.714	21013
812.855	21142
812.997	21211
813.138	21252
813.279	21173
813.421	21085
813.562	21127
813.703	20864
813.845	20762
813.986	20507
814.127	20343
814.268	20256
814.41	20237
814.551	20164
814.692	20206
814.833	20191
814.974	20176
815.115	20214
815.256	20020
815.397	20073
815.539	19940
815.68	19814
815.821	19822
815.962	19807
816.103	19818
816.244	19677
816.385	19616
816.526	19510
816.666	19457
816.807	19293
816.948	19369
817.089	19453
817.23	19289
817.371	19278
817.512	19289
817.653	19331
817.793	19206
817.934	19247
818.075	19255
818.216	19259
818.356	19324
818.497	19103
818.638	18905
818.778	18878
818.919	19072
819.06	18954
819.2	19042
819.341	19194
819.481	19069
819.622	19213
819.762	19487
819.903	19411
820.043	19316
820.184	19255
820.324	19209
820.465	19297
820.605	19270
820.746	19247
820.886	19141
821.026	19263
821.167	19263
821.307	19331
821.447	19129
821.588	19084
821.728	18852
821.868	18875
822.008	18738
822.149	18684
822.289	18665
822.429	18350
822.569	18426
822.709	18441
822.849	18140
822.99	18106
823.13	18102
823.27	18148
823.41	18034
823.55	17977
823.69	17996
823.83	17897
823.97	17916
824.11	17695
824.25	17577
824.389	17741
824.529	17783
824.669	17707
824.809	17817
824.949	17760
825.089	17847
825.228	17722
825.368	17547
825.508	17543
825.648	17440
825.787	17528
825.927	17638
826.067	17486
826.206	17570
826.346	17551
826.485	17490
826.625	17577
826.765	17577
826.904	17516
827.044	17372
827.183	17273
827.323	17178
827.462	17235
827.601	17102
827.741	17105
827.88	17189
828.02	17079
828.159	17204
828.298	17197
828.437	17174
828.577	17159
828.716	17337
828.855	17128
828.994	17025
829.134	16930
829.273	17060
829.412	16911
829.551	16957
829.69	16927
829.829	16949
829.968	17014
830.107	16991
830.246	17014
830.385	16976
830.524	16824
830.663	16831
830.802	16736
830.941	16698
831.08	16611
831.219	16713
831.357	16660
831.496	16786
831.635	16675
831.774	16512
831.913	16508
832.051	16424
832.19	16322
832.329	16402
832.467	16287
832.606	16303
832.744	16204
832.883	16257
833.022	16284
833.16	16238
833.299	16261
833.437	16333
833.576	16306
833.714	16303
833.852	16394
833.991	16356
834.129	16466
834.267	16394
834.406	16367
834.544	16447
834.682	16352
834.821	16322
834.959	16531
835.097	16432
835.235	16409
835.373	16413
835.511	16405
835.65	16207
835.788	16158
835.926	16086
836.064	16071
836.202	16074
836.34	16207
836.478	16402
836.615	16284
836.753	16291
836.891	16382
837.029	16261
837.167	16200
837.305	16128
837.443	16128
837.58	16082
837.718	16207
837.856	16074
837.993	16158
838.131	16131
838.269	16086
838.406	16196
838.544	16090
838.681	16002
838.819	15899
838.956	15656
839.094	15652
839.231	15808
839.369	15869
839.506	16055
839.643	16017
839.781	15724
839.918	15610
840.055	15762
840.193	15599
840.33	15568
840.467	15656
840.604	15739
840.742	16010
840.879	15454
841.016	15504
841.153	15644
841.29	15831
841.427	15747
841.564	15720
841.701	15774
841.838	15743
841.975	15591
842.112	15648
842.249	15443
842.385	15492
842.522	15610
842.659	15534
842.796	15435
842.933	15443
843.069	15454
843.206	15450
843.343	15462
843.479	15553
843.616	15511
843.752	15260
843.889	15237
844.025	15283
844.162	15241
844.298	15416
844.435	15260
844.571	15252
844.708	15378
844.844	15332
844.98	15359
845.117	15408
845.253	15279
845.389	15176
845.525	15287
845.661	15116
845.798	15055
845.934	15169
846.07	15089
846.206	15173
846.342	15066
846.478	15009
846.614	14960
846.75	14815
846.886	14834
847.022	14963
847.158	14762
847.294	14872
847.429	14857
847.565	14758
847.701	15066
847.837	14579
847.972	14560
848.108	14629
848.244	14655
848.379	14526
848.515	14366
848.65	14484
848.786	14473
848.921	14461
849.057	14606
849.192	14568
849.328	14431
849.463	14537
849.598	14442
849.734	14389
849.869	14328
850.004	14275
850.14	14301
850.275	14180
850.41	14107
850.545	14210
850.68	14259
850.815	14229
850.95	14324
851.085	14404
851.22	14309
851.355	14305
851.49	14271
851.625	14187
851.76	14210
851.895	14142
852.03	14142
852.165	14126
852.299	14263
852.434	14324
852.569	14271
852.703	14263
852.838	14282
852.973	14427
853.107	14301
853.242	14191
853.376	13989
853.511	14020
853.645	14069
853.78	14202
853.914	14123
854.048	14123
854.183	14035
854.317	14214
854.451	14259
854.585	14020
854.72	14183
854.854	14210
854.988	14001
855.122	14054
855.256	14024
855.39	14008
855.524	14191
855.658	14218
855.792	14123
855.926	14046
856.06	14103
856.194	14218
856.327	14065
856.461	14050
856.595	13963
856.729	14103
856.862	14240
856.996	14123
857.13	14221
857.263	14153
857.397	14290
857.53	14001
857.664	14134
857.797	14237
857.931	14218
858.064	14119
858.197	14153
858.331	14062
858.464	14111
858.597	14001
858.731	14005
858.864	14058
858.997	14039
859.13	14050
859.263	14202
859.396	14210
859.529	14153
859.662	14088
859.795	14088
859.928	14046
860.061	14286
860.194	14229
860.327	14191
860.46	14054
860.592	14191
860.725	14252
860.858	14172
860.99	14092
861.123	13993
861.256	13978
861.388	14119
861.521	14918
861.653	13959
861.786	13989
861.918	14001
862.05	13917
862.183	14035
862.315	14050
862.447	14058
862.58	14058
862.712	13921
862.844	13902
862.976	13997
863.108	13959
863.24	14263
863.372	13788
863.504	13902
863.636	13974
863.768	13928
863.9	13913
864.032	13875
864.164	13830
864.296	13856
864.428	13917
864.559	14005
864.691	13967
864.823	13906
864.954	13982
865.086	13841
865.217	13902
865.349	13761
865.48	13887
865.612	13871
865.743	14012
865.875	13921
866.006	13890
866.137	13852
866.269	13795
866.4	13799
866.531	13769
866.662	13890
866.793	13742
866.924	13795
867.055	13928
867.186	13875
867.317	13890
867.448	13795
867.579	13757
867.71	13807
867.841	13746
867.972	13803
868.103	13826
868.233	13906
868.364	13909
868.495	13932
868.625	14050
868.756	14218
868.886	14008
869.017	14123
869.147	14305
869.278	14172
869.408	14119
869.539	14054
869.669	14237
869.799	14187
869.929	14275
870.06	14237
870.19	14408
870.32	14374
870.45	14396
870.58	14541
870.71	14670
870.84	14602
870.97	14541
871.1	14564
871.23	14651
871.36	14663
871.489	14636
871.619	14701
871.749	14716
871.879	14708
872.008	14792
872.138	14727
872.267	14712
872.397	14663
872.526	14476
872.656	14545
872.785	14598
872.915	14708
873.044	14857
873.173	14777
873.303	14701
873.432	14800
873.561	14819
873.69	14807
873.819	14773
873.948	14857
874.077	14739
874.206	14765
874.335	14804
874.464	14941
874.593	15127
874.722	14986
874.851	15074
874.979	15142
875.108	15150
875.237	15062
875.365	14948
875.494	15005
875.623	15142
875.751	15039
875.88	15176
876.008	15214
876.136	15264
876.265	15507
876.393	15709
876.521	15641
876.65	15564
876.778	15603
876.906	15561
877.034	15439
877.162	15485
877.29	15378
877.418	15500
877.546	15408
877.674	15473
877.802	15515
877.93	15610
878.058	15378
878.185	15420
878.313	15511
878.441	15435
878.568	15332
878.696	15424
878.824	15504
878.951	15584
879.079	15762
879.206	15819
879.333	15591
879.461	15519
879.588	15538
879.715	15686
879.842	15846
879.97	15603
880.097	15355
880.224	15260
880.351	15351
880.478	15382
880.605	15306
880.732	15329
880.859	15568
880.986	15443
881.112	15447
881.239	15237
881.366	15135
881.493	15077
881.619	15024
881.746	15001
881.872	14979
881.999	14979
882.125	14944
882.252	15005
882.378	14971
882.505	15161
882.631	14963
882.757	14876
882.883	14910
883.01	14800
883.136	14773
883.262	14735
883.388	14678
883.514	14807
883.64	14887
883.766	14682
883.892	14602
884.018	14610
884.143	14819
884.269	14941
884.395	14613
884.52	14530
884.646	14514
884.772	14492
884.897	14454
885.023	14625
885.148	14583
885.274	14651
885.399	14598
885.524	14552
885.65	14579
885.775	14670
885.9	14469
886.025	14701
886.15	14617
886.275	14454
886.4	14385
886.525	14545
886.65	14461
886.775	14461
886.9	14632
887.025	14735
887.149	14564
887.274	14336
887.399	14362
887.523	14301
887.648	14301
887.773	14256
887.897	14377
888.021	14438
888.146	14358
888.27	14415
888.395	14564
888.519	14412
888.643	14396
888.767	14389
888.891	14271
889.015	14263
889.139	14240
889.263	14199
889.387	14355
889.511	14404
889.635	14339
889.759	14332
889.883	14145
890.006	14256
890.13	14366
890.254	14233
890.377	14103
890.501	14031
890.624	14054
890.748	14107
890.871	13970
890.995	13925
891.118	13761
891.241	14016
891.364	13909
891.488	14077
891.611	13883
891.734	13909
891.857	13951
891.98	13997
892.103	14016
892.226	13947
892.349	13826
892.471	13670
892.594	13871
892.717	13932
892.839	13875
892.962	14024
893.085	13944
893.207	13951
893.33	13871
893.452	13898
893.575	14024
893.697	13932
893.819	14115
893.941	14202
894.064	14062
894.186	13902
894.308	13963
894.43	13989
894.552	14153
894.674	14145
894.796	13970
894.918	14016
895.04	14012
895.161	14062
895.283	14035
895.405	13955
895.526	13947
895.648	14024
895.769	14050
895.891	14103
896.012	14138
896.134	14126
896.255	14100
896.376	14062
896.498	14126
896.619	14161
896.74	14145
896.861	14244
896.982	14469
897.103	14693
897.224	14374
897.345	14404
897.466	14328
897.587	14377
897.708	14476
897.828	14465
897.949	14404
898.07	14214
898.19	14347
898.311	14492
898.431	14328
898.552	14476
898.672	14476
898.792	14564
898.913	14602
899.033	14450
899.153	14343
899.273	14263
899.393	14259
899.513	14290
899.633	14278
899.753	14355
899.873	14229
899.993	14442
900.113	14336
900.232	14381
900.352	14381
900.472	14286
900.591	14107
900.711	14187
900.83	14138
900.95	14374
901.069	14248
901.189	14088
901.308	13947
901.427	13849
901.546	13856
901.665	13887
901.784	13894
901.904	13731
902.023	13616
902.141	13525
902.26	13476
902.379	13449
902.498	13457
902.617	13388
902.735	13445
902.854	13419
902.973	13411
903.091	13187
903.21	13080
903.328	13225
903.446	13137
903.565	13046
903.683	13053
903.801	12989
903.919	13042
904.038	12943
904.156	12840
904.274	12890
904.392	12821
904.51	12810
904.627	12814
904.745	12958
904.863	12909
904.981	12627
905.098	12441
905.216	12513
905.334	12585
905.451	12517
905.569	12464
905.686	12593
905.803	12570
905.921	12361
906.038	12445
906.155	12376
906.272	12289
906.389	12224
906.506	12186
906.623	12171
906.74	12163
906.857	12095
906.974	12030
907.091	12186
907.208	12133
907.324	12163
907.441	12030
907.557	11840
907.674	11817
907.79	11840
907.907	11786
908.023	11843
908.139	11847
908.256	11779
908.372	11764
908.488	11836
908.604	11619
908.72	11630
908.836	11608
908.952	11627
909.068	11627
909.184	11771
909.3	11573
909.415	11726
909.531	11657
909.647	11376
909.762	11376
909.878	11326
909.993	11379
910.108	11395
910.224	11364
910.339	11391
910.454	11235
910.57	11204
910.685	11181
910.8	11486
910.915	11379
911.03	11356
911.145	11098
911.259	11086
911.374	11041
911.489	11010
911.604	10961
911.718	10904
911.833	10854
911.947	10733
912.062	10729
912.176	10824
912.291	10866
912.405	10877
912.519	11014
912.633	11056
912.748	10927
912.862	10793
912.976	10729
913.09	10558
913.204	10668
913.318	10828
913.431	10831
913.545	10862
913.659	10816
913.772	10752
913.886	10622
914	10565
914.113	10752
914.226	10801
914.34	10717
914.453	10504
914.566	10702
914.68	10580
914.793	10649
914.906	10329
915.019	10352
915.132	10337
915.245	10348
915.358	10371
915.47	10432
915.583	10402
915.696	10348
915.809	10523
915.921	10527
916.034	10371
916.146	10424
916.259	10268
916.371	10379
916.483	10363
916.595	10333
916.708	10253
916.82	10367
916.932	10287
917.044	10341
917.156	10303
917.268	10192
917.38	10158
917.491	10154
917.603	10219
917.715	10356
917.826	10325
917.938	10223
918.049	10067
918.161	10169
918.272	10280
918.384	10287
918.495	10200
918.606	10150
918.717	9960
918.828	10131
918.939	10131
919.05	9907
919.161	9960
919.272	9850
919.383	9987
919.494	10139
919.604	10402
919.715	10154
919.826	10071
919.936	9979
920.047	10215
920.157	10082
920.267	10295
920.378	10101
920.488	10067
920.598	10242
920.708	10542
920.818	10253
920.928	10227
921.038	10478
921.148	10428
921.258	10143
921.368	10036
921.477	10013
921.587	10002
921.697	9884
921.806	10013
921.916	9968
922.025	9717
922.134	9740
922.244	9675
922.353	9724
922.462	9553
922.571	9473
922.68	9401
922.789	9313
922.898	9317
923.007	9272
923.116	9420
923.224	9443
923.333	9367
923.442	9249
923.55	9214
923.659	9298
923.767	9317
923.876	9218
923.984	9310
924.092	9195
924.201	9253
924.309	9203
924.417	9249
924.525	9176
924.633	9165
924.741	10006
924.849	8994
924.956	9245
925.064	9001
925.172	8982
925.279	8982
925.387	9085
925.494	9028
925.602	9184
925.709	9047
925.816	8975
925.924	9055
926.031	9135
926.138	8975
926.245	9039
926.352	9001
926.459	9089
926.566	9081
926.673	9013
926.779	8925
926.886	8944
926.993	8716
927.099	8731
927.206	8663
927.312	8739
927.419	8766
927.525	8731
927.631	8743
927.737	8727
927.843	8636
927.95	8465
928.056	8613
928.162	8655
928.267	8651
928.373	9154
928.479	8750
928.585	8476
928.69	8636
928.796	8663
928.901	8549
929.007	8461
929.112	8503
929.218	8495
929.323	8454
929.428	8454
929.533	8617
929.638	8396
929.743	8438
929.848	8503
929.953	8450
930.058	8294
930.163	8248
930.267	8195
930.372	8355
930.477	8157
930.581	8454
930.685	8332
930.79	8153
930.894	8172
930.998	8180
931.103	8252
931.207	7967
931.311	7909
931.415	7875
931.519	7719
931.623	7639
