Data from test_V78500241_3236.txt Node
Date: Fri Mar 25 14:56:14 CST 2022
User: usil
Spectrometer: V785-0024
Trigger mode: 0
Integration Time (sec): 4.000000E-1
Scans to average: 1
Nonlinearity correction enabled: false
Boxcar width: 0
Storing dark spectrum: false
XAxis mode: Wavelengths
Number of Pixels in Spectrum: 1024
>>>>>Begin Spectral Data<<<<<
801.071	21915
801.214	21857
801.356	21717
801.499	21618
801.641	21481
801.783	21412
801.926	21291
802.068	21332
802.211	21355
802.353	21127
802.496	20872
802.638	20800
802.78	20750
802.923	20636
803.065	20571
803.208	20746
803.35	20712
803.492	20777
803.635	20883
803.777	20579
803.919	20746
804.061	21005
804.204	20834
804.346	20594
804.488	20545
804.63	20545
804.773	20583
804.915	20693
805.057	20682
805.199	20613
805.341	20743
805.483	20697
805.626	20678
805.768	20575
805.91	20659
806.052	20625
806.194	20514
806.336	20693
806.478	20495
806.62	20549
806.762	20552
806.904	20758
807.046	21051
807.188	20918
807.33	20990
807.472	20960
807.614	20880
807.756	20883
807.898	20590
808.04	20648
808.182	20568
808.324	20556
808.465	20648
808.607	20902
808.749	20906
808.891	20944
809.033	21100
809.174	21096
809.316	20887
809.458	20971
809.6	20937
809.741	20956
809.883	21081
810.025	21074
810.166	21138
810.308	21093
810.45	21055
810.591	20967
810.733	20792
810.875	20800
811.016	20670
811.158	20739
811.299	20811
811.441	20929
811.582	20883
811.724	20792
811.865	20678
812.007	20754
812.148	20724
812.29	20769
812.431	20906
812.573	20979
812.714	21093
812.855	21199
812.997	21416
813.138	21416
813.279	21302
813.421	21348
813.562	21062
813.703	21020
813.845	20769
813.986	20533
814.127	20317
814.268	20370
814.41	20267
814.551	20214
814.692	20336
814.833	20290
814.974	20229
815.115	20267
815.256	20092
815.397	20081
815.539	19993
815.68	20016
815.821	20062
815.962	20111
816.103	20027
816.244	19852
816.385	19818
816.526	19601
816.666	19571
816.807	19441
816.948	19483
817.089	19521
817.23	19499
817.371	19274
817.512	19460
817.653	19453
817.793	19324
817.934	19343
818.075	19510
818.216	19400
818.356	19422
818.497	19228
818.638	19023
818.778	19038
818.919	19110
819.06	19103
819.2	19171
819.341	19244
819.481	19335
819.622	19407
819.762	19571
819.903	19419
820.043	19327
820.184	19354
820.324	19327
820.465	19327
820.605	19377
820.746	19354
820.886	19217
821.026	19327
821.167	19297
821.307	19403
821.447	19293
821.588	19301
821.728	18970
821.868	18875
822.008	18840
822.149	18734
822.289	18722
822.429	18601
822.569	18429
822.709	18517
822.849	18300
822.99	18174
823.13	18076
823.27	18216
823.41	18091
823.55	18041
823.69	18011
823.83	18068
823.97	17904
824.11	17756
824.25	17874
824.389	17779
824.529	17965
824.669	17821
824.809	17942
824.949	17916
825.089	17847
825.228	17859
825.368	17653
825.508	17627
825.648	17718
825.787	17718
825.927	17726
826.067	17558
826.206	17535
826.346	17646
826.485	17665
826.625	17634
826.765	17707
826.904	17703
827.044	17341
827.183	17448
827.323	17269
827.462	17429
827.601	17280
827.741	17212
827.88	17356
828.02	17258
828.159	17227
828.298	17315
828.437	17417
828.577	17189
828.716	17524
828.855	17250
828.994	17102
829.134	17071
829.273	17086
829.412	17060
829.551	16968
829.69	17083
829.829	17067
829.968	17258
830.107	17143
830.246	17193
830.385	17010
830.524	17041
830.663	16927
830.802	16809
830.941	16767
831.08	16637
831.219	16759
831.357	16736
831.496	16889
831.635	16637
831.774	16679
831.913	16512
832.051	16455
832.19	16478
832.329	16561
832.467	16443
832.606	16295
832.744	16234
832.883	16348
833.022	16348
833.16	16405
833.299	16421
833.437	16352
833.576	16462
833.714	16443
833.852	16462
833.991	16500
834.129	16611
834.267	16523
834.406	16421
834.544	16386
834.682	16497
834.821	16436
834.959	16523
835.097	16440
835.235	16580
835.373	16607
835.511	16470
835.65	16462
835.788	16261
835.926	16226
836.064	16128
836.202	16131
836.34	16443
836.478	16432
836.615	16276
836.753	16379
836.891	16424
837.029	16360
837.167	16246
837.305	16211
837.443	16337
837.58	16181
837.718	16257
837.856	16325
837.993	16207
838.131	16162
838.269	16181
838.406	16154
838.544	16188
838.681	15846
838.819	15941
838.956	15778
839.094	15682
839.231	15888
839.369	15926
839.506	16116
839.643	16051
839.781	15736
839.918	15622
840.055	15831
840.193	15713
840.33	15747
840.467	15838
840.604	15778
840.742	15991
840.879	15641
841.016	15686
841.153	15686
841.29	15953
841.427	15789
841.564	15812
841.701	15755
841.838	15739
841.975	15713
842.112	15732
842.249	15584
842.385	15625
842.522	15667
842.659	15633
842.796	15523
842.933	15568
843.069	15641
843.206	15424
843.343	15542
843.479	15580
843.616	15614
843.752	15367
843.889	15332
844.025	15340
844.162	15306
844.298	15412
844.435	15249
844.571	15260
844.708	15370
844.844	15477
844.98	15469
845.117	15382
845.253	15226
845.389	15180
845.525	15321
845.661	15218
845.798	15161
845.934	15188
846.07	15081
846.206	15207
846.342	15272
846.478	15176
846.614	15036
846.75	14937
846.886	14906
847.022	14979
847.158	14914
847.294	14800
847.429	14937
847.565	14925
847.701	15116
847.837	14712
847.972	14617
848.108	14834
848.244	14724
848.379	14522
848.515	14495
848.65	14469
848.786	14499
848.921	14495
849.057	14598
849.192	14613
849.328	14511
849.463	14568
849.598	14518
849.734	14454
849.869	14362
850.004	14259
850.14	14317
850.275	14370
850.41	14157
850.545	14358
850.68	14309
850.815	14328
850.95	14305
851.085	14343
851.22	14343
851.355	14301
851.49	14290
851.625	14301
851.76	14252
851.895	14233
852.03	14191
852.165	14309
852.299	14309
852.434	14389
852.569	14355
852.703	14286
852.838	14267
852.973	14389
853.107	14317
853.242	14183
853.376	14210
853.511	14046
853.645	14134
853.78	14191
853.914	14176
854.048	14187
854.183	14161
854.317	14168
854.451	14256
854.585	14088
854.72	14119
854.854	14138
854.988	14107
855.122	14199
855.256	14062
855.39	14183
855.524	14168
855.658	14183
855.792	14119
855.926	14214
856.06	14278
856.194	14336
856.327	14180
856.461	14039
856.595	14073
856.729	14123
856.862	14282
856.996	14244
857.13	14240
857.263	14271
857.397	14248
857.53	14157
857.664	14149
857.797	14282
857.931	14172
858.064	14244
858.197	14164
858.331	14103
858.464	14168
858.597	14031
858.731	14168
858.864	14199
858.997	13982
859.13	14138
859.263	14123
859.396	14191
859.529	14096
859.662	14153
859.795	14149
859.928	14221
860.061	14324
860.194	14252
860.327	14199
860.46	14115
860.592	14142
860.725	14286
860.858	14229
860.99	14195
861.123	14130
861.256	14100
861.388	14191
861.521	14857
861.653	14043
861.786	14058
861.918	14008
862.05	14050
862.183	14134
862.315	14050
862.447	14199
862.58	14157
862.712	13967
862.844	13944
862.976	14005
863.108	14069
863.24	14404
863.372	13959
863.504	13913
863.636	13864
863.768	13959
863.9	13921
864.032	13936
864.164	13845
864.296	13997
864.428	14058
864.559	14043
864.691	14005
864.823	14012
864.954	13982
865.086	13959
865.217	13898
865.349	13940
865.48	14062
865.612	13947
865.743	14145
865.875	13917
866.006	13860
866.137	13917
866.269	13841
866.4	13890
866.531	13860
866.662	13784
866.793	13974
866.924	13887
867.055	13932
867.186	13955
867.317	13917
867.448	13715
867.579	13830
867.71	13864
867.841	13898
867.972	13936
868.103	13932
868.233	13871
868.364	13967
868.495	13997
868.625	14176
868.756	14286
868.886	14084
869.017	14115
869.147	14248
869.278	14244
869.408	14164
869.539	14168
869.669	14180
869.799	14123
869.929	14393
870.06	14263
870.19	14488
870.32	14545
870.45	14492
870.58	14594
870.71	14705
870.84	14663
870.97	14537
871.1	14632
871.23	14796
871.36	14689
871.489	14682
871.619	14651
871.749	14826
871.879	14826
872.008	14868
872.138	14773
872.267	14762
872.397	14587
872.526	14522
872.656	14655
872.785	14579
872.915	14823
873.044	14872
873.173	14849
873.303	14834
873.432	14834
873.561	14975
873.69	14880
873.819	14823
873.948	14944
874.077	14910
874.206	14777
874.335	14887
874.464	14914
874.593	15142
874.722	14952
874.851	15211
874.979	15245
875.108	15119
875.237	15093
875.365	14963
875.494	15036
875.623	15268
875.751	15097
875.88	15241
876.008	15321
876.136	15359
876.265	15519
876.393	15717
876.521	15720
876.65	15728
876.778	15500
876.906	15469
877.034	15469
877.162	15416
877.29	15504
877.418	15614
877.546	15485
877.674	15572
877.802	15523
877.93	15580
878.058	15515
878.185	15500
878.313	15496
878.441	15660
878.568	15344
878.696	15572
878.824	15587
878.951	15644
879.079	15717
879.206	15880
879.333	15663
879.461	15591
879.588	15770
879.715	15694
879.842	15861
879.97	15603
880.097	15481
880.224	15450
880.351	15458
880.478	15405
880.605	15313
880.732	15416
880.859	15603
880.986	15454
881.112	15439
881.239	15214
881.366	15195
881.493	14982
881.619	15013
881.746	15028
881.872	15104
881.999	15009
882.125	15028
882.252	15070
882.378	14971
882.505	15252
882.631	15036
882.757	14941
882.883	14918
883.01	14838
883.136	14826
883.262	14674
883.388	14731
883.514	14880
883.64	14899
883.766	14845
883.892	14762
884.018	14788
884.143	14876
884.269	14963
884.395	14659
884.52	14552
884.646	14602
884.772	14522
884.897	14408
885.023	14621
885.148	14735
885.274	14796
885.399	14758
885.524	14587
885.65	14670
885.775	14621
885.9	14571
886.025	14861
886.15	14629
886.275	14564
886.4	14492
886.525	14613
886.65	14492
886.775	14602
886.9	14689
887.025	14754
887.149	14556
887.274	14446
887.399	14366
887.523	14488
887.648	14396
887.773	14366
887.897	14541
888.021	14431
888.146	14336
888.27	14571
888.395	14594
888.519	14545
888.643	14465
888.767	14571
888.891	14450
889.015	14221
889.139	14298
889.263	14332
889.387	14412
889.511	14412
889.635	14412
889.759	14256
889.883	14332
890.006	14385
890.13	14320
890.254	14248
890.377	14286
890.501	14130
890.624	13993
890.748	14218
890.871	14046
890.995	14027
891.118	13906
891.241	13940
891.364	14020
891.488	14046
891.611	13997
891.734	13978
891.857	14012
891.98	14005
892.103	14073
892.226	14050
892.349	13967
892.471	13890
892.594	13909
892.717	13894
892.839	13997
892.962	13959
893.085	14111
893.207	14005
893.33	13856
893.452	13894
893.575	14054
893.697	14073
893.819	14119
893.941	14191
894.064	14145
894.186	13955
894.308	14016
894.43	14142
894.552	14294
894.674	14191
894.796	13986
894.918	14024
895.04	14092
895.161	14096
895.283	14100
895.405	14073
895.526	13993
895.648	14100
895.769	14172
895.891	14115
896.012	14298
896.134	14149
896.255	14142
896.376	14115
896.498	14153
896.619	14225
896.74	14210
896.861	14298
896.982	14514
897.103	14693
897.224	14564
897.345	14434
897.466	14389
897.587	14351
897.708	14549
897.828	14495
897.949	14408
898.07	14370
898.19	14423
898.311	14514
898.431	14514
898.552	14434
898.672	14697
898.792	14568
898.913	14579
899.033	14511
899.153	14370
899.273	14320
899.393	14347
899.513	14358
899.633	14393
899.753	14355
899.873	14305
899.993	14400
900.113	14393
900.232	14366
900.352	14396
900.472	14275
900.591	14202
900.711	14256
900.83	14286
900.95	14332
901.069	14301
901.189	14123
901.308	13928
901.427	13917
901.546	13841
901.665	13978
901.784	13906
901.904	13746
902.023	13670
902.141	13464
902.26	13510
902.379	13643
902.498	13415
902.617	13415
902.735	13548
902.854	13537
902.973	13472
903.091	13301
903.21	13232
903.328	13232
903.446	13194
903.565	13023
903.683	13126
903.801	12928
903.919	12981
904.038	13072
904.156	12913
904.274	12989
904.392	12932
904.51	12817
904.627	12806
904.745	12924
904.863	13000
904.981	12684
905.098	12544
905.216	12517
905.334	12551
905.451	12536
905.569	12521
905.686	12604
905.803	12490
905.921	12429
906.038	12506
906.155	12391
906.272	12277
906.389	12319
906.506	12098
906.623	12186
906.74	12095
906.857	12076
906.974	12140
907.091	12171
907.208	12251
907.324	12178
907.441	12136
907.557	11916
907.674	11893
907.79	11821
907.907	11916
908.023	11950
908.139	11874
908.256	11882
908.372	11893
908.488	11813
908.604	11676
908.72	11657
908.836	11699
908.952	11585
909.068	11699
909.184	11821
909.3	11649
909.415	11699
909.531	11646
909.647	11444
909.762	11440
909.878	11455
909.993	11425
910.108	11467
910.224	11395
910.339	11474
910.454	11315
910.57	11280
910.685	11334
910.8	11589
910.915	11433
911.03	11307
911.145	11098
911.259	11185
911.374	11166
911.489	11181
911.604	10987
911.718	10843
911.833	10877
911.947	10797
912.062	10714
912.176	10866
912.291	10873
912.405	10972
912.519	11064
912.633	11041
912.748	10904
912.862	10938
912.976	10759
913.09	10679
913.204	10706
913.318	10790
913.431	10881
913.545	10877
913.659	10896
913.772	10843
913.886	10622
914	10664
914.113	10812
914.226	10801
914.34	10733
914.453	10558
914.566	10641
914.68	10710
914.793	10611
914.906	10519
915.019	10337
915.132	10379
915.245	10424
915.358	10447
915.47	10318
915.583	10466
915.696	10481
915.809	10542
915.921	10497
916.034	10382
916.146	10382
916.259	10287
916.371	10421
916.483	10413
916.595	10318
916.708	10356
916.82	10371
916.932	10314
917.044	10306
917.156	10268
917.268	10284
917.38	10253
917.491	10147
917.603	10344
917.715	10280
917.826	10402
917.938	10230
918.049	10093
918.161	10253
918.272	10329
918.384	10325
918.495	10196
918.606	10128
918.717	10086
918.828	10059
918.939	10097
919.05	10063
919.161	10059
919.272	9895
919.383	9975
919.494	10223
919.604	10284
919.715	10261
919.826	10040
919.936	10109
920.047	10257
920.157	10135
920.267	10375
920.378	10207
920.488	10211
920.598	10409
920.708	10523
920.818	10363
920.928	10344
921.038	10440
921.148	10417
921.258	10158
921.368	10071
921.477	9998
921.587	10025
921.697	9873
921.806	10071
921.916	9998
922.025	9724
922.134	9774
922.244	9614
922.353	9698
922.462	9641
922.571	9572
922.68	9408
922.789	9359
922.898	9405
923.007	9386
923.116	9431
923.224	9367
923.333	9412
923.442	9264
923.55	9313
923.659	9348
923.767	9321
923.876	9272
923.984	9336
924.092	9294
924.201	9268
924.309	9325
924.417	9378
924.525	9230
924.633	9214
924.741	10169
924.849	9036
924.956	9184
925.064	9017
925.172	8994
925.279	9013
925.387	9039
925.494	9055
925.602	9135
925.709	9161
925.816	8979
925.924	9070
926.031	9119
926.138	9127
926.245	9085
926.352	8998
926.459	9135
926.566	9138
926.673	9070
926.779	8906
926.886	8944
926.993	8750
927.099	8758
927.206	8678
927.312	8773
927.419	8796
927.525	8754
927.631	8796
927.737	8720
927.843	8678
927.95	8522
928.056	8674
928.162	8602
928.267	8712
928.373	9180
928.479	8750
928.585	8541
928.69	8610
928.796	8686
928.901	8610
929.007	8446
929.112	8689
929.218	8530
929.323	8503
929.428	8473
929.533	8682
929.638	8408
929.743	8355
929.848	8469
929.953	8465
930.058	8320
930.163	8244
930.267	8267
930.372	8362
930.477	8271
930.581	8438
930.685	8305
930.79	8183
930.894	8267
930.998	8210
931.103	8347
931.207	7928
931.311	8024
931.415	7875
931.519	7734
931.623	7734
