Data from test_V78500241_1382.txt Node
Date: Fri Mar 25 14:43:20 CST 2022
User: usil
Spectrometer: V785-0024
Trigger mode: 0
Integration Time (sec): 4.000000E-1
Scans to average: 1
Nonlinearity correction enabled: false
Boxcar width: 0
Storing dark spectrum: false
XAxis mode: Wavelengths
Number of Pixels in Spectrum: 1024
>>>>>Begin Spectral Data<<<<<
801.071	22470
801.214	22382
801.356	22112
801.499	21998
801.641	21884
801.783	21793
801.926	21724
802.068	21785
802.211	21652
802.353	21679
802.496	21351
802.638	21222
802.78	21199
802.923	21211
803.065	21119
803.208	21036
803.35	21116
803.492	21169
803.635	21192
803.777	21154
803.919	21214
804.061	21336
804.204	21154
804.346	21039
804.488	21051
804.63	20979
804.773	20967
804.915	20967
805.057	21211
805.199	21039
805.341	21165
805.483	21154
805.626	20998
805.768	20994
805.91	21104
806.052	21047
806.194	21001
806.336	21195
806.478	20994
806.62	21009
806.762	21081
806.904	21287
807.046	21408
807.188	21382
807.33	21272
807.472	21488
807.614	21283
807.756	21226
807.898	21256
808.04	21169
808.182	21249
808.324	21351
808.465	21317
808.607	21618
808.749	21701
808.891	21713
809.033	21895
809.174	21736
809.316	21736
809.458	21572
809.6	21534
809.741	21595
809.883	21519
810.025	21534
810.166	21576
810.308	21599
810.45	21568
810.591	21534
810.733	21340
810.875	21329
811.016	21195
811.158	20986
811.299	21325
811.441	21405
811.582	21378
811.724	21222
811.865	21165
812.007	21161
812.148	21268
812.29	21184
812.431	21370
812.573	21561
812.714	21663
812.855	21842
812.997	21911
813.138	21918
813.279	21854
813.421	21743
813.562	21675
813.703	21538
813.845	21431
813.986	20925
814.127	20864
814.268	20834
814.41	20826
814.551	20739
814.692	20864
814.833	20659
814.974	20609
815.115	20724
815.256	20587
815.397	20473
815.539	20697
815.68	20450
815.821	20377
815.962	20518
816.103	20499
816.244	20393
816.385	20328
816.526	20320
816.666	20195
816.807	19967
816.948	19967
817.089	20031
817.23	19982
817.371	19814
817.512	19841
817.653	19917
817.793	19795
817.934	19894
818.075	19902
818.216	19887
818.356	19803
818.497	19772
818.638	19552
818.778	19586
818.919	19651
819.06	19677
819.2	19731
819.341	19727
819.481	19734
819.622	19940
819.762	20206
819.903	20119
820.043	19955
820.184	19944
820.324	19746
820.465	19852
820.605	19898
820.746	19970
820.886	19780
821.026	19875
821.167	19928
821.307	19917
821.447	19925
821.588	19750
821.728	19533
821.868	19407
822.008	19400
822.149	19278
822.289	19274
822.429	19076
822.569	18954
822.709	19095
822.849	18844
822.99	18829
823.13	18817
823.27	18738
823.41	18559
823.55	18536
823.69	18563
823.83	18559
823.97	18536
824.11	18384
824.25	18384
824.389	18353
824.529	18418
824.669	18445
824.809	18380
824.949	18384
825.089	18380
825.228	18350
825.368	18239
825.508	18155
825.648	18277
825.787	18232
825.927	18289
826.067	18076
826.206	18117
826.346	18277
826.485	18186
826.625	18197
826.765	18174
826.904	18213
827.044	17923
827.183	17897
827.323	17893
827.462	17946
827.601	17950
827.741	17733
827.88	17908
828.02	17821
828.159	17764
828.298	17885
828.437	17859
828.577	17745
828.716	17885
828.855	17737
828.994	17604
829.134	17585
829.273	17539
829.412	17649
829.551	17493
829.69	17691
829.829	17558
829.968	17699
830.107	17570
830.246	17649
830.385	17562
830.524	17467
830.663	17448
830.802	17395
830.941	17433
831.08	17227
831.219	17250
831.357	17341
831.496	17364
831.635	17212
831.774	17155
831.913	17003
832.051	17014
832.19	16938
832.329	17105
832.467	16854
832.606	16892
832.744	16987
832.883	16889
833.022	16915
833.16	17052
833.299	16930
833.437	16957
833.576	16927
833.714	17056
833.852	16911
833.991	16961
834.129	16930
834.267	16961
834.406	16980
834.544	17010
834.682	17010
834.821	16968
834.959	17136
835.097	16995
835.235	17136
835.373	16949
835.511	16946
835.65	16843
835.788	16824
835.926	16664
836.064	16611
836.202	16691
836.34	16801
836.478	16938
836.615	16923
836.753	16930
836.891	16892
837.029	16873
837.167	16847
837.305	16763
837.443	16717
837.58	16744
837.718	16778
837.856	16725
837.993	16645
838.131	16706
838.269	16512
838.406	16637
838.544	16596
838.681	16447
838.819	16432
838.956	16276
839.094	16291
839.231	16329
839.369	16470
839.506	16596
839.643	16550
839.781	16303
839.918	16215
840.055	16348
840.193	16356
840.33	16242
840.467	16329
840.604	16276
840.742	16546
840.879	16204
841.016	16147
841.153	16158
841.29	16348
841.427	16314
841.564	16367
841.701	16280
841.838	16177
841.975	16207
842.112	16166
842.249	16101
842.385	16021
842.522	16226
842.659	16010
842.796	15945
842.933	16010
843.069	16002
843.206	15994
843.343	16128
843.479	16067
843.616	16169
843.752	15960
843.889	15869
844.025	15918
844.162	15762
844.298	15975
844.435	15793
844.571	15838
844.708	15911
844.844	15953
844.98	15964
845.117	15987
845.253	15713
845.389	15755
845.525	15827
845.661	15899
845.798	15835
845.934	15949
846.07	15949
846.206	16048
846.342	15945
846.478	15781
846.614	15584
846.75	15466
846.886	15332
847.022	15454
847.158	15389
847.294	15397
847.429	15325
847.565	15321
847.701	15660
847.837	15020
847.972	15097
848.108	15241
848.244	15207
848.379	15055
848.515	15043
848.65	15013
848.786	15047
848.921	15051
849.057	15032
849.192	15100
849.328	15157
849.463	15066
849.598	14998
849.734	14918
849.869	14902
850.004	14830
850.14	14800
850.275	14838
850.41	14667
850.545	14701
850.68	14674
850.815	14792
850.95	14765
851.085	14906
851.22	14883
851.355	14655
851.49	14849
851.625	14636
851.76	14705
851.895	14606
852.03	14678
852.165	14697
852.299	14826
852.434	14754
852.569	14792
852.703	14746
852.838	14845
852.973	14918
853.107	14868
853.242	14663
853.376	14613
853.511	14503
853.645	14590
853.78	14712
853.914	14610
854.048	14648
854.183	14495
854.317	14670
854.451	14762
854.585	14651
854.72	14583
854.854	14655
854.988	14434
855.122	14549
855.256	14404
855.39	14587
855.524	14629
855.658	14648
855.792	14625
855.926	14644
856.06	14606
856.194	14678
856.327	14613
856.461	14598
856.595	14552
856.729	14518
856.862	14674
856.996	14606
857.13	14663
857.263	14769
857.397	14727
857.53	14590
857.664	14701
857.797	14754
857.931	14785
858.064	14689
858.197	14712
858.331	14701
858.464	14571
858.597	14602
858.731	14655
858.864	14693
858.997	14571
859.13	14629
859.263	14613
859.396	14686
859.529	14617
859.662	14575
859.795	14621
859.928	14655
860.061	14724
860.194	14788
860.327	14670
860.46	14701
860.592	14648
860.725	14701
860.858	14712
860.99	14606
861.123	14613
861.256	14575
861.388	14708
861.521	15416
861.653	14476
861.786	14495
861.918	14610
862.05	14465
862.183	14556
862.315	14667
862.447	14571
862.58	14461
862.712	14450
862.844	14286
862.976	14396
863.108	14412
863.24	14811
863.372	14305
863.504	14396
863.636	14362
863.768	14423
863.9	14454
864.032	14275
864.164	14317
864.296	14564
864.428	14442
864.559	14495
864.691	14503
864.823	14385
864.954	14351
865.086	14423
865.217	14385
865.349	14385
865.48	14355
865.612	14370
865.743	14575
865.875	14415
866.006	14377
866.137	14393
866.269	14343
866.4	14465
866.531	14305
866.662	14366
866.793	14332
866.924	14355
867.055	14419
867.186	14377
867.317	14324
867.448	14286
867.579	14336
867.71	14381
867.841	14343
867.972	14415
868.103	14408
868.233	14423
868.364	14454
868.495	14415
868.625	14648
868.756	14644
868.886	14454
869.017	14571
869.147	14712
869.278	14735
869.408	14594
869.539	14610
869.669	14758
869.799	14598
869.929	14708
870.06	14826
870.19	14982
870.32	14948
870.45	14891
870.58	15077
870.71	15089
870.84	15070
870.97	15024
871.1	15066
871.23	15192
871.36	15218
871.489	15036
871.619	15138
871.749	15230
871.879	15245
872.008	15283
872.138	15218
872.267	15173
872.397	15062
872.526	15119
872.656	15013
872.785	15062
872.915	15203
873.044	15302
873.173	15287
873.303	15348
873.432	15272
873.561	15386
873.69	15279
873.819	15313
873.948	15370
874.077	15317
874.206	15287
874.335	15321
874.464	15389
874.593	15542
874.722	15515
874.851	15542
874.979	15526
875.108	15641
875.237	15549
875.365	15450
875.494	15633
875.623	15686
875.751	15637
875.88	15701
876.008	15766
876.136	15759
876.265	16059
876.393	16067
876.521	16078
876.65	16021
876.778	15972
876.906	15994
877.034	15941
877.162	15994
877.29	15903
877.418	15975
877.546	15968
877.674	15960
877.802	16086
877.93	16059
878.058	15918
878.185	15823
878.313	16013
878.441	15998
878.568	15854
878.696	15876
878.824	16086
878.951	16158
879.079	16185
879.206	16402
879.333	16306
879.461	16188
879.588	16348
879.715	16322
879.842	16375
879.97	16177
880.097	15953
880.224	15915
880.351	15960
880.478	15915
880.605	15880
880.732	15854
880.859	16169
880.986	15915
881.112	15911
881.239	15800
881.366	15686
881.493	15610
881.619	15492
881.746	15576
881.872	15477
881.999	15454
882.125	15526
882.252	15648
882.378	15515
882.505	15591
882.631	15450
882.757	15348
882.883	15310
883.01	15344
883.136	15272
883.262	15287
883.388	15256
883.514	15389
883.64	15397
883.766	15268
883.892	15169
884.018	15211
884.143	15408
884.269	15466
884.395	15131
884.52	15112
884.646	15074
884.772	14891
884.897	14929
885.023	15085
885.148	15222
885.274	15146
885.399	15188
885.524	15013
885.65	15001
885.775	15112
885.9	15005
886.025	15260
886.15	15100
886.275	14998
886.4	14948
886.525	15093
886.65	14960
886.775	14941
886.9	15180
887.025	15233
887.149	15051
887.274	14849
887.399	14807
887.523	14765
887.648	14868
887.773	14765
887.897	14842
888.021	14956
888.146	14792
888.27	15020
888.395	14998
888.519	14902
888.643	14872
888.767	14933
888.891	14727
889.015	14670
889.139	14708
889.263	14712
889.387	14819
889.511	14887
889.635	14811
889.759	14708
889.883	14651
890.006	14765
890.13	14838
890.254	14663
890.377	14674
890.501	14438
890.624	14552
890.748	14537
890.871	14465
890.995	14389
891.118	14294
891.241	14431
891.364	14309
891.488	14522
891.611	14469
891.734	14400
891.857	14431
891.98	14465
892.103	14549
892.226	14484
892.349	14476
892.471	14290
892.594	14370
892.717	14454
892.839	14446
892.962	14355
893.085	14552
893.207	14374
893.33	14324
893.452	14244
893.575	14408
893.697	14282
893.819	14530
893.941	14465
894.064	14469
894.186	14362
894.308	14275
894.43	14541
894.552	14575
894.674	14480
894.796	14355
894.918	14446
895.04	14454
895.161	14499
895.283	14530
895.405	14347
895.526	14492
895.648	14484
895.769	14571
895.891	14514
896.012	14583
896.134	14571
896.255	14602
896.376	14568
896.498	14431
896.619	14674
896.74	14476
896.861	14670
896.982	14872
897.103	15070
897.224	14804
897.345	14781
897.466	14758
897.587	14842
897.708	14937
897.828	14937
897.949	14880
898.07	14701
898.19	14765
898.311	14906
898.431	14861
898.552	14823
898.672	15024
898.792	15032
898.913	14960
899.033	14754
899.153	14648
899.273	14610
899.393	14636
899.513	14735
899.633	14758
899.753	14716
899.873	14682
899.993	14815
900.113	14670
900.232	14716
900.352	14697
900.472	14594
900.591	14606
900.711	14705
900.83	14507
900.95	14693
901.069	14659
901.189	14575
901.308	14294
901.427	14221
901.546	14248
901.665	14332
901.784	14362
901.904	14142
902.023	14115
902.141	13868
902.26	13902
902.379	13852
902.498	13788
902.617	13727
902.735	13959
902.854	13807
902.973	13875
903.091	13578
903.21	13597
903.328	13556
903.446	13419
903.565	13358
903.683	13415
903.801	13392
903.919	13346
904.038	13400
904.156	13206
904.274	13350
904.392	13206
904.51	13225
904.627	13255
904.745	13232
904.863	13320
904.981	12943
905.098	12920
905.216	12939
905.334	13012
905.451	12814
905.569	12886
905.686	12913
905.803	12890
905.921	12696
906.038	12916
906.155	12616
906.272	12578
906.389	12631
906.506	12452
906.623	12498
906.74	12448
906.857	12380
906.974	12372
907.091	12578
907.208	12582
907.324	12517
907.441	12418
907.557	12277
907.674	12247
907.79	12190
907.907	12182
908.023	12232
908.139	12232
908.256	12239
908.372	12079
908.488	12186
908.604	12030
908.72	12038
908.836	11931
908.952	12003
909.068	12057
909.184	11980
909.3	11980
909.415	12003
909.531	12007
909.647	11726
909.762	11741
909.878	11714
909.993	11771
910.108	11783
910.224	11714
910.339	11775
910.454	11608
910.57	11661
910.685	11554
910.8	11847
910.915	11809
911.03	11551
911.145	11490
911.259	11459
911.374	11505
911.489	11356
911.604	11353
911.718	11216
911.833	11250
911.947	11189
912.062	11113
912.176	11185
912.291	11254
912.405	11212
912.519	11379
912.633	11467
912.748	11296
912.862	11227
912.976	11090
913.09	10987
913.204	11022
913.318	11064
913.431	11242
913.545	11166
913.659	11231
913.772	11090
913.886	10984
914	11037
914.113	10930
914.226	11071
914.34	11010
914.453	10987
914.566	11071
914.68	10892
914.793	10866
914.906	10672
915.019	10656
915.132	10599
915.245	10634
915.358	10694
915.47	10664
915.583	10809
915.696	10740
915.809	10889
915.921	10866
916.034	10679
916.146	10641
916.259	10672
916.371	10694
916.483	10752
916.595	10675
916.708	10599
916.82	10656
916.932	10538
917.044	10634
917.156	10569
917.268	10489
917.38	10554
917.491	10409
917.603	10561
917.715	10580
917.826	10531
917.938	10500
918.049	10390
918.161	10550
918.272	10622
918.384	10698
918.495	10443
918.606	10386
918.717	10337
918.828	10390
918.939	10428
919.05	10375
919.161	10344
919.272	10253
919.383	10230
919.494	10470
919.604	10577
919.715	10478
919.826	10306
919.936	10337
920.047	10481
920.157	10455
920.267	10622
920.378	10527
920.488	10402
920.598	10626
920.708	10729
920.818	10611
920.928	10554
921.038	10755
921.148	10714
921.258	10402
921.368	10306
921.477	10303
921.587	10253
921.697	10162
921.806	10295
921.916	10185
922.025	9983
922.134	9983
922.244	9869
922.353	10010
922.462	9926
922.571	9835
922.68	9682
922.789	9610
922.898	9740
923.007	9587
923.116	9732
923.224	9682
923.333	9618
923.442	9519
923.55	9523
923.659	9553
923.767	9622
923.876	9557
923.984	9618
924.092	9466
924.201	9606
924.309	9534
924.417	9545
924.525	9462
924.633	9420
924.741	10379
924.849	9241
924.956	9424
925.064	9302
925.172	9245
925.279	9268
925.387	9344
925.494	9237
925.602	9428
925.709	9378
925.816	9249
925.924	9325
926.031	9321
926.138	9374
926.245	9370
926.352	9184
926.459	9374
926.566	9389
926.673	9329
926.779	9070
926.886	9154
926.993	9081
927.099	9024
927.206	8937
927.312	8948
927.419	9032
927.525	8979
927.631	9058
927.737	8933
927.843	8925
927.95	8750
928.056	8960
928.162	8914
928.267	8941
928.373	9458
928.479	9024
928.585	8701
928.69	8944
928.796	8956
928.901	8807
929.007	8640
929.112	8800
929.218	8785
929.323	8766
929.428	8792
929.533	8830
929.638	8636
929.743	8659
929.848	8785
929.953	8750
930.058	8606
930.163	8541
930.267	8526
930.372	8648
930.477	8461
930.581	8705
930.685	8499
930.79	8389
930.894	8488
930.998	8431
931.103	8522
931.207	8298
931.311	8111
931.415	8062
931.519	7909
931.623	7906
