Data from test_V78500241_268.txt Node
Date: Fri Mar 25 14:35:35 CST 2022
User: usil
Spectrometer: V785-0024
Trigger mode: 0
Integration Time (sec): 4.000000E-1
Scans to average: 1
Nonlinearity correction enabled: false
Boxcar width: 0
Storing dark spectrum: false
XAxis mode: Wavelengths
Number of Pixels in Spectrum: 1024
>>>>>Begin Spectral Data<<<<<
801.071	27492
801.214	27264
801.356	27005
801.499	27036
801.641	26796
801.783	26830
801.926	26800
802.068	26712
802.211	26609
802.353	26571
802.496	26419
802.638	26240
802.78	26355
802.923	26180
803.065	26275
803.208	26164
803.35	26172
803.492	26301
803.635	26457
803.777	26286
803.919	26495
804.061	26636
804.204	26351
804.346	26183
804.488	26286
804.63	26221
804.773	26065
804.915	26286
805.057	26301
805.199	26225
805.341	26473
805.483	26511
805.626	26415
805.768	26225
805.91	26343
806.052	26298
806.194	26183
806.336	26663
806.478	26351
806.62	26408
806.762	26355
806.904	26492
807.046	26769
807.188	26701
807.33	26632
807.472	26754
807.614	26708
807.756	26663
807.898	26613
808.04	26579
808.182	26503
808.324	26560
808.465	26648
808.607	26921
808.749	26914
808.891	27055
809.033	27070
809.174	27032
809.316	27066
809.458	26998
809.6	26975
809.741	26838
809.883	27051
810.025	27081
810.166	26986
810.308	27127
810.45	27066
810.591	26910
810.733	26739
810.875	26769
811.016	26617
811.158	26625
811.299	26788
811.441	26823
811.582	26708
811.724	26724
811.865	26708
812.007	26686
812.148	26674
812.29	26773
812.431	26857
812.573	26883
812.714	27055
812.855	27188
812.997	27150
813.138	27439
813.279	27241
813.421	27283
813.562	27123
813.703	27039
813.845	26796
813.986	26522
814.127	26431
814.268	26317
814.41	26252
814.551	26309
814.692	26278
814.833	26347
814.974	26271
815.115	26278
815.256	26001
815.397	26149
815.539	26039
815.68	26096
815.821	25966
815.962	26008
816.103	26012
816.244	25917
816.385	25765
816.526	25616
816.666	25597
816.807	25403
816.948	25502
817.089	25540
817.23	25422
817.371	25373
817.512	25415
817.653	25472
817.793	25335
817.934	25403
818.075	25384
818.216	25263
818.356	25225
818.497	25232
818.638	25141
818.778	25091
818.919	24973
819.06	25183
819.2	25133
819.341	25278
819.481	25274
819.622	25327
819.762	25533
819.903	25651
820.043	25449
820.184	25392
820.324	25407
820.465	25457
820.605	25411
820.746	25346
820.886	25266
821.026	25320
821.167	25251
821.307	25365
821.447	25148
821.588	25255
821.728	25000
821.868	24856
822.008	24639
822.149	24711
822.289	24601
822.429	24475
822.569	24422
822.709	24342
822.849	24220
822.99	24136
823.13	24152
823.27	24087
823.41	23916
823.55	23794
823.69	23980
823.83	23946
823.97	23836
824.11	23722
824.25	23748
824.389	23866
824.529	23836
824.669	23756
824.809	23946
824.949	23805
825.089	23863
825.228	23859
825.368	23551
825.508	23623
825.648	23604
825.787	23520
825.927	23611
826.067	23395
826.206	23421
826.346	23577
826.485	23551
826.625	23543
826.765	23478
826.904	23482
827.044	23341
827.183	23216
827.323	23064
827.462	23231
827.601	23124
827.741	23132
827.88	23250
828.02	23056
828.159	23151
828.298	23231
828.437	23277
828.577	23124
828.716	23330
828.855	22972
828.994	22946
829.134	22885
829.273	22942
829.412	22866
829.551	22805
829.69	22831
829.829	22847
829.968	22854
830.107	22942
830.246	22812
830.385	22736
830.524	22866
830.663	22592
830.802	22615
830.941	22447
831.08	22504
831.219	22615
831.357	22611
831.496	22481
831.635	22485
831.774	22280
831.913	22268
832.051	22341
832.19	22150
832.329	22322
832.467	22268
832.606	22048
832.744	22070
832.883	22188
833.022	22105
833.16	22116
833.299	22226
833.437	22124
833.576	22303
833.714	22128
833.852	22135
833.991	22055
834.129	22287
834.267	22162
834.406	22192
834.544	22059
834.682	22162
834.821	22226
834.959	22185
835.097	21994
835.235	22116
835.373	22105
835.511	22032
835.65	21922
835.788	21994
835.926	21873
836.064	21720
836.202	21930
836.34	21960
836.478	22040
836.615	21975
836.753	21964
836.891	21941
837.029	21937
837.167	21762
837.305	21918
837.443	21808
837.58	21781
837.718	21846
837.856	21922
837.993	21739
838.131	21800
838.269	21648
838.406	21675
838.544	21690
838.681	21340
838.819	21294
838.956	21340
839.094	21272
839.231	21287
839.369	21382
839.506	21625
839.643	21485
839.781	21116
839.918	21222
840.055	21230
840.193	21138
840.33	21089
840.467	21176
840.604	21252
840.742	21310
840.879	20902
841.016	21089
841.153	21127
841.29	21283
841.427	21291
841.564	21176
841.701	21195
841.838	21131
841.975	20994
842.112	21032
842.249	20883
842.385	20895
842.522	21096
842.659	20979
842.796	20823
842.933	20899
843.069	20769
843.206	20739
843.343	20906
843.479	20876
843.616	20914
843.752	20598
843.889	20655
844.025	20731
844.162	20541
844.298	20701
844.435	20492
844.571	20533
844.708	20621
844.844	20746
844.98	20720
845.117	20674
845.253	20431
845.389	20530
845.525	20511
845.661	20632
845.798	20419
845.934	20511
846.07	20621
846.206	20518
846.342	20632
846.478	20336
846.614	20282
846.75	20122
846.886	20202
847.022	20183
847.158	20031
847.294	20020
847.429	20126
847.565	19963
847.701	20332
847.837	19784
847.972	19647
848.108	19811
848.244	19841
848.379	19582
848.515	19434
848.65	19499
848.786	19609
848.921	19628
849.057	19696
849.192	19674
849.328	19670
849.463	19643
849.598	19552
849.734	19518
849.869	19445
850.004	19365
850.14	19457
850.275	19381
850.41	19240
850.545	19282
850.68	19415
850.815	19419
850.95	19320
851.085	19518
851.22	19487
851.355	19445
851.49	19335
851.625	19350
851.76	19259
851.895	19190
852.03	19179
852.165	19240
852.299	19278
852.434	19396
852.569	19282
852.703	19293
852.838	19354
852.973	19407
853.107	19483
853.242	19251
853.376	19202
853.511	18966
853.645	19084
853.78	19179
853.914	19171
854.048	19133
854.183	19152
854.317	19148
854.451	19350
854.585	19088
854.72	19038
854.854	19232
854.988	19126
855.122	19244
855.256	18962
855.39	19187
855.524	19213
855.658	19244
855.792	19156
855.926	19179
856.06	19129
856.194	19141
856.327	19118
856.461	19091
856.595	19091
856.729	19015
856.862	19152
856.996	19084
857.13	19099
857.263	19164
857.397	19232
857.53	19088
857.664	19057
857.797	19061
857.931	19099
858.064	19050
858.197	19213
858.331	19031
858.464	19110
858.597	19023
858.731	19069
858.864	19065
858.997	19004
859.13	19145
859.263	19156
859.396	19183
859.529	19057
859.662	19110
859.795	19069
859.928	18973
860.061	19232
860.194	19168
860.327	19114
860.46	18985
860.592	19122
860.725	19103
860.858	19110
860.99	18970
861.123	18939
861.256	19019
861.388	19110
861.521	19693
861.653	19080
861.786	18916
861.918	19012
862.05	19038
862.183	19095
862.315	19088
862.447	19126
862.58	19057
862.712	18973
862.844	18776
862.976	18962
863.108	18764
863.24	19103
863.372	18684
863.504	18711
863.636	18681
863.768	18825
863.9	18776
864.032	18760
864.164	18768
864.296	18878
864.428	18829
864.559	18764
864.691	18738
864.823	18757
864.954	18722
865.086	18806
865.217	18779
865.349	18559
865.48	18726
865.612	18768
865.743	18722
865.875	18768
866.006	18677
866.137	18757
866.269	18719
866.4	18635
866.531	18654
866.662	18661
866.793	18593
866.924	18623
867.055	18608
867.186	18608
867.317	18692
867.448	18521
867.579	18715
867.71	18578
867.841	18650
867.972	18646
868.103	18665
868.233	18601
868.364	18547
868.495	18738
868.625	18798
868.756	18939
868.886	18661
869.017	18882
869.147	19004
869.278	18932
869.408	18730
869.539	18909
869.669	18909
869.799	18966
869.929	18993
870.06	18878
870.19	19187
870.32	19000
870.45	19255
870.58	19274
870.71	19270
870.84	19312
870.97	19266
871.1	19255
871.23	19392
871.36	19476
871.489	19373
871.619	19331
871.749	19339
871.879	19415
872.008	19529
872.138	19521
872.267	19354
872.397	19419
872.526	19327
872.656	19266
872.785	19247
872.915	19445
873.044	19487
873.173	19533
873.303	19533
873.432	19510
873.561	19544
873.69	19514
873.819	19426
873.948	19655
874.077	19449
874.206	19384
874.335	19441
874.464	19635
874.593	19856
874.722	19746
874.851	19693
874.979	19879
875.108	19780
875.237	19769
875.365	19643
875.494	19830
875.623	19772
875.751	19742
875.88	19772
876.008	19928
876.136	19967
876.265	20092
876.393	20298
876.521	20210
876.65	20142
876.778	20252
876.906	20100
877.034	20065
877.162	20050
877.29	20092
877.418	20168
877.546	20084
877.674	20084
877.802	20248
877.93	20145
878.058	20005
878.185	20084
878.313	20111
878.441	20259
878.568	20134
878.696	20221
878.824	20119
878.951	20252
879.079	20294
879.206	20476
879.333	20332
879.461	20393
879.588	20339
879.715	20454
879.842	20393
879.97	20195
880.097	20016
880.224	19963
880.351	20062
880.478	20005
880.605	19970
880.732	20062
880.859	20221
880.986	20065
881.112	20180
881.239	19852
881.366	19772
881.493	19704
881.619	19616
881.746	19632
881.872	19624
881.999	19582
882.125	19487
882.252	19624
882.378	19563
882.505	19742
882.631	19533
882.757	19400
882.883	19495
883.01	19335
883.136	19331
883.262	19251
883.388	19194
883.514	19377
883.64	19301
883.766	19285
883.892	19126
884.018	19103
884.143	19148
884.269	19468
884.395	19027
884.52	19114
884.646	19110
884.772	18920
884.897	18966
885.023	19065
885.148	19095
885.274	19122
885.399	19110
885.524	18985
885.65	18985
885.775	19004
885.9	19015
886.025	19076
886.15	19103
886.275	19023
886.4	18825
886.525	18954
886.65	19046
886.775	18829
886.9	19034
887.025	19152
887.149	18909
887.274	18886
887.399	18871
887.523	18741
887.648	18798
887.773	18722
887.897	18882
888.021	18757
888.146	18623
888.27	18844
888.395	18863
888.519	18795
888.643	18783
888.767	18779
888.891	18669
889.015	18681
889.139	18536
889.263	18566
889.387	18738
889.511	18753
889.635	18620
889.759	18635
889.883	18582
890.006	18517
890.13	18612
890.254	18494
890.377	18486
890.501	18289
890.624	18311
890.748	18353
890.871	18239
890.995	18220
891.118	18129
891.241	18186
891.364	18167
891.488	18285
891.611	18152
891.734	18205
891.857	18308
891.98	18266
892.103	18281
892.226	18117
892.349	18076
892.471	18030
892.594	18057
892.717	18091
892.839	18182
892.962	18232
893.085	18197
893.207	18087
893.33	17999
893.452	18015
893.575	18205
893.697	18091
893.819	18262
893.941	18247
894.064	18235
894.186	18038
894.308	18034
894.43	18171
894.552	18243
894.674	18277
894.796	18034
894.918	18220
895.04	18110
895.161	18140
895.283	18114
895.405	18030
895.526	18076
895.648	18083
895.769	18262
895.891	18133
896.012	18232
896.134	18292
896.255	18266
896.376	18098
896.498	18079
896.619	18190
896.74	18095
896.861	18205
896.982	18597
897.103	18616
897.224	18422
897.345	18388
897.466	18426
897.587	18353
897.708	18528
897.828	18479
897.949	18235
898.07	18315
898.19	18334
898.311	18528
898.431	18426
898.552	18330
898.672	18483
898.792	18479
898.913	18361
899.033	18369
899.153	18163
899.273	18121
899.393	18083
899.513	18201
899.633	18140
899.753	18152
899.873	18015
899.993	18209
900.113	18140
900.232	18098
900.352	18213
900.472	18015
900.591	17969
900.711	17973
900.83	17931
900.95	18064
901.069	18049
901.189	17874
901.308	17619
901.427	17722
901.546	17630
901.665	17604
901.784	17562
901.904	17433
902.023	17379
902.141	17083
902.26	17193
902.379	17284
902.498	17071
902.617	17003
902.735	17132
902.854	17025
902.973	17010
903.091	16809
903.21	16812
903.328	16763
903.446	16759
903.565	16569
903.683	16675
903.801	16516
903.919	16634
904.038	16531
904.156	16367
904.274	16478
904.392	16421
904.51	16318
904.627	16402
904.745	16455
904.863	16535
904.981	16120
905.098	15994
905.216	16078
905.334	16074
905.451	16090
905.569	16120
905.686	16207
905.803	16055
905.921	15800
906.038	16013
906.155	15816
906.272	15759
906.389	15804
906.506	15675
906.623	15564
906.74	15557
906.857	15485
906.974	15473
907.091	15591
907.208	15698
907.324	15629
907.441	15496
907.557	15370
907.674	15370
907.79	15226
907.907	15192
908.023	15332
908.139	15264
908.256	15233
908.372	15093
908.488	15058
908.604	15036
908.72	14941
908.836	15001
908.952	14902
909.068	15108
909.184	15104
909.3	14975
909.415	15051
909.531	14986
909.647	14762
909.762	14758
909.878	14720
909.993	14708
910.108	14674
910.224	14697
910.339	14697
910.454	14648
910.57	14632
910.685	14518
910.8	14781
910.915	14545
911.03	14545
911.145	14305
911.259	14393
911.374	14339
911.489	14301
911.604	14233
911.718	14043
911.833	14100
911.947	13890
912.062	13951
912.176	14024
912.291	14142
912.405	14012
912.519	14237
912.633	14240
912.748	14115
912.862	14092
912.976	13940
913.09	13856
913.204	13928
913.318	13875
913.431	14069
913.545	13974
913.659	13932
913.772	13868
913.886	13643
914	13807
914.113	13849
914.226	13807
914.34	13818
914.453	13563
914.566	13746
914.68	13639
914.793	13525
914.906	13552
915.019	13491
915.132	13369
915.245	13331
915.358	13335
915.47	13362
915.583	13430
915.696	13510
915.809	13613
915.921	13449
916.034	13327
916.146	13289
916.259	13354
916.371	13324
916.483	13339
916.595	13327
916.708	13213
916.82	13301
916.932	13213
917.044	13308
917.156	13145
917.268	13065
917.38	13080
917.491	13004
917.603	13190
917.715	13156
917.826	13187
917.938	13107
918.049	12954
918.161	12985
918.272	13247
918.384	13251
918.495	13194
918.606	12928
918.717	12833
918.828	12970
918.939	12981
919.05	12779
919.161	12859
919.272	12639
919.383	12719
919.494	12821
919.604	13053
919.715	12837
919.826	12817
919.936	12821
920.047	12837
920.157	12791
920.267	13008
920.378	12875
920.488	12791
920.598	13019
920.708	13145
920.818	13061
920.928	12993
921.038	13221
921.148	13133
921.258	12745
921.368	12726
921.477	12589
921.587	12639
921.697	12433
921.806	12635
921.916	12433
922.025	12338
922.134	12281
922.244	12220
922.353	12369
922.462	12201
922.571	12038
922.68	11977
922.789	11889
922.898	11912
923.007	11916
923.116	11969
923.224	11935
923.333	11958
923.442	11809
923.55	11745
923.659	11733
923.767	11847
923.876	11684
923.984	11802
924.092	11710
924.201	11710
924.309	11756
924.417	11688
924.525	11695
924.633	11638
924.741	12536
924.849	11493
924.956	11611
925.064	11463
925.172	11360
925.279	11395
925.387	11482
925.494	11429
925.602	11512
925.709	11440
925.816	11429
925.924	11406
926.031	11452
926.138	11433
926.245	11463
926.352	11159
926.459	11429
926.566	11459
926.673	11326
926.779	11315
926.886	11189
926.993	11067
927.099	11010
927.206	11025
927.312	11010
927.419	11128
927.525	11124
927.631	11037
927.737	10949
927.843	10927
927.95	10736
928.056	10885
928.162	10957
928.267	10961
928.373	11459
928.479	10961
928.585	10763
928.69	10843
928.796	10885
928.901	10752
929.007	10653
929.112	10812
929.218	10778
929.323	10710
929.428	10588
929.533	10820
929.638	10550
929.743	10645
929.848	10664
929.953	10611
930.058	10508
930.163	10413
930.267	10306
930.372	10542
930.477	10402
930.581	10485
930.685	10421
930.79	10223
930.894	10329
930.998	10310
931.103	10329
931.207	10010
931.311	9956
931.415	9846
931.519	9667
931.623	9656
