Data from test_V78500241_3124.txt Node
Date: Fri Mar 25 14:55:28 CST 2022
User: usil
Spectrometer: V785-0024
Trigger mode: 0
Integration Time (sec): 4.000000E-1
Scans to average: 1
Nonlinearity correction enabled: false
Boxcar width: 0
Storing dark spectrum: false
XAxis mode: Wavelengths
Number of Pixels in Spectrum: 1024
>>>>>Begin Spectral Data<<<<<
801.071	22048
801.214	21991
801.356	21599
801.499	21606
801.641	21610
801.783	21462
801.926	21435
802.068	21340
802.211	21443
802.353	21325
802.496	20948
802.638	20853
802.78	20830
802.923	20785
803.065	20716
803.208	20705
803.35	20739
803.492	20868
803.635	20830
803.777	20750
803.919	20689
804.061	21176
804.204	20826
804.346	20629
804.488	20773
804.63	20773
804.773	20568
804.915	20701
805.057	20674
805.199	20651
805.341	20720
805.483	20853
805.626	20781
805.768	20640
805.91	20644
806.052	20693
806.194	20545
806.336	20777
806.478	20651
806.62	20686
806.762	20750
806.904	20830
807.046	21055
807.188	21047
807.33	20906
807.472	21100
807.614	20845
807.756	20830
807.898	20785
808.04	20571
808.182	20655
808.324	20773
808.465	20750
808.607	20899
808.749	20994
808.891	21081
809.033	21211
809.174	21028
809.316	20914
809.458	20971
809.6	21032
809.741	21108
809.883	21131
810.025	21184
810.166	21146
810.308	20994
810.45	21138
810.591	21161
810.733	20838
810.875	20811
811.016	20842
811.158	20781
811.299	20792
811.441	20982
811.582	20796
811.724	20982
811.865	20765
812.007	20777
812.148	20868
812.29	20811
812.431	20925
812.573	21066
812.714	21283
812.855	21272
812.997	21370
813.138	21428
813.279	21325
813.421	21317
813.562	21218
813.703	21001
813.845	20899
813.986	20727
814.127	20606
814.268	20370
814.41	20484
814.551	20381
814.692	20450
814.833	20206
814.974	20221
815.115	20362
815.256	20286
815.397	20214
815.539	20111
815.68	20035
815.821	20107
815.962	20039
816.103	20035
816.244	19864
816.385	19791
816.526	19704
816.666	19624
816.807	19430
816.948	19605
817.089	19499
817.23	19468
817.371	19453
817.512	19514
817.653	19438
817.793	19483
817.934	19434
818.075	19502
818.216	19575
818.356	19430
818.497	19327
818.638	19160
818.778	19190
818.919	19084
819.06	19148
819.2	19430
819.341	19320
819.481	19244
819.622	19487
819.762	19601
819.903	19616
820.043	19506
820.184	19502
820.324	19320
820.465	19586
820.605	19358
820.746	19502
820.886	19320
821.026	19426
821.167	19384
821.307	19468
821.447	19354
821.588	19247
821.728	19137
821.868	18989
822.008	18882
822.149	18814
822.289	18875
822.429	18544
822.569	18528
822.709	18559
822.849	18403
822.99	18220
823.13	18369
823.27	18315
823.41	18136
823.55	18049
823.69	18182
823.83	18182
823.97	18121
824.11	17961
824.25	17821
824.389	17965
824.529	17931
824.669	17866
824.809	18125
824.949	18022
825.089	17977
825.228	17885
825.368	17680
825.508	17790
825.648	17604
825.787	17756
825.927	17756
826.067	17589
826.206	17627
826.346	17714
826.485	17676
826.625	17672
826.765	17817
826.904	17699
827.044	17490
827.183	17493
827.323	17326
827.462	17421
827.601	17391
827.741	17303
827.88	17353
828.02	17284
828.159	17368
828.298	17368
828.437	17448
828.577	17406
828.716	17509
828.855	17356
828.994	17250
829.134	17185
829.273	17197
829.412	17033
829.551	17113
829.69	17136
829.829	17151
829.968	17311
830.107	17185
830.246	17193
830.385	17151
830.524	17029
830.663	16995
830.802	16835
830.941	16778
831.08	16717
831.219	16725
831.357	16843
831.496	16877
831.635	16763
831.774	16622
831.913	16637
832.051	16569
832.19	16656
832.329	16569
832.467	16462
832.606	16341
832.744	16432
832.883	16325
833.022	16402
833.16	16497
833.299	16421
833.437	16443
833.576	16462
833.714	16462
833.852	16554
833.991	16371
834.129	16607
834.267	16493
834.406	16531
834.544	16474
834.682	16436
834.821	16417
834.959	16748
835.097	16481
835.235	16611
835.373	16405
835.511	16558
835.65	16402
835.788	16322
835.926	16219
836.064	16181
836.202	16276
836.34	16371
836.478	16550
836.615	16299
836.753	16405
836.891	16489
837.029	16382
837.167	16272
837.305	16390
837.443	16261
837.58	16177
837.718	16295
837.856	16329
837.993	16135
838.131	16181
838.269	16150
838.406	16124
838.544	16090
838.681	15876
838.819	15835
838.956	15838
839.094	15728
839.231	15937
839.369	15991
839.506	16124
839.643	16013
839.781	15838
839.918	15724
840.055	15934
840.193	15842
840.33	15812
840.467	15804
840.604	15854
840.742	16048
840.879	15736
841.016	15690
841.153	15747
841.29	15884
841.427	15808
841.564	15873
841.701	15701
841.838	15793
841.975	15686
842.112	15701
842.249	15545
842.385	15584
842.522	15686
842.659	15648
842.796	15466
842.933	15534
843.069	15488
843.206	15561
843.343	15641
843.479	15622
843.616	15561
843.752	15386
843.889	15405
844.025	15542
844.162	15283
844.298	15485
844.435	15355
844.571	15363
844.708	15405
844.844	15507
844.98	15538
845.117	15447
845.253	15302
845.389	15313
845.525	15294
845.661	15245
845.798	15135
845.934	15207
846.07	15066
846.206	15176
846.342	15317
846.478	15199
846.614	14979
846.75	14918
846.886	14834
847.022	15032
847.158	14876
847.294	14849
847.429	14933
847.565	14864
847.701	15127
847.837	14659
847.972	14663
848.108	14842
848.244	14705
848.379	14655
848.515	14446
848.65	14355
848.786	14476
848.921	14514
849.057	14640
849.192	14594
849.328	14564
849.463	14552
849.598	14457
849.734	14492
849.869	14256
850.004	14339
850.14	14294
850.275	14305
850.41	14221
850.545	14195
850.68	14229
850.815	14298
850.95	14259
851.085	14465
851.22	14400
851.355	14313
851.49	14233
851.625	14358
851.76	14240
851.895	14214
852.03	14199
852.165	14263
852.299	14301
852.434	14358
852.569	14271
852.703	14377
852.838	14393
852.973	14362
853.107	14396
853.242	14237
853.376	14115
853.511	14073
853.645	14073
853.78	14324
853.914	14229
854.048	14111
854.183	14225
854.317	14107
854.451	14240
854.585	14164
854.72	14138
854.854	14237
854.988	14073
855.122	14157
855.256	14043
855.39	14157
855.524	14206
855.658	14248
855.792	14206
855.926	14259
856.06	14206
856.194	14298
856.327	14073
856.461	14103
856.595	14088
856.729	14077
856.862	14320
856.996	14259
857.13	14237
857.263	14240
857.397	14278
857.53	14145
857.664	14210
857.797	14294
857.931	14324
858.064	14153
858.197	14259
858.331	14161
858.464	14191
858.597	14088
858.731	14081
858.864	14123
858.997	14145
859.13	14225
859.263	14180
859.396	14225
859.529	14126
859.662	14111
859.795	14088
859.928	14119
860.061	14332
860.194	14305
860.327	14119
860.46	14149
860.592	14210
860.725	14347
860.858	14252
860.99	14271
861.123	14164
861.256	14202
861.388	14164
861.521	14830
861.653	14031
861.786	13989
861.918	14039
862.05	14096
862.183	14157
862.315	14221
862.447	14218
862.58	14058
862.712	13959
862.844	13898
862.976	14073
863.108	14054
863.24	14336
863.372	13879
863.504	13986
863.636	13864
863.768	13951
863.9	13913
864.032	13860
864.164	13974
864.296	14001
864.428	13989
864.559	14020
864.691	14008
864.823	13982
864.954	13978
865.086	13955
865.217	13906
865.349	13772
865.48	13860
865.612	13833
865.743	14065
865.875	13974
866.006	13845
866.137	13833
866.269	13830
866.4	13925
866.531	13856
866.662	13791
866.793	13852
866.924	13928
867.055	13856
867.186	13940
867.317	13818
867.448	13898
867.579	13772
867.71	13830
867.841	13849
867.972	14012
868.103	13940
868.233	13955
868.364	13875
868.495	14069
868.625	14069
868.756	14362
868.886	14107
869.017	14164
869.147	14256
869.278	14305
869.408	14153
869.539	14164
869.669	14271
869.799	14191
869.929	14275
870.06	14218
870.19	14461
870.32	14465
870.45	14469
870.58	14655
870.71	14735
870.84	14670
870.97	14621
871.1	14522
871.23	14743
871.36	14769
871.489	14674
871.619	14686
871.749	14686
871.879	14777
872.008	14906
872.138	14746
872.267	14743
872.397	14636
872.526	14651
872.656	14606
872.785	14663
872.915	14781
873.044	14899
873.173	14727
873.303	14804
873.432	14861
873.561	14944
873.69	14773
873.819	14796
873.948	14944
874.077	14815
874.206	14724
874.335	14891
874.464	14887
874.593	15119
874.722	15085
874.851	15154
874.979	15165
875.108	15165
875.237	15089
875.365	15066
875.494	15093
875.623	15214
875.751	15119
875.88	15161
876.008	15294
876.136	15355
876.265	15568
876.393	15603
876.521	15610
876.65	15667
876.778	15595
876.906	15545
877.034	15447
877.162	15553
877.29	15443
877.418	15553
877.546	15485
877.674	15587
877.802	15633
877.93	15500
878.058	15580
878.185	15492
878.313	15473
878.441	15671
878.568	15504
878.696	15431
878.824	15526
878.951	15576
879.079	15728
879.206	15903
879.333	15793
879.461	15515
879.588	15717
879.715	15743
879.842	15892
879.97	15576
880.097	15408
880.224	15401
880.351	15473
880.478	15428
880.605	15359
880.732	15469
880.859	15698
880.986	15408
881.112	15504
881.239	15329
881.366	15142
881.493	15089
881.619	15055
881.746	15047
881.872	15112
881.999	15173
882.125	15058
882.252	15161
882.378	15047
882.505	15214
882.631	14975
882.757	14891
882.883	14956
883.01	14937
883.136	14868
883.262	14727
883.388	14663
883.514	14967
883.64	14948
883.766	14819
883.892	14796
884.018	14765
884.143	14887
884.269	14982
884.395	14659
884.52	14659
884.646	14579
884.772	14621
884.897	14556
885.023	14495
885.148	14739
885.274	14727
885.399	14849
885.524	14651
885.65	14682
885.775	14678
885.9	14610
886.025	14708
886.15	14697
886.275	14587
886.4	14579
886.525	14560
886.65	14579
886.775	14549
886.9	14758
887.025	14792
887.149	14625
887.274	14571
887.399	14389
887.523	14454
887.648	14408
887.773	14370
887.897	14499
888.021	14454
888.146	14408
888.27	14446
888.395	14541
888.519	14492
888.643	14537
888.767	14522
888.891	14377
889.015	14278
889.139	14339
889.263	14199
889.387	14461
889.511	14522
889.635	14438
889.759	14263
889.883	14237
890.006	14282
890.13	14488
890.254	14309
890.377	14244
890.501	14183
890.624	14035
890.748	14111
890.871	14119
890.995	14024
891.118	13871
891.241	14050
891.364	14008
891.488	14134
891.611	14100
891.734	14062
891.857	14096
891.98	14115
892.103	14069
892.226	14142
892.349	13997
892.471	13978
892.594	14069
892.717	14031
892.839	14035
892.962	13959
893.085	14062
893.207	14065
893.33	13860
893.452	13993
893.575	14050
893.697	14046
893.819	14126
893.941	14252
894.064	14199
894.186	13982
894.308	13951
894.43	14199
894.552	14172
894.674	14149
894.796	14005
894.918	14142
895.04	14020
895.161	14218
895.283	14176
895.405	14172
895.526	14168
895.648	14088
895.769	14183
895.891	14210
896.012	14229
896.134	14191
896.255	14123
896.376	14267
896.498	14206
896.619	14183
896.74	14259
896.861	14206
896.982	14495
897.103	14689
897.224	14568
897.345	14442
897.466	14438
897.587	14476
897.708	14590
897.828	14415
897.949	14484
898.07	14404
898.19	14389
898.311	14590
898.431	14434
898.552	14571
898.672	14773
898.792	14632
898.913	14602
899.033	14526
899.153	14423
899.273	14313
899.393	14374
899.513	14393
899.633	14495
899.753	14446
899.873	14294
899.993	14499
900.113	14317
900.232	14503
900.352	14442
900.472	14324
900.591	14286
900.711	14290
900.83	14229
900.95	14419
901.069	14431
901.189	14145
901.308	14001
901.427	13868
901.546	14031
901.665	14008
901.784	13967
901.904	13791
902.023	13818
902.141	13655
902.26	13499
902.379	13594
902.498	13495
902.617	13441
902.735	13616
902.854	13563
902.973	13411
903.091	13259
903.21	13183
903.328	13274
903.446	13206
903.565	13160
903.683	13129
903.801	12954
903.919	13122
904.038	13034
904.156	12954
904.274	13038
904.392	12814
904.51	12928
904.627	12897
904.745	13023
904.863	12985
904.981	12764
905.098	12574
905.216	12608
905.334	12574
905.451	12540
905.569	12544
905.686	12631
905.803	12582
905.921	12486
906.038	12437
906.155	12437
906.272	12376
906.389	12235
906.506	12148
906.623	12171
906.74	12213
906.857	12068
906.974	12064
907.091	12213
907.208	12308
907.324	12296
907.441	12076
907.557	11908
907.674	11996
907.79	11855
907.907	11969
908.023	11954
908.139	11973
908.256	11893
908.372	11874
908.488	11828
908.604	11741
908.72	11691
908.836	11756
908.952	11672
909.068	11718
909.184	11745
909.3	11619
909.415	11714
909.531	11710
909.647	11463
909.762	11421
909.878	11448
909.993	11505
910.108	11398
910.224	11436
910.339	11463
910.454	11349
910.57	11311
910.685	11299
910.8	11581
910.915	11421
911.03	11299
911.145	11140
911.259	11181
911.374	11242
911.489	11079
911.604	11083
911.718	10889
911.833	10900
911.947	10805
912.062	10702
912.176	10915
912.291	10915
912.405	10968
912.519	11033
912.633	11117
912.748	11025
912.862	11010
912.976	10835
913.09	10672
913.204	10778
913.318	10824
913.431	10889
913.545	10812
913.659	10927
913.772	10809
913.886	10672
914	10687
914.113	10786
914.226	10839
914.34	10771
914.453	10588
914.566	10793
914.68	10672
914.793	10596
914.906	10470
915.019	10436
915.132	10348
915.245	10375
915.358	10478
915.47	10493
915.583	10470
915.696	10443
915.809	10626
915.921	10679
916.034	10436
916.146	10314
916.259	10352
916.371	10504
916.483	10443
916.595	10417
916.708	10402
916.82	10379
916.932	10329
917.044	10352
917.156	10344
917.268	10246
917.38	10257
917.491	10207
917.603	10253
917.715	10329
917.826	10470
917.938	10287
918.049	10242
918.161	10257
918.272	10424
918.384	10337
918.495	10276
918.606	10116
918.717	10059
918.828	10196
918.939	10196
919.05	10090
919.161	10223
919.272	9934
919.383	10059
919.494	10265
919.604	10409
919.715	10215
919.826	10082
919.936	10173
920.047	10219
920.157	10211
920.267	10360
920.378	10253
920.488	10246
920.598	10329
920.708	10504
920.818	10394
920.928	10371
921.038	10542
921.148	10573
921.258	10246
921.368	10116
921.477	9975
921.587	10048
921.697	9876
921.806	10010
921.916	9930
922.025	9717
922.134	9724
922.244	9603
922.353	9762
922.462	9606
922.571	9622
922.68	9420
922.789	9363
922.898	9473
923.007	9355
923.116	9500
923.224	9458
923.333	9382
923.442	9298
923.55	9294
923.659	9329
923.767	9355
923.876	9325
923.984	9329
924.092	9272
924.201	9306
924.309	9256
924.417	9313
924.525	9279
924.633	9268
924.741	10227
924.849	9150
924.956	9195
925.064	9085
925.172	8956
925.279	9070
925.387	9146
925.494	9070
925.602	9199
925.709	9176
925.816	9032
925.924	9104
926.031	9104
926.138	9070
926.245	9169
926.352	9005
926.459	9192
926.566	9203
926.673	9138
926.779	8868
926.886	8937
926.993	8815
927.099	8746
927.206	8735
927.312	8792
927.419	8804
927.525	8826
927.631	8906
927.737	8670
927.843	8686
927.95	8640
928.056	8640
928.162	8663
928.267	8811
928.373	9332
928.479	8819
928.585	8549
928.69	8648
928.796	8689
928.901	8583
929.007	8533
929.112	8640
929.218	8571
929.323	8545
929.428	8587
929.533	8541
929.638	8469
929.743	8434
929.848	8571
929.953	8537
930.058	8377
930.163	8233
930.267	8225
930.372	8438
930.477	8279
930.581	8533
930.685	8298
930.79	8157
930.894	8328
930.998	8214
931.103	8381
931.207	7974
931.311	7986
931.415	7890
931.519	7742
931.623	7689
