Data from test_V78500241_929.txt Node
Date: Fri Mar 25 14:40:11 CST 2022
User: usil
Spectrometer: V785-0024
Trigger mode: 0
Integration Time (sec): 4.000000E-1
Scans to average: 1
Nonlinearity correction enabled: false
Boxcar width: 0
Storing dark spectrum: false
XAxis mode: Wavelengths
Number of Pixels in Spectrum: 1024
>>>>>Begin Spectral Data<<<<<
801.071	24684
801.214	24464
801.356	24136
801.499	24167
801.641	24072
801.783	23821
801.926	23973
802.068	23912
802.211	23699
802.353	23680
802.496	23531
802.638	23501
802.78	23334
802.923	23258
803.065	23269
803.208	23246
803.35	23296
803.492	23372
803.635	23417
803.777	23360
803.919	23311
804.061	23646
804.204	23353
804.346	23193
804.488	23178
804.63	23200
804.773	23090
804.915	23341
805.057	23334
805.199	23170
805.341	23376
805.483	23478
805.626	23391
805.768	23353
805.91	23353
806.052	23391
806.194	23341
806.336	23657
806.478	23448
806.62	23440
806.762	23570
806.904	23817
807.046	23988
807.188	23908
807.33	24045
807.472	24083
807.614	24106
807.756	24429
807.898	24285
808.04	24532
808.182	24848
808.324	25164
808.465	25506
808.607	26001
808.749	26476
808.891	26792
809.033	26895
809.174	26514
809.316	26115
809.458	25685
809.6	25023
809.741	25031
809.883	24604
810.025	24593
810.166	24540
810.308	24403
810.45	24292
810.591	24213
810.733	23908
810.875	23821
811.016	23726
811.158	23543
811.299	23821
811.441	23809
811.582	23779
811.724	23543
811.865	23528
812.007	23535
812.148	23417
812.29	23634
812.431	23802
812.573	23843
812.714	23897
812.855	24102
812.997	24152
813.138	24201
813.279	24235
813.421	24129
813.562	24045
813.703	23771
813.845	23764
813.986	23459
814.127	23124
814.268	23143
814.41	23242
814.551	23121
814.692	23220
814.833	22953
814.974	23132
815.115	22991
815.256	22835
815.397	22930
815.539	23010
815.68	22831
815.821	22717
815.962	22736
816.103	22782
816.244	22615
816.385	22557
816.526	22466
816.666	22363
816.807	22226
816.948	22284
817.089	22226
817.23	22333
817.371	22154
817.512	22181
817.653	22139
817.793	22154
817.934	22276
818.075	22257
818.216	22192
818.356	22013
818.497	21975
818.638	21781
818.778	21842
818.919	21857
819.06	21907
819.2	22025
819.341	22044
819.481	21983
819.622	22074
819.762	22379
819.903	22337
820.043	22234
820.184	22051
820.324	22109
820.465	22128
820.605	22105
820.746	22147
820.886	22051
821.026	22090
821.167	22029
821.307	22223
821.447	22025
821.588	21899
821.728	21762
821.868	21656
822.008	21496
822.149	21473
822.289	21534
822.429	21169
822.569	21142
822.709	21119
822.849	20925
822.99	20906
823.13	20963
823.27	20895
823.41	20792
823.55	20625
823.69	20686
823.83	20701
823.97	20632
824.11	20446
824.25	20423
824.389	20594
824.529	20545
824.669	20476
824.809	20606
824.949	20537
825.089	20571
825.228	20564
825.368	20275
825.508	20328
825.648	20313
825.787	20244
825.927	20347
826.067	20332
826.206	20294
826.346	20332
826.485	20206
826.625	20191
826.765	20328
826.904	20256
827.044	20046
827.183	20054
827.323	19784
827.462	20065
827.601	20012
827.741	19837
827.88	19868
828.02	19814
828.159	19925
828.298	20046
828.437	20062
828.577	19913
828.716	20012
828.855	19906
828.994	19658
829.134	19757
829.273	19693
829.412	19643
829.551	19559
829.69	19677
829.829	19708
829.968	19776
830.107	19651
830.246	19609
830.385	19575
830.524	19510
830.663	19457
830.802	19373
830.941	19183
831.08	19221
831.219	19381
831.357	19293
831.496	19426
831.635	19175
831.774	19175
831.913	19148
832.051	19050
832.19	19023
832.329	19065
832.467	18962
832.606	18856
832.744	18886
832.883	18867
833.022	18947
833.16	19080
833.299	19065
833.437	19023
833.576	19164
833.714	18977
833.852	19118
833.991	19156
834.129	19175
834.267	19183
834.406	19042
834.544	19156
834.682	19126
834.821	19053
834.959	19137
835.097	18943
835.235	19057
835.373	19019
835.511	19015
835.65	18798
835.788	18913
835.926	18715
836.064	18631
836.202	18623
836.34	18848
836.478	18905
836.615	18696
836.753	18745
836.891	18913
837.029	18722
837.167	18722
837.305	18646
837.443	18654
837.58	18574
837.718	18684
837.856	18650
837.993	18570
838.131	18681
838.269	18589
838.406	18593
838.544	18483
838.681	18342
838.819	18254
838.956	18174
839.094	18117
839.231	18232
839.369	18228
839.506	18555
839.643	18426
839.781	18159
839.918	18125
840.055	18197
840.193	18140
840.33	18098
840.467	18121
840.604	18057
840.742	18365
840.879	17992
841.016	18102
841.153	17958
841.29	18182
841.427	18011
841.564	18030
841.701	18098
841.838	18011
841.975	17980
842.112	17954
842.249	17840
842.385	17726
842.522	18041
842.659	17897
842.796	17836
842.933	17920
843.069	17821
843.206	17904
843.343	17878
843.479	17828
843.616	17863
843.752	17638
843.889	17646
844.025	17771
844.162	17608
844.298	17866
844.435	17760
844.571	17642
844.708	17882
844.844	17935
844.98	18019
845.117	18064
845.253	18106
845.389	18117
845.525	18700
845.661	19308
845.798	20122
845.934	20899
846.07	21024
846.206	21070
846.342	20571
846.478	19586
846.614	18582
846.75	18159
846.886	17718
847.022	17680
847.158	17493
847.294	17421
847.429	17277
847.565	17170
847.701	17467
847.837	16949
847.972	16869
848.108	16991
848.244	16976
848.379	16790
848.515	16828
848.65	16744
848.786	16721
848.921	16869
849.057	16767
849.192	16854
849.328	16805
849.463	16630
849.598	16694
849.734	16698
849.869	16660
850.004	16516
850.14	16542
850.275	16481
850.41	16508
850.545	16333
850.68	16436
850.815	16428
850.95	16466
851.085	16713
851.22	16459
851.355	16478
851.49	16478
851.625	16337
851.76	16398
851.895	16344
852.03	16348
852.165	16409
852.299	16531
852.434	16588
852.569	16470
852.703	16527
852.838	16535
852.973	16645
853.107	16512
853.242	16398
853.376	16337
853.511	16150
853.645	16352
853.78	16497
853.914	16287
854.048	16417
854.183	16310
854.317	16360
854.451	16538
854.585	16314
854.72	16352
854.854	16432
854.988	16379
855.122	16341
855.256	16303
855.39	16394
855.524	16390
855.658	16386
855.792	16268
855.926	16352
856.06	16314
856.194	16466
856.327	16367
856.461	16265
856.595	16272
856.729	16310
856.862	16424
856.996	16310
857.13	16284
857.263	16478
857.397	16333
857.53	16234
857.664	16280
857.797	16295
857.931	16527
858.064	16417
858.197	16356
858.331	16230
858.464	16219
858.597	16211
858.731	16147
858.864	16181
858.997	16287
859.13	16287
859.263	16295
859.396	16504
859.529	16238
859.662	16272
859.795	16242
859.928	16356
860.061	16436
860.194	16390
860.327	16242
860.46	16238
860.592	16375
860.725	16394
860.858	16356
860.99	16177
861.123	16211
861.256	16093
861.388	16360
861.521	16866
861.653	16169
861.786	16021
861.918	16036
862.05	16211
862.183	16276
862.315	16253
862.447	16325
862.58	16284
862.712	16025
862.844	15903
862.976	16150
863.108	16093
863.24	16459
863.372	15953
863.504	16059
863.636	16013
863.768	16109
863.9	15964
864.032	15911
864.164	15907
864.296	15926
864.428	16135
864.559	16120
864.691	16063
864.823	15987
864.954	15979
865.086	16055
865.217	16029
865.349	15835
865.48	16006
865.612	16010
865.743	16143
865.875	16006
866.006	15915
866.137	16048
866.269	15983
866.4	15937
866.531	15888
866.662	15960
866.793	16036
866.924	15941
867.055	16006
867.186	15911
867.317	15789
867.448	15778
867.579	15972
867.71	15865
867.841	15888
867.972	15964
868.103	15937
868.233	15953
868.364	16002
868.495	15991
868.625	16048
868.756	16272
868.886	16124
869.017	16219
869.147	16261
869.278	16284
869.408	16154
869.539	16268
869.669	16238
869.799	16253
869.929	16299
870.06	16306
870.19	16516
870.32	16588
870.45	16580
870.58	16535
870.71	16653
870.84	16694
870.97	16569
871.1	16630
871.23	16694
871.36	16831
871.489	16592
871.619	16729
871.749	16637
871.879	16797
872.008	16881
872.138	16873
872.267	16809
872.397	16733
872.526	16607
872.656	16573
872.785	16580
872.915	16889
873.044	16843
873.173	16930
873.303	16820
873.432	16953
873.561	16843
873.69	16805
873.819	16976
873.948	16972
874.077	16946
874.206	16854
874.335	16919
874.464	17022
874.593	17075
874.722	17159
874.851	17223
874.979	17143
875.108	17197
875.237	17098
875.365	17181
875.494	17220
875.623	17322
875.751	17162
875.88	17269
876.008	17467
876.136	17417
876.265	17627
876.393	17764
876.521	17760
876.65	17798
876.778	17680
876.906	17638
877.034	17687
877.162	17726
877.29	17627
877.418	17752
877.546	17657
877.674	17665
877.802	17790
877.93	17840
878.058	17885
878.185	17874
878.313	17942
878.441	17904
878.568	17855
878.696	17889
878.824	18152
878.951	18410
879.079	18745
879.206	19038
879.333	19240
879.461	19381
879.588	19506
879.715	19586
879.842	19597
879.97	19137
880.097	18608
880.224	18475
880.351	18350
880.478	18136
880.605	18079
880.732	17984
880.859	18220
880.986	18019
881.112	17977
881.239	17786
881.366	17756
881.493	17726
881.619	17596
881.746	17592
881.872	17615
881.999	17577
882.125	17524
882.252	17703
882.378	17592
882.505	17745
882.631	17566
882.757	17577
882.883	17524
883.01	17296
883.136	17395
883.262	17143
883.388	17220
883.514	17410
883.64	17463
883.766	17402
883.892	17189
884.018	17307
884.143	17444
884.269	17463
884.395	17208
884.52	17200
884.646	17128
884.772	17075
884.897	16934
885.023	17048
885.148	17159
885.274	17162
885.399	17204
885.524	17022
885.65	17029
885.775	17064
885.9	16949
886.025	17174
886.15	17098
886.275	16858
886.4	16847
886.525	16968
886.65	16862
886.775	16850
886.9	17048
887.025	17117
887.149	16900
887.274	16729
887.399	16611
887.523	16584
887.648	16603
887.773	16497
887.897	16763
888.021	16645
888.146	16531
888.27	16824
888.395	16812
888.519	16630
888.643	16569
888.767	16713
888.891	16421
889.015	16405
889.139	16424
889.263	16367
889.387	16440
889.511	16466
889.635	16577
889.759	16318
889.883	16295
890.006	16466
890.13	16440
890.254	16226
890.377	16322
890.501	16169
890.624	16010
890.748	16173
890.871	16025
890.995	15998
891.118	15949
891.241	16078
891.364	16006
891.488	16055
891.611	15941
891.734	16044
891.857	16017
891.98	16086
892.103	16101
892.226	16025
892.349	15964
892.471	15774
892.594	15926
892.717	16036
892.839	15884
892.962	15854
893.085	15979
893.207	15876
893.33	15793
893.452	15762
893.575	15903
893.697	15918
893.819	16192
893.941	16071
894.064	15964
894.186	15869
894.308	15823
894.43	16044
894.552	16006
894.674	16025
894.796	15903
894.918	15861
895.04	15922
895.161	15850
895.283	16006
895.405	15968
895.526	15949
895.648	15831
895.769	16006
895.891	15930
896.012	16013
896.134	16010
896.255	16048
896.376	15945
896.498	16002
896.619	16025
896.74	16002
896.861	16124
896.982	16310
897.103	16474
897.224	16291
897.345	16234
897.466	16215
897.587	16322
897.708	16306
897.828	16261
897.949	16204
898.07	16101
898.19	16238
898.311	16360
898.431	16303
898.552	16322
898.672	16405
898.792	16413
898.913	16405
899.033	16310
899.153	16150
899.273	16059
899.393	16139
899.513	16226
899.633	16169
899.753	16147
899.873	16048
899.993	16135
900.113	16101
900.232	16181
900.352	16181
900.472	16128
900.591	15968
900.711	16112
900.83	16036
900.95	16074
901.069	16082
901.189	15899
901.308	15667
901.427	15564
901.546	15648
901.665	15644
901.784	15838
901.904	15580
902.023	15466
902.141	15275
902.26	15214
902.379	15321
902.498	15199
902.617	15146
902.735	15226
902.854	15108
902.973	15074
903.091	14883
903.21	14929
903.328	14857
903.446	14826
903.565	14724
903.683	14735
903.801	14663
903.919	14663
904.038	14568
904.156	14587
904.274	14514
904.392	14503
904.51	14514
904.627	14393
904.745	14556
904.863	14545
904.981	14339
905.098	14027
905.216	14142
905.334	14126
905.451	14214
905.569	14153
905.686	14168
905.803	14187
905.921	13959
906.038	13955
906.155	13921
906.272	13807
906.389	13883
906.506	13700
906.623	13681
906.74	13670
906.857	13590
906.974	13655
907.091	13700
907.208	13845
907.324	13685
907.441	13616
907.557	13354
907.674	13434
907.79	13434
907.907	13335
908.023	13453
908.139	13354
908.256	13400
908.372	13293
908.488	13331
908.604	13175
908.72	13118
908.836	13179
908.952	13072
909.068	13244
909.184	13187
909.3	13175
909.415	13145
909.531	13141
909.647	12973
909.762	12840
909.878	12821
909.993	12840
910.108	12905
910.224	12810
910.339	12939
910.454	12787
910.57	12677
910.685	12631
910.8	12848
910.915	12928
911.03	12715
911.145	12559
911.259	12517
911.374	12509
911.489	12464
911.604	12391
911.718	12433
911.833	12311
911.947	12201
912.062	12045
912.176	12254
912.291	12296
912.405	12376
912.519	12445
912.633	12494
912.748	12407
912.862	12315
912.976	12190
913.09	11954
913.204	12144
913.318	12133
913.431	12194
913.545	12235
913.659	12197
913.772	12144
913.886	12019
914	11980
914.113	12125
914.226	12175
914.34	12083
914.453	11920
914.566	12140
914.68	11984
914.793	11851
914.906	11794
915.019	11680
915.132	11649
915.245	11726
915.358	11729
915.47	11790
915.583	11691
915.696	11764
915.809	11786
915.921	11904
916.034	11722
916.146	11630
916.259	11638
916.371	11771
916.483	11756
916.595	11661
916.708	11638
916.82	11653
916.932	11471
917.044	11634
917.156	11581
917.268	11516
917.38	11543
917.491	11478
917.603	11512
917.715	11543
917.826	11608
917.938	11539
918.049	11318
918.161	11509
918.272	11638
918.384	11653
918.495	11425
918.606	11395
918.717	11322
918.828	11433
918.939	11425
919.05	11265
919.161	11402
919.272	11140
919.383	11284
919.494	11391
919.604	11653
919.715	11376
919.826	11296
919.936	11273
920.047	11368
920.157	11292
920.267	11600
920.378	11402
920.488	11353
920.598	11543
920.708	11729
920.818	11516
920.928	11547
921.038	11729
921.148	11592
921.258	11246
921.368	11254
921.477	11223
921.587	11170
921.697	11018
921.806	11193
921.916	11022
922.025	10908
922.134	10812
922.244	10755
922.353	10896
922.462	10793
922.571	10702
922.68	10535
922.789	10474
922.898	10527
923.007	10497
923.116	10554
923.224	10474
923.333	10531
923.442	10421
923.55	10382
923.659	10409
923.767	10428
923.876	10402
923.984	10459
924.092	10306
924.201	10390
924.309	10322
924.417	10363
924.525	10329
924.633	10344
924.741	11117
924.849	10166
924.956	10215
925.064	10139
925.172	10029
925.279	10112
925.387	10128
925.494	10131
925.602	10318
925.709	10223
925.816	10067
925.924	10032
926.031	10196
926.138	10143
926.245	10158
926.352	10067
926.459	10158
926.566	10219
926.673	10097
926.779	9956
926.886	9979
926.993	9865
927.099	9903
927.206	9747
927.312	9766
927.419	9876
927.525	9819
927.631	9846
927.737	9698
927.843	9633
927.95	9641
928.056	9606
928.162	9698
928.267	9709
928.373	10257
928.479	9743
928.585	9603
928.69	9675
928.796	9736
928.901	9629
929.007	9428
929.112	9549
929.218	9580
929.323	9504
929.428	9401
929.533	9599
929.638	9443
929.743	9450
929.848	9481
929.953	9477
930.058	9298
930.163	9199
930.267	9264
930.372	9336
930.477	9146
930.581	9431
930.685	9294
930.79	9112
930.894	9146
930.998	9138
931.103	9222
931.207	8948
931.311	8948
931.415	8815
931.519	8625
931.623	8640
