Data from test_V78500241_673.txt Node
Date: Fri Mar 25 14:38:24 CST 2022
User: usil
Spectrometer: V785-0024
Trigger mode: 0
Integration Time (sec): 4.000000E-1
Scans to average: 1
Nonlinearity correction enabled: false
Boxcar width: 0
Storing dark spectrum: false
XAxis mode: Wavelengths
Number of Pixels in Spectrum: 1024
>>>>>Begin Spectral Data<<<<<
801.071	28109
801.214	28044
801.356	27736
801.499	27751
801.641	27553
801.783	27519
801.926	27355
802.068	27603
802.211	27245
802.353	27146
802.496	27036
802.638	27192
802.78	26994
802.923	26883
803.065	26944
803.208	27013
803.35	26929
803.492	27093
803.635	27135
803.777	27176
803.919	27119
804.061	27511
804.204	27226
804.346	27093
804.488	27294
804.63	27161
804.773	27260
804.915	27420
805.057	27622
805.199	27469
805.341	27774
805.483	27793
805.626	27793
805.768	27781
805.91	27850
806.052	27972
806.194	28090
806.336	28352
806.478	28546
806.62	28736
806.762	28930
806.904	29379
807.046	29832
807.188	30171
807.33	30555
807.472	31034
807.614	31776
807.756	32655
807.898	33865
808.04	35531
808.182	37183
808.324	39823
808.465	43038
808.607	46074
808.749	49072
808.891	50552
809.033	50967
809.174	49502
809.316	46512
809.458	42962
809.6	39641
809.741	36836
809.883	34717
810.025	33397
810.166	32446
810.308	31445
810.45	30631
810.591	30323
810.733	29729
810.875	29174
811.016	29064
811.158	28778
811.299	28911
811.441	28634
811.582	28691
811.724	28246
811.865	28211
812.007	28040
812.148	27968
812.29	28013
812.431	27968
812.573	27972
812.714	28044
812.855	28188
812.997	28253
813.138	28310
813.279	28261
813.421	28036
813.562	28017
813.703	27835
813.845	27530
813.986	27230
814.127	27089
814.268	26944
814.41	26914
814.551	26838
814.692	26845
814.833	26758
814.974	26590
815.115	26724
815.256	26442
815.397	26560
815.539	26564
815.68	26518
815.821	26374
815.962	26336
816.103	26362
816.244	26195
816.385	25982
816.526	26001
816.666	25860
816.807	25757
816.948	25601
817.089	25738
817.23	25628
817.371	25578
817.512	25632
817.653	25563
817.793	25491
817.934	25544
818.075	25556
818.216	25590
818.356	25449
818.497	25384
818.638	25217
818.778	25327
818.919	25377
819.06	25377
819.2	25434
819.341	25464
819.481	25365
819.622	25525
819.762	25700
819.903	25685
820.043	25601
820.184	25403
820.324	25514
820.465	25525
820.605	25529
820.746	25259
820.886	25126
821.026	25339
821.167	25274
821.307	25411
821.447	25289
821.588	25042
821.728	25008
821.868	24878
822.008	24642
822.149	24593
822.289	24612
822.429	24517
822.569	24350
822.709	24247
822.849	24117
822.99	24129
823.13	24049
823.27	23958
823.41	23916
823.55	23805
823.69	23904
823.83	23836
823.97	23790
824.11	23695
824.25	23554
824.389	23573
824.529	23771
824.669	23672
824.809	23687
824.949	23691
825.089	23741
825.228	23710
825.368	23334
825.508	23455
825.648	23482
825.787	23520
825.927	23539
826.067	23455
826.206	23391
826.346	23528
826.485	23474
826.625	23512
826.765	23444
826.904	23589
827.044	23280
827.183	23280
827.323	23124
827.462	23254
827.601	23250
827.741	23033
827.88	23124
828.02	22995
828.159	23044
828.298	23113
828.437	23178
828.577	22881
828.716	23136
828.855	22854
828.994	22721
829.134	22835
829.273	22805
829.412	22691
829.551	22694
829.69	22710
829.829	22755
829.968	22847
830.107	22797
830.246	22710
830.385	22786
830.524	22649
830.663	22523
830.802	22459
830.941	22352
831.08	22318
831.219	22451
831.357	22565
831.496	22618
831.635	22390
831.774	22314
831.913	22211
832.051	22219
832.19	22329
832.329	22284
832.467	22207
832.606	22219
832.744	22139
832.883	22223
833.022	22318
833.16	22405
833.299	22637
833.437	22710
833.576	22774
833.714	22965
833.852	23033
833.991	23372
834.129	23421
834.267	23269
834.406	23143
834.544	23250
834.682	22999
834.821	22805
834.959	23033
835.097	22694
835.235	22668
835.373	22440
835.511	22497
835.65	22166
835.788	22207
835.926	21926
836.064	22013
836.202	21842
836.34	22101
836.478	22074
836.615	21934
836.753	21975
836.891	22059
837.029	21827
837.167	21747
837.305	21717
837.443	21762
837.58	21694
837.718	21808
837.856	21812
837.993	21637
838.131	21580
838.269	21545
838.406	21572
838.544	21526
838.681	21332
838.819	21291
838.956	21161
839.094	21146
839.231	21184
839.369	21268
839.506	21374
839.643	21306
839.781	21043
839.918	21005
840.055	21093
840.193	21089
840.33	21039
840.467	21180
840.604	21146
840.742	21363
840.879	20842
841.016	20823
841.153	20918
841.29	21291
841.427	20956
841.564	21074
841.701	21001
841.838	20895
841.975	20807
842.112	21013
842.249	20910
842.385	20975
842.522	21062
842.659	20842
842.796	20883
842.933	20994
843.069	20708
843.206	20876
843.343	20975
843.479	21036
843.616	21047
843.752	20944
843.889	20899
844.025	21154
844.162	20963
844.298	21298
844.435	21294
844.571	21370
844.708	21637
844.844	22192
844.98	22622
845.117	23200
845.253	24239
845.389	26024
845.525	29695
845.661	35406
845.798	42300
845.934	47448
846.07	49084
846.206	47623
846.342	42992
846.478	36174
846.614	30349
846.75	26602
846.886	24369
847.022	22885
847.158	22078
847.294	21435
847.429	21230
847.565	20979
847.701	21013
847.837	20339
847.972	20355
848.108	20347
848.244	20107
848.379	20100
848.515	19849
848.65	19871
848.786	19951
848.921	19822
849.057	19864
849.192	19871
849.328	19791
849.463	19731
849.598	19616
849.734	19658
849.869	19647
850.004	19419
850.14	19403
850.275	19525
850.41	19377
850.545	19384
850.68	19460
850.815	19521
850.95	19434
851.085	19457
851.22	19537
851.355	19354
851.49	19377
851.625	19403
851.76	19324
851.895	19263
852.03	19403
852.165	19343
852.299	19480
852.434	19540
852.569	19559
852.703	19415
852.838	19540
852.973	19643
853.107	19723
853.242	19571
853.376	19403
853.511	19346
853.645	19495
853.78	19647
853.914	19620
854.048	19567
854.183	19624
854.317	19685
854.451	19890
854.585	19696
854.72	19586
854.854	19750
854.988	19426
855.122	19563
855.256	19327
855.39	19396
855.524	19384
855.658	19430
855.792	19438
855.926	19381
856.06	19293
856.194	19354
856.327	19335
856.461	19110
856.595	19164
856.729	19297
856.862	19335
856.996	19266
857.13	19362
857.263	19301
857.397	19331
857.53	19251
857.664	19202
857.797	19240
857.931	19282
858.064	19179
858.197	19274
858.331	19274
858.464	19061
858.597	18894
858.731	19015
858.864	19088
858.997	19179
859.13	19076
859.263	19145
859.396	19168
859.529	19057
859.662	18958
859.795	19103
859.928	19148
860.061	19240
860.194	19206
860.327	19198
860.46	18981
860.592	19122
860.725	19145
860.858	19114
860.99	18924
861.123	18977
861.256	18958
861.388	19080
861.521	19700
861.653	18848
861.786	18734
861.918	18943
862.05	18985
862.183	19004
862.315	19084
862.447	19088
862.58	18962
862.712	18757
862.844	18703
862.976	18913
863.108	18810
863.24	19080
863.372	18627
863.504	18829
863.636	18665
863.768	18749
863.9	18779
864.032	18707
864.164	18585
864.296	18658
864.428	18741
864.559	18764
864.691	18791
864.823	18760
864.954	18757
865.086	18604
865.217	18574
865.349	18494
865.48	18669
865.612	18483
865.743	18745
865.875	18684
866.006	18700
866.137	18658
866.269	18627
866.4	18669
866.531	18566
866.662	18635
866.793	18582
866.924	18547
867.055	18578
867.186	18566
867.317	18563
867.448	18502
867.579	18536
867.71	18464
867.841	18464
867.972	18703
868.103	18525
868.233	18566
868.364	18616
868.495	18669
868.625	18745
868.756	18837
868.886	18692
869.017	18722
869.147	18897
869.278	18894
869.408	18886
869.539	18970
869.669	18928
869.799	18859
869.929	18977
870.06	18939
870.19	19118
870.32	19179
870.45	19278
870.58	19339
870.71	19403
870.84	19312
870.97	19255
871.1	19388
871.23	19460
871.36	19525
871.489	19293
871.619	19533
871.749	19434
871.879	19552
872.008	19681
872.138	19571
872.267	19525
872.397	19434
872.526	19419
872.656	19472
872.785	19510
872.915	19746
873.044	19807
873.173	19677
873.303	19685
873.432	19852
873.561	19841
873.69	19677
873.819	19856
873.948	19936
874.077	19871
874.206	19830
874.335	19936
874.464	19982
874.593	20187
874.722	20240
874.851	20313
874.979	20362
875.108	20317
875.237	20393
875.365	20590
875.494	20495
875.623	20564
875.751	20495
875.88	20461
876.008	20826
876.136	20807
876.265	21150
876.393	21252
876.521	21249
876.65	21306
876.778	21393
876.906	21351
877.034	21321
877.162	21473
877.29	21511
877.418	21595
877.546	21785
877.674	21812
877.802	21945
877.93	22044
878.058	22177
878.185	22398
878.313	22782
878.441	23037
878.568	23318
878.696	23885
878.824	24738
878.951	25841
879.079	27542
879.206	29429
879.333	31597
879.461	33157
879.588	34265
879.715	34299
879.842	33473
879.97	31643
880.097	29444
880.224	27846
880.351	26625
880.478	25628
880.605	25156
880.732	24852
880.859	24817
880.986	24350
881.112	24399
881.239	24197
881.366	23946
881.493	24041
881.619	23802
881.746	23824
881.872	23961
881.999	23817
882.125	23878
882.252	23992
882.378	24072
882.505	24220
882.631	23958
882.757	23897
882.883	24049
883.01	23961
883.136	23824
883.262	23859
883.388	23649
883.514	23946
883.64	23897
883.766	23756
883.892	23745
884.018	23752
884.143	23817
884.269	23832
884.395	23596
884.52	23577
884.646	23547
884.772	23505
884.897	23646
885.023	23623
885.148	23520
885.274	23699
885.399	23539
885.524	23455
885.65	23223
885.775	23140
885.9	22999
886.025	23132
886.15	22755
886.275	22550
886.4	22402
886.525	22284
886.65	22063
886.775	21968
886.9	22131
887.025	22120
887.149	21766
887.274	21530
887.399	21313
887.523	21226
887.648	21066
887.773	21032
887.897	21051
888.021	20982
888.146	20933
888.27	20853
888.395	20792
888.519	20648
888.643	20708
888.767	20773
888.891	20549
889.015	20412
889.139	20400
889.263	20252
889.387	20389
889.511	20339
889.635	20153
889.759	20111
889.883	20176
890.006	20100
890.13	20111
890.254	19921
890.377	19963
890.501	19883
890.624	19647
890.748	19769
890.871	19605
890.995	19434
891.118	19438
891.241	19575
891.364	19324
891.488	19491
891.611	19384
891.734	19343
891.857	19190
891.98	19236
892.103	19251
892.226	19209
892.349	19122
892.471	18882
892.594	19072
892.717	18970
892.839	19012
892.962	18947
893.085	18981
893.207	18859
893.33	18753
893.452	18768
893.575	18848
893.697	18764
893.819	18973
893.941	18916
894.064	18806
894.186	18623
894.308	18525
894.43	18882
894.552	18806
894.674	18741
894.796	18525
894.918	18642
895.04	18650
895.161	18540
895.283	18601
895.405	18498
895.526	18589
895.648	18475
895.769	18578
895.891	18498
896.012	18620
896.134	18585
896.255	18532
896.376	18494
896.498	18517
896.619	18433
896.74	18486
896.861	18597
896.982	18741
897.103	18920
897.224	18726
897.345	18604
897.466	18627
897.587	18608
897.708	18829
897.828	18673
897.949	18536
898.07	18528
898.19	18559
898.311	18783
898.431	18608
898.552	18707
898.672	18681
898.792	18791
898.913	18582
899.033	18608
899.153	18483
899.273	18483
899.393	18372
899.513	18285
899.633	18395
899.753	18437
899.873	18353
899.993	18448
900.113	18323
900.232	18380
900.352	18308
900.472	18285
900.591	18152
900.711	18251
900.83	18140
900.95	18190
901.069	18239
901.189	18121
901.308	17931
901.427	17752
901.546	17726
901.665	17760
901.784	17802
901.904	17608
902.023	17452
902.141	17364
902.26	17269
902.379	17318
902.498	17208
902.617	17143
902.735	17143
902.854	17174
902.973	16999
903.091	16782
903.21	16793
903.328	16831
903.446	16630
903.565	16664
903.683	16698
903.801	16561
903.919	16569
904.038	16554
904.156	16413
904.274	16462
904.392	16375
904.51	16257
904.627	16417
904.745	16394
904.863	16356
904.981	16139
905.098	16040
905.216	15972
905.334	16044
905.451	16067
905.569	15937
905.686	16032
905.803	15949
905.921	15808
906.038	15846
906.155	15793
906.272	15709
906.389	15644
906.506	15511
906.623	15542
906.74	15481
906.857	15485
906.974	15431
907.091	15545
907.208	15603
907.324	15504
907.441	15504
907.557	15348
907.674	15214
907.79	15127
907.907	15214
908.023	15237
908.139	15188
908.256	15176
908.372	15085
908.488	15009
908.604	14948
908.72	15024
908.836	14891
908.952	14853
909.068	14948
909.184	15058
909.3	14979
909.415	14952
909.531	14796
909.647	14686
909.762	14693
909.878	14590
909.993	14670
910.108	14693
910.224	14689
910.339	14629
910.454	14476
910.57	14564
910.685	14438
910.8	14724
910.915	14579
911.03	14522
911.145	14404
911.259	14267
911.374	14237
911.489	14176
911.604	14088
911.718	14046
911.833	14107
911.947	13955
912.062	13890
912.176	14020
912.291	13951
912.405	13955
912.519	14195
912.633	14149
912.748	14081
912.862	14054
912.976	13871
913.09	13632
913.204	13765
913.318	13856
913.431	13925
913.545	13875
913.659	13974
913.772	13776
913.886	13753
914	13628
914.113	13833
914.226	13830
914.34	13704
914.453	13677
914.566	13704
914.68	13708
914.793	13578
914.906	13335
915.019	13274
915.132	13339
915.245	13335
915.358	13400
915.47	13377
915.583	13407
915.696	13373
915.809	13525
915.921	13483
916.034	13331
916.146	13289
916.259	13335
916.371	13422
916.483	13278
916.595	13232
916.708	13221
916.82	13335
916.932	13206
917.044	13244
917.156	13304
917.268	13145
917.38	13164
917.491	13099
917.603	13133
917.715	13160
917.826	13190
917.938	13046
918.049	13034
918.161	13133
918.272	13141
918.384	13168
918.495	13023
918.606	12954
918.717	12760
918.828	12909
918.939	12951
919.05	12867
919.161	12848
919.272	12658
919.383	12692
919.494	12856
919.604	12996
919.715	12871
919.826	12878
919.936	12798
920.047	12928
920.157	12882
920.267	12970
920.378	12856
920.488	12791
920.598	12970
920.708	13149
920.818	13019
920.928	12916
921.038	13175
921.148	13053
921.258	12760
921.368	12627
921.477	12547
921.587	12448
921.697	12395
921.806	12639
921.916	12384
922.025	12190
922.134	12281
922.244	12133
922.353	12254
922.462	12171
922.571	12007
922.68	11946
922.789	11893
922.898	11950
923.007	11863
923.116	11920
923.224	11885
923.333	11836
923.442	11775
923.55	11665
923.659	11779
923.767	11779
923.876	11668
923.984	11805
924.092	11668
924.201	11726
924.309	11688
924.417	11653
924.525	11497
924.633	11741
924.741	12627
924.849	11387
924.956	11573
925.064	11467
925.172	11307
925.279	11322
925.387	11425
925.494	11391
925.602	11585
925.709	11562
925.816	11307
925.924	11417
926.031	11410
926.138	11391
926.245	11406
926.352	11383
926.459	11421
926.566	11486
926.673	11322
926.779	11296
926.886	11162
926.993	11132
927.099	11041
927.206	10995
927.312	10972
927.419	11113
927.525	10961
927.631	11056
927.737	10938
927.843	10850
927.95	10725
928.056	10831
928.162	10847
928.267	10892
928.373	11444
928.479	10934
928.585	10847
928.69	10843
928.796	10965
928.901	10774
929.007	10584
929.112	10801
929.218	10736
929.323	10554
929.428	10634
929.533	10752
929.638	10523
929.743	10675
929.848	10721
929.953	10611
930.058	10573
930.163	10440
930.267	10436
930.372	10485
930.477	10344
930.581	10596
930.685	10417
930.79	10306
930.894	10322
930.998	10200
931.103	10436
931.207	10067
931.311	9949
931.415	9907
931.519	9740
931.623	9705
