Data from test_V78500241_571.txt Node
Date: Fri Mar 25 14:37:41 CST 2022
User: usil
Spectrometer: V785-0024
Trigger mode: 0
Integration Time (sec): 4.000000E-1
Scans to average: 1
Nonlinearity correction enabled: false
Boxcar width: 0
Storing dark spectrum: false
XAxis mode: Wavelengths
Number of Pixels in Spectrum: 1024
>>>>>Begin Spectral Data<<<<<
801.071	27766
801.214	27500
801.356	27260
801.499	27211
801.641	27211
801.783	27123
801.926	27089
802.068	27074
802.211	26785
802.353	26861
802.496	26530
802.638	26716
802.78	26503
802.923	26716
803.065	26564
803.208	26507
803.35	26560
803.492	26632
803.635	26830
803.777	26708
803.919	26762
804.061	27074
804.204	26853
804.346	26640
804.488	26575
804.63	26716
804.773	26659
804.915	26762
805.057	27039
805.199	26811
805.341	26910
805.483	26990
805.626	27017
805.768	27062
805.91	27154
806.052	27066
806.194	27077
806.336	27481
806.478	27401
806.62	27500
806.762	27591
806.904	28021
807.046	28341
807.188	28615
807.33	28660
807.472	29128
807.614	29395
807.756	29783
807.898	30517
808.04	31183
808.182	32339
808.324	33918
808.465	35490
808.607	37449
808.749	38811
808.891	39770
809.033	39717
809.174	38735
809.316	37251
809.458	35501
809.6	33583
809.741	32145
809.883	31004
810.025	30448
810.166	29786
810.308	29212
810.45	28778
810.591	28470
810.733	28268
810.875	28090
811.016	27755
811.158	27774
811.299	27732
811.441	27762
811.582	27679
811.724	27481
811.865	27359
812.007	27401
812.148	27306
812.29	27264
812.431	27397
812.573	27443
812.714	27580
812.855	27736
812.997	27690
813.138	27770
813.279	27732
813.421	27553
813.562	27447
813.703	27279
813.845	27157
813.986	26731
814.127	26625
814.268	26507
814.41	26560
814.551	26431
814.692	26522
814.833	26332
814.974	26336
815.115	26389
815.256	26301
815.397	26180
815.539	26199
815.68	26168
815.821	26111
815.962	26050
816.103	26100
816.244	25833
816.385	25795
816.526	25799
816.666	25685
816.807	25525
816.948	25441
817.089	25540
817.23	25457
817.371	25422
817.512	25289
817.653	25472
817.793	25312
817.934	25369
818.075	25289
818.216	25441
818.356	25301
818.497	25091
818.638	24992
818.778	24985
818.919	24920
819.06	25137
819.2	25187
819.341	25194
819.481	25312
819.622	25430
819.762	25559
819.903	25320
820.043	25247
820.184	25289
820.324	25377
820.465	25343
820.605	25228
820.746	25293
820.886	25278
821.026	25217
821.167	25091
821.307	25175
821.447	25160
821.588	25095
821.728	24852
821.868	24669
822.008	24604
822.149	24623
822.289	24540
822.429	24277
822.569	24129
822.709	24285
822.849	23942
822.99	23973
823.13	23908
823.27	23939
823.41	23878
823.55	23764
823.69	23832
823.83	23798
823.97	23665
824.11	23592
824.25	23455
824.389	23467
824.529	23672
824.669	23596
824.809	23596
824.949	23611
825.089	23745
825.228	23455
825.368	23482
825.508	23376
825.648	23395
825.787	23372
825.927	23421
826.067	23269
826.206	23337
826.346	23345
826.485	23383
826.625	23337
826.765	23322
826.904	23452
827.044	23181
827.183	23056
827.323	23067
827.462	23079
827.601	23033
827.741	22999
827.88	22976
828.02	22839
828.159	23025
828.298	22999
828.437	23056
828.577	22915
828.716	22995
828.855	22995
828.994	22786
829.134	22786
829.273	22668
829.412	22615
829.551	22679
829.69	22618
829.829	22630
829.968	22649
830.107	22793
830.246	22660
830.385	22535
830.524	22656
830.663	22542
830.802	22341
830.941	22253
831.08	22158
831.219	22329
831.357	22394
831.496	22481
831.635	22318
831.774	22105
831.913	22226
832.051	22063
832.19	22097
832.329	22139
832.467	21983
832.606	22017
832.744	22059
832.883	22147
833.022	22010
833.16	22124
833.299	22200
833.437	22242
833.576	22436
833.714	22348
833.852	22527
833.991	22653
834.129	22653
834.267	22790
834.406	22550
834.544	22694
834.682	22493
834.821	22261
834.959	22348
835.097	22329
835.235	22314
835.373	21953
835.511	22150
835.65	21960
835.788	22006
835.926	21884
836.064	21603
836.202	21709
836.34	21846
836.478	21819
836.615	21797
836.753	21850
836.891	21865
837.029	21781
837.167	21705
837.305	21671
837.443	21667
837.58	21625
837.718	21629
837.856	21751
837.993	21542
838.131	21595
838.269	21568
838.406	21473
838.544	21462
838.681	21302
838.819	21272
838.956	21116
839.094	21062
839.231	21161
839.369	21245
839.506	21439
839.643	21264
839.781	20979
839.918	20902
840.055	21066
840.193	21005
840.33	20804
840.467	20979
840.604	20929
840.742	21150
840.879	20830
841.016	20956
841.153	20830
841.29	21024
841.427	20960
841.564	21020
841.701	20914
841.838	20963
841.975	20834
842.112	20902
842.249	20712
842.385	20689
842.522	21001
842.659	20674
842.796	20750
842.933	20792
843.069	20777
843.206	20731
843.343	20762
843.479	20819
843.616	20849
843.752	20518
843.889	20708
844.025	20853
844.162	20686
844.298	20727
844.435	20762
844.571	20902
844.708	21226
844.844	21359
844.98	21572
845.117	21884
845.253	22192
845.389	23056
845.525	25019
845.661	28055
845.798	31776
845.934	34516
846.07	35722
846.206	35277
846.342	32899
846.478	29079
846.614	25822
846.75	23551
846.886	22478
847.022	21671
847.158	21142
847.294	20769
847.429	20693
847.565	20370
847.701	20629
847.837	19978
847.972	19887
848.108	19982
848.244	19978
848.379	19845
848.515	19670
848.65	19552
848.786	19651
848.921	19575
849.057	19700
849.192	19704
849.328	19540
849.463	19533
849.598	19628
849.734	19392
849.869	19388
850.004	19426
850.14	19335
850.275	19320
850.41	19148
850.545	19251
850.68	19327
850.815	19293
850.95	19198
851.085	19365
851.22	19384
851.355	19312
851.49	19206
851.625	19050
851.76	19240
851.895	19152
852.03	19198
852.165	19126
852.299	19327
852.434	19407
852.569	19301
852.703	19324
852.838	19331
852.973	19441
853.107	19499
853.242	19202
853.376	19198
853.511	19015
853.645	19225
853.78	19247
853.914	19213
854.048	19190
854.183	19266
854.317	19316
854.451	19529
854.585	19320
854.72	19148
854.854	19392
854.988	19145
855.122	19221
855.256	19008
855.39	19099
855.524	19274
855.658	19198
855.792	19244
855.926	19297
856.06	19263
856.194	19152
856.327	19103
856.461	18882
856.595	19099
856.729	19015
856.862	19194
856.996	19129
857.13	19228
857.263	19202
857.397	19171
857.53	18932
857.664	19095
857.797	19164
857.931	19179
858.064	19122
858.197	19179
858.331	18920
858.464	18833
858.597	18871
858.731	18901
858.864	19015
858.997	19038
859.13	19019
859.263	19050
859.396	18932
859.529	18924
859.662	18894
859.795	18932
859.928	18909
860.061	19183
860.194	19050
860.327	18947
860.46	18760
860.592	19031
860.725	19038
860.858	18939
860.99	18894
861.123	18871
861.256	18764
861.388	18833
861.521	19491
861.653	18928
861.786	18760
861.918	18848
862.05	18939
862.183	18783
862.315	18966
862.447	18996
862.58	18856
862.712	18749
862.844	18665
862.976	18802
863.108	18665
863.24	19004
863.372	18608
863.504	18612
863.636	18631
863.768	18669
863.9	18703
864.032	18566
864.164	18528
864.296	18642
864.428	18707
864.559	18722
864.691	18700
864.823	18684
864.954	18525
865.086	18574
865.217	18464
865.349	18536
865.48	18593
865.612	18460
865.743	18555
865.875	18639
866.006	18498
866.137	18669
866.269	18532
866.4	18536
866.531	18604
866.662	18304
866.793	18471
866.924	18490
867.055	18494
867.186	18471
867.317	18441
867.448	18380
867.579	18582
867.71	18456
867.841	18350
867.972	18471
868.103	18517
868.233	18601
868.364	18376
868.495	18608
868.625	18696
868.756	18810
868.886	18677
869.017	18738
869.147	18875
869.278	18897
869.408	18783
869.539	18802
869.669	18814
869.799	18833
869.929	18753
870.06	18825
870.19	19069
870.32	19031
870.45	19156
870.58	19141
870.71	19244
870.84	19236
870.97	19202
871.1	19190
871.23	19384
871.36	19358
871.489	19377
871.619	19339
871.749	19346
871.879	19472
872.008	19403
872.138	19445
872.267	19327
872.397	19312
872.526	19388
872.656	19392
872.785	19331
872.915	19597
873.044	19582
873.173	19415
873.303	19597
873.432	19514
873.561	19624
873.69	19556
873.819	19556
873.948	19719
874.077	19624
874.206	19571
874.335	19624
874.464	19727
874.593	19871
874.722	19818
874.851	19974
874.979	20153
875.108	19978
875.237	19944
875.365	19986
875.494	20115
875.623	20111
875.751	20046
875.88	20180
876.008	20282
876.136	20339
876.265	20667
876.393	20842
876.521	20754
876.65	20815
876.778	20701
876.906	20621
877.034	20765
877.162	20701
877.29	20902
877.418	20819
877.546	20982
877.674	20975
877.802	21093
877.93	21123
878.058	21096
878.185	21245
878.313	21408
878.441	21660
878.568	21766
878.696	22017
878.824	22516
878.951	23227
879.079	24098
879.206	25255
879.333	26271
879.461	27207
879.588	27876
879.715	27987
879.842	27485
879.97	26309
880.097	25103
880.224	24167
880.351	23547
880.478	23136
880.605	22752
880.732	22538
880.859	22592
880.986	22207
881.112	22177
881.239	22032
881.366	21861
881.493	21835
881.619	21751
881.746	21945
881.872	21994
881.999	21876
882.125	21766
882.252	21953
882.378	22021
882.505	22150
882.631	21838
882.757	21774
882.883	21785
883.01	21743
883.136	21694
883.262	21606
883.388	21530
883.514	21800
883.64	21682
883.766	21660
883.892	21458
884.018	21477
884.143	21679
884.269	21827
884.395	21443
884.52	21435
884.646	21405
884.772	21393
884.897	21306
885.023	21386
885.148	21393
885.274	21447
885.399	21401
885.524	21233
885.65	21207
885.775	21192
885.9	21005
886.025	21070
886.15	21100
886.275	20796
886.4	20609
886.525	20682
886.65	20625
886.775	20431
886.9	20575
887.025	20765
887.149	20473
887.274	20187
887.399	20119
887.523	20077
887.648	19906
887.773	19822
887.897	19986
888.021	19921
888.146	19837
888.27	19833
888.395	19917
888.519	19753
888.643	19693
888.767	19719
888.891	19613
889.015	19510
889.139	19495
889.263	19384
889.387	19472
889.511	19548
889.635	19559
889.759	19472
889.883	19289
890.006	19308
890.13	19331
890.254	19202
890.377	19152
890.501	19095
890.624	19000
890.748	19103
890.871	18882
890.995	18886
891.118	18715
891.241	18684
891.364	18844
891.488	18791
891.611	18787
891.734	18711
891.857	18875
891.98	18681
892.103	18757
892.226	18726
892.349	18612
892.471	18475
892.594	18574
892.717	18665
892.839	18525
892.962	18422
893.085	18616
893.207	18582
893.33	18395
893.452	18391
893.575	18604
893.697	18441
893.819	18593
893.941	18707
894.064	18475
894.186	18315
894.308	18342
894.43	18521
894.552	18566
894.674	18540
894.796	18273
894.918	18407
895.04	18342
895.161	18437
895.283	18388
895.405	18155
895.526	18281
895.648	18163
895.769	18319
895.891	18285
896.012	18311
896.134	18258
896.255	18342
896.376	18254
896.498	18285
896.619	18407
896.74	18311
896.861	18369
896.982	18650
897.103	18768
897.224	18486
897.345	18490
897.466	18429
897.587	18551
897.708	18578
897.828	18506
897.949	18372
898.07	18365
898.19	18433
898.311	18509
898.431	18376
898.552	18604
898.672	18540
898.792	18639
898.913	18544
899.033	18407
899.153	18399
899.273	18186
899.393	18174
899.513	18292
899.633	18224
899.753	18136
899.873	18205
899.993	18308
900.113	18110
900.232	18258
900.352	18216
900.472	18106
900.591	17988
900.711	18026
900.83	18003
900.95	18167
901.069	18235
901.189	17946
901.308	17733
901.427	17661
901.546	17570
901.665	17661
901.784	17767
901.904	17459
902.023	17360
902.141	17151
902.26	17083
902.379	17178
902.498	17143
902.617	17083
902.735	17181
902.854	17060
902.973	16961
903.091	16828
903.21	16805
903.328	16805
903.446	16637
903.565	16615
903.683	16599
903.801	16462
903.919	16459
904.038	16516
904.156	16348
904.274	16497
904.392	16379
904.51	16356
904.627	16322
904.745	16390
904.863	16314
904.981	16082
905.098	16010
905.216	15983
905.334	16040
905.451	16078
905.569	15930
905.686	15994
905.803	15854
905.921	15781
906.038	15861
906.155	15778
906.272	15755
906.389	15648
906.506	15591
906.623	15519
906.74	15469
906.857	15424
906.974	15363
907.091	15443
907.208	15679
907.324	15561
907.441	15485
907.557	15363
907.674	15176
907.79	15150
907.907	15222
908.023	15249
908.139	15077
908.256	15077
908.372	15089
908.488	15089
908.604	14960
908.72	14902
908.836	14902
908.952	14868
909.068	14933
909.184	15020
909.3	14872
909.415	14914
909.531	14826
909.647	14640
909.762	14587
909.878	14579
909.993	14632
910.108	14590
910.224	14636
910.339	14670
910.454	14533
910.57	14431
910.685	14427
910.8	14651
910.915	14583
911.03	14412
911.145	14309
911.259	14393
911.374	14248
911.489	14214
911.604	14218
911.718	14058
911.833	13963
911.947	13974
912.062	13902
912.176	14008
912.291	14024
912.405	14016
912.519	14145
912.633	14176
912.748	14016
912.862	13849
912.976	13837
913.09	13700
913.204	13791
913.318	13826
913.431	13917
913.545	13849
913.659	13928
913.772	13826
913.886	13681
914	13624
914.113	13750
914.226	13803
914.34	13674
914.453	13636
914.566	13765
914.68	13689
914.793	13502
914.906	13407
915.019	13350
915.132	13365
915.245	13244
915.358	13301
915.47	13365
915.583	13304
915.696	13472
915.809	13499
915.921	13449
916.034	13301
916.146	13244
916.259	13228
916.371	13422
916.483	13331
916.595	13263
916.708	13198
916.82	13217
916.932	13236
917.044	13122
917.156	13149
917.268	13076
917.38	13088
917.491	13095
917.603	13015
917.715	13160
917.826	13171
917.938	13012
918.049	12909
918.161	13004
918.272	13126
918.384	13103
918.495	13034
918.606	12833
918.717	12817
918.828	12810
918.939	12825
919.05	12707
919.161	12772
919.272	12582
919.383	12665
919.494	12985
919.604	13053
919.715	12787
919.826	12719
919.936	12734
920.047	12886
920.157	12837
920.267	12981
920.378	12711
920.488	12764
920.598	12977
920.708	13072
920.818	12962
920.928	12875
921.038	12993
921.148	13061
921.258	12760
921.368	12688
921.477	12623
921.587	12578
921.697	12399
921.806	12589
921.916	12437
922.025	12350
922.134	12254
922.244	12117
922.353	12311
922.462	12095
922.571	11980
922.68	11855
922.789	11912
922.898	11912
923.007	11866
923.116	11908
923.224	11927
923.333	11954
923.442	11680
923.55	11783
923.659	11771
923.767	11703
923.876	11619
923.984	11748
924.092	11695
924.201	11585
924.309	11786
924.417	11623
924.525	11566
924.633	11535
924.741	12323
924.849	11429
924.956	11524
925.064	11353
925.172	11254
925.279	11318
925.387	11368
925.494	11379
925.602	11490
925.709	11474
925.816	11315
925.924	11330
926.031	11482
926.138	11391
926.245	11387
926.352	11269
926.459	11410
926.566	11501
926.673	11216
926.779	11132
926.886	11181
926.993	10991
927.099	10976
927.206	10980
927.312	10927
927.419	11064
927.525	10919
927.631	11071
927.737	10927
927.843	10763
927.95	10733
928.056	10873
928.162	10873
928.267	10850
928.373	11421
928.479	10892
928.585	10626
928.69	10862
928.796	10839
928.901	10725
929.007	10618
929.112	10736
929.218	10683
929.323	10618
929.428	10626
929.533	10790
929.638	10504
929.743	10504
929.848	10584
929.953	10550
930.058	10493
930.163	10367
930.267	10459
930.372	10413
930.477	10272
930.581	10527
930.685	10356
930.79	10196
930.894	10204
930.998	10188
931.103	10344
931.207	10025
931.311	9975
931.415	9861
931.519	9667
931.623	9713
