Data from test_V78500241_3459.txt Node
Date: Fri Mar 25 14:57:48 CST 2022
User: usil
Spectrometer: V785-0024
Trigger mode: 0
Integration Time (sec): 4.000000E-1
Scans to average: 1
Nonlinearity correction enabled: false
Boxcar width: 0
Storing dark spectrum: false
XAxis mode: Wavelengths
Number of Pixels in Spectrum: 1024
>>>>>Begin Spectral Data<<<<<
801.071	21941
801.214	21778
801.356	21542
801.499	21454
801.641	21435
801.783	21188
801.926	21367
802.068	21211
802.211	21241
802.353	21085
802.496	20937
802.638	20834
802.78	20632
802.923	20678
803.065	20530
803.208	20594
803.35	20648
803.492	20864
803.635	20731
803.777	20545
803.919	20667
804.061	21001
804.204	20667
804.346	20545
804.488	20484
804.63	20541
804.773	20545
804.915	20533
805.057	20590
805.199	20393
805.341	20556
805.483	20644
805.626	20602
805.768	20495
805.91	20514
806.052	20545
806.194	20339
806.336	20583
806.478	20560
806.62	20438
806.762	20511
806.904	20743
807.046	20781
807.188	20883
807.33	20804
807.472	20891
807.614	20785
807.756	20838
807.898	20484
808.04	20465
808.182	20625
808.324	20514
808.465	20579
808.607	20811
808.749	20952
808.891	20952
809.033	21032
809.174	20918
809.316	20834
809.458	20883
809.6	20842
809.741	20914
809.883	20937
810.025	21058
810.166	21001
810.308	21116
810.45	20941
810.591	20811
810.733	20781
810.875	20678
811.016	20613
811.158	20533
811.299	20750
811.441	20701
811.582	20739
811.724	20590
811.865	20617
812.007	20560
812.148	20602
812.29	20549
812.431	20891
812.573	20876
812.714	20990
812.855	21142
812.997	21214
813.138	21287
813.279	21230
813.421	21161
813.562	21096
813.703	20765
813.845	20868
813.986	20438
814.127	20237
814.268	20320
814.41	20138
814.551	20103
814.692	20286
814.833	20069
814.974	19997
815.115	20202
815.256	19967
815.397	19898
815.539	19955
815.68	19871
815.821	19807
815.962	19909
816.103	19845
816.244	19700
816.385	19624
816.526	19689
816.666	19403
816.807	19362
816.948	19468
817.089	19377
817.23	19221
817.371	19244
817.512	19289
817.653	19263
817.793	19263
817.934	19308
818.075	19270
818.216	19369
818.356	19274
818.497	19137
818.638	18973
818.778	18886
818.919	19038
819.06	19038
819.2	19110
819.341	19232
819.481	19084
819.622	19324
819.762	19445
819.903	19362
820.043	19247
820.184	19194
820.324	19168
820.465	19350
820.605	19213
820.746	19308
820.886	19076
821.026	19209
821.167	19202
821.307	19377
821.447	19240
821.588	19053
821.728	19015
821.868	18859
822.008	18734
822.149	18806
822.289	18585
822.429	18460
822.569	18399
822.709	18441
822.849	18190
822.99	18235
823.13	18205
823.27	18091
823.41	17923
823.55	17904
823.69	17984
823.83	18003
823.97	17916
824.11	17657
824.25	17824
824.389	17733
824.529	17847
824.669	17790
824.809	17729
824.949	17805
825.089	17809
825.228	17798
825.368	17505
825.508	17592
825.648	17623
825.787	17512
825.927	17627
826.067	17562
826.206	17554
826.346	17509
826.485	17532
826.625	17459
826.765	17646
826.904	17444
827.044	17315
827.183	17223
827.323	17124
827.462	17292
827.601	17356
827.741	17227
827.88	17181
828.02	17113
828.159	17204
828.298	17265
828.437	17258
828.577	17071
828.716	17356
828.855	17124
828.994	17041
829.134	16999
829.273	16976
829.412	16938
829.551	16892
829.69	16923
829.829	16991
829.968	17029
830.107	17060
830.246	17022
830.385	16873
830.524	16927
830.663	16778
830.802	16790
830.941	16569
831.08	16577
831.219	16706
831.357	16744
831.496	16809
831.635	16645
831.774	16550
831.913	16504
832.051	16447
832.19	16394
832.329	16455
832.467	16405
832.606	16211
832.744	16325
832.883	16314
833.022	16204
833.16	16291
833.299	16360
833.437	16367
833.576	16249
833.714	16344
833.852	16402
833.991	16459
834.129	16512
834.267	16478
834.406	16443
834.544	16367
834.682	16409
834.821	16470
834.959	16470
835.097	16344
835.235	16478
835.373	16447
835.511	16474
835.65	16295
835.788	16265
835.926	16120
836.064	16116
836.202	16185
836.34	16394
836.478	16253
836.615	16272
836.753	16265
836.891	16417
837.029	16287
837.167	16226
837.305	16272
837.443	16253
837.58	16131
837.718	16318
837.856	16116
837.993	16105
838.131	16177
838.269	16116
838.406	16147
838.544	15972
838.681	15873
838.819	15816
838.956	15732
839.094	15789
839.231	15781
839.369	15770
839.506	16139
839.643	15945
839.781	15804
839.918	15717
840.055	15751
840.193	15648
840.33	15641
840.467	15720
840.604	15728
840.742	16021
840.879	15675
841.016	15652
841.153	15682
841.29	15728
841.427	15755
841.564	15751
841.701	15671
841.838	15766
841.975	15545
842.112	15717
842.249	15492
842.385	15496
842.522	15656
842.659	15625
842.796	15424
842.933	15523
843.069	15519
843.206	15500
843.343	15618
843.479	15549
843.616	15603
843.752	15302
843.889	15214
844.025	15511
844.162	15294
844.298	15481
844.435	15268
844.571	15306
844.708	15405
844.844	15447
844.98	15462
845.117	15439
845.253	15218
845.389	15207
845.525	15211
845.661	15180
845.798	15077
845.934	15123
846.07	15036
846.206	15226
846.342	15268
846.478	15116
846.614	14986
846.75	14902
846.886	14853
847.022	14845
847.158	14918
847.294	14887
847.429	14845
847.565	14872
847.701	15097
847.837	14629
847.972	14518
848.108	14708
848.244	14686
848.379	14507
848.515	14415
848.65	14473
848.786	14492
848.921	14488
849.057	14552
849.192	14575
849.328	14480
849.463	14476
849.598	14366
849.734	14408
849.869	14408
850.004	14240
850.14	14271
850.275	14385
850.41	14210
850.545	14214
850.68	14248
850.815	14256
850.95	14199
851.085	14480
851.22	14290
851.355	14191
851.49	14130
851.625	14210
851.76	14290
851.895	14145
852.03	14168
852.165	14290
852.299	14237
852.434	14419
852.569	14259
852.703	14324
852.838	14332
852.973	14396
853.107	14454
853.242	14168
853.376	14119
853.511	13993
853.645	14046
853.78	14271
853.914	14168
854.048	14039
854.183	14115
854.317	14039
854.451	14275
854.585	14134
854.72	14119
854.854	14244
854.988	14039
855.122	14199
855.256	13955
855.39	14020
855.524	14172
855.658	14263
855.792	14195
855.926	14210
856.06	14214
856.194	14195
856.327	14161
856.461	14020
856.595	14153
856.729	14123
856.862	14183
856.996	14142
857.13	14130
857.263	14202
857.397	14282
857.53	14043
857.664	14168
857.797	14252
857.931	14138
858.064	14058
858.197	14180
858.331	14077
858.464	14062
858.597	13928
858.731	14206
858.864	14031
858.997	14024
859.13	14157
859.263	14172
859.396	14183
859.529	14126
859.662	14164
859.795	14039
859.928	14138
860.061	14336
860.194	14263
860.327	14168
860.46	14065
860.592	14225
860.725	14244
860.858	14164
860.99	14069
861.123	14058
861.256	14111
861.388	14043
861.521	14880
861.653	14031
861.786	13974
861.918	14027
862.05	14069
862.183	14005
862.315	14069
862.447	14123
862.58	14088
862.712	13871
862.844	13803
862.976	13955
863.108	13894
863.24	14377
863.372	13772
863.504	13849
863.636	13833
863.768	13970
863.9	13944
864.032	13883
864.164	13860
864.296	13887
864.428	13993
864.559	14031
864.691	13963
864.823	13932
864.954	13917
865.086	13955
865.217	13902
865.349	13776
865.48	13921
865.612	13921
865.743	14065
865.875	13963
866.006	13887
866.137	13883
866.269	13818
866.4	13879
866.531	13788
866.662	13822
866.793	13757
866.924	13841
867.055	13928
867.186	13921
867.317	13856
867.448	13814
867.579	13791
867.71	13898
867.841	13788
867.972	13944
868.103	13841
868.233	13932
868.364	13875
868.495	13906
868.625	14145
868.756	14278
868.886	14081
869.017	14073
869.147	14229
869.278	14305
869.408	14126
869.539	14126
869.669	14195
869.799	14119
869.929	14240
870.06	14248
870.19	14454
870.32	14427
870.45	14503
870.58	14488
870.71	14625
870.84	14617
870.97	14530
871.1	14571
871.23	14724
871.36	14701
871.489	14655
871.619	14686
871.749	14762
871.879	14712
872.008	14933
872.138	14769
872.267	14788
872.397	14587
872.526	14648
872.656	14556
872.785	14663
872.915	14876
873.044	14906
873.173	14743
873.303	14758
873.432	14834
873.561	14887
873.69	14842
873.819	14826
873.948	14849
874.077	14785
874.206	14743
874.335	14845
874.464	15024
874.593	15062
874.722	14990
874.851	15203
874.979	15180
875.108	15051
875.237	15028
875.365	14948
875.494	14979
875.623	15089
875.751	15028
875.88	15146
876.008	15260
876.136	15260
876.265	15534
876.393	15785
876.521	15557
876.65	15648
876.778	15477
876.906	15424
877.034	15492
877.162	15568
877.29	15496
877.418	15507
877.546	15507
877.674	15572
877.802	15469
877.93	15701
878.058	15496
878.185	15386
878.313	15576
878.441	15561
878.568	15325
878.696	15511
878.824	15530
878.951	15660
879.079	15694
879.206	15880
879.333	15835
879.461	15424
879.588	15644
879.715	15667
879.842	15831
879.97	15671
880.097	15393
880.224	15401
880.351	15504
880.478	15408
880.605	15313
880.732	15431
880.859	15618
880.986	15477
881.112	15405
881.239	15264
881.366	15176
881.493	15119
881.619	15039
881.746	15009
881.872	15097
881.999	15039
882.125	15005
882.252	15043
882.378	15100
882.505	15157
882.631	14876
882.757	14906
882.883	14979
883.01	14925
883.136	14925
883.262	14644
883.388	14617
883.514	14899
883.64	14960
883.766	14792
883.892	14765
884.018	14716
884.143	14807
884.269	14944
884.395	14640
884.52	14511
884.646	14606
884.772	14419
884.897	14454
885.023	14648
885.148	14560
885.274	14792
885.399	14583
885.524	14571
885.65	14575
885.775	14549
885.9	14674
886.025	14739
886.15	14701
886.275	14560
886.4	14594
886.525	14503
886.65	14476
886.775	14484
886.9	14682
887.025	14724
887.149	14587
887.274	14461
887.399	14294
887.523	14385
887.648	14282
887.773	14412
887.897	14488
888.021	14400
888.146	14412
888.27	14488
888.395	14545
888.519	14499
888.643	14377
888.767	14499
888.891	14381
889.015	14221
889.139	14317
889.263	14126
889.387	14294
889.511	14431
889.635	14374
889.759	14305
889.883	14206
890.006	14237
890.13	14385
890.254	14218
890.377	14172
890.501	14123
890.624	14092
890.748	14164
890.871	13986
890.995	13982
891.118	13947
891.241	13986
891.364	13963
891.488	14092
891.611	14008
891.734	13986
891.857	14039
891.98	13951
892.103	14043
892.226	13959
892.349	13993
892.471	13784
892.594	13959
892.717	13940
892.839	13993
892.962	13989
893.085	13944
893.207	13936
893.33	13875
893.452	13887
893.575	13936
893.697	13974
893.819	14069
893.941	14195
894.064	14187
894.186	13989
894.308	14012
894.43	14149
894.552	14092
894.674	14031
894.796	14077
894.918	13970
895.04	13993
895.161	14123
895.283	14001
895.405	14054
895.526	14107
895.648	14073
895.769	14005
895.891	14103
896.012	14119
896.134	14077
896.255	14214
896.376	14100
896.498	14100
896.619	14161
896.74	14168
896.861	14248
896.982	14507
897.103	14621
897.224	14522
897.345	14385
897.466	14301
897.587	14370
897.708	14549
897.828	14404
897.949	14309
898.07	14282
898.19	14320
898.311	14610
898.431	14393
898.552	14514
898.672	14495
898.792	14575
898.913	14522
899.033	14431
899.153	14313
899.273	14218
899.393	14347
899.513	14259
899.633	14237
899.753	14408
899.873	14362
899.993	14347
900.113	14290
900.232	14320
900.352	14275
900.472	14267
900.591	14153
900.711	14267
900.83	14145
900.95	14248
901.069	14332
901.189	14130
901.308	13909
901.427	13772
901.546	13951
901.665	13917
901.784	13925
901.904	13860
902.023	13685
902.141	13514
902.26	13521
902.379	13460
902.498	13499
902.617	13392
902.735	13464
902.854	13445
902.973	13430
903.091	13190
903.21	13145
903.328	13000
903.446	13129
903.565	13103
903.683	13122
903.801	12932
903.919	13000
904.038	13072
904.156	12814
904.274	12958
904.392	12848
904.51	12867
904.627	12814
904.745	12844
904.863	12852
904.981	12673
905.098	12464
905.216	12521
905.334	12536
905.451	12536
905.569	12555
905.686	12532
905.803	12597
905.921	12380
906.038	12479
906.155	12308
906.272	12243
906.389	12292
906.506	12155
906.623	12140
906.74	12129
906.857	11996
906.974	12030
907.091	12247
907.208	12228
907.324	12155
907.441	12110
907.557	11923
907.674	11828
907.79	11863
907.907	11828
908.023	11836
908.139	11931
908.256	11771
908.372	11802
908.488	11786
908.604	11684
908.72	11642
908.836	11680
908.952	11562
909.068	11638
909.184	11741
909.3	11627
909.415	11722
909.531	11680
909.647	11364
909.762	11414
909.878	11349
909.993	11440
910.108	11414
910.224	11410
910.339	11364
910.454	11353
910.57	11322
910.685	11307
910.8	11505
910.915	11364
911.03	11360
911.145	11170
911.259	11124
911.374	11181
911.489	11071
911.604	10976
911.718	10930
911.833	10896
911.947	10805
912.062	10710
912.176	10850
912.291	10934
912.405	10877
912.519	11025
912.633	11159
912.748	10930
912.862	10949
912.976	10729
913.09	10683
913.204	10664
913.318	10771
913.431	10858
913.545	10824
913.659	10877
913.772	10763
913.886	10653
914	10542
914.113	10763
914.226	10793
914.34	10736
914.453	10626
914.566	10721
914.68	10626
914.793	10558
914.906	10493
915.019	10379
915.132	10356
915.245	10432
915.358	10417
915.47	10375
915.583	10394
915.696	10443
915.809	10637
915.921	10523
916.034	10367
916.146	10272
916.259	10299
916.371	10466
916.483	10371
916.595	10272
916.708	10299
916.82	10413
916.932	10280
917.044	10272
917.156	10314
917.268	10128
917.38	10249
917.491	10261
917.603	10246
917.715	10341
917.826	10291
917.938	10154
918.049	10097
918.161	10261
918.272	10306
918.384	10390
918.495	10276
918.606	10207
918.717	10086
918.828	10051
918.939	10139
919.05	9941
919.161	10067
919.272	9911
919.383	9918
919.494	10204
919.604	10409
919.715	10192
919.826	10025
919.936	10074
920.047	10227
920.157	10086
920.267	10386
920.378	10059
920.488	10131
920.598	10333
920.708	10459
920.818	10386
920.928	10329
921.038	10436
921.148	10440
921.258	10234
921.368	10101
921.477	9968
921.587	9979
921.697	9884
921.806	10002
921.916	9800
922.025	9743
922.134	9713
922.244	9606
922.353	9720
922.462	9542
922.571	9561
922.68	9450
922.789	9389
922.898	9367
923.007	9321
923.116	9469
923.224	9302
923.333	9363
923.442	9294
923.55	9256
923.659	9272
923.767	9336
923.876	9253
923.984	9310
924.092	9173
924.201	9256
924.309	9249
924.417	9275
924.525	9173
924.633	9169
924.741	10147
924.849	9077
924.956	9127
925.064	9028
925.172	8971
925.279	9043
925.387	8986
925.494	9066
925.602	9058
925.709	9089
925.816	8941
925.924	9077
926.031	9100
926.138	9032
926.245	9135
926.352	9005
926.459	9127
926.566	9138
926.673	8998
926.779	8948
926.886	8853
926.993	8838
927.099	8712
927.206	8708
927.312	8670
927.419	8773
927.525	8735
927.631	8788
927.737	8689
927.843	8686
927.95	8522
928.056	8621
928.162	8636
928.267	8674
928.373	9294
928.479	8735
928.585	8476
928.69	8678
928.796	8651
928.901	8602
929.007	8556
929.112	8507
929.218	8522
929.323	8549
929.428	8423
929.533	8625
929.638	8408
929.743	8514
929.848	8473
929.953	8480
930.058	8339
930.163	8259
930.267	8221
930.372	8328
930.477	8191
930.581	8450
930.685	8343
930.79	8237
930.894	8240
930.998	8199
931.103	8298
931.207	7955
931.311	8081
931.415	7921
931.519	7712
931.623	7704
