Data from test_V78500241_3075.txt Node
Date: Fri Mar 25 14:55:07 CST 2022
User: usil
Spectrometer: V785-0024
Trigger mode: 0
Integration Time (sec): 4.000000E-1
Scans to average: 1
Nonlinearity correction enabled: false
Boxcar width: 0
Storing dark spectrum: false
XAxis mode: Wavelengths
Number of Pixels in Spectrum: 1024
>>>>>Begin Spectral Data<<<<<
801.071	22257
801.214	22002
801.356	21625
801.499	21629
801.641	21606
801.783	21542
801.926	21572
802.068	21454
802.211	21279
802.353	21226
802.496	21214
802.638	20876
802.78	20899
802.923	20811
803.065	20682
803.208	20872
803.35	20769
803.492	20906
803.635	20921
803.777	20670
803.919	20830
804.061	21195
804.204	20872
804.346	20785
804.488	20727
804.63	20754
804.773	20746
804.915	20750
805.057	20765
805.199	20693
805.341	20857
805.483	20762
805.626	20746
805.768	20640
805.91	20727
806.052	20701
806.194	20511
806.336	20853
806.478	20674
806.62	20636
806.762	20785
806.904	20956
807.046	21184
807.188	21131
807.33	20963
807.472	21081
807.614	20971
807.756	20956
807.898	20902
808.04	20754
808.182	20769
808.324	20819
808.465	20887
808.607	20956
808.749	20956
808.891	21127
809.033	21203
809.174	21066
809.316	20967
809.458	20982
809.6	21043
809.741	21127
809.883	21024
810.025	21408
810.166	21214
810.308	21154
810.45	21119
810.591	21138
810.733	20998
810.875	20804
811.016	20762
811.158	20777
811.299	20834
811.441	20979
811.582	20986
811.724	20838
811.865	20834
812.007	20796
812.148	20937
812.29	20982
812.431	20948
812.573	21218
812.714	21123
812.855	21279
812.997	21515
813.138	21359
813.279	21462
813.421	21336
813.562	21268
813.703	20967
813.845	20918
813.986	20724
814.127	20476
814.268	20393
814.41	20457
814.551	20412
814.692	20381
814.833	20286
814.974	20370
815.115	20423
815.256	20267
815.397	20358
815.539	20290
815.68	20206
815.821	20073
815.962	20138
816.103	20164
816.244	19944
816.385	19811
816.526	19860
816.666	19734
816.807	19499
816.948	19635
817.089	19700
817.23	19552
817.371	19441
817.512	19499
817.653	19537
817.793	19483
817.934	19472
818.075	19518
818.216	19537
818.356	19480
818.497	19331
818.638	19171
818.778	19148
818.919	19236
819.06	19156
819.2	19327
819.341	19343
819.481	19365
819.622	19518
819.762	19696
819.903	19674
820.043	19655
820.184	19567
820.324	19502
820.465	19514
820.605	19544
820.746	19464
820.886	19365
821.026	19472
821.167	19533
821.307	19483
821.447	19441
821.588	19259
821.728	19255
821.868	18996
822.008	18875
822.149	18890
822.289	18901
822.429	18711
822.569	18700
822.709	18612
822.849	18418
822.99	18334
823.13	18334
823.27	18365
823.41	18251
823.55	18034
823.69	18205
823.83	18155
823.97	18178
824.11	17954
824.25	17885
824.389	18022
824.529	17984
824.669	17931
824.809	18026
824.949	18011
825.089	18030
825.228	18022
825.368	17623
825.508	17828
825.648	17737
825.787	17840
825.927	17771
826.067	17714
826.206	17729
826.346	17756
826.485	17752
826.625	17676
826.765	17805
826.904	17809
827.044	17566
827.183	17509
827.323	17425
827.462	17406
827.601	17459
827.741	17414
827.88	17467
828.02	17360
828.159	17353
828.298	17417
828.437	17505
828.577	17356
828.716	17493
828.855	17379
828.994	17162
829.134	17155
829.273	17269
829.412	17151
829.551	16980
829.69	17151
829.829	17185
829.968	17299
830.107	17273
830.246	17178
830.385	17113
830.524	16930
830.663	16953
830.802	16896
830.941	16687
831.08	16687
831.219	16824
831.357	16900
831.496	17037
831.635	16675
831.774	16694
831.913	16683
832.051	16519
832.19	16417
832.329	16546
832.467	16462
832.606	16382
832.744	16481
832.883	16466
833.022	16409
833.16	16352
833.299	16611
833.437	16527
833.576	16459
833.714	16577
833.852	16519
833.991	16523
834.129	16550
834.267	16573
834.406	16538
834.544	16542
834.682	16500
834.821	16474
834.959	16717
835.097	16451
835.235	16637
835.373	16390
835.511	16527
835.65	16371
835.788	16481
835.926	16280
836.064	16192
836.202	16223
836.34	16489
836.478	16542
836.615	16314
836.753	16344
836.891	16432
837.029	16527
837.167	16417
837.305	16295
837.443	16299
837.58	16215
837.718	16223
837.856	16386
837.993	16188
838.131	16150
838.269	16154
838.406	16169
838.544	16082
838.681	16105
838.819	15994
838.956	15835
839.094	15759
839.231	15873
839.369	15880
839.506	16253
839.643	16006
839.781	15922
839.918	15739
840.055	15755
840.193	15861
840.33	15762
840.467	15861
840.604	15751
840.742	15991
840.879	15743
841.016	15720
841.153	15671
841.29	15926
841.427	15827
841.564	15899
841.701	15747
841.838	15698
841.975	15587
842.112	15675
842.249	15675
842.385	15610
842.522	15774
842.659	15500
842.796	15538
842.933	15492
843.069	15538
843.206	15603
843.343	15652
843.479	15584
843.616	15663
843.752	15450
843.889	15382
844.025	15587
844.162	15313
844.298	15545
844.435	15325
844.571	15321
844.708	15412
844.844	15408
844.98	15549
845.117	15488
845.253	15378
845.389	15275
845.525	15355
845.661	15252
845.798	15169
845.934	15218
846.07	15100
846.206	15214
846.342	15275
846.478	15138
846.614	15005
846.75	15028
846.886	14891
847.022	15081
847.158	14971
847.294	14902
847.429	14880
847.565	14876
847.701	15188
847.837	14655
847.972	14686
848.108	14739
848.244	14689
848.379	14549
848.515	14598
848.65	14465
848.786	14549
848.921	14530
849.057	14598
849.192	14545
849.328	14583
849.463	14594
849.598	14358
849.734	14461
849.869	14438
850.004	14317
850.14	14370
850.275	14377
850.41	14206
850.545	14256
850.68	14275
850.815	14206
850.95	14332
851.085	14499
851.22	14404
851.355	14336
851.49	14252
851.625	14240
851.76	14225
851.895	14126
852.03	14126
852.165	14332
852.299	14309
852.434	14461
852.569	14347
852.703	14328
852.838	14339
852.973	14526
853.107	14400
853.242	14218
853.376	14176
853.511	14069
853.645	14168
853.78	14248
853.914	14176
854.048	14142
854.183	14073
854.317	14244
854.451	14320
854.585	14157
854.72	14153
854.854	14256
854.988	14096
855.122	14130
855.256	14016
855.39	14180
855.524	14275
855.658	14176
855.792	14103
855.926	14202
856.06	14252
856.194	14355
856.327	14214
856.461	14050
856.595	14073
856.729	14123
856.862	14218
856.996	14221
857.13	14271
857.263	14267
857.397	14240
857.53	14161
857.664	14400
857.797	14240
857.931	14282
858.064	14259
858.197	14229
858.331	14199
858.464	14206
858.597	14012
858.731	14206
858.864	14271
858.997	14157
859.13	14191
859.263	14240
859.396	14336
859.529	14199
859.662	14058
859.795	14145
859.928	14233
860.061	14336
860.194	14396
860.327	14145
860.46	14248
860.592	14187
860.725	14267
860.858	14343
860.99	14123
861.123	14145
861.256	14088
861.388	14206
861.521	14754
861.653	14088
861.786	13902
861.918	14100
862.05	14058
862.183	14111
862.315	14183
862.447	14237
862.58	14119
862.712	13986
862.844	13921
862.976	13974
863.108	13997
863.24	14214
863.372	13925
863.504	13909
863.636	13951
863.768	14027
863.9	13947
864.032	13776
864.164	13936
864.296	13989
864.428	14035
864.559	14008
864.691	14084
864.823	13986
864.954	13947
865.086	13997
865.217	13822
865.349	13849
865.48	13928
865.612	13963
865.743	14119
865.875	13986
866.006	13959
866.137	14081
866.269	13890
866.4	13947
866.531	13890
866.662	13928
866.793	13898
866.924	13906
867.055	14096
867.186	14008
867.317	13947
867.448	13849
867.579	13913
867.71	13852
867.841	13845
867.972	13974
868.103	13909
868.233	14027
868.364	13936
868.495	13982
868.625	14103
868.756	14286
868.886	14027
869.017	14233
869.147	14286
869.278	14286
869.408	14145
869.539	14259
869.669	14259
869.799	14278
869.929	14244
870.06	14180
870.19	14526
870.32	14457
870.45	14598
870.58	14602
870.71	14712
870.84	14739
870.97	14564
871.1	14590
871.23	14686
871.36	14788
871.489	14648
871.619	14739
871.749	14735
871.879	14773
872.008	14842
872.138	14800
872.267	14891
872.397	14743
872.526	14606
872.656	14564
872.785	14651
872.915	14807
873.044	14937
873.173	14785
873.303	14910
873.432	14861
873.561	14857
873.69	14872
873.819	14811
873.948	14986
874.077	14819
874.206	14872
874.335	14872
874.464	15009
874.593	15097
874.722	15039
874.851	15211
874.979	15173
875.108	15123
875.237	15032
875.365	15100
875.494	15036
875.623	15165
875.751	15062
875.88	15214
876.008	15272
876.136	15348
876.265	15576
876.393	15701
876.521	15675
876.65	15701
876.778	15572
876.906	15500
877.034	15545
877.162	15561
877.29	15553
877.418	15545
877.546	15641
877.674	15591
877.802	15595
877.93	15656
878.058	15568
878.185	15355
878.313	15473
878.441	15587
878.568	15336
878.696	15542
878.824	15595
878.951	15686
879.079	15808
879.206	15857
879.333	15698
879.461	15610
879.588	15618
879.715	15743
879.842	15762
879.97	15656
880.097	15382
880.224	15389
880.351	15488
880.478	15420
880.605	15431
880.732	15363
880.859	15614
880.986	15374
881.112	15401
881.239	15351
881.366	15199
881.493	15184
881.619	15116
881.746	15058
881.872	15081
881.999	14956
882.125	15005
882.252	15097
882.378	15051
882.505	15214
882.631	14982
882.757	14872
882.883	14967
883.01	14796
883.136	14902
883.262	14735
883.388	14746
883.514	14937
883.64	15028
883.766	14891
883.892	14788
884.018	14701
884.143	14952
884.269	14986
884.395	14568
884.52	14594
884.646	14621
884.772	14575
884.897	14545
885.023	14495
885.148	14693
885.274	14731
885.399	14792
885.524	14564
885.65	14602
885.775	14663
885.9	14545
886.025	14670
886.15	14659
886.275	14579
886.4	14560
886.525	14579
886.65	14522
886.775	14488
886.9	14739
887.025	14792
887.149	14568
887.274	14423
887.399	14396
887.523	14480
887.648	14404
887.773	14328
887.897	14442
888.021	14442
888.146	14282
888.27	14579
888.395	14568
888.519	14533
888.643	14594
888.767	14473
888.891	14339
889.015	14252
889.139	14271
889.263	14229
889.387	14404
889.511	14537
889.635	14389
889.759	14324
889.883	14278
890.006	14244
890.13	14431
890.254	14305
890.377	14210
890.501	14123
890.624	14081
890.748	14244
890.871	14031
890.995	14016
891.118	13906
891.241	14027
891.364	14027
891.488	14149
891.611	14016
891.734	14027
891.857	14107
891.98	14073
892.103	14031
892.226	14024
892.349	14027
892.471	13841
892.594	13947
892.717	14073
892.839	14008
892.962	14020
893.085	14008
893.207	14024
893.33	13864
893.452	13921
893.575	14012
893.697	13955
893.819	14130
893.941	14202
894.064	14206
894.186	13925
894.308	13917
894.43	14218
894.552	14168
894.674	14149
894.796	13978
894.918	14054
895.04	14077
895.161	14103
895.283	14138
895.405	14054
895.526	14119
895.648	14096
895.769	14119
895.891	14191
896.012	14248
896.134	14252
896.255	14126
896.376	14138
896.498	14164
896.619	14240
896.74	14130
896.861	14320
896.982	14415
897.103	14636
897.224	14492
897.345	14446
897.466	14317
897.587	14339
897.708	14583
897.828	14518
897.949	14480
898.07	14358
898.19	14442
898.311	14610
898.431	14332
898.552	14571
898.672	14537
898.792	14617
898.913	14636
899.033	14469
899.153	14370
899.273	14423
899.393	14355
899.513	14438
899.633	14537
899.753	14461
899.873	14309
899.993	14473
900.113	14370
900.232	14415
900.352	14412
900.472	14408
900.591	14210
900.711	14309
900.83	14320
900.95	14431
901.069	14374
901.189	14271
901.308	13978
901.427	14001
901.546	14046
901.665	13959
901.784	13986
901.904	13913
902.023	13734
902.141	13636
902.26	13510
902.379	13563
902.498	13537
902.617	13472
902.735	13559
902.854	13468
902.973	13460
903.091	13266
903.21	13259
903.328	13301
903.446	13270
903.565	13190
903.683	13141
903.801	13103
903.919	13160
904.038	12996
904.156	12954
904.274	12993
904.392	13008
904.51	12894
904.627	12958
904.745	12989
904.863	13004
904.981	12783
905.098	12566
905.216	12597
905.334	12665
905.451	12684
905.569	12578
905.686	12631
905.803	12669
905.921	12391
906.038	12525
906.155	12467
906.272	12247
906.389	12323
906.506	12159
906.623	12243
906.74	12194
906.857	12064
906.974	12182
907.091	12353
907.208	12319
907.324	12277
907.441	12133
907.557	11931
907.674	11958
907.79	11923
907.907	11950
908.023	12003
908.139	11889
908.256	11904
908.372	11950
908.488	11813
908.604	11726
908.72	11802
908.836	11710
908.952	11661
909.068	11714
909.184	11843
909.3	11752
909.415	11901
909.531	11745
909.647	11524
909.762	11509
909.878	11391
909.993	11459
910.108	11455
910.224	11360
910.339	11433
910.454	11368
910.57	11395
910.685	11299
910.8	11490
910.915	11490
911.03	11318
911.145	11223
911.259	11166
911.374	11147
911.489	11174
911.604	11060
911.718	10995
911.833	11003
911.947	10915
912.062	10706
912.176	10923
912.291	10892
912.405	10984
912.519	11067
912.633	11117
912.748	11048
912.862	10892
912.976	10850
913.09	10782
913.204	10790
913.318	10843
913.431	10892
913.545	10854
913.659	10930
913.772	10862
913.886	10759
914	10626
914.113	10763
914.226	10835
914.34	10835
914.453	10630
914.566	10759
914.68	10618
914.793	10596
914.906	10519
915.019	10379
915.132	10390
915.245	10375
915.358	10379
915.47	10432
915.583	10436
915.696	10542
915.809	10542
915.921	10565
916.034	10527
916.146	10375
916.259	10325
916.371	10500
916.483	10424
916.595	10287
916.708	10436
916.82	10382
916.932	10402
917.044	10375
917.156	10409
917.268	10246
917.38	10276
917.491	10249
917.603	10276
917.715	10371
917.826	10417
917.938	10348
918.049	10124
918.161	10322
918.272	10367
918.384	10417
918.495	10325
918.606	10181
918.717	10124
918.828	10169
918.939	10169
919.05	10078
919.161	10128
919.272	10021
919.383	10048
919.494	10150
919.604	10417
919.715	10169
919.826	10048
919.936	10204
920.047	10276
920.157	10173
920.267	10379
920.378	10253
920.488	10219
920.598	10409
920.708	10512
920.818	10356
920.928	10436
921.038	10580
921.148	10462
921.258	10234
921.368	10185
921.477	10093
921.587	10063
921.697	9983
921.806	10082
921.916	9907
922.025	9743
922.134	9747
922.244	9709
922.353	9751
922.462	9587
922.571	9584
922.68	9496
922.789	9477
922.898	9450
923.007	9386
923.116	9526
923.224	9443
923.333	9481
923.442	9332
923.55	9344
923.659	9367
923.767	9389
923.876	9310
923.984	9401
924.092	9287
924.201	9260
924.309	9367
924.417	9283
924.525	9222
924.633	9283
924.741	10223
924.849	9135
924.956	9218
925.064	9112
925.172	8982
925.279	9005
925.387	9085
925.494	9074
925.602	9207
925.709	9154
925.816	9020
925.924	9100
926.031	9195
926.138	9119
926.245	9077
926.352	8975
926.459	9138
926.566	9184
926.673	9028
926.779	8971
926.886	8906
926.993	8796
927.099	8815
927.206	8716
927.312	8712
927.419	8838
927.525	8861
927.631	8895
927.737	8785
927.843	8750
927.95	8640
928.056	8724
928.162	8720
928.267	8727
928.373	9306
928.479	8834
928.585	8613
928.69	8636
928.796	8727
928.901	8613
929.007	8484
929.112	8667
929.218	8590
929.323	8568
929.428	8552
929.533	8708
929.638	8473
929.743	8587
929.848	8522
929.953	8545
930.058	8389
930.163	8225
930.267	8290
930.372	8431
930.477	8229
930.581	8507
930.685	8389
930.79	8233
930.894	8320
930.998	8214
931.103	8328
931.207	8077
931.311	7974
931.415	7959
931.519	7746
931.623	7753
