Data from test_V78500241_1632.txt Node
Date: Fri Mar 25 14:45:04 CST 2022
User: usil
Spectrometer: V785-0024
Trigger mode: 0
Integration Time (sec): 4.000000E-1
Scans to average: 1
Nonlinearity correction enabled: false
Boxcar width: 0
Storing dark spectrum: false
XAxis mode: Wavelengths
Number of Pixels in Spectrum: 1024
>>>>>Begin Spectral Data<<<<<
801.071	22398
801.214	22162
801.356	22067
801.499	21930
801.641	21797
801.783	21694
801.926	21774
802.068	21568
802.211	21538
802.353	21507
802.496	21405
802.638	21279
802.78	21310
802.923	21070
803.065	21047
803.208	21047
803.35	21127
803.492	21222
803.635	21222
803.777	21028
803.919	21028
804.061	21310
804.204	21119
804.346	21036
804.488	20876
804.63	21070
804.773	20990
804.915	20963
805.057	21169
805.199	20967
805.341	21039
805.483	21233
805.626	21154
805.768	21005
805.91	20887
806.052	21039
806.194	20921
806.336	21127
806.478	21001
806.62	20941
806.762	21043
806.904	21112
807.046	21370
807.188	21378
807.33	21211
807.472	21462
807.614	21294
807.756	21393
807.898	21176
808.04	21051
808.182	21116
808.324	21085
808.465	21279
808.607	21313
808.749	21526
808.891	21507
809.033	21671
809.174	21572
809.316	21363
809.458	21382
809.6	21416
809.741	21412
809.883	21450
810.025	21599
810.166	21644
810.308	21568
810.45	21561
810.591	21370
810.733	21386
810.875	21268
811.016	21085
811.158	21154
811.299	21180
811.441	21313
811.582	21226
811.724	21294
811.865	21116
812.007	21195
812.148	21184
812.29	21184
812.431	21268
812.573	21424
812.714	21576
812.855	21732
812.997	21747
813.138	21880
813.279	21793
813.421	21671
813.562	21606
813.703	21466
813.845	21325
813.986	20975
814.127	20819
814.268	20788
814.41	20880
814.551	20674
814.692	20830
814.833	20655
814.974	20731
815.115	20686
815.256	20488
815.397	20606
815.539	20571
815.68	20419
815.821	20404
815.962	20400
816.103	20511
816.244	20290
816.385	20153
816.526	20073
816.666	20008
816.807	19902
816.948	19932
817.089	19967
817.23	19940
817.371	19875
817.512	19940
817.653	19837
817.793	19845
817.934	19761
818.075	20005
818.216	19845
818.356	19750
818.497	19757
818.638	19628
818.778	19544
818.919	19525
819.06	19506
819.2	19651
819.341	19704
819.481	19647
819.622	19811
819.762	19917
819.903	20039
820.043	19784
820.184	19772
820.324	19833
820.465	19887
820.605	19807
820.746	19731
820.886	19765
821.026	19784
821.167	19776
821.307	19917
821.447	19746
821.588	19647
821.728	19426
821.868	19362
822.008	19301
822.149	19175
822.289	19217
822.429	18954
822.569	18924
822.709	18856
822.849	18760
822.99	18669
823.13	18696
823.27	18642
823.41	18528
823.55	18403
823.69	18517
823.83	18445
823.97	18319
824.11	18391
824.25	18327
824.389	18319
824.529	18399
824.669	18327
824.809	18410
824.949	18395
825.089	18350
825.228	18292
825.368	18171
825.508	18049
825.648	18102
825.787	18076
825.927	18148
826.067	18019
826.206	18015
826.346	18057
826.485	18060
826.625	18095
826.765	18159
826.904	18022
827.044	17832
827.183	17901
827.323	17665
827.462	17836
827.601	17729
827.741	17817
827.88	17665
828.02	17615
828.159	17779
828.298	17870
828.437	17870
828.577	17619
828.716	17828
828.855	17691
828.994	17592
829.134	17558
829.273	17490
829.412	17478
829.551	17421
829.69	17376
829.829	17501
829.968	17566
830.107	17558
830.246	17452
830.385	17474
830.524	17345
830.663	17318
830.802	17189
830.941	17124
831.08	17090
831.219	17185
831.357	17204
831.496	17368
831.635	17086
831.774	16995
831.913	17010
832.051	16839
832.19	16904
832.329	16968
832.467	16725
832.606	16763
832.744	16710
832.883	16854
833.022	16778
833.16	16778
833.299	16736
833.437	16812
833.576	16892
833.714	16892
833.852	16816
833.991	16919
834.129	16805
834.267	16885
834.406	16793
834.544	16896
834.682	16786
834.821	16805
834.959	17094
835.097	16736
835.235	16824
835.373	16771
835.511	16847
835.65	16797
835.788	16733
835.926	16660
836.064	16538
836.202	16516
836.34	16706
836.478	16782
836.615	16668
836.753	16755
836.891	16854
837.029	16835
837.167	16687
837.305	16679
837.443	16565
837.58	16607
837.718	16683
837.856	16569
837.993	16558
838.131	16508
838.269	16618
838.406	16516
838.544	16417
838.681	16265
838.819	16238
838.956	16131
839.094	16143
839.231	16124
839.369	16356
839.506	16436
839.643	16352
839.781	16116
839.918	16143
840.055	16226
840.193	16219
840.33	16162
840.467	16162
840.604	16135
840.742	16356
840.879	16013
841.016	15983
841.153	16010
841.29	16207
841.427	16196
841.564	16150
841.701	16124
841.838	16013
841.975	16055
842.112	16017
842.249	15922
842.385	15903
842.522	16166
842.659	15930
842.796	15895
842.933	15869
843.069	15857
843.206	15778
843.343	15922
843.479	15918
843.616	15857
843.752	15732
843.889	15743
844.025	15842
844.162	15633
844.298	15808
844.435	15625
844.571	15694
844.708	15800
844.844	15895
844.98	15873
845.117	15892
845.253	15648
845.389	15561
845.525	15595
845.661	15667
845.798	15564
845.934	15557
846.07	15477
846.206	15584
846.342	15717
846.478	15644
846.614	15321
846.75	15241
846.886	15279
847.022	15363
847.158	15272
847.294	15317
847.429	15268
847.565	15173
847.701	15458
847.837	15081
847.972	14952
848.108	15062
848.244	15039
848.379	14960
848.515	14944
848.65	14876
848.786	14838
848.921	14925
849.057	14941
849.192	15077
849.328	14937
849.463	14899
849.598	14880
849.734	14670
849.869	14731
850.004	14617
850.14	14651
850.275	14769
850.41	14689
850.545	14705
850.68	14629
850.815	14712
850.95	14636
851.085	14739
851.22	14769
851.355	14583
851.49	14533
851.625	14545
851.76	14610
851.895	14541
852.03	14537
852.165	14526
852.299	14682
852.434	14735
852.569	14735
852.703	14621
852.838	14659
852.973	14712
853.107	14689
853.242	14530
853.376	14484
853.511	14374
853.645	14530
853.78	14571
853.914	14518
854.048	14427
854.183	14389
854.317	14469
854.451	14632
854.585	14431
854.72	14465
854.854	14511
854.988	14377
855.122	14484
855.256	14355
855.39	14541
855.524	14556
855.658	14530
855.792	14480
855.926	14564
856.06	14556
856.194	14606
856.327	14530
856.461	14366
856.595	14526
856.729	14431
856.862	14625
856.996	14526
857.13	14518
857.263	14625
857.397	14583
857.53	14511
857.664	14556
857.797	14560
857.931	14556
858.064	14533
858.197	14689
858.331	14484
858.464	14419
858.597	14309
858.731	14465
858.864	14457
858.997	14480
859.13	14377
859.263	14564
859.396	14640
859.529	14503
859.662	14442
859.795	14434
859.928	14568
860.061	14629
860.194	14644
860.327	14568
860.46	14476
860.592	14549
860.725	14533
860.858	14552
860.99	14499
861.123	14450
861.256	14381
861.388	14469
861.521	15199
861.653	14484
861.786	14252
861.918	14385
862.05	14408
862.183	14415
862.315	14473
862.447	14499
862.58	14415
862.712	14301
862.844	14206
862.976	14351
863.108	14240
863.24	14678
863.372	14202
863.504	14271
863.636	14248
863.768	14415
863.9	14244
864.032	14240
864.164	14191
864.296	14282
864.428	14301
864.559	14377
864.691	14336
864.823	14400
864.954	14271
865.086	14301
865.217	14305
865.349	14134
865.48	14271
865.612	14157
865.743	14381
865.875	14221
866.006	14229
866.137	14317
866.269	14202
866.4	14305
866.531	14134
866.662	14271
866.793	14153
866.924	14164
867.055	14221
867.186	14214
867.317	14168
867.448	14065
867.579	14202
867.71	14202
867.841	14103
867.972	14210
868.103	14214
868.233	14134
868.364	14202
868.495	14351
868.625	14461
868.756	14617
868.886	14488
869.017	14419
869.147	14667
869.278	14594
869.408	14526
869.539	14552
869.669	14533
869.799	14514
869.929	14610
870.06	14606
870.19	14720
870.32	14807
870.45	14819
870.58	14872
870.71	14933
870.84	15005
870.97	14853
871.1	14845
871.23	15112
871.36	15066
871.489	14937
871.619	15028
871.749	15013
871.879	15135
872.008	15127
872.138	15104
872.267	15009
872.397	14986
872.526	14979
872.656	14902
872.785	14929
872.915	15112
873.044	15180
873.173	15104
873.303	15169
873.432	15199
873.561	15169
873.69	15097
873.819	15097
873.948	15165
874.077	15180
874.206	15211
874.335	15173
874.464	15260
874.593	15363
874.722	15416
874.851	15473
874.979	15492
875.108	15614
875.237	15370
875.365	15336
875.494	15378
875.623	15549
875.751	15302
875.88	15504
876.008	15572
876.136	15785
876.265	15918
876.393	15930
876.521	15979
876.65	15994
876.778	15812
876.906	15915
877.034	15823
877.162	15774
877.29	15774
877.418	15861
877.546	15907
877.674	15800
877.802	15850
877.93	15869
878.058	15732
878.185	15774
878.313	15823
878.441	15918
878.568	15698
878.696	15770
878.824	15842
878.951	16006
879.079	16120
879.206	16284
879.333	16090
879.461	15827
879.588	16044
879.715	16040
879.842	16196
879.97	15922
880.097	15762
880.224	15736
880.351	15797
880.478	15838
880.605	15686
880.732	15751
880.859	15945
880.986	15709
881.112	15770
881.239	15648
881.366	15511
881.493	15431
881.619	15329
881.746	15363
881.872	15310
881.999	15260
882.125	15313
882.252	15405
882.378	15447
882.505	15538
882.631	15249
882.757	15222
882.883	15306
883.01	15233
883.136	15237
883.262	15032
883.388	15043
883.514	15245
883.64	15199
883.766	15161
883.892	14963
884.018	14990
884.143	15207
884.269	15252
884.395	15055
884.52	14842
884.646	14899
884.772	14902
884.897	14838
885.023	14929
885.148	14975
885.274	15077
885.399	15009
885.524	14826
885.65	14975
885.775	14849
885.9	14800
886.025	15104
886.15	14960
886.275	14834
886.4	14811
886.525	14887
886.65	14849
886.775	14750
886.9	15039
887.025	15017
887.149	14868
887.274	14788
887.399	14644
887.523	14727
887.648	14667
887.773	14602
887.897	14689
888.021	14807
888.146	14644
888.27	14762
888.395	14872
888.519	14777
888.643	14727
888.767	14750
888.891	14659
889.015	14648
889.139	14640
889.263	14526
889.387	14686
889.511	14838
889.635	14705
889.759	14537
889.883	14625
890.006	14568
890.13	14568
890.254	14419
890.377	14450
890.501	14415
890.624	14347
890.748	14476
890.871	14259
890.995	14313
891.118	14168
891.241	14362
891.364	14252
891.488	14286
891.611	14229
891.734	14328
891.857	14320
891.98	14278
892.103	14305
892.226	14286
892.349	14290
892.471	14107
892.594	14358
892.717	14290
892.839	14267
892.962	14263
893.085	14358
893.207	14240
893.33	14240
893.452	14252
893.575	14294
893.697	14271
893.819	14442
893.941	14507
894.064	14431
894.186	14259
894.308	14263
894.43	14324
894.552	14476
894.674	14374
894.796	14305
894.918	14332
895.04	14244
895.161	14423
895.283	14434
895.405	14343
895.526	14396
895.648	14339
895.769	14476
895.891	14556
896.012	14469
896.134	14533
896.255	14484
896.376	14484
896.498	14419
896.619	14469
896.74	14419
896.861	14438
896.982	14788
897.103	14952
897.224	14739
897.345	14678
897.466	14648
897.587	14731
897.708	14765
897.828	14682
897.949	14754
898.07	14587
898.19	14663
898.311	14830
898.431	14712
898.552	14746
898.672	14910
898.792	14887
898.913	14857
899.033	14663
899.153	14590
899.273	14583
899.393	14511
899.513	14712
899.633	14682
899.753	14724
899.873	14583
899.993	14758
900.113	14575
900.232	14720
900.352	14651
900.472	14659
900.591	14503
900.711	14640
900.83	14503
900.95	14655
901.069	14644
901.189	14484
901.308	14267
901.427	14100
901.546	14176
901.665	14218
901.784	14172
901.904	13993
902.023	14024
902.141	13856
902.26	13753
902.379	13814
902.498	13708
902.617	13670
902.735	13742
902.854	13674
902.973	13670
903.091	13449
903.21	13518
903.328	13457
903.446	13434
903.565	13312
903.683	13331
903.801	13255
903.919	13202
904.038	13350
904.156	13149
904.274	13225
904.392	13141
904.51	13019
904.627	13129
904.745	13171
904.863	13190
904.981	12951
905.098	12795
905.216	12878
905.334	12875
905.451	12745
905.569	12806
905.686	12848
905.803	12783
905.921	12559
906.038	12741
906.155	12635
906.272	12601
906.389	12570
906.506	12361
906.623	12361
906.74	12327
906.857	12232
906.974	12296
907.091	12513
907.208	12471
907.324	12418
907.441	12308
907.557	12194
907.674	12178
907.79	12114
907.907	12152
908.023	12171
908.139	12175
908.256	12083
908.372	12068
908.488	12079
908.604	11965
908.72	11904
908.836	11980
908.952	11885
909.068	11794
909.184	11996
909.3	11866
909.415	12079
909.531	11851
909.647	11638
909.762	11718
909.878	11657
909.993	11737
910.108	11672
910.224	11615
910.339	11611
910.454	11539
910.57	11566
910.685	11387
910.8	11737
910.915	11703
911.03	11535
911.145	11353
911.259	11330
911.374	11398
911.489	11284
911.604	11250
911.718	11147
911.833	11170
911.947	11067
912.062	10965
912.176	11151
912.291	11189
912.405	11064
912.519	11311
912.633	11322
912.748	11193
912.862	11094
912.976	11048
913.09	10942
913.204	10858
913.318	10961
913.431	11037
913.545	11052
913.659	11181
913.772	11041
913.886	10927
914	10889
914.113	10984
914.226	11037
914.34	10904
914.453	10752
914.566	10938
914.68	10793
914.793	10820
914.906	10649
915.019	10561
915.132	10538
915.245	10603
915.358	10698
915.47	10611
915.583	10618
915.696	10637
915.809	10790
915.921	10824
916.034	10550
916.146	10561
916.259	10565
916.371	10653
916.483	10660
916.595	10618
916.708	10565
916.82	10497
916.932	10451
917.044	10538
917.156	10630
917.268	10333
917.38	10451
917.491	10428
917.603	10455
917.715	10542
917.826	10512
917.938	10390
918.049	10280
918.161	10466
918.272	10558
918.384	10535
918.495	10538
918.606	10360
918.717	10280
918.828	10341
918.939	10329
919.05	10173
919.161	10272
919.272	10090
919.383	10173
919.494	10371
919.604	10565
919.715	10337
919.826	10238
919.936	10306
920.047	10402
920.157	10318
920.267	10592
920.378	10421
920.488	10363
920.598	10550
920.708	10618
920.818	10459
920.928	10558
921.038	10637
921.148	10618
921.258	10344
921.368	10284
921.477	10192
921.587	10173
921.697	10040
921.806	10192
921.916	10074
922.025	9888
922.134	9926
922.244	9861
922.353	9941
922.462	9778
922.571	9751
922.68	9618
922.789	9523
922.898	9595
923.007	9507
923.116	9644
923.224	9523
923.333	9530
923.442	9469
923.55	9397
923.659	9488
923.767	9545
923.876	9481
923.984	9477
924.092	9412
924.201	9458
924.309	9431
924.417	9397
924.525	9355
924.633	9393
924.741	10177
924.849	9256
924.956	9336
925.064	9192
925.172	9157
925.279	9188
925.387	9245
925.494	9253
925.602	9344
925.709	9306
925.816	9161
925.924	9233
926.031	9321
926.138	9291
926.245	9336
926.352	9176
926.459	9313
926.566	9313
926.673	9192
926.779	9135
926.886	9062
926.993	8914
927.099	8948
927.206	8868
927.312	8861
927.419	8960
927.525	8887
927.631	9013
927.737	8883
927.843	8750
927.95	8724
928.056	8876
928.162	8842
928.267	8880
928.373	9401
928.479	8914
928.585	8693
928.69	8788
928.796	8902
928.901	8727
929.007	8644
929.112	8705
929.218	8743
929.323	8552
929.428	8659
929.533	8842
929.638	8621
929.743	8560
929.848	8678
929.953	8659
930.058	8541
930.163	8442
930.267	8393
930.372	8514
930.477	8427
930.581	8655
930.685	8450
930.79	8358
930.894	8393
930.998	8328
931.103	8530
931.207	8149
931.311	8084
931.415	8031
931.519	7868
931.623	7875
