Data from test_V78500241_136.txt Node
Date: Fri Mar 25 14:34:40 CST 2022
User: usil
Spectrometer: V785-0024
Trigger mode: 0
Integration Time (sec): 4.000000E-1
Scans to average: 1
Nonlinearity correction enabled: false
Boxcar width: 0
Storing dark spectrum: false
XAxis mode: Wavelengths
Number of Pixels in Spectrum: 1024
>>>>>Begin Spectral Data<<<<<
801.071	30311
801.214	30163
801.356	29798
801.499	29676
801.641	29581
801.783	29623
801.926	29467
802.068	29455
802.211	29493
802.353	29474
802.496	29307
802.638	29140
802.78	29132
802.923	29208
803.065	29105
803.208	29060
803.35	29212
803.492	29284
803.635	29311
803.777	29212
803.919	29265
804.061	29684
804.204	29330
804.346	29364
804.488	29265
804.63	29307
804.773	29239
804.915	29520
805.057	29493
805.199	29387
805.341	29573
805.483	29707
805.626	29798
805.768	29733
805.91	29832
806.052	29855
806.194	29832
806.336	30262
806.478	30289
806.62	30369
806.762	30559
806.904	30894
807.046	31278
807.188	31476
807.33	31712
807.472	32115
807.614	32648
807.756	33195
807.898	33778
808.04	34858
808.182	36129
808.324	38008
808.465	39606
808.607	41977
808.749	43628
808.891	45039
809.033	44853
809.174	43769
809.316	41980
809.458	39572
809.6	37312
809.741	35832
809.883	34390
810.025	33660
810.166	32815
810.308	32415
810.45	31860
810.591	31575
810.733	31225
810.875	31031
811.016	30642
811.158	30582
811.299	30665
811.441	30646
811.582	30448
811.724	30163
811.865	30281
812.007	30140
812.148	30034
812.29	30182
812.431	30270
812.573	30357
812.714	30182
812.855	30342
812.997	30616
813.138	30635
813.279	30395
813.421	30289
813.562	30197
813.703	30125
813.845	29862
813.986	29592
814.127	29315
814.268	29239
814.41	29208
814.551	29254
814.692	29341
814.833	29117
814.974	29102
815.115	29064
815.256	29029
815.397	28949
815.539	28896
815.68	28831
815.821	28786
815.962	28820
816.103	28774
816.244	28702
816.385	28535
816.526	28436
816.666	28314
816.807	28044
816.948	28257
817.089	28268
817.23	28177
817.371	28002
817.512	28070
817.653	28116
817.793	28055
817.934	28112
818.075	28063
818.216	27911
818.356	28090
818.497	27888
818.638	27644
818.778	27682
818.919	27789
819.06	27808
819.2	27899
819.341	27846
819.481	27899
819.622	28162
819.762	28333
819.903	28223
820.043	28040
820.184	28044
820.324	27968
820.465	27953
820.605	27842
820.746	27899
820.886	27861
821.026	27854
821.167	27819
821.307	28067
821.447	27701
821.588	27713
821.728	27652
821.868	27431
822.008	27199
822.149	27268
822.289	27070
822.429	26918
822.569	26796
822.709	26796
822.849	26617
822.99	26537
823.13	26568
823.27	26442
823.41	26313
823.55	26240
823.69	26442
823.83	26355
823.97	26431
824.11	26206
824.25	26149
824.389	26142
824.529	26191
824.669	26237
824.809	26259
824.949	26385
825.089	26206
825.228	26199
825.368	26073
825.508	26020
825.648	26107
825.787	26020
825.927	25993
826.067	25833
826.206	25761
826.346	26035
826.485	25959
826.625	25978
826.765	26172
826.904	25940
827.044	25681
827.183	25772
827.323	25518
827.462	25655
827.601	25559
827.741	25776
827.88	25632
828.02	25571
828.159	25662
828.298	25670
828.437	25628
828.577	25597
828.716	25753
828.855	25472
828.994	25289
829.134	25190
829.273	25339
829.412	25148
829.551	25213
829.69	25327
829.829	25266
829.968	25297
830.107	25377
830.246	25187
830.385	25175
830.524	25179
830.663	25084
830.802	24916
830.941	24894
831.08	24856
831.219	24878
831.357	24901
831.496	24996
831.635	24844
831.774	24757
831.913	24681
832.051	24646
832.19	24734
832.329	24646
832.467	24745
832.606	24555
832.744	24448
832.883	24639
833.022	24525
833.16	24711
833.299	24958
833.437	24939
833.576	24932
833.714	25065
833.852	25232
833.991	25282
834.129	25274
834.267	25419
834.406	25225
834.544	25194
834.682	25213
834.821	24981
834.959	25069
835.097	24764
835.235	24817
835.373	24798
835.511	24593
835.65	24479
835.788	24426
835.926	24407
836.064	24178
836.202	24174
836.34	24304
836.478	24437
836.615	24327
836.753	24281
836.891	24285
837.029	24323
837.167	24174
837.305	24194
837.443	24148
837.58	24060
837.718	24110
837.856	24057
837.993	24072
838.131	24114
838.269	23901
838.406	23878
838.544	23878
838.681	23741
838.819	23672
838.956	23562
839.094	23482
839.231	23547
839.369	23516
839.506	23828
839.643	23687
839.781	23459
839.918	23307
840.055	23467
840.193	23429
840.33	23421
840.467	23250
840.604	23292
840.742	23551
840.879	23212
841.016	23318
841.153	23204
841.29	23444
841.427	23288
841.564	23402
841.701	23379
841.838	23261
841.975	23140
842.112	23235
842.249	23197
842.385	23052
842.522	23151
842.659	22968
842.796	23075
842.933	23022
843.069	23064
843.206	23128
843.343	23143
843.479	23269
843.616	23185
843.752	23003
843.889	23124
844.025	23128
844.162	23064
844.298	23280
844.435	23254
844.571	23277
844.708	23421
844.844	23935
844.98	24030
845.117	24502
845.253	25156
845.389	26119
845.525	28344
845.661	32020
845.798	36410
845.934	39762
846.07	41140
846.206	40462
846.342	37525
846.478	33005
846.614	29166
846.75	26526
846.886	25053
847.022	24220
847.158	23608
847.294	23170
847.429	23018
847.565	22828
847.701	22900
847.837	22246
847.972	22147
848.108	22242
848.244	22325
848.379	22021
848.515	22025
848.65	21956
848.786	21987
848.921	21964
849.057	21850
849.192	21937
849.328	21964
849.463	21972
849.598	21770
849.734	21743
849.869	21656
850.004	21663
850.14	21557
850.275	21511
850.41	21526
850.545	21633
850.68	21511
850.815	21545
850.95	21496
851.085	21656
851.22	21713
851.355	21625
851.49	21606
851.625	21553
851.76	21500
851.895	21439
852.03	21412
852.165	21595
852.299	21526
852.434	21606
852.569	21580
852.703	21477
852.838	21610
852.973	21694
853.107	21644
853.242	21450
853.376	21401
853.511	21450
853.645	21496
853.78	21614
853.914	21561
854.048	21572
854.183	21519
854.317	21644
854.451	21766
854.585	21572
854.72	21629
854.854	21618
854.988	21424
855.122	21450
855.256	21416
855.39	21431
855.524	21557
855.658	21389
855.792	21477
855.926	21420
856.06	21397
856.194	21435
856.327	21306
856.461	21340
856.595	21264
856.729	21302
856.862	21424
856.996	21325
857.13	21321
857.263	21275
857.397	21405
857.53	21233
857.664	21218
857.797	21351
857.931	21218
858.064	21275
858.197	21275
858.331	21138
858.464	21203
858.597	21036
858.731	21070
858.864	21154
858.997	21154
859.13	21287
859.263	21291
859.396	21275
859.529	21249
859.662	21070
859.795	21062
859.928	21131
860.061	21348
860.194	21340
860.327	21173
860.46	21226
860.592	21066
860.725	21370
860.858	21351
860.99	21184
861.123	21119
861.256	21089
861.388	21173
861.521	21762
861.653	21104
861.786	20925
861.918	21055
862.05	21024
862.183	21165
862.315	21222
862.447	21169
862.58	21154
862.712	20845
862.844	20895
862.976	20925
863.108	20895
863.24	21157
863.372	20826
863.504	20864
863.636	20743
863.768	20781
863.9	20678
864.032	20819
864.164	20689
864.296	20845
864.428	20948
864.559	20807
864.691	20849
864.823	20918
864.954	20876
865.086	20819
865.217	20724
865.349	20659
865.48	20857
865.612	20663
865.743	20838
865.875	20667
866.006	20693
866.137	20682
866.269	20724
866.4	20594
866.531	20621
866.662	20674
866.793	20648
866.924	20590
867.055	20613
867.186	20609
867.317	20552
867.448	20564
867.579	20625
867.71	20583
867.841	20613
867.972	20632
868.103	20625
868.233	20644
868.364	20598
868.495	20705
868.625	20864
868.756	20937
868.886	20773
869.017	20807
869.147	20826
869.278	21047
869.408	20864
869.539	20895
869.669	20857
869.799	20842
869.929	21009
870.06	21005
870.19	21157
870.32	21150
870.45	21176
870.58	21294
870.71	21348
870.84	21412
870.97	21344
871.1	21287
871.23	21568
871.36	21496
871.489	21462
871.619	21549
871.749	21606
871.879	21606
872.008	21679
872.138	21515
872.267	21466
872.397	21439
872.526	21466
872.656	21458
872.785	21355
872.915	21576
873.044	21789
873.173	21641
873.303	21713
873.432	21759
873.561	21736
873.69	21637
873.819	21835
873.948	21831
874.077	21762
874.206	21755
874.335	21941
874.464	21941
874.593	22082
874.722	21964
874.851	22029
874.979	22223
875.108	22147
875.237	22131
875.365	22048
875.494	22116
875.623	22253
875.751	22272
875.88	22402
876.008	22538
876.136	22443
876.265	22717
876.393	22972
876.521	22873
876.65	22949
876.778	22812
876.906	22987
877.034	22858
877.162	23041
877.29	23041
877.418	23060
877.546	23212
877.674	23227
877.802	23330
877.93	23341
878.058	23478
878.185	23471
878.313	23779
878.441	23988
878.568	24114
878.696	24532
878.824	25148
878.951	25822
879.079	26773
879.206	28272
879.333	29558
879.461	30616
879.588	31392
879.715	31453
879.842	31012
879.97	29554
880.097	28109
880.224	27066
880.351	26195
880.478	25734
880.605	25187
880.732	25034
880.859	25091
880.986	24806
881.112	24779
881.239	24464
881.366	24467
881.493	24395
881.619	24281
881.746	24304
881.872	24418
881.999	24334
882.125	24315
882.252	24323
882.378	24350
882.505	24483
882.631	24395
882.757	24273
882.883	24292
883.01	24159
883.136	24251
883.262	24106
883.388	23828
883.514	24057
883.64	24098
883.766	24038
883.892	23904
884.018	23874
884.143	24060
884.269	24178
884.395	23878
884.52	23764
884.646	23863
884.772	23874
884.897	23680
885.023	23950
885.148	23840
885.274	23908
885.399	23707
885.524	23691
885.65	23577
885.775	23600
885.9	23448
886.025	23280
886.15	23277
886.275	23128
886.4	23003
886.525	23014
886.65	22831
886.775	22748
886.9	22839
887.025	22953
887.149	22641
887.274	22424
887.399	22318
887.523	22295
887.648	22185
887.773	22029
887.897	22139
888.021	21983
888.146	21865
888.27	22051
888.395	22177
888.519	21895
888.643	21888
888.767	21835
888.891	21778
889.015	21534
889.139	21625
889.263	21625
889.387	21622
889.511	21675
889.635	21701
889.759	21405
889.883	21340
890.006	21294
890.13	21424
890.254	21264
890.377	21214
890.501	21032
890.624	21047
890.748	21055
890.871	21036
890.995	20842
891.118	20864
891.241	20724
891.364	20663
891.488	20960
891.611	20868
891.734	20678
891.857	20765
891.98	20746
892.103	20739
892.226	20667
892.349	20636
892.471	20457
892.594	20545
892.717	20571
892.839	20503
892.962	20541
893.085	20476
893.207	20442
893.33	20317
893.452	20389
893.575	20488
893.697	20309
893.819	20545
893.941	20484
894.064	20507
894.186	20320
894.308	20256
894.43	20374
894.552	20389
894.674	20389
894.796	20187
894.918	20195
895.04	20176
895.161	20214
895.283	20256
895.405	20202
895.526	20233
895.648	20164
895.769	20233
895.891	20267
896.012	20183
896.134	20157
896.255	20149
896.376	20107
896.498	20065
896.619	20077
896.74	20210
896.861	20180
896.982	20393
897.103	20507
897.224	20427
897.345	20389
897.466	20225
897.587	20358
897.708	20454
897.828	20385
897.949	20275
898.07	20259
898.19	20218
898.311	20351
898.431	20168
898.552	20256
898.672	20317
898.792	20434
898.913	20233
899.033	20138
899.153	20016
899.273	19917
899.393	20020
899.513	20077
899.633	20107
899.753	20126
899.873	19993
899.993	20020
900.113	19875
900.232	19993
900.352	19947
900.472	19993
900.591	19811
900.711	19761
900.83	19826
900.95	19852
901.069	19875
901.189	19681
901.308	19628
901.427	19506
901.546	19411
901.665	19308
901.784	19365
901.904	19217
902.023	19065
902.141	18848
902.26	18894
902.379	18894
902.498	18772
902.617	18650
902.735	18863
902.854	18856
902.973	18707
903.091	18437
903.21	18445
903.328	18483
903.446	18323
903.565	18273
903.683	18372
903.801	18194
903.919	18190
904.038	18167
904.156	17889
904.274	18095
904.392	18019
904.51	17870
904.627	17927
904.745	18011
904.863	18041
904.981	17855
905.098	17653
905.216	17562
905.334	17615
905.451	17661
905.569	17604
905.686	17592
905.803	17554
905.921	17509
906.038	17402
906.155	17436
906.272	17330
906.389	17280
906.506	17204
906.623	17094
906.74	17140
906.857	16976
906.974	16934
907.091	17132
907.208	17166
907.324	17079
907.441	16991
907.557	16771
907.674	16717
907.79	16793
907.907	16778
908.023	16824
908.139	16767
908.256	16721
908.372	16592
908.488	16569
908.604	16489
908.72	16363
908.836	16451
908.952	16333
909.068	16508
909.184	16527
909.3	16402
909.415	16466
909.531	16379
909.647	16223
909.762	16120
909.878	16025
909.993	16120
910.108	16120
910.224	16044
910.339	16105
910.454	16029
910.57	15934
910.685	15907
910.8	16150
910.915	16044
911.03	15930
911.145	15869
911.259	15789
911.374	15770
911.489	15587
911.604	15599
911.718	15500
911.833	15450
911.947	15340
912.062	15348
912.176	15477
912.291	15477
912.405	15485
912.519	15473
912.633	15614
912.748	15466
912.862	15431
912.976	15310
913.09	15039
913.204	15188
913.318	15329
913.431	15340
913.545	15298
913.659	15412
913.772	15260
913.886	15146
914	15108
914.113	15195
914.226	15226
914.34	15165
914.453	15036
914.566	15039
914.68	14887
914.793	14975
914.906	14914
915.019	14743
915.132	14670
915.245	14667
915.358	14842
915.47	14773
915.583	14708
915.696	14739
915.809	14804
915.921	14933
916.034	14659
916.146	14575
916.259	14648
916.371	14735
916.483	14746
916.595	14579
916.708	14575
916.82	14564
916.932	14590
917.044	14556
917.156	14526
917.268	14404
917.38	14415
917.491	14427
917.603	14400
917.715	14495
917.826	14393
917.938	14339
918.049	14149
918.161	14286
918.272	14450
918.384	14366
918.495	14393
918.606	14123
918.717	14065
918.828	14172
918.939	14092
919.05	14031
919.161	14092
919.272	13955
919.383	13963
919.494	14111
919.604	14263
919.715	14103
919.826	14035
919.936	14035
920.047	14054
920.157	14031
920.267	14161
920.378	14096
920.488	14050
920.598	14142
920.708	14309
920.818	14153
920.928	14115
921.038	14366
921.148	14332
921.258	14008
921.368	13951
921.477	13685
921.587	13765
921.697	13651
921.806	13772
921.916	13620
922.025	13472
922.134	13388
922.244	13449
922.353	13464
922.462	13251
922.571	13232
922.68	13126
922.789	13107
922.898	13065
923.007	12966
923.116	13069
923.224	13042
923.333	12958
923.442	12852
923.55	12779
923.659	12962
923.767	12989
923.876	12833
923.984	12920
924.092	12764
924.201	12817
924.309	12787
924.417	12791
924.525	12741
924.633	12787
924.741	13662
924.849	12555
924.956	12726
925.064	12559
925.172	12399
925.279	12433
925.387	12551
925.494	12547
925.602	12627
925.709	12589
925.816	12486
925.924	12456
926.031	12578
926.138	12426
926.245	12536
926.352	12243
926.459	12483
926.566	12506
926.673	12346
926.779	12232
926.886	12228
926.993	12121
927.099	12068
927.206	12053
927.312	12026
927.419	12117
927.525	12030
927.631	11977
927.737	11961
927.843	11942
927.95	11832
928.056	11946
928.162	11939
928.267	11984
928.373	12513
928.479	11939
928.585	11771
928.69	11828
928.796	11973
928.901	11775
929.007	11630
929.112	11722
929.218	11695
929.323	11729
929.428	11581
929.533	11703
929.638	11520
929.743	11589
929.848	11646
929.953	11558
930.058	11436
930.163	11250
930.267	11349
930.372	11417
930.477	11296
930.581	11623
930.685	11402
930.79	11181
930.894	11220
930.998	11140
931.103	11265
931.207	10972
931.311	10911
931.415	10797
931.519	10618
931.623	10649
