Data from test_V78500241_2093.txt Node
Date: Fri Mar 25 14:48:17 CST 2022
User: usil
Spectrometer: V785-0024
Trigger mode: 0
Integration Time (sec): 4.000000E-1
Scans to average: 1
Nonlinearity correction enabled: false
Boxcar width: 0
Storing dark spectrum: false
XAxis mode: Wavelengths
Number of Pixels in Spectrum: 1024
>>>>>Begin Spectral Data<<<<<
801.071	22116
801.214	22074
801.356	21610
801.499	21599
801.641	21412
801.783	21466
801.926	21564
802.068	21355
802.211	21416
802.353	21260
802.496	21119
802.638	21028
802.78	20861
802.923	20899
803.065	20823
803.208	20792
803.35	20887
803.492	20956
803.635	20868
803.777	20868
803.919	20918
804.061	21184
804.204	20925
804.346	20849
804.488	20758
804.63	20842
804.773	20754
804.915	20796
805.057	20781
805.199	20594
805.341	20800
805.483	20864
805.626	20887
805.768	20807
805.91	20689
806.052	20834
806.194	20735
806.336	20944
806.478	20720
806.62	20682
806.762	20815
806.904	20960
807.046	21169
807.188	21123
807.33	21161
807.472	21096
807.614	20914
807.756	21051
807.898	20819
808.04	20785
808.182	20670
808.324	20842
808.465	20834
808.607	21020
808.749	21184
808.891	21195
809.033	21367
809.174	21245
809.316	21074
809.458	21142
809.6	21024
809.741	21161
809.883	21199
810.025	21321
810.166	21382
810.308	21351
810.45	21180
810.591	21138
810.733	21055
810.875	20914
811.016	20838
811.158	20853
811.299	20876
811.441	20963
811.582	21074
811.724	21009
811.865	20853
812.007	20929
812.148	20853
812.29	20933
812.431	21051
812.573	21169
812.714	21256
812.855	21408
812.997	21462
813.138	21610
813.279	21519
813.421	21412
813.562	21344
813.703	21173
813.845	21070
813.986	20708
814.127	20648
814.268	20533
814.41	20511
814.551	20362
814.692	20419
814.833	20301
814.974	20484
815.115	20347
815.256	20324
815.397	20339
815.539	20336
815.68	20172
815.821	20138
815.962	20267
816.103	20149
816.244	20020
816.385	19909
816.526	19795
816.666	19693
816.807	19651
816.948	19662
817.089	19670
817.23	19590
817.371	19563
817.512	19521
817.653	19495
817.793	19476
817.934	19590
818.075	19544
818.216	19586
818.356	19548
818.497	19441
818.638	19308
818.778	19244
818.919	19301
819.06	19346
819.2	19297
819.341	19381
819.481	19559
819.622	19639
819.762	19734
819.903	19727
820.043	19677
820.184	19567
820.324	19590
820.465	19597
820.605	19567
820.746	19559
820.886	19388
821.026	19510
821.167	19548
821.307	19575
821.447	19525
821.588	19377
821.728	19346
821.868	19225
822.008	18981
822.149	18939
822.289	18916
822.429	18684
822.569	18707
822.709	18692
822.849	18429
822.99	18426
823.13	18498
823.27	18437
823.41	18224
823.55	18216
823.69	18308
823.83	18384
823.97	18159
824.11	18140
824.25	17965
824.389	18041
824.529	18034
824.669	18019
824.809	18171
824.949	18095
825.089	18136
825.228	17988
825.368	17958
825.508	17893
825.648	17733
825.787	17912
825.927	17893
826.067	17813
826.206	17756
826.346	17729
826.485	17927
826.625	17726
826.765	17935
826.904	17847
827.044	17585
827.183	17623
827.323	17509
827.462	17634
827.601	17543
827.741	17421
827.88	17566
828.02	17349
828.159	17436
828.298	17459
828.437	17657
828.577	17452
828.716	17684
828.855	17406
828.994	17360
829.134	17208
829.273	17288
829.412	17140
829.551	17170
829.69	17227
829.829	17334
829.968	17376
830.107	17307
830.246	17311
830.385	17261
830.524	17132
830.663	17048
830.802	16908
830.941	16820
831.08	16866
831.219	17048
831.357	16972
831.496	17151
831.635	16869
831.774	16858
831.913	16786
832.051	16740
832.19	16592
832.329	16786
832.467	16580
832.606	16531
832.744	16500
832.883	16622
833.022	16485
833.16	16656
833.299	16702
833.437	16721
833.576	16637
833.714	16649
833.852	16615
833.991	16626
834.129	16649
834.267	16687
834.406	16687
834.544	16679
834.682	16558
834.821	16519
834.959	16835
835.097	16584
835.235	16675
835.373	16668
835.511	16660
835.65	16462
835.788	16645
835.926	16375
836.064	16386
836.202	16360
836.34	16512
836.478	16573
836.615	16447
836.753	16504
836.891	16611
837.029	16493
837.167	16527
837.305	16417
837.443	16500
837.58	16398
837.718	16443
837.856	16409
837.993	16352
838.131	16405
838.269	16322
838.406	16299
838.544	16280
838.681	16143
838.819	16128
838.956	15956
839.094	15880
839.231	15934
839.369	16154
839.506	16303
839.643	16105
839.781	15956
839.918	15774
840.055	16006
840.193	15983
840.33	15987
840.467	15956
840.604	15987
840.742	16204
840.879	15800
841.016	15899
841.153	15884
841.29	15991
841.427	16040
841.564	15987
841.701	16017
841.838	15827
841.975	15869
842.112	15808
842.249	15800
842.385	15751
842.522	15739
842.659	15675
842.796	15736
842.933	15732
843.069	15545
843.206	15671
843.343	15816
843.479	15781
843.616	15717
843.752	15538
843.889	15519
844.025	15656
844.162	15412
844.298	15584
844.435	15420
844.571	15454
844.708	15542
844.844	15618
844.98	15656
845.117	15599
845.253	15439
845.389	15401
845.525	15428
845.661	15507
845.798	15298
845.934	15382
846.07	15298
846.206	15344
846.342	15450
846.478	15332
846.614	15070
846.75	15005
846.886	15074
847.022	15161
847.158	15100
847.294	15081
847.429	15058
847.565	14994
847.701	15370
847.837	14804
847.972	14826
848.108	14902
848.244	14868
848.379	14651
848.515	14621
848.65	14621
848.786	14743
848.921	14716
849.057	14796
849.192	14769
849.328	14674
849.463	14720
849.598	14678
849.734	14492
849.869	14590
850.004	14454
850.14	14571
850.275	14480
850.41	14434
850.545	14374
850.68	14400
850.815	14427
850.95	14492
851.085	14636
851.22	14473
851.355	14492
851.49	14434
851.625	14400
851.76	14396
851.895	14385
852.03	14305
852.165	14396
852.299	14495
852.434	14480
852.569	14446
852.703	14533
852.838	14499
852.973	14606
853.107	14564
853.242	14400
853.376	14332
853.511	14317
853.645	14275
853.78	14412
853.914	14221
854.048	14320
854.183	14248
854.317	14347
854.451	14533
854.585	14248
854.72	14309
854.854	14381
854.988	14214
855.122	14370
855.256	14180
855.39	14362
855.524	14377
855.658	14309
855.792	14339
855.926	14423
856.06	14343
856.194	14412
856.327	14317
856.461	14278
856.595	14256
856.729	14355
856.862	14355
856.996	14366
857.13	14355
857.263	14408
857.397	14423
857.53	14240
857.664	14427
857.797	14434
857.931	14514
858.064	14404
858.197	14343
858.331	14313
858.464	14286
858.597	14218
858.731	14282
858.864	14320
858.997	14332
859.13	14381
859.263	14431
859.396	14446
859.529	14286
859.662	14195
859.795	14248
859.928	14324
860.061	14533
860.194	14598
860.327	14320
860.46	14347
860.592	14465
860.725	14503
860.858	14446
860.99	14259
861.123	14191
861.256	14256
861.388	14259
861.521	14815
861.653	14271
861.786	14138
861.918	14202
862.05	14237
862.183	14237
862.315	14301
862.447	14404
862.58	14153
862.712	14157
862.844	14100
862.976	14199
863.108	14100
863.24	14423
863.372	14008
863.504	14084
863.636	14084
863.768	14206
863.9	14115
864.032	14024
864.164	14069
864.296	14100
864.428	14130
864.559	14153
864.691	14214
864.823	14081
864.954	14145
865.086	14115
865.217	14054
865.349	14035
865.48	14084
865.612	14100
865.743	14256
865.875	14100
866.006	14035
866.137	13959
866.269	14111
866.4	14024
866.531	13944
866.662	14058
866.793	13993
866.924	13906
867.055	14157
867.186	14058
867.317	14008
867.448	13902
867.579	14027
867.71	14039
867.841	13978
867.972	14084
868.103	14134
868.233	14073
868.364	14107
868.495	14145
868.625	14389
868.756	14423
868.886	14202
869.017	14256
869.147	14450
869.278	14518
869.408	14442
869.539	14347
869.669	14377
869.799	14385
869.929	14362
870.06	14404
870.19	14708
870.32	14488
870.45	14560
870.58	14689
870.71	14811
870.84	14758
870.97	14781
871.1	14773
871.23	15020
871.36	14944
871.489	14743
871.619	14876
871.749	14982
871.879	14899
872.008	15119
872.138	14948
872.267	14914
872.397	14686
872.526	14773
872.656	14739
872.785	14716
872.915	15036
873.044	14990
873.173	14963
873.303	15039
873.432	15032
873.561	14975
873.69	14910
873.819	14982
873.948	15146
874.077	14967
874.206	14929
874.335	15020
874.464	15074
874.593	15283
874.722	15294
874.851	15283
874.979	15245
875.108	15374
875.237	15268
875.365	15218
875.494	15317
875.623	15405
875.751	15291
875.88	15363
876.008	15420
876.136	15492
876.265	15720
876.393	15937
876.521	15694
876.65	15800
876.778	15759
876.906	15667
877.034	15644
877.162	15736
877.29	15648
877.418	15701
877.546	15671
877.674	15614
877.802	15614
877.93	15690
878.058	15633
878.185	15629
878.313	15610
878.441	15614
878.568	15553
878.696	15644
878.824	15698
878.951	15816
879.079	15895
879.206	15998
879.333	15960
879.461	15743
879.588	15823
879.715	15838
879.842	16029
879.97	15846
880.097	15507
880.224	15496
880.351	15553
880.478	15629
880.605	15644
880.732	15553
880.859	15793
880.986	15591
881.112	15587
881.239	15408
881.366	15279
881.493	15203
881.619	15207
881.746	15264
881.872	15154
881.999	15211
882.125	15218
882.252	15226
882.378	15203
882.505	15329
882.631	15188
882.757	15066
882.883	15077
883.01	15039
883.136	14975
883.262	14849
883.388	14967
883.514	15051
883.64	15104
883.766	15013
883.892	14838
884.018	14834
884.143	14998
884.269	15211
884.395	14769
884.52	14769
884.646	14724
884.772	14678
884.897	14568
885.023	14682
885.148	14921
885.274	14838
885.399	14880
885.524	14712
885.65	14739
885.775	14735
885.9	14754
886.025	14826
886.15	14777
886.275	14693
886.4	14651
886.525	14708
886.65	14705
886.775	14686
886.9	14842
887.025	14891
887.149	14705
887.274	14667
887.399	14495
887.523	14537
887.648	14480
887.773	14461
887.897	14678
888.021	14648
888.146	14511
888.27	14606
888.395	14686
888.519	14617
888.643	14568
888.767	14606
888.891	14465
889.015	14377
889.139	14476
889.263	14343
889.387	14476
889.511	14720
889.635	14488
889.759	14408
889.883	14412
890.006	14415
890.13	14503
890.254	14408
890.377	14370
890.501	14240
890.624	14202
890.748	14221
890.871	14168
890.995	14111
891.118	13982
891.241	14153
891.364	14115
891.488	14221
891.611	14191
891.734	14134
891.857	14172
891.98	14084
892.103	14172
892.226	14115
892.349	14088
892.471	13951
892.594	14043
892.717	14084
892.839	14024
892.962	14183
893.085	14206
893.207	14168
893.33	14054
893.452	14081
893.575	14119
893.697	14100
893.819	14339
893.941	14362
894.064	14256
894.186	13993
894.308	14096
894.43	14313
894.552	14377
894.674	14225
894.796	14062
894.918	14180
895.04	14134
895.161	14275
895.283	14336
895.405	14191
895.526	14225
895.648	14157
895.769	14309
895.891	14233
896.012	14385
896.134	14343
896.255	14290
896.376	14267
896.498	14282
896.619	14267
896.74	14336
896.861	14415
896.982	14788
897.103	14731
897.224	14560
897.345	14507
897.466	14480
897.587	14537
897.708	14636
897.828	14594
897.949	14499
898.07	14347
898.19	14549
898.311	14743
898.431	14568
898.552	14651
898.672	14800
898.792	14762
898.913	14701
899.033	14655
899.153	14427
899.273	14408
899.393	14530
899.513	14495
899.633	14492
899.753	14621
899.873	14412
899.993	14564
900.113	14461
900.232	14533
900.352	14381
900.472	14396
900.591	14347
900.711	14450
900.83	14282
900.95	14533
901.069	14450
901.189	14339
901.308	14031
901.427	13978
901.546	14069
901.665	14081
901.784	14046
901.904	13898
902.023	13917
902.141	13636
902.26	13601
902.379	13689
902.498	13575
902.617	13575
902.735	13647
902.854	13552
902.973	13518
903.091	13297
903.21	13373
903.328	13304
903.446	13251
903.565	13145
903.683	13206
903.801	13133
903.919	13126
904.038	13164
904.156	13110
904.274	13076
904.392	13038
904.51	12973
904.627	12913
904.745	13027
904.863	13076
904.981	12905
905.098	12692
905.216	12673
905.334	12665
905.451	12741
905.569	12734
905.686	12749
905.803	12654
905.921	12544
906.038	12540
906.155	12456
906.272	12433
906.389	12494
906.506	12270
906.623	12258
906.74	12285
906.857	12178
906.974	12243
907.091	12247
907.208	12429
907.324	12327
907.441	12235
907.557	11984
907.674	12022
907.79	11977
907.907	11973
908.023	12064
908.139	11939
908.256	11969
908.372	11889
908.488	11904
908.604	11824
908.72	11748
908.836	11794
908.952	11718
909.068	11840
909.184	11824
909.3	11809
909.415	11885
909.531	11863
909.647	11493
909.762	11611
909.878	11444
909.993	11459
910.108	11497
910.224	11589
910.339	11562
910.454	11353
910.57	11345
910.685	11356
910.8	11653
910.915	11577
911.03	11474
911.145	11178
911.259	11223
911.374	11193
911.489	11227
911.604	11170
911.718	10991
911.833	11045
911.947	10904
912.062	10816
912.176	10942
912.291	11014
912.405	11010
912.519	11250
912.633	11254
912.748	11098
912.862	11003
912.976	10854
913.09	10744
913.204	10820
913.318	10938
913.431	10987
913.545	10972
913.659	10980
913.772	10885
913.886	10748
914	10767
914.113	10900
914.226	10953
914.34	10866
914.453	10664
914.566	10892
914.68	10679
914.793	10763
914.906	10497
915.019	10519
915.132	10394
915.245	10516
915.358	10573
915.47	10542
915.583	10538
915.696	10550
915.809	10634
915.921	10649
916.034	10478
916.146	10436
916.259	10500
916.371	10588
916.483	10531
916.595	10344
916.708	10489
916.82	10394
916.932	10402
917.044	10333
917.156	10478
917.268	10306
917.38	10314
917.491	10344
917.603	10382
917.715	10402
917.826	10432
917.938	10344
918.049	10257
918.161	10371
918.272	10497
918.384	10417
918.495	10436
918.606	10162
918.717	10147
918.828	10238
918.939	10219
919.05	10154
919.161	10230
919.272	9994
919.383	10036
919.494	10230
919.604	10398
919.715	10246
919.826	10219
919.936	10181
920.047	10299
920.157	10249
920.267	10447
920.378	10280
920.488	10276
920.598	10371
920.708	10588
920.818	10341
920.928	10356
921.038	10596
921.148	10500
921.258	10261
921.368	10204
921.477	10112
921.587	10128
921.697	9968
921.806	10074
921.916	10002
922.025	9812
922.134	9762
922.244	9724
922.353	9854
922.462	9717
922.571	9736
922.68	9591
922.789	9473
922.898	9458
923.007	9435
923.116	9481
923.224	9450
923.333	9454
923.442	9389
923.55	9363
923.659	9344
923.767	9416
923.876	9351
923.984	9435
924.092	9344
924.201	9294
924.309	9447
924.417	9344
924.525	9291
924.633	9294
924.741	10253
924.849	9085
924.956	9283
925.064	9214
925.172	9051
925.279	9135
925.387	9188
925.494	9192
925.602	9272
925.709	9218
925.816	9146
925.924	9112
926.031	9211
926.138	9226
926.245	9218
926.352	9024
926.459	9241
926.566	9195
926.673	9127
926.779	8982
926.886	8998
926.993	8910
927.099	8872
927.206	8845
927.312	8857
927.419	8929
927.525	8845
927.631	8921
927.737	8777
927.843	8758
927.95	8659
928.056	8826
928.162	8754
928.267	8868
928.373	9355
928.479	8834
928.585	8625
928.69	8842
928.796	8701
928.901	8674
929.007	8556
929.112	8651
929.218	8606
929.323	8617
929.428	8541
929.533	8712
929.638	8514
929.743	8552
929.848	8651
929.953	8533
930.058	8564
930.163	8339
930.267	8377
930.372	8442
930.477	8282
930.581	8480
930.685	8454
930.79	8301
930.894	8259
930.998	8305
931.103	8438
931.207	8024
931.311	8031
931.415	7921
931.519	7814
931.623	7750
