Data from test_V78500241_1315.txt Node
Date: Fri Mar 25 14:42:52 CST 2022
User: usil
Spectrometer: V785-0024
Trigger mode: 0
Integration Time (sec): 4.000000E-1
Scans to average: 1
Nonlinearity correction enabled: false
Boxcar width: 0
Storing dark spectrum: false
XAxis mode: Wavelengths
Number of Pixels in Spectrum: 1024
>>>>>Begin Spectral Data<<<<<
801.071	22432
801.214	22196
801.356	21972
801.499	21934
801.641	21880
801.783	21774
801.926	21717
802.068	21690
802.211	21610
802.353	21534
802.496	21241
802.638	21226
802.78	21218
802.923	21104
803.065	21074
803.208	21074
803.35	20956
803.492	21218
803.635	21192
803.777	21043
803.919	21176
804.061	21408
804.204	21077
804.346	20986
804.488	20838
804.63	21104
804.773	20921
804.915	21024
805.057	21135
805.199	20986
805.341	21116
805.483	21199
805.626	21013
805.768	21024
805.91	20979
806.052	20994
806.194	20921
806.336	21123
806.478	20929
806.62	20998
806.762	21081
806.904	21154
807.046	21538
807.188	21275
807.33	21382
807.472	21272
807.614	21252
807.756	21249
807.898	21150
808.04	21043
808.182	21089
808.324	21306
808.465	21264
808.607	21359
808.749	21450
808.891	21637
809.033	21724
809.174	21667
809.316	21488
809.458	21488
809.6	21462
809.741	21492
809.883	21587
810.025	21534
810.166	21656
810.308	21576
810.45	21485
810.591	21408
810.733	21336
810.875	21203
811.016	21081
811.158	21077
811.299	21233
811.441	21291
811.582	21218
811.724	21119
811.865	21176
812.007	21070
812.148	21135
812.29	21199
812.431	21507
812.573	21504
812.714	21538
812.855	21652
812.997	21660
813.138	21922
813.279	21812
813.421	21717
813.562	21648
813.703	21370
813.845	21374
813.986	21096
814.127	20944
814.268	20864
814.41	20804
814.551	20693
814.692	20891
814.833	20598
814.974	20640
815.115	20807
815.256	20629
815.397	20667
815.539	20526
815.68	20412
815.821	20370
815.962	20503
816.103	20366
816.244	20324
816.385	20229
816.526	20176
816.666	20005
816.807	19852
816.948	19997
817.089	20008
817.23	19887
817.371	19860
817.512	19909
817.653	19784
817.793	19856
817.934	19845
818.075	19940
818.216	19849
818.356	19822
818.497	19666
818.638	19502
818.778	19491
818.919	19525
819.06	19586
819.2	19784
819.341	19788
819.481	19738
819.622	19841
819.762	20054
819.903	20035
820.043	19913
820.184	19871
820.324	19822
820.465	19784
820.605	19898
820.746	19753
820.886	19700
821.026	19753
821.167	19807
821.307	19982
821.447	19811
821.588	19734
821.728	19502
821.868	19381
822.008	19388
822.149	19297
822.289	19148
822.429	18962
822.569	18920
822.709	18943
822.849	18795
822.99	18642
823.13	18684
823.27	18574
823.41	18566
823.55	18517
823.69	18513
823.83	18426
823.97	18365
824.11	18300
824.25	18342
824.389	18292
824.529	18323
824.669	18243
824.809	18437
824.949	18418
825.089	18448
825.228	18467
825.368	18076
825.508	18072
825.648	18129
825.787	18102
825.927	18216
826.067	18117
826.206	18060
826.346	18083
826.485	18034
826.625	18194
826.765	18174
826.904	18106
827.044	17904
827.183	17752
827.323	17866
827.462	17821
827.601	17729
827.741	17726
827.88	17817
828.02	17707
828.159	17710
828.298	17798
828.437	17916
828.577	17832
828.716	17996
828.855	17760
828.994	17573
829.134	17638
829.273	17467
829.412	17406
829.551	17543
829.69	17592
829.829	17604
829.968	17630
830.107	17657
830.246	17619
830.385	17543
830.524	17528
830.663	17421
830.802	17334
830.941	17181
831.08	17170
831.219	17246
831.357	17280
831.496	17402
831.635	17124
831.774	17162
831.913	17132
832.051	16961
832.19	17022
832.329	17045
832.467	17010
832.606	16782
832.744	16786
832.883	16968
833.022	16908
833.16	16980
833.299	16927
833.437	17010
833.576	16980
833.714	16976
833.852	17022
833.991	16995
834.129	17094
834.267	16976
834.406	16938
834.544	17064
834.682	16911
834.821	16850
834.959	17124
835.097	17006
835.235	17064
835.373	17033
835.511	16896
835.65	16965
835.788	16866
835.926	16824
836.064	16664
836.202	16774
836.34	16919
836.478	16938
836.615	16892
836.753	16927
836.891	16946
837.029	16904
837.167	16793
837.305	16847
837.443	16713
837.58	16702
837.718	16847
837.856	16850
837.993	16744
838.131	16725
838.269	16645
838.406	16694
838.544	16622
838.681	16428
838.819	16367
838.956	16341
839.094	16306
839.231	16436
839.369	16405
839.506	16645
839.643	16554
839.781	16375
839.918	16265
840.055	16314
840.193	16158
840.33	16272
840.467	16230
840.604	16287
840.742	16459
840.879	16078
841.016	16230
841.153	16147
841.29	16443
841.427	16417
841.564	16390
841.701	16268
841.838	16261
841.975	16173
842.112	16226
842.249	16226
842.385	16029
842.522	16341
842.659	16101
842.796	16040
842.933	16006
843.069	16051
843.206	15964
843.343	16120
843.479	16082
843.616	16036
843.752	15797
843.889	15846
844.025	16086
844.162	15804
844.298	15911
844.435	15854
844.571	15755
844.708	15842
844.844	16010
844.98	15911
845.117	15964
845.253	15854
845.389	15743
845.525	15842
845.661	15846
845.798	15759
845.934	15930
846.07	15895
846.206	15987
846.342	15884
846.478	15732
846.614	15629
846.75	15454
846.886	15519
847.022	15526
847.158	15439
847.294	15488
847.429	15458
847.565	15302
847.701	15580
847.837	15097
847.972	15146
848.108	15329
848.244	15154
848.379	15142
848.515	15017
848.65	14994
848.786	15043
848.921	15047
849.057	15062
849.192	15180
849.328	14979
849.463	15074
849.598	15074
849.734	15062
849.869	14826
850.004	14781
850.14	14746
850.275	14807
850.41	14674
850.545	14727
850.68	14838
850.815	14864
850.95	14819
851.085	14960
851.22	14906
851.355	14811
851.49	14754
851.625	14705
851.76	14697
851.895	14674
852.03	14602
852.165	14796
852.299	14849
852.434	14906
852.569	14921
852.703	14853
852.838	14899
852.973	14986
853.107	14963
853.242	14689
853.376	14731
853.511	14537
853.645	14610
853.78	14815
853.914	14689
854.048	14716
854.183	14667
854.317	14701
854.451	14868
854.585	14708
854.72	14564
854.854	14659
854.988	14568
855.122	14613
855.256	14545
855.39	14625
855.524	14739
855.658	14617
855.792	14594
855.926	14800
856.06	14667
856.194	14746
856.327	14629
856.461	14689
856.595	14625
856.729	14724
856.862	14701
856.996	14743
857.13	14655
857.263	14743
857.397	14785
857.53	14724
857.664	14720
857.797	14701
857.931	14845
858.064	14606
858.197	14773
858.331	14674
858.464	14667
858.597	14549
858.731	14697
858.864	14701
858.997	14606
859.13	14674
859.263	14678
859.396	14819
859.529	14686
859.662	14606
859.795	14552
859.928	14743
860.061	14842
860.194	14876
860.327	14762
860.46	14678
860.592	14754
860.725	14804
860.858	14716
860.99	14739
861.123	14488
861.256	14560
861.388	14705
861.521	15340
861.653	14560
861.786	14454
861.918	14503
862.05	14560
862.183	14571
862.315	14629
862.447	14773
862.58	14621
862.712	14446
862.844	14393
862.976	14476
863.108	14537
863.24	14876
863.372	14347
863.504	14408
863.636	14294
863.768	14499
863.9	14419
864.032	14309
864.164	14324
864.296	14473
864.428	14434
864.559	14556
864.691	14556
864.823	14537
864.954	14511
865.086	14450
865.217	14484
865.349	14305
865.48	14339
865.612	14423
865.743	14594
865.875	14328
866.006	14347
866.137	14423
866.269	14393
866.4	14415
866.531	14343
866.662	14229
866.793	14343
866.924	14408
867.055	14362
867.186	14358
867.317	14267
867.448	14336
867.579	14355
867.71	14339
867.841	14229
867.972	14457
868.103	14461
868.233	14431
868.364	14427
868.495	14450
868.625	14674
868.756	14689
868.886	14533
869.017	14579
869.147	14769
869.278	14815
869.408	14571
869.539	14674
869.669	14670
869.799	14682
869.929	14724
870.06	14739
870.19	14990
870.32	14910
870.45	14918
870.58	15108
870.71	15165
870.84	15169
870.97	15074
871.1	15017
871.23	15165
871.36	15283
871.489	15070
871.619	15188
871.749	15268
871.879	15294
872.008	15287
872.138	15192
872.267	15222
872.397	15093
872.526	15112
872.656	15093
872.785	15176
872.915	15275
873.044	15389
873.173	15275
873.303	15214
873.432	15317
873.561	15351
873.69	15340
873.819	15310
873.948	15321
874.077	15157
874.206	15275
874.335	15351
874.464	15420
874.593	15469
874.722	15523
874.851	15671
874.979	15603
875.108	15682
875.237	15523
875.365	15515
875.494	15599
875.623	15747
875.751	15530
875.88	15663
876.008	15720
876.136	15720
876.265	15972
876.393	16192
876.521	16071
876.65	16101
876.778	16036
876.906	15987
877.034	15937
877.162	16025
877.29	16051
877.418	16051
877.546	16071
877.674	16059
877.802	15979
877.93	15975
878.058	15934
878.185	16059
878.313	16044
878.441	16029
878.568	15907
878.696	16010
878.824	15975
878.951	16116
879.079	16158
879.206	16291
879.333	16341
879.461	16048
879.588	16211
879.715	16272
879.842	16303
879.97	16143
880.097	15907
880.224	15835
880.351	15888
880.478	15937
880.605	15789
880.732	15842
880.859	16116
880.986	15876
881.112	15915
881.239	15842
881.366	15717
881.493	15568
881.619	15511
881.746	15572
881.872	15473
881.999	15500
882.125	15625
882.252	15660
882.378	15523
882.505	15732
882.631	15408
882.757	15351
882.883	15511
883.01	15241
883.136	15283
883.262	15264
883.388	15203
883.514	15439
883.64	15500
883.766	15348
883.892	15150
884.018	15085
884.143	15351
884.269	15466
884.395	15150
884.52	15066
884.646	15032
884.772	14967
884.897	14910
885.023	15127
885.148	15077
885.274	15131
885.399	15188
885.524	15047
885.65	15017
885.775	15131
885.9	14982
886.025	15199
886.15	15070
886.275	15058
886.4	14948
886.525	14990
886.65	14880
886.775	14914
886.9	15214
887.025	15176
887.149	15005
887.274	14872
887.399	14830
887.523	14830
887.648	14838
887.773	14834
887.897	14880
888.021	14887
888.146	14781
888.27	14941
888.395	14979
888.519	14921
888.643	14872
888.767	14944
888.891	14861
889.015	14724
889.139	14716
889.263	14651
889.387	14773
889.511	14960
889.635	14792
889.759	14705
889.883	14705
890.006	14746
890.13	14811
890.254	14644
890.377	14613
890.501	14438
890.624	14473
890.748	14606
890.871	14480
890.995	14286
891.118	14294
891.241	14431
891.364	14408
891.488	14571
891.611	14317
891.734	14549
891.857	14507
891.98	14461
892.103	14461
892.226	14488
892.349	14336
892.471	14290
892.594	14434
892.717	14457
892.839	14446
892.962	14427
893.085	14495
893.207	14343
893.33	14370
893.452	14317
893.575	14492
893.697	14465
893.819	14613
893.941	14606
894.064	14560
894.186	14328
894.308	14347
894.43	14469
894.552	14636
894.674	14537
894.796	14362
894.918	14427
895.04	14313
895.161	14530
895.283	14465
895.405	14431
895.526	14408
895.648	14450
895.769	14610
895.891	14533
896.012	14655
896.134	14571
896.255	14594
896.376	14480
896.498	14560
896.619	14659
896.74	14552
896.861	14636
896.982	14826
897.103	15036
897.224	14937
897.345	14777
897.466	14746
897.587	14868
897.708	14845
897.828	14883
897.949	14731
898.07	14663
898.19	14777
898.311	14883
898.431	14838
898.552	14788
898.672	14925
898.792	14963
898.913	14883
899.033	14876
899.153	14743
899.273	14659
899.393	14823
899.513	14762
899.633	14792
899.753	14815
899.873	14735
899.993	14857
900.113	14708
900.232	14883
900.352	14617
900.472	14655
900.591	14594
900.711	14632
900.83	14552
900.95	14659
901.069	14674
901.189	14518
901.308	14370
901.427	14202
901.546	14336
901.665	14347
901.784	14259
901.904	14180
902.023	14073
902.141	13826
902.26	13849
902.379	13986
902.498	13879
902.617	13753
902.735	13906
902.854	13799
902.973	13696
903.091	13590
903.21	13586
903.328	13582
903.446	13411
903.565	13499
903.683	13445
903.801	13350
903.919	13400
904.038	13327
904.156	13236
904.274	13278
904.392	13240
904.51	13266
904.627	13179
904.745	13247
904.863	13209
904.981	13076
905.098	12882
905.216	12954
905.334	12939
905.451	12882
905.569	12882
905.686	12905
905.803	12954
905.921	12768
906.038	12867
906.155	12776
906.272	12707
906.389	12570
906.506	12559
906.623	12532
906.74	12525
906.857	12437
906.974	12486
907.091	12646
907.208	12642
907.324	12589
907.441	12353
907.557	12213
907.674	12175
907.79	12186
907.907	12247
908.023	12251
908.139	12213
908.256	12121
908.372	12117
908.488	12117
908.604	12030
908.72	12057
908.836	11999
908.952	11889
909.068	12034
909.184	12060
909.3	12026
909.415	12053
909.531	11965
909.647	11718
909.762	11802
909.878	11786
909.993	11756
910.108	11786
910.224	11729
910.339	11786
910.454	11672
910.57	11646
910.685	11558
910.8	11756
910.915	11824
911.03	11722
911.145	11486
911.259	11467
911.374	11512
911.489	11322
911.604	11296
911.718	11181
911.833	11227
911.947	11079
912.062	11117
912.176	11193
912.291	11288
912.405	11220
912.519	11471
912.633	11463
912.748	11246
912.862	11239
912.976	11102
913.09	10984
913.204	11018
913.318	11109
913.431	11140
913.545	11151
913.659	11208
913.772	11075
913.886	10991
914	10892
914.113	11006
914.226	11113
914.34	11113
914.453	10923
914.566	11064
914.68	11037
914.793	10858
914.906	10805
915.019	10668
915.132	10637
915.245	10725
915.358	10748
915.47	10721
915.583	10809
915.696	10702
915.809	10847
915.921	10953
916.034	10691
916.146	10736
916.259	10634
916.371	10790
916.483	10725
916.595	10637
916.708	10664
916.82	10630
916.932	10630
917.044	10660
917.156	10603
917.268	10561
917.38	10580
917.491	10451
917.603	10542
917.715	10630
917.826	10634
917.938	10558
918.049	10436
918.161	10516
918.272	10675
918.384	10607
918.495	10596
918.606	10402
918.717	10371
918.828	10481
918.939	10474
919.05	10363
919.161	10398
919.272	10177
919.383	10253
919.494	10405
919.604	10626
919.715	10363
919.826	10280
919.936	10386
920.047	10554
920.157	10382
920.267	10649
920.378	10504
920.488	10455
920.598	10577
920.708	10725
920.818	10531
920.928	10634
921.038	10706
921.148	10748
921.258	10485
921.368	10337
921.477	10352
921.587	10341
921.697	10128
921.806	10295
921.916	10158
922.025	9991
922.134	9998
922.244	9956
922.353	9934
922.462	9842
922.571	9895
922.68	9652
922.789	9595
922.898	9648
923.007	9595
923.116	9766
923.224	9576
923.333	9713
923.442	9523
923.55	9542
923.659	9610
923.767	9595
923.876	9614
923.984	9591
924.092	9412
924.201	9553
924.309	9526
924.417	9568
924.525	9439
924.633	9340
924.741	10341
924.849	9268
924.956	9412
925.064	9298
925.172	9233
925.279	9283
925.387	9260
925.494	9275
925.602	9443
925.709	9359
925.816	9192
925.924	9260
926.031	9431
926.138	9325
926.245	9340
926.352	9241
926.459	9370
926.566	9382
926.673	9230
926.779	9138
926.886	9097
926.993	9066
927.099	8990
927.206	8994
927.312	8929
927.419	9123
927.525	8975
927.631	9043
927.737	8906
927.843	8941
927.95	8739
928.056	8845
928.162	8842
928.267	8990
928.373	9606
928.479	8990
928.585	8708
928.69	8796
928.796	8925
928.901	8811
929.007	8689
929.112	8788
929.218	8826
929.323	8727
929.428	8693
929.533	8899
929.638	8678
929.743	8651
929.848	8762
929.953	8689
930.058	8606
930.163	8495
930.267	8541
930.372	8594
930.477	8476
930.581	8686
930.685	8541
930.79	8461
930.894	8530
930.998	8374
931.103	8492
931.207	8214
931.311	8130
931.415	8100
931.519	7913
931.623	7906
