Data from test_V78500241_3023.txt Node
Date: Fri Mar 25 14:54:45 CST 2022
User: usil
Spectrometer: V785-0024
Trigger mode: 0
Integration Time (sec): 4.000000E-1
Scans to average: 1
Nonlinearity correction enabled: false
Boxcar width: 0
Storing dark spectrum: false
XAxis mode: Wavelengths
Number of Pixels in Spectrum: 1024
>>>>>Begin Spectral Data<<<<<
801.071	22242
801.214	22036
801.356	21751
801.499	21564
801.641	21500
801.783	21416
801.926	21477
802.068	21424
802.211	21336
802.353	21344
802.496	21169
802.638	20994
802.78	20872
802.923	20842
803.065	20773
803.208	20720
803.35	20853
803.492	20937
803.635	20986
803.777	20613
803.919	20960
804.061	21154
804.204	20834
804.346	20746
804.488	20796
804.63	20823
804.773	20670
804.915	20663
805.057	20834
805.199	20727
805.341	20743
805.483	20906
805.626	20765
805.768	20705
805.91	20826
806.052	20800
806.194	20682
806.336	20906
806.478	20667
806.62	20701
806.762	20823
806.904	20914
807.046	21173
807.188	21096
807.33	21116
807.472	21081
807.614	20998
807.756	21036
807.898	20933
808.04	20792
808.182	20868
808.324	20731
808.465	20823
808.607	20906
808.749	21112
808.891	21230
809.033	21306
809.174	21138
809.316	21131
809.458	21112
809.6	21009
809.741	21256
809.883	21131
810.025	21211
810.166	21382
810.308	21230
810.45	21260
810.591	21135
810.733	20918
810.875	20918
811.016	20769
811.158	20807
811.299	21001
811.441	21112
811.582	21047
811.724	20807
811.865	20823
812.007	20838
812.148	20937
812.29	20868
812.431	20963
812.573	21104
812.714	21302
812.855	21389
812.997	21412
813.138	21610
813.279	21416
813.421	21545
813.562	21321
813.703	21230
813.845	21013
813.986	20629
814.127	20560
814.268	20503
814.41	20670
814.551	20358
814.692	20408
814.833	20339
814.974	20358
815.115	20396
815.256	20370
815.397	20366
815.539	20244
815.68	20294
815.821	20092
815.962	20183
816.103	20157
816.244	20024
816.385	19898
816.526	19909
816.666	19635
816.807	19624
816.948	19548
817.089	19681
817.23	19651
817.371	19460
817.512	19499
817.653	19426
817.793	19540
817.934	19548
818.075	19609
818.216	19464
818.356	19540
818.497	19346
818.638	19133
818.778	19244
818.919	19145
819.06	19225
819.2	19449
819.341	19388
819.481	19460
819.622	19571
819.762	19689
819.903	19807
820.043	19506
820.184	19476
820.324	19510
820.465	19510
820.605	19487
820.746	19616
820.886	19346
821.026	19639
821.167	19441
821.307	19495
821.447	19506
821.588	19396
821.728	19285
821.868	19015
822.008	18920
822.149	18806
822.289	18943
822.429	18700
822.569	18711
822.709	18597
822.849	18460
822.99	18418
823.13	18399
823.27	18464
823.41	18266
823.55	18182
823.69	18133
823.83	18251
823.97	18144
824.11	17973
824.25	17977
824.389	17889
824.529	17992
824.669	17897
824.809	17969
824.949	18083
825.089	18045
825.228	18007
825.368	17722
825.508	17718
825.648	17866
825.787	17897
825.927	17843
826.067	17657
826.206	17699
826.346	17680
826.485	17821
826.625	17680
826.765	17836
826.904	17752
827.044	17509
827.183	17490
827.323	17532
827.462	17490
827.601	17478
827.741	17436
827.88	17429
828.02	17334
828.159	17425
828.298	17490
828.437	17528
828.577	17452
828.716	17566
828.855	17368
828.994	17231
829.134	17261
829.273	17227
829.412	17178
829.551	17151
829.69	17064
829.829	17178
829.968	17254
830.107	17269
830.246	17261
830.385	17151
830.524	17098
830.663	17029
830.802	17060
830.941	16786
831.08	16843
831.219	16824
831.357	16877
831.496	17048
831.635	16809
831.774	16763
831.913	16630
832.051	16538
832.19	16535
832.329	16592
832.467	16531
832.606	16447
832.744	16622
832.883	16436
833.022	16421
833.16	16447
833.299	16542
833.437	16455
833.576	16588
833.714	16588
833.852	16565
833.991	16618
834.129	16649
834.267	16489
834.406	16519
834.544	16573
834.682	16489
834.821	16546
834.959	16729
835.097	16493
835.235	16561
835.373	16550
835.511	16630
835.65	16421
835.788	16303
835.926	16284
836.064	16246
836.202	16375
836.34	16485
836.478	16538
836.615	16436
836.753	16375
836.891	16615
837.029	16466
837.167	16443
837.305	16341
837.443	16322
837.58	16211
837.718	16371
837.856	16390
837.993	16185
838.131	16295
838.269	16249
838.406	16238
838.544	16082
838.681	15953
838.819	16025
838.956	15808
839.094	15713
839.231	15926
839.369	15998
839.506	16188
839.643	16105
839.781	15835
839.918	15762
840.055	15888
840.193	15797
840.33	15800
840.467	15812
840.604	15934
840.742	16032
840.879	15690
841.016	15713
841.153	15781
841.29	15979
841.427	15892
841.564	15907
841.701	15793
841.838	15762
841.975	15682
842.112	15743
842.249	15622
842.385	15511
842.522	15709
842.659	15618
842.796	15663
842.933	15652
843.069	15519
843.206	15545
843.343	15770
843.479	15622
843.616	15610
843.752	15466
843.889	15382
844.025	15542
844.162	15370
844.298	15526
844.435	15256
844.571	15317
844.708	15443
844.844	15618
844.98	15481
845.117	15428
845.253	15321
845.389	15294
845.525	15447
845.661	15378
845.798	15207
845.934	15294
846.07	15100
846.206	15199
846.342	15249
846.478	15127
846.614	15085
846.75	14914
846.886	14963
847.022	15051
847.158	15017
847.294	15036
847.429	15013
847.565	14952
847.701	15214
847.837	14739
847.972	14602
848.108	14800
848.244	14834
848.379	14655
848.515	14590
848.65	14617
848.786	14575
848.921	14533
849.057	14705
849.192	14659
849.328	14655
849.463	14678
849.598	14484
849.734	14495
849.869	14427
850.004	14358
850.14	14434
850.275	14347
850.41	14214
850.545	14328
850.68	14290
850.815	14473
850.95	14305
851.085	14530
851.22	14465
851.355	14362
851.49	14362
851.625	14286
851.76	14271
851.895	14202
852.03	14317
852.165	14320
852.299	14366
852.434	14385
852.569	14332
852.703	14267
852.838	14396
852.973	14495
853.107	14469
853.242	14301
853.376	14187
853.511	14103
853.645	14256
853.78	14305
853.914	14142
854.048	14202
854.183	14153
854.317	14123
854.451	14347
854.585	14157
854.72	14225
854.854	14298
854.988	14096
855.122	14157
855.256	13982
855.39	14161
855.524	14328
855.658	14282
855.792	14225
855.926	14218
856.06	14301
856.194	14317
856.327	14195
856.461	14134
856.595	14126
856.729	14123
856.862	14286
856.996	14282
857.13	14229
857.263	14275
857.397	14267
857.53	14183
857.664	14290
857.797	14221
857.931	14305
858.064	14275
858.197	14324
858.331	14233
858.464	14138
858.597	14126
858.731	14301
858.864	14214
858.997	14290
859.13	14161
859.263	14290
859.396	14320
859.529	14130
859.662	14077
859.795	14183
859.928	14271
860.061	14400
860.194	14320
860.327	14240
860.46	14164
860.592	14328
860.725	14351
860.858	14275
860.99	14183
861.123	14145
861.256	14119
861.388	14256
861.521	14895
861.653	13974
861.786	14103
861.918	14012
862.05	14187
862.183	14046
862.315	14164
862.447	14244
862.58	14161
862.712	13978
862.844	13871
862.976	14092
863.108	14020
863.24	14473
863.372	13765
863.504	13925
863.636	13925
863.768	14035
863.9	13974
864.032	13947
864.164	13955
864.296	14005
864.428	14180
864.559	14092
864.691	14134
864.823	14111
864.954	14027
865.086	14016
865.217	13868
865.349	13906
865.48	13989
865.612	13997
865.743	13993
865.875	13997
866.006	13928
866.137	13925
866.269	13879
866.4	13887
866.531	13898
866.662	13868
866.793	13951
866.924	13894
867.055	13917
867.186	13940
867.317	13868
867.448	13791
867.579	13837
867.71	13925
867.841	13822
867.972	13997
868.103	13940
868.233	14088
868.364	14027
868.495	14035
868.625	14187
868.756	14176
868.886	14138
869.017	14187
869.147	14366
869.278	14366
869.408	14225
869.539	14187
869.669	14434
869.799	14218
869.929	14328
870.06	14343
870.19	14636
870.32	14461
870.45	14629
870.58	14590
870.71	14667
870.84	14716
870.97	14571
871.1	14564
871.23	14777
871.36	14769
871.489	14724
871.619	14754
871.749	14712
871.879	14842
872.008	14899
872.138	14853
872.267	14826
872.397	14712
872.526	14598
872.656	14632
872.785	14678
872.915	14883
873.044	14918
873.173	14918
873.303	14834
873.432	14815
873.561	14963
873.69	14868
873.819	14921
873.948	14952
874.077	14788
874.206	14906
874.335	14895
874.464	14975
874.593	15024
874.722	15104
874.851	15188
874.979	15161
875.108	15355
875.237	15077
875.365	15081
875.494	15233
875.623	15256
875.751	15066
875.88	15241
876.008	15241
876.136	15359
876.265	15603
876.393	15762
876.521	15625
876.65	15736
876.778	15576
876.906	15515
877.034	15526
877.162	15526
877.29	15519
877.418	15538
877.546	15610
877.674	15618
877.802	15595
877.93	15545
878.058	15637
878.185	15439
878.313	15538
878.441	15610
878.568	15416
878.696	15477
878.824	15587
878.951	15629
879.079	15747
879.206	15819
879.333	15793
879.461	15663
879.588	15717
879.715	15755
879.842	15781
879.97	15671
880.097	15481
880.224	15481
880.351	15454
880.478	15473
880.605	15428
880.732	15443
880.859	15690
880.986	15443
881.112	15450
881.239	15310
881.366	15085
881.493	15055
881.619	15077
881.746	15077
881.872	15097
881.999	15093
882.125	15013
882.252	15154
882.378	15058
882.505	15317
882.631	14990
882.757	14941
882.883	14887
883.01	14872
883.136	14895
883.262	14864
883.388	14750
883.514	14807
883.64	14956
883.766	15001
883.892	14670
884.018	14731
884.143	14883
884.269	14918
884.395	14670
884.52	14590
884.646	14564
884.772	14530
884.897	14518
885.023	14693
885.148	14743
885.274	14815
885.399	14655
885.524	14754
885.65	14670
885.775	14648
885.9	14655
886.025	14743
886.15	14762
886.275	14541
886.4	14480
886.525	14613
886.65	14560
886.775	14606
886.9	14743
887.025	14921
887.149	14651
887.274	14507
887.399	14415
887.523	14385
887.648	14355
887.773	14290
887.897	14488
888.021	14488
888.146	14473
888.27	14629
888.395	14693
888.519	14434
888.643	14473
888.767	14514
888.891	14396
889.015	14313
889.139	14317
889.263	14237
889.387	14412
889.511	14480
889.635	14450
889.759	14278
889.883	14290
890.006	14336
890.13	14446
890.254	14149
890.377	14225
890.501	14107
890.624	14081
890.748	14164
890.871	14073
890.995	13997
891.118	13909
891.241	13993
891.364	13967
891.488	14168
891.611	14024
891.734	13974
891.857	14069
891.98	14020
892.103	14100
892.226	13986
892.349	14050
892.471	13849
892.594	13951
892.717	14016
892.839	14008
892.962	14043
893.085	14134
893.207	13955
893.33	13868
893.452	13955
893.575	14100
893.697	13928
893.819	14248
893.941	14161
894.064	14157
894.186	14088
894.308	13906
894.43	14123
894.552	14225
894.674	14142
894.796	14054
894.918	13978
895.04	14035
895.161	14111
895.283	14100
895.405	14092
895.526	14062
895.648	14180
895.769	14172
895.891	14199
896.012	14263
896.134	14176
896.255	14107
896.376	14164
896.498	14157
896.619	14240
896.74	14172
896.861	14244
896.982	14522
897.103	14705
897.224	14552
897.345	14442
897.466	14427
897.587	14526
897.708	14617
897.828	14461
897.949	14374
898.07	14366
898.19	14412
898.311	14606
898.431	14480
898.552	14575
898.672	14610
898.792	14644
898.913	14556
899.033	14419
899.153	14351
899.273	14336
899.393	14427
899.513	14381
899.633	14317
899.753	14454
899.873	14366
899.993	14358
900.113	14431
900.232	14488
900.352	14267
900.472	14339
900.591	14256
900.711	14290
900.83	14225
900.95	14355
901.069	14366
901.189	14214
901.308	14027
901.427	13890
901.546	13913
901.665	13940
901.784	13982
901.904	13894
902.023	13696
902.141	13521
902.26	13495
902.379	13639
902.498	13518
902.617	13411
902.735	13575
902.854	13544
902.973	13499
903.091	13293
903.21	13244
903.328	13251
903.446	13118
903.565	13152
903.683	13107
903.801	13008
903.919	13122
904.038	13164
904.156	12924
904.274	13034
904.392	12909
904.51	12932
904.627	12890
904.745	12993
904.863	13023
904.981	12741
905.098	12506
905.216	12604
905.334	12677
905.451	12612
905.569	12509
905.686	12677
905.803	12574
905.921	12441
906.038	12544
906.155	12471
906.272	12300
906.389	12327
906.506	12224
906.623	12133
906.74	12171
906.857	12049
906.974	12003
907.091	12270
907.208	12327
907.324	12220
907.441	12117
907.557	11927
907.674	11893
907.79	11821
907.907	11904
908.023	11954
908.139	11961
908.256	11828
908.372	11817
908.488	11813
908.604	11630
908.72	11619
908.836	11748
908.952	11615
909.068	11733
909.184	11809
909.3	11748
909.415	11745
909.531	11741
909.647	11551
909.762	11440
909.878	11398
909.993	11467
910.108	11459
910.224	11455
910.339	11421
910.454	11379
910.57	11261
910.685	11204
910.8	11490
910.915	11406
911.03	11345
911.145	11197
911.259	11151
911.374	11193
911.489	11045
911.604	10995
911.718	10927
911.833	10984
911.947	10858
912.062	10812
912.176	10869
912.291	10889
912.405	10908
912.519	11124
912.633	11117
912.748	10991
912.862	11014
912.976	10919
913.09	10672
913.204	10816
913.318	10805
913.431	10862
913.545	10908
913.659	10923
913.772	10801
913.886	10687
914	10649
914.113	10717
914.226	10729
914.34	10797
914.453	10599
914.566	10733
914.68	10637
914.793	10721
914.906	10474
915.019	10405
915.132	10390
915.245	10417
915.358	10451
915.47	10451
915.583	10413
915.696	10485
915.809	10599
915.921	10573
916.034	10363
916.146	10348
916.259	10356
916.371	10455
916.483	10440
916.595	10375
916.708	10432
916.82	10367
916.932	10432
917.044	10333
917.156	10367
917.268	10230
917.38	10265
917.491	10280
917.603	10287
917.715	10363
917.826	10329
917.938	10242
918.049	10078
918.161	10322
918.272	10409
918.384	10421
918.495	10185
918.606	10105
918.717	10032
918.828	10196
918.939	10223
919.05	10032
919.161	10169
919.272	9934
919.383	10002
919.494	10223
919.604	10344
919.715	10090
919.826	10105
919.936	10093
920.047	10268
920.157	10211
920.267	10455
920.378	10135
920.488	10192
920.598	10322
920.708	10508
920.818	10337
920.928	10333
921.038	10508
921.148	10474
921.258	10230
921.368	10147
921.477	10051
921.587	10029
921.697	9934
921.806	10059
921.916	9915
922.025	9694
922.134	9732
922.244	9629
922.353	9720
922.462	9576
922.571	9507
922.68	9450
922.789	9397
922.898	9397
923.007	9393
923.116	9469
923.224	9454
923.333	9386
923.442	9386
923.55	9256
923.659	9332
923.767	9367
923.876	9211
923.984	9329
924.092	9176
924.201	9302
924.309	9253
924.417	9317
924.525	9264
924.633	9287
924.741	10173
924.849	9028
924.956	9214
925.064	9070
925.172	8979
925.279	8971
925.387	9077
925.494	9032
925.602	9211
925.709	9157
925.816	8948
925.924	9036
926.031	9119
926.138	9135
926.245	9093
926.352	9032
926.459	9173
926.566	9184
926.673	9009
926.779	9017
926.886	8963
926.993	8800
927.099	8819
927.206	8807
927.312	8807
927.419	8891
927.525	8777
927.631	8838
927.737	8781
927.843	8648
927.95	8503
928.056	8667
928.162	8701
928.267	8800
928.373	9283
928.479	8823
928.585	8583
928.69	8708
928.796	8697
928.901	8598
929.007	8446
929.112	8552
929.218	8552
929.323	8522
929.428	8454
929.533	8606
929.638	8404
929.743	8488
929.848	8518
929.953	8511
930.058	8408
930.163	8271
930.267	8294
930.372	8476
930.477	8248
930.581	8469
930.685	8400
930.79	8263
930.894	8233
930.998	8206
931.103	8351
931.207	8024
931.311	7898
931.415	7849
931.519	7727
931.623	7761
