Data from test_V78500241_649.txt Node
Date: Fri Mar 25 14:38:14 CST 2022
User: usil
Spectrometer: V785-0024
Trigger mode: 0
Integration Time (sec): 4.000000E-1
Scans to average: 1
Nonlinearity correction enabled: false
Boxcar width: 0
Storing dark spectrum: false
XAxis mode: Wavelengths
Number of Pixels in Spectrum: 1024
>>>>>Begin Spectral Data<<<<<
801.071	27914
801.214	27876
801.356	27583
801.499	27549
801.641	27454
801.783	27397
801.926	27401
802.068	27370
802.211	27089
802.353	27119
802.496	26998
802.638	26765
802.78	26940
802.923	26769
803.065	26636
803.208	26731
803.35	26788
803.492	27001
803.635	26982
803.777	26940
803.919	27055
804.061	27237
804.204	27047
804.346	26952
804.488	26994
804.63	27024
804.773	26963
804.915	27146
805.057	27435
805.199	27252
805.341	27393
805.483	27332
805.626	27576
805.768	27496
805.91	27618
806.052	27679
806.194	27766
806.336	28006
806.478	28109
806.62	28112
806.762	28535
806.904	28888
807.046	29543
807.188	29608
807.33	29969
807.472	30654
807.614	31076
807.756	31932
807.898	32754
808.04	34154
808.182	35923
808.324	38267
808.465	40820
808.607	43757
808.749	46249
808.891	47706
809.033	47961
809.174	46527
809.316	44024
809.458	40793
809.6	38054
809.741	35570
809.883	33774
810.025	32507
810.166	31403
810.308	30703
810.45	30270
810.591	29596
810.733	29235
810.875	28847
811.016	28622
811.158	28436
811.299	28470
811.441	28413
811.582	28150
811.724	27895
811.865	27895
812.007	27739
812.148	27709
812.29	27713
812.431	27835
812.573	27823
812.714	27918
812.855	27934
812.997	28017
813.138	28040
813.279	28032
813.421	27812
813.562	27751
813.703	27466
813.845	27348
813.986	27051
814.127	26758
814.268	26746
814.41	26765
814.551	26492
814.692	26712
814.833	26393
814.974	26473
815.115	26613
815.256	26461
815.397	26313
815.539	26374
815.68	26206
815.821	26134
815.962	26278
816.103	26122
816.244	25993
816.385	25894
816.526	25803
816.666	25731
816.807	25578
816.948	25632
817.089	25533
817.23	25438
817.371	25540
817.512	25479
817.653	25396
817.793	25460
817.934	25400
818.075	25518
818.216	25411
818.356	25453
818.497	25225
818.638	25012
818.778	24958
818.919	25061
819.06	25053
819.2	25194
819.341	25350
819.481	25312
819.622	25514
819.762	25586
819.903	25449
820.043	25441
820.184	25274
820.324	25346
820.465	25312
820.605	25232
820.746	25369
820.886	24996
821.026	25244
821.167	25217
821.307	25225
821.447	25091
821.588	24977
821.728	24856
821.868	24757
822.008	24445
822.149	24486
822.289	24410
822.429	24216
822.569	24186
822.709	24232
822.849	24049
822.99	23901
823.13	23809
823.27	23866
823.41	23752
823.55	23775
823.69	23726
823.83	23779
823.97	23608
824.11	23520
824.25	23562
824.389	23570
824.529	23562
824.669	23497
824.809	23573
824.949	23501
825.089	23592
825.228	23467
825.368	23235
825.508	23376
825.648	23459
825.787	23425
825.927	23261
826.067	23140
826.206	23425
826.346	23421
826.485	23364
826.625	23094
826.765	23376
826.904	23326
827.044	22968
827.183	22946
827.323	23014
827.462	22900
827.601	22930
827.741	22930
827.88	23006
828.02	22850
828.159	22968
828.298	22915
828.437	22987
828.577	22873
828.716	23014
828.855	22809
828.994	22557
829.134	22763
829.273	22717
829.412	22622
829.551	22523
829.69	22527
829.829	22622
829.968	22668
830.107	22710
830.246	22569
830.385	22474
830.524	22592
830.663	22367
830.802	22379
830.941	22299
831.08	22215
831.219	22242
831.357	22204
831.496	22432
831.635	22143
831.774	22131
831.913	22120
832.051	22006
832.19	22048
832.329	22086
832.467	21994
832.606	21998
832.744	22013
832.883	22109
833.022	22105
833.16	22200
833.299	22398
833.437	22443
833.576	22577
833.714	22656
833.852	22805
833.991	22873
834.129	23109
834.267	23003
834.406	22961
834.544	22904
834.682	22713
834.821	22691
834.959	22645
835.097	22451
835.235	22508
835.373	22352
835.511	22211
835.65	21994
835.788	22002
835.926	21793
836.064	21724
836.202	21755
836.34	21838
836.478	21774
836.615	21732
836.753	21743
836.891	21876
837.029	21759
837.167	21515
837.305	21583
837.443	21561
837.58	21545
837.718	21576
837.856	21595
837.993	21511
838.131	21580
838.269	21252
838.406	21397
838.544	21351
838.681	21192
838.819	21112
838.956	21051
839.094	21081
839.231	21009
839.369	21154
839.506	21351
839.643	21173
839.781	20914
839.918	20902
840.055	21039
840.193	20834
840.33	20868
840.467	20842
840.604	20880
840.742	21157
840.879	20682
841.016	20876
841.153	20876
841.29	21093
841.427	20906
841.564	20960
841.701	20910
841.838	20781
841.975	20796
842.112	20819
842.249	20712
842.385	20693
842.522	20823
842.659	20750
842.796	20598
842.933	20785
843.069	20705
843.206	20769
843.343	20971
843.479	20883
843.616	20804
843.752	20663
843.889	20727
844.025	20868
844.162	20735
844.298	20819
844.435	21009
844.571	21150
844.708	21530
844.844	22044
844.98	22158
845.117	22786
845.253	23562
845.389	25206
845.525	28257
845.661	33264
845.798	39378
845.934	43693
846.07	45530
846.206	44347
846.342	40276
846.478	34128
846.614	29220
846.75	25609
846.886	23619
847.022	22500
847.158	21705
847.294	21283
847.429	20952
847.565	20682
847.701	20811
847.837	20081
847.972	19986
848.108	19986
848.244	20062
848.379	19738
848.515	19830
848.65	19776
848.786	19677
848.921	19616
849.057	19837
849.192	19708
849.328	19609
849.463	19514
849.598	19521
849.734	19422
849.869	19487
850.004	19346
850.14	19282
850.275	19289
850.41	19236
850.545	19244
850.68	19160
850.815	19289
850.95	19244
851.085	19381
851.22	19449
851.355	19259
851.49	19266
851.625	19251
851.76	19236
851.895	19129
852.03	19270
852.165	19244
852.299	19232
852.434	19495
852.569	19381
852.703	19373
852.838	19483
852.973	19441
853.107	19472
853.242	19373
853.376	19232
853.511	19171
853.645	19316
853.78	19502
853.914	19251
854.048	19411
854.183	19335
854.317	19480
854.451	19662
854.585	19464
854.72	19396
854.854	19552
854.988	19419
855.122	19331
855.256	19320
855.39	19324
855.524	19263
855.658	19244
855.792	19297
855.926	19187
856.06	19110
856.194	19327
856.327	19122
856.461	19103
856.595	19095
856.729	19053
856.862	19168
856.996	19019
857.13	19148
857.263	19088
857.397	19129
857.53	19008
857.664	19076
857.797	19141
857.931	19133
858.064	19110
858.197	19133
858.331	19000
858.464	18890
858.597	18867
858.731	18954
858.864	18897
858.997	18943
859.13	18932
859.263	18924
859.396	19038
859.529	18852
859.662	18947
859.795	18894
859.928	18943
860.061	19072
860.194	19152
860.327	18913
860.46	18894
860.592	18993
860.725	19057
860.858	19042
860.99	18909
861.123	18935
861.256	18837
861.388	18886
861.521	19476
861.653	18753
861.786	18753
861.918	18646
862.05	18764
862.183	18939
862.315	18954
862.447	18977
862.58	18764
862.712	18692
862.844	18639
862.976	18658
863.108	18639
863.24	18985
863.372	18490
863.504	18620
863.636	18589
863.768	18639
863.9	18608
864.032	18532
864.164	18475
864.296	18665
864.428	18635
864.559	18639
864.691	18665
864.823	18597
864.954	18532
865.086	18612
865.217	18563
865.349	18483
865.48	18479
865.612	18589
865.743	18654
865.875	18517
866.006	18483
866.137	18525
866.269	18521
866.4	18437
866.531	18388
866.662	18357
866.793	18422
866.924	18403
867.055	18502
867.186	18521
867.317	18498
867.448	18266
867.579	18433
867.71	18452
867.841	18388
867.972	18551
868.103	18471
868.233	18555
868.364	18498
868.495	18540
868.625	18669
868.756	18776
868.886	18593
869.017	18688
869.147	18878
869.278	18913
869.408	18745
869.539	18696
869.669	18745
869.799	18741
869.929	18802
870.06	18882
870.19	19095
870.32	19072
870.45	19095
870.58	19012
870.71	19228
870.84	19175
870.97	19236
871.1	19095
871.23	19377
871.36	19358
871.489	19266
871.619	19324
871.749	19350
871.879	19369
872.008	19521
872.138	19476
872.267	19460
872.397	19335
872.526	19316
872.656	19293
872.785	19304
872.915	19597
873.044	19544
873.173	19544
873.303	19571
873.432	19772
873.561	19632
873.69	19639
873.819	19685
873.948	19757
874.077	19708
874.206	19712
874.335	19738
874.464	19963
874.593	20195
874.722	19936
874.851	20259
874.979	20313
875.108	20301
875.237	20084
875.365	20187
875.494	20237
875.623	20476
875.751	20294
875.88	20351
876.008	20511
876.136	20598
876.265	20975
876.393	21032
876.521	20971
876.65	21100
876.778	21066
876.906	21043
877.034	21070
877.162	21180
877.29	21260
877.418	21340
877.546	21496
877.674	21564
877.802	21583
877.93	21720
878.058	21876
878.185	22025
878.313	22204
878.441	22519
878.568	22782
878.696	23303
878.824	24098
878.951	24985
879.079	26556
879.206	28276
879.333	29999
879.461	31521
879.588	32697
879.715	32617
879.842	31921
879.97	30247
880.097	28329
880.224	26583
880.351	25795
880.478	25031
880.605	24456
880.732	24201
880.859	24083
880.986	23726
881.112	23786
881.239	23619
881.366	23398
881.493	23303
881.619	23109
881.746	23277
881.872	23353
881.999	23299
882.125	23433
882.252	23421
882.378	23459
882.505	23562
882.631	23414
882.757	23330
882.883	23391
883.01	23429
883.136	23242
883.262	23140
883.388	23071
883.514	23220
883.64	23162
883.766	23223
883.892	22984
884.018	23128
884.143	23223
884.269	23208
884.395	23014
884.52	23018
884.646	22839
884.772	22881
884.897	22759
885.023	22938
885.148	23090
885.274	23014
885.399	22904
885.524	22717
885.65	22634
885.775	22550
885.9	22409
886.025	22386
886.15	22211
886.275	22010
886.4	21835
886.525	21755
886.65	21568
886.775	21488
886.9	21561
887.025	21599
887.149	21218
887.274	21203
887.399	20975
887.523	20792
887.648	20754
887.773	20693
887.897	20712
888.021	20648
888.146	20602
888.27	20651
888.395	20549
888.519	20457
888.643	20419
888.767	20343
888.891	20336
889.015	20001
889.139	20130
889.263	19970
889.387	20134
889.511	20176
889.635	20122
889.759	20012
889.883	19757
890.006	19887
890.13	19925
890.254	19670
890.377	19647
890.501	19441
890.624	19441
890.748	19430
890.871	19369
890.995	19247
891.118	19175
891.241	19183
891.364	19114
891.488	19285
891.611	19050
891.734	19042
891.857	19160
891.98	19095
892.103	19129
892.226	19008
892.349	18905
892.471	18795
892.594	18867
892.717	18913
892.839	18810
892.962	18894
893.085	18882
893.207	18783
893.33	18673
893.452	18673
893.575	18757
893.697	18650
893.819	18802
893.941	18817
894.064	18753
894.186	18566
894.308	18407
894.43	18673
894.552	18684
894.674	18608
894.796	18471
894.918	18494
895.04	18452
895.161	18525
895.283	18563
895.405	18292
895.526	18544
895.648	18471
895.769	18475
895.891	18433
896.012	18486
896.134	18437
896.255	18467
896.376	18338
896.498	18327
896.619	18384
896.74	18266
896.861	18490
896.982	18722
897.103	18806
897.224	18684
897.345	18669
897.466	18563
897.587	18471
897.708	18650
897.828	18551
897.949	18525
898.07	18296
898.19	18498
898.311	18722
898.431	18437
898.552	18536
898.672	18650
898.792	18635
898.913	18506
899.033	18498
899.153	18388
899.273	18190
899.393	18311
899.513	18369
899.633	18323
899.753	18300
899.873	18289
899.993	18205
900.113	18376
900.232	18315
900.352	18308
900.472	18239
900.591	18095
900.711	18117
900.83	18087
900.95	18224
901.069	18254
901.189	18076
901.308	17775
901.427	17737
901.546	17649
901.665	17786
901.784	17680
901.904	17505
902.023	17448
902.141	17261
902.26	17200
902.379	17242
902.498	17193
902.617	17025
902.735	17193
902.854	17124
902.973	17052
903.091	16668
903.21	16839
903.328	16748
903.446	16588
903.565	16569
903.683	16565
903.801	16424
903.919	16470
904.038	16546
904.156	16284
904.274	16466
904.392	16398
904.51	16303
904.627	16318
904.745	16329
904.863	16356
904.981	16055
905.098	16109
905.216	15892
905.334	15937
905.451	15915
905.569	15846
905.686	16025
905.803	15895
905.921	15671
906.038	15804
906.155	15736
906.272	15671
906.389	15698
906.506	15443
906.623	15469
906.74	15462
906.857	15363
906.974	15329
907.091	15652
907.208	15606
907.324	15519
907.441	15332
907.557	15176
907.674	15165
907.79	15203
907.907	15051
908.023	15173
908.139	15104
908.256	15108
908.372	15036
908.488	15009
908.604	14941
908.72	14830
908.836	14929
908.952	14876
909.068	14899
909.184	14910
909.3	14788
909.415	14925
909.531	14849
909.647	14602
909.762	14552
909.878	14606
909.993	14568
910.108	14613
910.224	14560
910.339	14499
910.454	14545
910.57	14503
910.685	14385
910.8	14663
910.915	14663
911.03	14366
911.145	14309
911.259	14286
911.374	14305
911.489	14107
911.604	14100
911.718	14046
911.833	13959
911.947	13811
912.062	13780
912.176	13974
912.291	13890
912.405	14043
912.519	14214
912.633	14164
912.748	14054
912.862	13944
912.976	13826
913.09	13651
913.204	13776
913.318	13811
913.431	13963
913.545	13852
913.659	13921
913.772	13860
913.886	13674
914	13624
914.113	13704
914.226	13753
914.34	13864
914.453	13533
914.566	13685
914.68	13525
914.793	13510
914.906	13407
915.019	13232
915.132	13354
915.245	13354
915.358	13339
915.47	13293
915.583	13362
915.696	13365
915.809	13453
915.921	13510
916.034	13327
916.146	13293
916.259	13202
916.371	13369
916.483	13441
916.595	13320
916.708	13160
916.82	13297
916.932	13137
917.044	13274
917.156	13282
917.268	13103
917.38	13149
917.491	13084
917.603	13088
917.715	13046
917.826	13206
917.938	12981
918.049	12985
918.161	13046
918.272	13099
918.384	13209
918.495	13000
918.606	12875
918.717	12726
918.828	12897
918.939	12939
919.05	12768
919.161	12844
919.272	12589
919.383	12696
919.494	12897
919.604	13050
919.715	12863
919.826	12703
919.936	12719
920.047	12821
920.157	12779
920.267	12897
920.378	12856
920.488	12681
920.598	12996
920.708	13053
920.818	12897
920.928	12954
921.038	13015
921.148	13019
921.258	12719
921.368	12658
921.477	12528
921.587	12589
921.697	12498
921.806	12604
921.916	12448
922.025	12167
922.134	12209
922.244	12194
922.353	12213
922.462	12064
922.571	11977
922.68	11904
922.789	11916
922.898	11885
923.007	11802
923.116	11885
923.224	11748
923.333	11863
923.442	11741
923.55	11710
923.659	11638
923.767	11767
923.876	11688
923.984	11817
924.092	11619
924.201	11676
924.309	11745
924.417	11672
924.525	11520
924.633	11581
924.741	12323
924.849	11417
924.956	11562
925.064	11463
925.172	11273
925.279	11353
925.387	11505
925.494	11414
925.602	11486
925.709	11395
925.816	11261
925.924	11311
926.031	11436
926.138	11360
926.245	11391
926.352	11273
926.459	11360
926.566	11429
926.673	11292
926.779	11181
926.886	11159
926.993	10991
927.099	10930
927.206	10946
927.312	10930
927.419	11010
927.525	11022
927.631	11022
927.737	10919
927.843	10843
927.95	10717
928.056	10790
928.162	10820
928.267	10949
928.373	11417
928.479	10900
928.585	10694
928.69	10801
928.796	10866
928.901	10698
929.007	10599
929.112	10725
929.218	10691
929.323	10630
929.428	10558
929.533	10744
929.638	10531
929.743	10542
929.848	10603
929.953	10622
930.058	10497
930.163	10306
930.267	10341
930.372	10443
930.477	10257
930.581	10531
930.685	10382
930.79	10242
930.894	10249
930.998	10204
931.103	10306
931.207	9968
931.311	10021
931.415	9857
931.519	9690
931.623	9599
