Data from test_V78500241_2450.txt Node
Date: Fri Mar 25 14:50:46 CST 2022
User: usil
Spectrometer: V785-0024
Trigger mode: 0
Integration Time (sec): 4.000000E-1
Scans to average: 1
Nonlinearity correction enabled: false
Boxcar width: 0
Storing dark spectrum: false
XAxis mode: Wavelengths
Number of Pixels in Spectrum: 1024
>>>>>Begin Spectral Data<<<<<
801.071	22196
801.214	22025
801.356	21743
801.499	21720
801.641	21530
801.783	21462
801.926	21515
802.068	21485
802.211	21359
802.353	21291
802.496	21131
802.638	20933
802.78	20906
802.923	20876
803.065	20663
803.208	20792
803.35	20765
803.492	20849
803.635	20891
803.777	20705
803.919	20910
804.061	21146
804.204	20811
804.346	20792
804.488	20765
804.63	20857
804.773	20651
804.915	20644
805.057	20807
805.199	20674
805.341	20788
805.483	20910
805.626	20830
805.768	20712
805.91	20640
806.052	20819
806.194	20640
806.336	20842
806.478	20667
806.62	20636
806.762	20762
806.904	20830
807.046	21112
807.188	20937
807.33	21104
807.472	21070
807.614	21020
807.756	21066
807.898	20868
808.04	20845
808.182	20819
808.324	20891
808.465	20792
808.607	20937
808.749	21199
808.891	21161
809.033	21169
809.174	21131
809.316	21047
809.458	21188
809.6	21074
809.741	21203
809.883	21150
810.025	21260
810.166	21245
810.308	21233
810.45	21154
810.591	21077
810.733	20990
810.875	20971
811.016	20697
811.158	20731
811.299	20979
811.441	21001
811.582	20872
811.724	20952
811.865	20727
812.007	20956
812.148	20754
812.29	21005
812.431	21085
812.573	21173
812.714	21180
812.855	21378
812.997	21386
813.138	21595
813.279	21473
813.421	21359
813.562	21332
813.703	21123
813.845	21036
813.986	20754
814.127	20530
814.268	20343
814.41	20537
814.551	20434
814.692	20431
814.833	20324
814.974	20385
815.115	20339
815.256	20286
815.397	20202
815.539	20183
815.68	20119
815.821	20107
815.962	20225
816.103	20161
816.244	20024
816.385	19944
816.526	19864
816.666	19746
816.807	19571
816.948	19635
817.089	19662
817.23	19639
817.371	19529
817.512	19548
817.653	19613
817.793	19438
817.934	19502
818.075	19601
818.216	19559
818.356	19518
818.497	19384
818.638	19270
818.778	19312
818.919	19209
819.06	19259
819.2	19259
819.341	19438
819.481	19540
819.622	19529
819.762	19769
819.903	19556
820.043	19613
820.184	19480
820.324	19518
820.465	19533
820.605	19563
820.746	19514
820.886	19457
821.026	19525
821.167	19491
821.307	19468
821.447	19548
821.588	19324
821.728	19156
821.868	19160
822.008	19023
822.149	18848
822.289	18928
822.429	18635
822.569	18623
822.709	18589
822.849	18467
822.99	18456
823.13	18502
823.27	18448
823.41	18174
823.55	18296
823.69	18262
823.83	18228
823.97	18144
824.11	17897
824.25	17950
824.389	18011
824.529	17969
824.669	17988
824.809	18083
824.949	18030
825.089	17931
825.228	18015
825.368	17817
825.508	17767
825.648	17855
825.787	17813
825.927	17817
826.067	17783
826.206	17775
826.346	17748
826.485	17764
826.625	17840
826.765	17832
826.904	17767
827.044	17406
827.183	17611
827.323	17528
827.462	17577
827.601	17448
827.741	17395
827.88	17490
828.02	17311
828.159	17497
828.298	17512
828.437	17577
828.577	17482
828.716	17478
828.855	17516
828.994	17284
829.134	17239
829.273	17307
829.412	17162
829.551	17121
829.69	17212
829.829	17178
829.968	17315
830.107	17277
830.246	17258
830.385	17269
830.524	17094
830.663	17094
830.802	16991
830.941	16831
831.08	16816
831.219	16820
831.357	16904
831.496	17060
831.635	16793
831.774	16763
831.913	16721
832.051	16656
832.19	16584
832.329	16637
832.467	16478
832.606	16508
832.744	16519
832.883	16497
833.022	16550
833.16	16538
833.299	16542
833.437	16523
833.576	16504
833.714	16500
833.852	16607
833.991	16569
834.129	16618
834.267	16542
834.406	16626
834.544	16615
834.682	16512
834.821	16622
834.959	16812
835.097	16558
835.235	16637
835.373	16603
835.511	16527
835.65	16531
835.788	16508
835.926	16230
836.064	16356
836.202	16360
836.34	16512
836.478	16481
836.615	16436
836.753	16474
836.891	16649
837.029	16375
837.167	16428
837.305	16428
837.443	16341
837.58	16272
837.718	16481
837.856	16360
837.993	16299
838.131	16421
838.269	16234
838.406	16360
838.544	16257
838.681	15983
838.819	16036
838.956	15926
839.094	15892
839.231	15975
839.369	16059
839.506	16223
839.643	16071
839.781	15956
839.918	15846
840.055	15869
840.193	15846
840.33	15842
840.467	15873
840.604	15899
840.742	16166
840.879	15778
841.016	15816
841.153	15888
841.29	16002
841.427	16006
841.564	15972
841.701	15991
841.838	15816
841.975	15816
842.112	15884
842.249	15644
842.385	15736
842.522	15800
842.659	15720
842.796	15671
842.933	15690
843.069	15644
843.206	15553
843.343	15694
843.479	15747
843.616	15648
843.752	15542
843.889	15469
844.025	15614
844.162	15473
844.298	15644
844.435	15435
844.571	15401
844.708	15526
844.844	15603
844.98	15633
845.117	15576
845.253	15355
845.389	15378
845.525	15367
845.661	15329
845.798	15218
845.934	15264
846.07	15256
846.206	15264
846.342	15405
846.478	15389
846.614	15089
846.75	14975
846.886	14918
847.022	15024
847.158	15017
847.294	14994
847.429	15195
847.565	15017
847.701	15329
847.837	14781
847.972	14735
848.108	14921
848.244	14785
848.379	14682
848.515	14625
848.65	14594
848.786	14648
848.921	14655
849.057	14686
849.192	14724
849.328	14613
849.463	14556
849.598	14636
849.734	14575
849.869	14396
850.004	14415
850.14	14495
850.275	14347
850.41	14301
850.545	14328
850.68	14343
850.815	14385
850.95	14298
851.085	14488
851.22	14438
851.355	14408
851.49	14358
851.625	14389
851.76	14385
851.895	14252
852.03	14180
852.165	14298
852.299	14446
852.434	14503
852.569	14438
852.703	14495
852.838	14469
852.973	14568
853.107	14583
853.242	14355
853.376	14347
853.511	14191
853.645	14252
853.78	14339
853.914	14263
854.048	14229
854.183	14267
854.317	14263
854.451	14396
854.585	14271
854.72	14237
854.854	14305
854.988	14195
855.122	14290
855.256	14046
855.39	14210
855.524	14427
855.658	14324
855.792	14271
855.926	14309
856.06	14286
856.194	14358
856.327	14252
856.461	14263
856.595	14218
856.729	14103
856.862	14358
856.996	14336
857.13	14298
857.263	14336
857.397	14412
857.53	14263
857.664	14336
857.797	14309
857.931	14385
858.064	14309
858.197	14370
858.331	14294
858.464	14271
858.597	14240
858.731	14240
858.864	14282
858.997	14237
859.13	14301
859.263	14419
859.396	14332
859.529	14339
859.662	14180
859.795	14168
859.928	14317
860.061	14473
860.194	14419
860.327	14343
860.46	14286
860.592	14374
860.725	14389
860.858	14320
860.99	14309
861.123	14183
861.256	14134
861.388	14278
861.521	14823
861.653	14199
861.786	14024
861.918	14138
862.05	14256
862.183	14278
862.315	14202
862.447	14248
862.58	14218
862.712	14092
862.844	14058
862.976	14111
863.108	14058
863.24	14400
863.372	13974
863.504	14081
863.636	13955
863.768	14096
863.9	14031
864.032	13883
864.164	14027
864.296	14005
864.428	14138
864.559	14157
864.691	14164
864.823	14081
864.954	14054
865.086	14043
865.217	13993
865.349	14031
865.48	14001
865.612	14001
865.743	14103
865.875	13993
866.006	13982
866.137	14077
866.269	14081
866.4	13974
866.531	13913
866.662	13902
866.793	13963
866.924	14031
867.055	13955
867.186	13947
867.317	13955
867.448	13917
867.579	13944
867.71	13898
867.841	14058
867.972	13955
868.103	13993
868.233	14031
868.364	14024
868.495	14092
868.625	14199
868.756	14351
868.886	14126
869.017	14298
869.147	14339
869.278	14358
869.408	14305
869.539	14282
869.669	14355
869.799	14336
869.929	14404
870.06	14431
870.19	14651
870.32	14587
870.45	14701
870.58	14610
870.71	14697
870.84	14754
870.97	14613
871.1	14674
871.23	14830
871.36	14937
871.489	14807
871.619	14811
871.749	14902
871.879	14918
872.008	15013
872.138	14845
872.267	14899
872.397	14689
872.526	14686
872.656	14689
872.785	14720
872.915	14872
873.044	14925
873.173	15028
873.303	14883
873.432	14960
873.561	15005
873.69	14914
873.819	14914
873.948	14975
874.077	14910
874.206	14948
874.335	14967
874.464	15058
874.593	15199
874.722	15112
874.851	15207
874.979	15222
875.108	15287
875.237	15169
875.365	15116
875.494	15199
875.623	15321
875.751	15116
875.88	15275
876.008	15359
876.136	15462
876.265	15637
876.393	15819
876.521	15720
876.65	15701
876.778	15774
876.906	15618
877.034	15587
877.162	15660
877.29	15599
877.418	15770
877.546	15694
877.674	15663
877.802	15698
877.93	15584
878.058	15667
878.185	15549
878.313	15519
878.441	15717
878.568	15511
878.696	15561
878.824	15709
878.951	15660
879.079	15819
879.206	15873
879.333	15755
879.461	15739
879.588	15785
879.715	15819
879.842	16006
879.97	15686
880.097	15500
880.224	15443
880.351	15587
880.478	15439
880.605	15519
880.732	15389
880.859	15679
880.986	15504
881.112	15408
881.239	15336
881.366	15188
881.493	15180
881.619	15146
881.746	15131
881.872	15233
881.999	15142
882.125	15005
882.252	15260
882.378	15123
882.505	15272
882.631	15131
882.757	15100
882.883	15013
883.01	14979
883.136	14960
883.262	14800
883.388	14804
883.514	15077
883.64	15032
883.766	14994
883.892	14724
884.018	14857
884.143	14925
884.269	15047
884.395	14750
884.52	14629
884.646	14743
884.772	14693
884.897	14651
885.023	14682
885.148	14899
885.274	14838
885.399	14800
885.524	14568
885.65	14644
885.775	14762
885.9	14727
886.025	14777
886.15	14636
886.275	14602
886.4	14590
886.525	14583
886.65	14560
886.775	14598
886.9	14773
887.025	14864
887.149	14731
887.274	14492
887.399	14469
887.523	14484
887.648	14469
887.773	14419
887.897	14610
888.021	14545
888.146	14442
888.27	14541
888.395	14632
888.519	14469
888.643	14511
888.767	14541
888.891	14503
889.015	14343
889.139	14473
889.263	14324
889.387	14434
889.511	14556
889.635	14499
889.759	14442
889.883	14381
890.006	14446
890.13	14442
890.254	14370
890.377	14275
890.501	14214
890.624	14138
890.748	14221
890.871	14100
890.995	14005
891.118	13921
891.241	13982
891.364	14084
891.488	14130
891.611	14107
891.734	14027
891.857	14237
891.98	14138
892.103	14096
892.226	14187
892.349	14008
892.471	13970
892.594	14054
892.717	14123
892.839	14100
892.962	14145
893.085	14115
893.207	14054
893.33	13963
893.452	14050
893.575	14058
893.697	14054
893.819	14187
893.941	14221
894.064	14252
894.186	14103
894.308	14065
894.43	14233
894.552	14199
894.674	14221
894.796	13997
894.918	14221
895.04	14073
895.161	14259
895.283	14176
895.405	14206
895.526	14115
895.648	14240
895.769	14271
895.891	14183
896.012	14328
896.134	14221
896.255	14267
896.376	14172
896.498	14172
896.619	14301
896.74	14180
896.861	14240
896.982	14629
897.103	14693
897.224	14541
897.345	14522
897.466	14495
897.587	14488
897.708	14731
897.828	14651
897.949	14427
898.07	14389
898.19	14427
898.311	14625
898.431	14476
898.552	14564
898.672	14701
898.792	14739
898.913	14705
899.033	14552
899.153	14526
899.273	14362
899.393	14423
899.513	14480
899.633	14450
899.753	14438
899.873	14469
899.993	14503
900.113	14396
900.232	14488
900.352	14492
900.472	14324
900.591	14252
900.711	14298
900.83	14233
900.95	14400
901.069	14370
901.189	14180
901.308	14062
901.427	14062
901.546	13993
901.665	14027
901.784	13986
901.904	13959
902.023	13765
902.141	13639
902.26	13537
902.379	13689
902.498	13525
902.617	13556
902.735	13552
902.854	13544
902.973	13578
903.091	13308
903.21	13293
903.328	13187
903.446	13152
903.565	13217
903.683	13069
903.801	13027
903.919	13149
904.038	13103
904.156	12970
904.274	12939
904.392	12905
904.51	12882
904.627	12939
904.745	13012
904.863	12966
904.981	12738
905.098	12696
905.216	12601
905.334	12692
905.451	12692
905.569	12620
905.686	12772
905.803	12601
905.921	12460
906.038	12498
906.155	12475
906.272	12319
906.389	12334
906.506	12251
906.623	12228
906.74	12258
906.857	11973
906.974	12102
907.091	12258
907.208	12315
907.324	12228
907.441	12159
907.557	11996
907.674	11939
907.79	11931
907.907	11927
908.023	11992
908.139	11920
908.256	11946
908.372	11958
908.488	11855
908.604	11779
908.72	11722
908.836	11737
908.952	11726
909.068	11764
909.184	11866
909.3	11786
909.415	11790
909.531	11737
909.647	11543
909.762	11558
909.878	11528
909.993	11566
910.108	11532
910.224	11543
910.339	11551
910.454	11452
910.57	11353
910.685	11353
910.8	11566
910.915	11512
911.03	11471
911.145	11216
911.259	11193
911.374	11235
911.489	11121
911.604	11109
911.718	10980
911.833	11018
911.947	10858
912.062	10854
912.176	10946
912.291	10984
912.405	10976
912.519	11098
912.633	11147
912.748	11079
912.862	11056
912.976	10904
913.09	10672
913.204	10744
913.318	10816
913.431	10923
913.545	10934
913.659	10923
913.772	10862
913.886	10668
914	10714
914.113	10854
914.226	10877
914.34	10786
914.453	10675
914.566	10835
914.68	10729
914.793	10706
914.906	10436
915.019	10470
915.132	10310
915.245	10462
915.358	10493
915.47	10451
915.583	10478
915.696	10554
915.809	10596
915.921	10523
916.034	10379
916.146	10371
916.259	10382
916.371	10523
916.483	10481
916.595	10451
916.708	10436
916.82	10462
916.932	10390
917.044	10375
917.156	10356
917.268	10265
917.38	10188
917.491	10253
917.603	10325
917.715	10375
917.826	10409
917.938	10265
918.049	10162
918.161	10265
918.272	10531
918.384	10413
918.495	10295
918.606	10196
918.717	10154
918.828	10181
918.939	10223
919.05	10131
919.161	10185
919.272	9945
919.383	10048
919.494	10265
919.604	10432
919.715	10223
919.826	10086
919.936	10192
920.047	10211
920.157	10211
920.267	10325
920.378	10242
920.488	10093
920.598	10462
920.708	10504
920.818	10386
920.928	10394
921.038	10599
921.148	10573
921.258	10242
921.368	10120
921.477	10006
921.587	10006
921.697	9972
921.806	10124
921.916	9949
922.025	9766
922.134	9789
922.244	9698
922.353	9857
922.462	9637
922.571	9618
922.68	9412
922.789	9469
922.898	9439
923.007	9443
923.116	9466
923.224	9443
923.333	9408
923.442	9283
923.55	9294
923.659	9344
923.767	9450
923.876	9245
923.984	9378
924.092	9268
924.201	9241
924.309	9294
924.417	9317
924.525	9298
924.633	9294
924.741	10063
924.849	9142
924.956	9222
925.064	9074
925.172	8925
925.279	9036
925.387	9127
925.494	9123
925.602	9165
925.709	9214
925.816	9032
925.924	9135
926.031	9108
926.138	9066
926.245	9138
926.352	8975
926.459	9169
926.566	9211
926.673	9051
926.779	8990
926.886	8899
926.993	8876
927.099	8788
927.206	8785
927.312	8807
927.419	8864
927.525	8834
927.631	8899
927.737	8731
927.843	8701
927.95	8579
928.056	8689
928.162	8716
928.267	8731
928.373	9393
928.479	8834
928.585	8587
928.69	8727
928.796	8731
928.901	8590
929.007	8579
929.112	8636
929.218	8629
929.323	8617
929.428	8587
929.533	8678
929.638	8530
929.743	8473
929.848	8625
929.953	8549
930.058	8465
930.163	8279
930.267	8294
930.372	8469
930.477	8347
930.581	8541
930.685	8404
930.79	8214
930.894	8290
930.998	8229
931.103	8457
931.207	8058
931.311	8008
931.415	7928
931.519	7753
931.623	7727
