Data from test_V78500241_3160.txt Node
Date: Fri Mar 25 14:55:43 CST 2022
User: usil
Spectrometer: V785-0024
Trigger mode: 0
Integration Time (sec): 4.000000E-1
Scans to average: 1
Nonlinearity correction enabled: false
Boxcar width: 0
Storing dark spectrum: false
XAxis mode: Wavelengths
Number of Pixels in Spectrum: 1024
>>>>>Begin Spectral Data<<<<<
801.071	22124
801.214	21953
801.356	21644
801.499	21564
801.641	21530
801.783	21382
801.926	21469
802.068	21370
802.211	21249
802.353	21093
802.496	21009
802.638	20830
802.78	20880
802.923	20838
803.065	20731
803.208	20705
803.35	20792
803.492	20826
803.635	20887
803.777	20769
803.919	20956
804.061	21119
804.204	20823
804.346	20670
804.488	20644
804.63	20754
804.773	20571
804.915	20750
805.057	20731
805.199	20686
805.341	20739
805.483	20800
805.626	20849
805.768	20663
805.91	20678
806.052	20655
806.194	20602
806.336	20819
806.478	20629
806.62	20545
806.762	20644
806.904	20925
807.046	21119
807.188	21131
807.33	21093
807.472	21032
807.614	20914
807.756	20979
807.898	20800
808.04	20731
808.182	20754
808.324	20796
808.465	20754
808.607	20986
808.749	21123
808.891	21077
809.033	21138
809.174	20975
809.316	20975
809.458	21020
809.6	20990
809.741	21123
809.883	21146
810.025	21211
810.166	21173
810.308	21180
810.45	21188
810.591	20921
810.733	20842
810.875	20864
811.016	20655
811.158	20686
811.299	20887
811.441	20902
811.582	20986
811.724	20762
811.865	20735
812.007	20788
812.148	20743
812.29	20823
812.431	20933
812.573	21077
812.714	21230
812.855	21291
812.997	21291
813.138	21587
813.279	21435
813.421	21264
813.562	21154
813.703	20982
813.845	21009
813.986	20640
814.127	20518
814.268	20488
814.41	20400
814.551	20339
814.692	20431
814.833	20339
814.974	20324
815.115	20328
815.256	20252
815.397	20027
815.539	20122
815.68	20096
815.821	19947
815.962	20027
816.103	20024
816.244	19963
816.385	19868
816.526	19830
816.666	19537
816.807	19518
816.948	19529
817.089	19628
817.23	19358
817.371	19457
817.512	19487
817.653	19567
817.793	19392
817.934	19419
818.075	19457
818.216	19426
818.356	19441
818.497	19240
818.638	19107
818.778	19076
818.919	19148
819.06	19232
819.2	19152
819.341	19476
819.481	19377
819.622	19518
819.762	19734
819.903	19586
820.043	19472
820.184	19499
820.324	19518
820.465	19449
820.605	19438
820.746	19457
820.886	19358
821.026	19373
821.167	19407
821.307	19426
821.447	19324
821.588	19274
821.728	19217
821.868	18954
822.008	18840
822.149	18875
822.289	18787
822.429	18650
822.569	18570
822.709	18490
822.849	18395
822.99	18308
823.13	18235
823.27	18350
823.41	18182
823.55	18144
823.69	18239
823.83	18022
823.97	18102
824.11	17874
824.25	17939
824.389	17893
824.529	18064
824.669	17958
824.809	18015
824.949	17927
825.089	18045
825.228	17901
825.368	17687
825.508	17745
825.648	17691
825.787	17707
825.927	17767
826.067	17684
826.206	17604
826.346	17665
826.485	17649
826.625	17653
826.765	17809
826.904	17710
827.044	17539
827.183	17429
827.323	17398
827.462	17467
827.601	17410
827.741	17368
827.88	17490
828.02	17231
828.159	17417
828.298	17406
828.437	17554
828.577	17307
828.716	17482
828.855	17356
828.994	17220
829.134	17181
829.273	17155
829.412	17071
829.551	17079
829.69	17010
829.829	17102
829.968	17170
830.107	17159
830.246	17155
830.385	17056
830.524	17067
830.663	16942
830.802	16889
830.941	16729
831.08	16713
831.219	16831
831.357	16847
831.496	16942
831.635	16675
831.774	16668
831.913	16584
832.051	16485
832.19	16538
832.329	16569
832.467	16413
832.606	16428
832.744	16322
832.883	16379
833.022	16382
833.16	16314
833.299	16371
833.437	16329
833.576	16394
833.714	16546
833.852	16516
833.991	16508
834.129	16500
834.267	16489
834.406	16459
834.544	16421
834.682	16508
834.821	16443
834.959	16698
835.097	16322
835.235	16573
835.373	16493
835.511	16428
835.65	16402
835.788	16314
835.926	16306
836.064	16249
836.202	16261
836.34	16504
836.478	16485
836.615	16405
836.753	16284
836.891	16360
837.029	16440
837.167	16436
837.305	16276
837.443	16344
837.58	16177
837.718	16291
837.856	16299
837.993	16215
838.131	16200
838.269	16124
838.406	16226
838.544	16188
838.681	15945
838.819	15960
838.956	15850
839.094	15854
839.231	15797
839.369	16021
839.506	16143
839.643	16029
839.781	15964
839.918	15774
840.055	15827
840.193	15842
840.33	15808
840.467	15736
840.604	15823
840.742	15983
840.879	15698
841.016	15629
841.153	15785
841.29	15819
841.427	15865
841.564	15747
841.701	15850
841.838	15736
841.975	15743
842.112	15671
842.249	15652
842.385	15557
842.522	15720
842.659	15580
842.796	15595
842.933	15447
843.069	15557
843.206	15580
843.343	15545
843.479	15515
843.616	15496
843.752	15382
843.889	15351
844.025	15386
844.162	15317
844.298	15466
844.435	15332
844.571	15351
844.708	15466
844.844	15606
844.98	15515
845.117	15511
845.253	15370
845.389	15268
845.525	15283
845.661	15230
845.798	15123
845.934	15256
846.07	15150
846.206	15233
846.342	15401
846.478	15150
846.614	15062
846.75	14849
846.886	14941
847.022	15097
847.158	15036
847.294	14933
847.429	15036
847.565	14887
847.701	15207
847.837	14651
847.972	14625
848.108	14785
848.244	14750
848.379	14575
848.515	14556
848.65	14514
848.786	14514
848.921	14484
849.057	14583
849.192	14674
849.328	14602
849.463	14575
849.598	14473
849.734	14488
849.869	14393
850.004	14252
850.14	14366
850.275	14389
850.41	14103
850.545	14294
850.68	14195
850.815	14320
850.95	14195
851.085	14431
851.22	14396
851.355	14339
851.49	14290
851.625	14271
851.76	14336
851.895	14149
852.03	14206
852.165	14290
852.299	14305
852.434	14366
852.569	14301
852.703	14332
852.838	14366
852.973	14427
853.107	14370
853.242	14221
853.376	14229
853.511	14088
853.645	14092
853.78	14282
853.914	14221
854.048	14176
854.183	14199
854.317	14240
854.451	14374
854.585	14176
854.72	14199
854.854	14237
854.988	14054
855.122	14054
855.256	14134
855.39	14138
855.524	14358
855.658	14214
855.792	14168
855.926	14218
856.06	14286
856.194	14210
856.327	14195
856.461	14130
856.595	14145
856.729	14180
856.862	14263
856.996	14183
857.13	14233
857.263	14347
857.397	14294
857.53	14183
857.664	14305
857.797	14214
857.931	14358
858.064	14218
858.197	14263
858.331	14275
858.464	14161
858.597	14035
858.731	14172
858.864	14214
858.997	14145
859.13	14183
859.263	14244
859.396	14240
859.529	14111
859.662	14024
859.795	14115
859.928	14195
860.061	14362
860.194	14412
860.327	14168
860.46	14138
860.592	14366
860.725	14263
860.858	14218
860.99	14218
861.123	14168
861.256	14096
861.388	14164
861.521	14876
861.653	14100
861.786	14008
861.918	14027
862.05	14115
862.183	14084
862.315	14187
862.447	14225
862.58	14035
862.712	13955
862.844	13871
862.976	14020
863.108	14001
863.24	14305
863.372	13864
863.504	13928
863.636	13887
863.768	14020
863.9	13925
864.032	13849
864.164	13947
864.296	14020
864.428	14081
864.559	14164
864.691	13925
864.823	14081
864.954	14043
865.086	13913
865.217	13879
865.349	13856
865.48	13936
865.612	13974
865.743	14092
865.875	14092
866.006	13879
866.137	14005
866.269	13898
866.4	13967
866.531	13902
866.662	13750
866.793	13947
866.924	13902
867.055	13894
867.186	13928
867.317	13917
867.448	13879
867.579	13906
867.71	13849
867.841	13784
867.972	13849
868.103	13970
868.233	13944
868.364	13993
868.495	13955
868.625	14142
868.756	14202
868.886	14149
869.017	14092
869.147	14317
869.278	14263
869.408	14305
869.539	14161
869.669	14355
869.799	14244
869.929	14332
870.06	14282
870.19	14552
870.32	14423
870.45	14590
870.58	14610
870.71	14693
870.84	14632
870.97	14571
871.1	14663
871.23	14739
871.36	14712
871.489	14659
871.619	14762
871.749	14796
871.879	14819
872.008	14872
872.138	14777
872.267	14769
872.397	14621
872.526	14632
872.656	14629
872.785	14651
872.915	14838
873.044	14906
873.173	14845
873.303	14906
873.432	14899
873.561	14902
873.69	14956
873.819	14876
873.948	14914
874.077	14883
874.206	14750
874.335	14891
874.464	15100
874.593	15176
874.722	14986
874.851	15180
874.979	15142
875.108	15249
875.237	15161
875.365	15123
875.494	15264
875.623	15222
875.751	15024
875.88	15184
876.008	15302
876.136	15325
876.265	15622
876.393	15797
876.521	15675
876.65	15728
876.778	15515
876.906	15644
877.034	15549
877.162	15580
877.29	15412
877.418	15648
877.546	15698
877.674	15591
877.802	15584
877.93	15599
878.058	15553
878.185	15424
878.313	15561
878.441	15561
878.568	15389
878.696	15610
878.824	15492
878.951	15701
879.079	15762
879.206	15880
879.333	15682
879.461	15595
879.588	15660
879.715	15743
879.842	15854
879.97	15599
880.097	15473
880.224	15424
880.351	15431
880.478	15458
880.605	15386
880.732	15428
880.859	15713
880.986	15378
881.112	15511
881.239	15393
881.366	15180
881.493	15108
881.619	14998
881.746	15055
881.872	15150
881.999	15085
882.125	15066
882.252	15085
882.378	15135
882.505	15218
882.631	14982
882.757	14880
882.883	15009
883.01	14925
883.136	14845
883.262	14781
883.388	14743
883.514	14876
883.64	14963
883.766	14891
883.892	14689
884.018	14773
884.143	14906
884.269	14986
884.395	14640
884.52	14602
884.646	14587
884.772	14484
884.897	14415
885.023	14617
885.148	14712
885.274	14724
885.399	14648
885.524	14667
885.65	14632
885.775	14617
885.9	14579
886.025	14731
886.15	14602
886.275	14617
886.4	14454
886.525	14617
886.65	14518
886.775	14526
886.9	14708
887.025	14720
887.149	14575
887.274	14438
887.399	14457
887.523	14415
887.648	14320
887.773	14377
887.897	14457
888.021	14476
888.146	14415
888.27	14522
888.395	14488
888.519	14404
888.643	14442
888.767	14514
888.891	14298
889.015	14123
889.139	14301
889.263	14263
889.387	14419
889.511	14480
889.635	14431
889.759	14233
889.883	14225
890.006	14305
890.13	14476
890.254	14214
890.377	14176
890.501	14157
890.624	14020
890.748	14176
890.871	14016
890.995	13902
891.118	13913
891.241	14039
891.364	14016
891.488	14054
891.611	13986
891.734	13997
891.857	14183
891.98	14069
892.103	14081
892.226	14024
892.349	14065
892.471	13856
892.594	13921
892.717	14054
892.839	13997
892.962	14020
893.085	14039
893.207	13997
893.33	13894
893.452	13997
893.575	14058
893.697	13921
893.819	14233
893.941	14233
894.064	14161
894.186	13932
894.308	13894
894.43	14084
894.552	14256
894.674	14221
894.796	14096
894.918	14088
895.04	14020
895.161	14134
895.283	14134
895.405	13963
895.526	14039
895.648	14111
895.769	14183
895.891	14191
896.012	14267
896.134	14130
896.255	14183
896.376	14180
896.498	14157
896.619	14267
896.74	14161
896.861	14229
896.982	14530
897.103	14663
897.224	14492
897.345	14370
897.466	14400
897.587	14374
897.708	14568
897.828	14606
897.949	14374
898.07	14259
898.19	14332
898.311	14636
898.431	14438
898.552	14511
898.672	14545
898.792	14629
898.913	14621
899.033	14476
899.153	14358
899.273	14317
899.393	14347
899.513	14404
899.633	14355
899.753	14408
899.873	14339
899.993	14492
900.113	14377
900.232	14400
900.352	14320
900.472	14309
900.591	14225
900.711	14301
900.83	14237
900.95	14351
901.069	14328
901.189	14278
901.308	14005
901.427	13818
901.546	13928
901.665	13947
901.784	13967
901.904	13742
902.023	13765
902.141	13544
902.26	13445
902.379	13582
902.498	13537
902.617	13506
902.735	13575
902.854	13518
902.973	13388
903.091	13255
903.21	13133
903.328	13228
903.446	13141
903.565	13095
903.683	13122
903.801	12977
903.919	13027
904.038	13031
904.156	12913
904.274	13103
904.392	12878
904.51	12894
904.627	12844
904.745	13038
904.863	12943
904.981	12700
905.098	12627
905.216	12604
905.334	12616
905.451	12555
905.569	12475
905.686	12616
905.803	12635
905.921	12441
906.038	12494
906.155	12441
906.272	12266
906.389	12300
906.506	12213
906.623	12201
906.74	12140
906.857	12019
906.974	12076
907.091	12289
907.208	12372
907.324	12243
907.441	12041
907.557	11866
907.674	11950
907.79	11889
907.907	11882
908.023	11843
908.139	11893
908.256	11916
908.372	11832
908.488	11824
908.604	11794
908.72	11684
908.836	11722
908.952	11611
909.068	11653
909.184	11726
909.3	11691
909.415	11714
909.531	11661
909.647	11490
909.762	11490
909.878	11448
909.993	11360
910.108	11379
910.224	11417
910.339	11444
910.454	11307
910.57	11318
910.685	11303
910.8	11497
910.915	11478
911.03	11353
911.145	11201
911.259	11075
911.374	11094
911.489	11098
911.604	11105
911.718	10946
911.833	10862
911.947	10831
912.062	10721
912.176	10915
912.291	10911
912.405	10984
912.519	11140
912.633	11113
912.748	10908
912.862	10896
912.976	10790
913.09	10649
913.204	10759
913.318	10793
913.431	10873
913.545	10942
913.659	10801
913.772	10820
913.886	10687
914	10683
914.113	10786
914.226	10847
914.34	10790
914.453	10672
914.566	10812
914.68	10611
914.793	10725
914.906	10466
915.019	10356
915.132	10379
915.245	10417
915.358	10417
915.47	10443
915.583	10424
915.696	10478
915.809	10519
915.921	10588
916.034	10481
916.146	10329
916.259	10379
916.371	10504
916.483	10409
916.595	10363
916.708	10329
916.82	10337
916.932	10386
917.044	10352
917.156	10291
917.268	10227
917.38	10291
917.491	10227
917.603	10249
917.715	10333
917.826	10413
917.938	10253
918.049	10120
918.161	10249
918.272	10466
918.384	10409
918.495	10192
918.606	10150
918.717	10109
918.828	10166
918.939	10143
919.05	10055
919.161	10109
919.272	9918
919.383	10029
919.494	10211
919.604	10306
919.715	10166
919.826	10055
919.936	10109
920.047	10246
920.157	10147
920.267	10333
920.378	10230
920.488	10150
920.598	10295
920.708	10436
920.818	10394
920.928	10382
921.038	10512
921.148	10500
921.258	10105
921.368	10116
921.477	10029
921.587	9960
921.697	9953
921.806	10040
921.916	9937
922.025	9728
922.134	9705
922.244	9660
922.353	9713
922.462	9580
922.571	9538
922.68	9496
922.789	9389
922.898	9481
923.007	9359
923.116	9462
923.224	9431
923.333	9367
923.442	9332
923.55	9272
923.659	9291
923.767	9424
923.876	9218
923.984	9332
924.092	9222
924.201	9275
924.309	9287
924.417	9268
924.525	9272
924.633	9203
924.741	10185
924.849	9055
924.956	9195
925.064	9028
925.172	8967
925.279	9047
925.387	9047
925.494	9043
925.602	9135
925.709	9165
925.816	8975
925.924	9055
926.031	9097
926.138	9104
926.245	9119
926.352	9032
926.459	9123
926.566	9218
926.673	9047
926.779	8956
926.886	8933
926.993	8807
927.099	8796
927.206	8724
927.312	8731
927.419	8880
927.525	8804
927.631	8785
927.737	8735
927.843	8670
927.95	8598
928.056	8720
928.162	8617
928.267	8663
928.373	9203
928.479	8758
928.585	8541
928.69	8678
928.796	8708
928.901	8621
929.007	8480
929.112	8648
929.218	8590
929.323	8587
929.428	8454
929.533	8682
929.638	8385
929.743	8522
929.848	8522
929.953	8480
930.058	8389
930.163	8263
930.267	8259
930.372	8461
930.477	8248
930.581	8465
930.685	8282
930.79	8199
930.894	8286
930.998	8210
931.103	8347
931.207	8050
931.311	7978
931.415	7860
931.519	7693
931.623	7696
