Data from test_V78500241_3532.txt Node
Date: Fri Mar 25 14:58:18 CST 2022
User: usil
Spectrometer: V785-0024
Trigger mode: 0
Integration Time (sec): 4.000000E-1
Scans to average: 1
Nonlinearity correction enabled: false
Boxcar width: 0
Storing dark spectrum: false
XAxis mode: Wavelengths
Number of Pixels in Spectrum: 1024
>>>>>Begin Spectral Data<<<<<
801.071	21945
801.214	21690
801.356	21538
801.499	21507
801.641	21378
801.783	21359
801.926	21386
802.068	21241
802.211	21203
802.353	21062
802.496	20872
802.638	20849
802.78	20716
802.923	20708
803.065	20465
803.208	20625
803.35	20537
803.492	20796
803.635	20670
803.777	20731
803.919	20705
804.061	21017
804.204	20629
804.346	20575
804.488	20412
804.63	20511
804.773	20370
804.915	20484
805.057	20568
805.199	20442
805.341	20541
805.483	20594
805.626	20651
805.768	20404
805.91	20530
806.052	20537
806.194	20541
806.336	20636
806.478	20495
806.62	20488
806.762	20533
806.904	20716
807.046	20853
807.188	20788
807.33	20819
807.472	20899
807.614	20648
807.756	20632
807.898	20655
808.04	20590
808.182	20541
808.324	20606
808.465	20518
808.607	20758
808.749	20914
808.891	20941
809.033	20990
809.174	20861
809.316	20902
809.458	20952
809.6	20834
809.741	20933
809.883	20918
810.025	21112
810.166	21009
810.308	21013
810.45	21032
810.591	20960
810.733	20750
810.875	20735
811.016	20533
811.158	20583
811.299	20815
811.441	20739
811.582	20716
811.724	20651
811.865	20507
812.007	20594
812.148	20571
812.29	20625
812.431	20914
812.573	20918
812.714	21142
812.855	21119
812.997	21218
813.138	21401
813.279	21336
813.421	21252
813.562	21062
813.703	20838
813.845	20762
813.986	20461
814.127	20221
814.268	20320
814.41	20202
814.551	20199
814.692	20259
814.833	20035
814.974	20210
815.115	20202
815.256	19997
815.397	19928
815.539	20050
815.68	20096
815.821	19921
815.962	20043
816.103	19875
816.244	19670
816.385	19662
816.526	19571
816.666	19293
816.807	19320
816.948	19426
817.089	19392
817.23	19297
817.371	19304
817.512	19331
817.653	19240
817.793	19247
817.934	19407
818.075	19320
818.216	19304
818.356	19194
818.497	19107
818.638	18939
818.778	18962
818.919	19015
819.06	18958
819.2	19145
819.341	19072
819.481	19217
819.622	19209
819.762	19544
819.903	19388
820.043	19266
820.184	19407
820.324	19225
820.465	19270
820.605	19263
820.746	19270
820.886	19099
821.026	19225
821.167	19236
821.307	19282
821.447	19225
821.588	19122
821.728	19000
821.868	18814
822.008	18681
822.149	18642
822.289	18696
822.429	18479
822.569	18433
822.709	18456
822.849	18155
822.99	18209
823.13	18060
823.27	18049
823.41	18064
823.55	17939
823.69	17969
823.83	17965
823.97	17912
824.11	17741
824.25	17790
824.389	17813
824.529	17878
824.669	17817
824.809	17824
824.949	17920
825.089	17893
825.228	17790
825.368	17551
825.508	17516
825.648	17604
825.787	17532
825.927	17509
826.067	17528
826.206	17611
826.346	17520
826.485	17592
826.625	17478
826.765	17760
826.904	17619
827.044	17379
827.183	17235
827.323	17254
827.462	17277
827.601	17223
827.741	17265
827.88	17261
828.02	17105
828.159	17216
828.298	17318
828.437	17334
828.577	17204
828.716	17391
828.855	17216
828.994	17041
829.134	17064
829.273	17083
829.412	16946
829.551	16984
829.69	16930
829.829	17029
829.968	17140
830.107	17048
830.246	17102
830.385	16927
830.524	16862
830.663	16843
830.802	16782
830.941	16584
831.08	16717
831.219	16755
831.357	16759
831.496	16892
831.635	16748
831.774	16592
831.913	16615
832.051	16523
832.19	16497
832.329	16523
832.467	16291
832.606	16322
832.744	16322
832.883	16295
833.022	16360
833.16	16363
833.299	16352
833.437	16303
833.576	16360
833.714	16459
833.852	16440
833.991	16390
834.129	16584
834.267	16459
834.406	16394
834.544	16402
834.682	16516
834.821	16443
834.959	16577
835.097	16348
835.235	16447
835.373	16405
835.511	16580
835.65	16356
835.788	16337
835.926	16093
836.064	16169
836.202	16226
836.34	16363
836.478	16409
836.615	16257
836.753	16344
836.891	16382
837.029	16405
837.167	16337
837.305	16386
837.443	16166
837.58	16223
837.718	16306
837.856	16249
837.993	16112
838.131	16333
838.269	16105
838.406	16173
838.544	16074
838.681	15903
838.819	15953
838.956	15724
839.094	15789
839.231	15766
839.369	15964
839.506	16139
839.643	15953
839.781	15785
839.918	15728
840.055	15660
840.193	15781
840.33	15694
840.467	15804
840.604	15762
840.742	16109
840.879	15606
841.016	15667
841.153	15644
841.29	15857
841.427	15629
841.564	15831
841.701	15793
841.838	15743
841.975	15709
842.112	15656
842.249	15709
842.385	15603
842.522	15682
842.659	15629
842.796	15492
842.933	15458
843.069	15526
843.206	15515
843.343	15591
843.479	15561
843.616	15572
843.752	15355
843.889	15321
844.025	15386
844.162	15317
844.298	15317
844.435	15378
844.571	15195
844.708	15329
844.844	15466
844.98	15504
845.117	15378
845.253	15359
845.389	15256
845.525	15317
845.661	15180
845.798	15085
845.934	15116
846.07	15058
846.206	15097
846.342	15218
846.478	15195
846.614	14963
846.75	14872
846.886	14800
847.022	15001
847.158	14910
847.294	14971
847.429	15017
847.565	14902
847.701	15169
847.837	14587
847.972	14590
848.108	14758
848.244	14724
848.379	14640
848.515	14522
848.65	14427
848.786	14503
848.921	14598
849.057	14587
849.192	14533
849.328	14526
849.463	14518
849.598	14423
849.734	14484
849.869	14461
850.004	14324
850.14	14263
850.275	14267
850.41	14244
850.545	14225
850.68	14267
850.815	14233
850.95	14267
851.085	14560
851.22	14415
851.355	14278
851.49	14248
851.625	14244
851.76	14145
851.895	14145
852.03	14111
852.165	14191
852.299	14309
852.434	14282
852.569	14298
852.703	14320
852.838	14355
852.973	14377
853.107	14415
853.242	14199
853.376	14134
853.511	14077
853.645	14153
853.78	14267
853.914	14164
854.048	14157
854.183	14069
854.317	14119
854.451	14240
854.585	14126
854.72	14065
854.854	14237
854.988	14046
855.122	14145
855.256	14016
855.39	14142
855.524	14191
855.658	14195
855.792	14180
855.926	14176
856.06	14248
856.194	14206
856.327	14168
856.461	14081
856.595	14123
856.729	14111
856.862	14237
856.996	14145
857.13	14298
857.263	14286
857.397	14317
857.53	14180
857.664	14123
857.797	14206
857.931	14275
858.064	14202
858.197	14199
858.331	14164
858.464	14115
858.597	14100
858.731	14069
858.864	14119
858.997	14145
859.13	14240
859.263	14130
859.396	14176
859.529	14043
859.662	13982
859.795	14111
859.928	14107
860.061	14336
860.194	14332
860.327	14187
860.46	14161
860.592	14290
860.725	14244
860.858	14351
860.99	14084
861.123	14172
861.256	14115
861.388	14123
861.521	14941
861.653	14046
861.786	13997
861.918	14126
862.05	14054
862.183	14077
862.315	14103
862.447	14157
862.58	14119
862.712	14027
862.844	13837
862.976	13986
863.108	13940
863.24	14275
863.372	13772
863.504	13890
863.636	13913
863.768	13951
863.9	13963
864.032	13841
864.164	13860
864.296	13974
864.428	14096
864.559	14046
864.691	13963
864.823	13951
864.954	14001
865.086	13932
865.217	13951
865.349	13814
865.48	13921
865.612	13871
865.743	13906
865.875	14016
866.006	13871
866.137	13856
866.269	13894
866.4	13932
866.531	13849
866.662	13765
866.793	13791
866.924	13852
867.055	13849
867.186	13955
867.317	13852
867.448	13772
867.579	13837
867.71	13928
867.841	13822
867.972	13967
868.103	13955
868.233	13936
868.364	13906
868.495	14039
868.625	14168
868.756	14267
868.886	14126
869.017	14111
869.147	14248
869.278	14210
869.408	14073
869.539	14210
869.669	14233
869.799	14130
869.929	14290
870.06	14355
870.19	14499
870.32	14488
870.45	14488
870.58	14606
870.71	14648
870.84	14648
870.97	14568
871.1	14480
871.23	14724
871.36	14697
871.489	14697
871.619	14743
871.749	14724
871.879	14788
872.008	14868
872.138	14800
872.267	14731
872.397	14606
872.526	14590
872.656	14594
872.785	14648
872.915	14750
873.044	14868
873.173	14746
873.303	14876
873.432	14838
873.561	14895
873.69	14857
873.819	14815
873.948	14868
874.077	14781
874.206	14842
874.335	14819
874.464	14975
874.593	15127
874.722	15051
874.851	15123
874.979	15184
875.108	15142
875.237	15131
875.365	15218
875.494	15028
875.623	15222
875.751	15135
875.88	15180
876.008	15275
876.136	15336
876.265	15428
876.393	15755
876.521	15652
876.65	15625
876.778	15660
876.906	15492
877.034	15519
877.162	15454
877.29	15485
877.418	15519
877.546	15545
877.674	15523
877.802	15447
877.93	15610
878.058	15466
878.185	15367
878.313	15454
878.441	15515
878.568	15599
878.696	15382
878.824	15538
878.951	15534
879.079	15679
879.206	15774
879.333	15713
879.461	15625
879.588	15557
879.715	15701
879.842	15804
879.97	15568
880.097	15420
880.224	15336
880.351	15485
880.478	15530
880.605	15443
880.732	15382
880.859	15633
880.986	15488
881.112	15389
881.239	15317
881.366	15169
881.493	15100
881.619	15093
881.746	15157
881.872	15085
881.999	15077
882.125	15028
882.252	15226
882.378	15089
882.505	15157
882.631	14979
882.757	14842
882.883	14937
883.01	14838
883.136	14838
883.262	14724
883.388	14731
883.514	14861
883.64	14819
883.766	14830
883.892	14762
884.018	14739
884.143	14857
884.269	14925
884.395	14689
884.52	14503
884.646	14621
884.772	14518
884.897	14522
885.023	14610
885.148	14613
885.274	14667
885.399	14746
885.524	14461
885.65	14632
885.775	14629
885.9	14514
886.025	14701
886.15	14667
886.275	14469
886.4	14480
886.525	14564
886.65	14465
886.775	14385
886.9	14655
887.025	14887
887.149	14530
887.274	14415
887.399	14393
887.523	14351
887.648	14282
887.773	14374
887.897	14457
888.021	14457
888.146	14412
888.27	14492
888.395	14556
888.519	14484
888.643	14488
888.767	14381
888.891	14309
889.015	14351
889.139	14408
889.263	14187
889.387	14343
889.511	14454
889.635	14427
889.759	14298
889.883	14271
890.006	14157
890.13	14511
890.254	14206
890.377	14221
890.501	14157
890.624	14180
890.748	14100
890.871	14096
890.995	13883
891.118	13928
891.241	13932
891.364	13982
891.488	14088
891.611	14005
891.734	13986
891.857	14024
891.98	13982
892.103	13955
892.226	13986
892.349	13982
892.471	13940
892.594	14031
892.717	13928
892.839	14005
892.962	13993
893.085	14035
893.207	14012
893.33	13887
893.452	13864
893.575	14050
893.697	13970
893.819	14103
893.941	14191
894.064	14142
894.186	13974
894.308	13887
894.43	14168
894.552	14142
894.674	14130
894.796	14008
894.918	14005
895.04	14039
895.161	14092
895.283	14001
895.405	14065
895.526	14008
895.648	14142
895.769	14077
895.891	14138
896.012	14176
896.134	14233
896.255	14199
896.376	14210
896.498	14134
896.619	14202
896.74	14191
896.861	14290
896.982	14549
897.103	14667
897.224	14465
897.345	14362
897.466	14324
897.587	14393
897.708	14644
897.828	14476
897.949	14492
898.07	14328
898.19	14332
898.311	14499
898.431	14431
898.552	14461
898.672	14480
898.792	14712
898.913	14594
899.033	14457
899.153	14389
899.273	14225
899.393	14404
899.513	14415
899.633	14282
899.753	14431
899.873	14317
899.993	14412
900.113	14374
900.232	14446
900.352	14393
900.472	14278
900.591	14263
900.711	14263
900.83	14195
900.95	14309
901.069	14324
901.189	14126
901.308	13890
901.427	13894
901.546	13803
901.665	13947
901.784	13928
901.904	13788
902.023	13670
902.141	13559
902.26	13449
902.379	13472
902.498	13487
902.617	13369
902.735	13510
902.854	13468
902.973	13419
903.091	13187
903.21	13221
903.328	13168
903.446	13080
903.565	13004
903.683	13023
903.801	12924
903.919	13069
904.038	13050
904.156	12837
904.274	12897
904.392	12859
904.51	12833
904.627	12852
904.745	12833
904.863	12966
904.981	12604
905.098	12608
905.216	12597
905.334	12578
905.451	12623
905.569	12437
905.686	12563
905.803	12635
905.921	12357
906.038	12506
906.155	12467
906.272	12235
906.389	12334
906.506	12110
906.623	12197
906.74	12190
906.857	11996
906.974	12019
907.091	12216
907.208	12319
907.324	12228
907.441	12125
907.557	12026
907.674	11980
907.79	11779
907.907	11901
908.023	11904
908.139	11950
908.256	11859
908.372	11859
908.488	11767
908.604	11718
908.72	11661
908.836	11794
908.952	11714
909.068	11661
909.184	11802
909.3	11653
909.415	11737
909.531	11695
909.647	11471
909.762	11452
909.878	11524
909.993	11444
910.108	11482
910.224	11425
910.339	11467
910.454	11379
910.57	11299
910.685	11307
910.8	11474
910.915	11516
911.03	11368
911.145	11174
911.259	11105
911.374	11204
911.489	11086
911.604	10980
911.718	10889
911.833	10873
911.947	10839
912.062	10793
912.176	10995
912.291	10984
912.405	10927
912.519	11174
912.633	11014
912.748	11006
912.862	10915
912.976	10801
913.09	10672
913.204	10729
913.318	10744
913.431	10866
913.545	10873
913.659	10908
913.772	10748
913.886	10687
914	10599
914.113	10767
914.226	10774
914.34	10824
914.453	10622
914.566	10759
914.68	10615
914.793	10603
914.906	10447
915.019	10455
915.132	10379
915.245	10424
915.358	10470
915.47	10386
915.583	10478
915.696	10405
915.809	10542
915.921	10634
916.034	10417
916.146	10394
916.259	10291
916.371	10554
916.483	10542
916.595	10356
916.708	10363
916.82	10325
916.932	10348
917.044	10325
917.156	10253
917.268	10295
917.38	10318
917.491	10242
917.603	10303
917.715	10341
917.826	10303
917.938	10253
918.049	10154
918.161	10249
918.272	10478
918.384	10386
918.495	10261
918.606	10207
918.717	10051
918.828	10131
918.939	10204
919.05	10120
919.161	10105
919.272	9979
919.383	9983
919.494	10196
919.604	10344
919.715	10169
919.826	10055
919.936	10135
920.047	10207
920.157	10147
920.267	10386
920.378	10272
920.488	10169
920.598	10371
920.708	10478
920.818	10421
920.928	10360
921.038	10573
921.148	10451
921.258	10196
921.368	10147
921.477	9994
921.587	10059
921.697	9888
921.806	10131
921.916	9937
922.025	9713
922.134	9770
922.244	9648
922.353	9759
922.462	9549
922.571	9477
922.68	9367
922.789	9306
922.898	9428
923.007	9340
923.116	9450
923.224	9500
923.333	9412
923.442	9279
923.55	9291
923.659	9359
923.767	9348
923.876	9245
923.984	9382
924.092	9222
924.201	9336
924.309	9249
924.417	9294
924.525	9256
924.633	9230
924.741	9922
924.849	9017
924.956	9214
925.064	9017
925.172	9055
925.279	8990
925.387	9066
925.494	9043
925.602	9138
925.709	9180
925.816	9108
925.924	9176
926.031	9150
926.138	9116
926.245	9165
926.352	8986
926.459	9119
926.566	9173
926.673	9036
926.779	8948
926.886	8925
926.993	8842
927.099	8758
927.206	8758
927.312	8735
927.419	8792
927.525	8769
927.631	8895
927.737	8731
927.843	8712
927.95	8590
928.056	8693
928.162	8632
928.267	8731
928.373	9447
928.479	8766
928.585	8610
928.69	8712
928.796	8674
928.901	8621
929.007	8495
929.112	8648
929.218	8583
929.323	8552
929.428	8423
929.533	8659
929.638	8438
929.743	8579
929.848	8541
929.953	8461
930.058	8396
930.163	8210
930.267	8305
930.372	8415
930.477	8271
930.581	8499
930.685	8358
930.79	8248
930.894	8191
930.998	8225
931.103	8298
931.207	8043
931.311	8024
931.415	7890
931.519	7639
931.623	7708
