Data from test_V78500241_1757.txt Node
Date: Fri Mar 25 14:45:56 CST 2022
User: usil
Spectrometer: V785-0024
Trigger mode: 0
Integration Time (sec): 4.000000E-1
Scans to average: 1
Nonlinearity correction enabled: false
Boxcar width: 0
Storing dark spectrum: false
XAxis mode: Wavelengths
Number of Pixels in Spectrum: 1024
>>>>>Begin Spectral Data<<<<<
801.071	22226
801.214	22112
801.356	21838
801.499	21762
801.641	21583
801.783	21610
801.926	21599
802.068	21378
802.211	21195
802.353	21317
802.496	21104
802.638	21119
802.78	21032
802.923	20918
803.065	20792
803.208	20823
803.35	20815
803.492	21100
803.635	21032
803.777	21024
803.919	20868
804.061	21192
804.204	21005
804.346	20769
804.488	20716
804.63	20857
804.773	20682
804.915	20754
805.057	21074
805.199	20899
805.341	20792
805.483	21005
805.626	20819
805.768	20906
805.91	20804
806.052	20826
806.194	20697
806.336	20941
806.478	20800
806.62	20727
806.762	20944
806.904	21028
807.046	21279
807.188	21195
807.33	21127
807.472	21218
807.614	21020
807.756	21039
807.898	20975
808.04	20845
808.182	20880
808.324	20910
808.465	20960
808.607	21157
808.749	21233
808.891	21233
809.033	21382
809.174	21275
809.316	21138
809.458	21249
809.6	21081
809.741	21275
809.883	21287
810.025	21420
810.166	21325
810.308	21458
810.45	21332
810.591	21180
810.733	21173
810.875	20914
811.016	20998
811.158	20785
811.299	21085
811.441	21150
811.582	21142
811.724	20952
811.865	20956
812.007	20994
812.148	20956
812.29	21047
812.431	21116
812.573	21317
812.714	21538
812.855	21488
812.997	21587
813.138	21823
813.279	21485
813.421	21538
813.562	21534
813.703	21275
813.845	21116
813.986	20739
814.127	20670
814.268	20526
814.41	20518
814.551	20689
814.692	20651
814.833	20476
814.974	20438
815.115	20636
815.256	20362
815.397	20309
815.539	20298
815.68	20271
815.821	20313
815.962	20317
816.103	20187
816.244	20115
816.385	20020
816.526	19978
816.666	19921
816.807	19765
816.948	19689
817.089	19788
817.23	19746
817.371	19738
817.512	19651
817.653	19727
817.793	19624
817.934	19670
818.075	19666
818.216	19712
818.356	19624
818.497	19430
818.638	19350
818.778	19381
818.919	19285
819.06	19495
819.2	19381
819.341	19495
819.481	19662
819.622	19769
819.762	19826
819.903	19719
820.043	19723
820.184	19647
820.324	19731
820.465	19799
820.605	19681
820.746	19674
820.886	19525
821.026	19670
821.167	19594
821.307	19609
821.447	19499
821.588	19480
821.728	19217
821.868	19270
822.008	19156
822.149	19084
822.289	18954
822.429	18757
822.569	18707
822.709	18726
822.849	18620
822.99	18528
823.13	18506
823.27	18448
823.41	18422
823.55	18266
823.69	18448
823.83	18296
823.97	18319
824.11	18060
824.25	18034
824.389	18155
824.529	18201
824.669	18171
824.809	18254
824.949	18220
825.089	18133
825.228	18148
825.368	18091
825.508	17859
825.648	17973
825.787	17836
825.927	17908
826.067	17920
826.206	17828
826.346	17958
826.485	17988
826.625	17863
826.765	17977
826.904	17946
827.044	17649
827.183	17684
827.323	17600
827.462	17570
827.601	17619
827.741	17604
827.88	17684
828.02	17417
828.159	17516
828.298	17726
828.437	17676
828.577	17554
828.716	17798
828.855	17611
828.994	17364
829.134	17436
829.273	17356
829.412	17349
829.551	17258
829.69	17212
829.829	17364
829.968	17383
830.107	17421
830.246	17414
830.385	17337
830.524	17242
830.663	17220
830.802	17094
830.941	17064
831.08	16923
831.219	17075
831.357	16961
831.496	17105
831.635	16976
831.774	16976
831.913	16987
832.051	16824
832.19	16733
832.329	16828
832.467	16641
832.606	16637
832.744	16660
832.883	16721
833.022	16721
833.16	16668
833.299	16736
833.437	16660
833.576	16664
833.714	16641
833.852	16694
833.991	16843
834.129	16717
834.267	16744
834.406	16706
834.544	16634
834.682	16706
834.821	16740
834.959	16885
835.097	16660
835.235	16809
835.373	16763
835.511	16782
835.65	16603
835.788	16656
835.926	16466
836.064	16436
836.202	16413
836.34	16542
836.478	16679
836.615	16561
836.753	16603
836.891	16660
837.029	16599
837.167	16645
837.305	16622
837.443	16478
837.58	16447
837.718	16611
837.856	16470
837.993	16390
838.131	16531
838.269	16455
838.406	16440
838.544	16276
838.681	16280
838.819	16101
838.956	16006
839.094	16090
839.231	15960
839.369	16196
839.506	16386
839.643	16234
839.781	16067
839.918	16040
840.055	16059
840.193	15964
840.33	15972
840.467	15994
840.604	16010
840.742	16272
840.879	15926
841.016	15903
841.153	15937
841.29	16169
841.427	16036
841.564	16082
841.701	16074
841.838	16006
841.975	15922
842.112	15892
842.249	15876
842.385	15812
842.522	15994
842.659	15778
842.796	15857
842.933	15895
843.069	15660
843.206	15747
843.343	15930
843.479	15812
843.616	15789
843.752	15644
843.889	15557
844.025	15675
844.162	15515
844.298	15694
844.435	15663
844.571	15587
844.708	15690
844.844	15644
844.98	15694
845.117	15690
845.253	15587
845.389	15507
845.525	15462
845.661	15515
845.798	15412
845.934	15458
846.07	15310
846.206	15367
846.342	15428
846.478	15374
846.614	15283
846.75	15116
846.886	15024
847.022	15154
847.158	15176
847.294	15146
847.429	15169
847.565	15062
847.701	15477
847.837	14937
847.972	14971
848.108	14982
848.244	14979
848.379	14838
848.515	14682
848.65	14727
848.786	14845
848.921	14826
849.057	14880
849.192	14815
849.328	14880
849.463	14804
849.598	14792
849.734	14724
849.869	14674
850.004	14526
850.14	14655
850.275	14488
850.41	14564
850.545	14533
850.68	14495
850.815	14469
850.95	14560
851.085	14667
851.22	14739
851.355	14594
851.49	14560
851.625	14541
851.76	14457
851.895	14374
852.03	14431
852.165	14480
852.299	14556
852.434	14590
852.569	14514
852.703	14579
852.838	14648
852.973	14667
853.107	14670
853.242	14556
853.376	14362
853.511	14301
853.645	14271
853.78	14495
853.914	14408
854.048	14358
854.183	14442
854.317	14362
854.451	14571
854.585	14442
854.72	14381
854.854	14438
854.988	14305
855.122	14393
855.256	14267
855.39	14454
855.524	14518
855.658	14431
855.792	14336
855.926	14495
856.06	14514
856.194	14484
856.327	14393
856.461	14336
856.595	14396
856.729	14415
856.862	14522
856.996	14423
857.13	14408
857.263	14469
857.397	14583
857.53	14473
857.664	14366
857.797	14511
857.931	14549
858.064	14476
858.197	14552
858.331	14514
858.464	14377
858.597	14298
858.731	14404
858.864	14358
858.997	14446
859.13	14366
859.263	14457
859.396	14389
859.529	14358
859.662	14336
859.795	14366
859.928	14374
860.061	14514
860.194	14602
860.327	14446
860.46	14404
860.592	14556
860.725	14556
860.858	14488
860.99	14434
861.123	14309
861.256	14347
861.388	14446
861.521	15157
861.653	14358
861.786	14229
861.918	14282
862.05	14244
862.183	14423
862.315	14408
862.447	14408
862.58	14278
862.712	14153
862.844	14180
862.976	14244
863.108	14195
863.24	14431
863.372	14126
863.504	14229
863.636	14092
863.768	14176
863.9	14134
864.032	14088
864.164	14240
864.296	14221
864.428	14294
864.559	14252
864.691	14252
864.823	14278
864.954	14317
865.086	14202
865.217	14164
865.349	14134
865.48	14130
865.612	14248
865.743	14244
865.875	14153
866.006	14062
866.137	14225
866.269	14180
866.4	14111
866.531	14138
866.662	14069
866.793	14062
866.924	14111
867.055	14240
867.186	14157
867.317	14221
867.448	14058
867.579	14043
867.71	14073
867.841	14077
867.972	14111
868.103	14153
868.233	14115
868.364	14168
868.495	14237
868.625	14404
868.756	14571
868.886	14320
869.017	14290
869.147	14625
869.278	14571
869.408	14526
869.539	14351
869.669	14499
869.799	14488
869.929	14545
870.06	14560
870.19	14686
870.32	14659
870.45	14636
870.58	14914
870.71	14800
870.84	14967
870.97	14830
871.1	14807
871.23	14902
871.36	14952
871.489	14906
871.619	14982
871.749	15055
871.879	14967
872.008	15017
872.138	15017
872.267	14929
872.397	14845
872.526	14864
872.656	14834
872.785	14876
872.915	14956
873.044	14929
873.173	14982
873.303	15123
873.432	15195
873.561	15055
873.69	15138
873.819	15093
873.948	15070
874.077	14990
874.206	15085
874.335	15176
874.464	15157
874.593	15412
874.722	15370
874.851	15389
874.979	15363
875.108	15344
875.237	15359
875.365	15370
875.494	15340
875.623	15466
875.751	15321
875.88	15363
876.008	15481
876.136	15580
876.265	15827
876.393	15907
876.521	15835
876.65	15793
876.778	15823
876.906	15762
877.034	15774
877.162	15762
877.29	15755
877.418	15823
877.546	15743
877.674	15804
877.802	15743
877.93	15682
878.058	15720
878.185	15587
878.313	15736
878.441	15736
878.568	15618
878.696	15641
878.824	15770
878.951	15793
879.079	15899
879.206	16082
879.333	16067
879.461	15751
879.588	15945
879.715	15945
879.842	16040
879.97	15972
880.097	15603
880.224	15549
880.351	15576
880.478	15641
880.605	15622
880.732	15595
880.859	15835
880.986	15542
881.112	15663
881.239	15557
881.366	15424
881.493	15264
881.619	15325
881.746	15264
881.872	15176
881.999	15272
882.125	15279
882.252	15424
882.378	15287
882.505	15466
882.631	15249
882.757	15100
882.883	15127
883.01	15233
883.136	15028
883.262	14937
883.388	14979
883.514	15146
883.64	15154
883.766	14994
883.892	14910
884.018	14963
884.143	15108
884.269	15184
884.395	14811
884.52	14762
884.646	14819
884.772	14663
884.897	14727
885.023	14727
885.148	14899
885.274	14982
885.399	14853
885.524	14807
885.65	14826
885.775	14849
885.9	14762
886.025	14788
886.15	14796
886.275	14735
886.4	14674
886.525	14758
886.65	14750
886.775	14663
886.9	14845
887.025	15047
887.149	14838
887.274	14617
887.399	14583
887.523	14644
887.648	14545
887.773	14511
887.897	14606
888.021	14754
888.146	14560
888.27	14746
888.395	14689
888.519	14746
888.643	14708
888.767	14697
888.891	14659
889.015	14438
889.139	14480
889.263	14499
889.387	14583
889.511	14739
889.635	14621
889.759	14522
889.883	14518
890.006	14590
890.13	14495
890.254	14484
890.377	14495
890.501	14237
890.624	14252
890.748	14351
890.871	14206
890.995	14142
891.118	14107
891.241	14180
891.364	14153
891.488	14294
891.611	14134
891.734	14180
891.857	14164
891.98	14218
892.103	14259
892.226	14199
892.349	14172
892.471	13989
892.594	14275
892.717	14187
892.839	14206
892.962	14138
893.085	14336
893.207	14180
893.33	14107
893.452	14145
893.575	14267
893.697	14092
893.819	14328
893.941	14431
894.064	14339
894.186	14180
894.308	14111
894.43	14301
894.552	14366
894.674	14313
894.796	14187
894.918	14168
895.04	14233
895.161	14252
895.283	14336
895.405	14244
895.526	14328
895.648	14267
895.769	14355
895.891	14358
896.012	14412
896.134	14328
896.255	14438
896.376	14332
896.498	14393
896.619	14431
896.74	14347
896.861	14324
896.982	14739
897.103	14750
897.224	14686
897.345	14632
897.466	14492
897.587	14571
897.708	14705
897.828	14735
897.949	14697
898.07	14415
898.19	14549
898.311	14781
898.431	14587
898.552	14705
898.672	14765
898.792	14765
898.913	14587
899.033	14629
899.153	14571
899.273	14533
899.393	14617
899.513	14594
899.633	14571
899.753	14537
899.873	14469
899.993	14579
900.113	14541
900.232	14598
900.352	14594
900.472	14541
900.591	14423
900.711	14514
900.83	14400
900.95	14480
901.069	14499
901.189	14423
901.308	14161
901.427	14001
901.546	14115
901.665	14202
901.784	14077
901.904	13947
902.023	13955
902.141	13788
902.26	13681
902.379	13734
902.498	13666
902.617	13571
902.735	13811
902.854	13586
902.973	13597
903.091	13419
903.21	13343
903.328	13449
903.446	13369
903.565	13213
903.683	13221
903.801	13194
903.919	13160
904.038	13164
904.156	13000
904.274	13076
904.392	12943
904.51	13057
904.627	13019
904.745	13099
904.863	13080
904.981	12798
905.098	12696
905.216	12787
905.334	12787
905.451	12817
905.569	12726
905.686	12795
905.803	12711
905.921	12555
906.038	12745
906.155	12563
906.272	12490
906.389	12509
906.506	12350
906.623	12224
906.74	12342
906.857	12194
906.974	12273
907.091	12361
907.208	12407
907.324	12289
907.441	12258
907.557	12117
907.674	12064
907.79	12019
907.907	12114
908.023	12041
908.139	12102
908.256	12030
908.372	11904
908.488	12045
908.604	11863
908.72	11794
908.836	11847
908.952	11722
909.068	11878
909.184	11874
909.3	11775
909.415	11916
909.531	11920
909.647	11649
909.762	11592
909.878	11558
909.993	11615
910.108	11554
910.224	11570
910.339	11638
910.454	11493
910.57	11478
910.685	11349
910.8	11570
910.915	11668
911.03	11406
911.145	11417
911.259	11246
911.374	11277
911.489	11193
911.604	11117
911.718	11060
911.833	11003
911.947	10953
912.062	10850
912.176	11060
912.291	11071
912.405	11025
912.519	11273
912.633	11284
912.748	11098
912.862	11140
912.976	10949
913.09	10820
913.204	10957
913.318	10911
913.431	11052
913.545	11006
913.659	11018
913.772	10984
913.886	10805
914	10797
914.113	10919
914.226	10900
914.34	10961
914.453	10748
914.566	10866
914.68	10820
914.793	10793
914.906	10573
915.019	10497
915.132	10409
915.245	10546
915.358	10596
915.47	10580
915.583	10573
915.696	10573
915.809	10710
915.921	10725
916.034	10436
916.146	10519
916.259	10485
916.371	10611
916.483	10523
916.595	10436
916.708	10497
916.82	10432
916.932	10516
917.044	10455
917.156	10455
917.268	10329
917.38	10466
917.491	10238
917.603	10329
917.715	10512
917.826	10497
917.938	10386
918.049	10322
918.161	10428
918.272	10599
918.384	10481
918.495	10436
918.606	10284
918.717	10181
918.828	10303
918.939	10356
919.05	10135
919.161	10227
919.272	9972
919.383	10128
919.494	10284
919.604	10394
919.715	10173
919.826	10196
919.936	10181
920.047	10424
920.157	10238
920.267	10519
920.378	10314
920.488	10287
920.598	10516
920.708	10630
920.818	10462
920.928	10428
921.038	10687
921.148	10611
921.258	10287
921.368	10257
921.477	10162
921.587	10120
921.697	10036
921.806	10109
921.916	10013
922.025	9876
922.134	9808
922.244	9724
922.353	9785
922.462	9701
922.571	9667
922.68	9500
922.789	9488
922.898	9553
923.007	9500
923.116	9587
923.224	9500
923.333	9519
923.442	9477
923.55	9382
923.659	9424
923.767	9507
923.876	9382
923.984	9439
924.092	9298
924.201	9397
924.309	9351
924.417	9397
924.525	9325
924.633	9450
924.741	10272
924.849	9150
924.956	9298
925.064	9176
925.172	9055
925.279	9074
925.387	9195
925.494	9184
925.602	9275
925.709	9272
925.816	9135
925.924	9188
926.031	9245
926.138	9131
926.245	9264
926.352	9131
926.459	9260
926.566	9237
926.673	9135
926.779	9020
926.886	9097
926.993	8933
927.099	8918
927.206	8902
927.312	8807
927.419	8967
927.525	8914
927.631	8883
927.737	8895
927.843	8800
927.95	8727
928.056	8796
928.162	8731
928.267	8853
928.373	9466
928.479	8906
928.585	8678
928.69	8868
928.796	8834
928.901	8727
929.007	8575
929.112	8701
929.218	8644
929.323	8636
929.428	8564
929.533	8667
929.638	8587
929.743	8594
929.848	8667
929.953	8526
930.058	8469
930.163	8400
930.267	8396
930.372	8492
930.477	8320
930.581	8552
930.685	8495
930.79	8313
930.894	8351
930.998	8298
931.103	8427
931.207	8115
931.311	8069
931.415	8046
931.519	7803
931.623	7837
