Data from test_V78500241_3395.txt Node
Date: Fri Mar 25 14:57:21 CST 2022
User: usil
Spectrometer: V785-0024
Trigger mode: 0
Integration Time (sec): 4.000000E-1
Scans to average: 1
Nonlinearity correction enabled: false
Boxcar width: 0
Storing dark spectrum: false
XAxis mode: Wavelengths
Number of Pixels in Spectrum: 1024
>>>>>Begin Spectral Data<<<<<
801.071	21937
801.214	21816
801.356	21603
801.499	21443
801.641	21359
801.783	21336
801.926	21340
802.068	21252
802.211	21233
802.353	21112
802.496	20887
802.638	20876
802.78	20811
802.923	20640
803.065	20609
803.208	20602
803.35	20632
803.492	20800
803.635	20743
803.777	20667
803.919	20765
804.061	21039
804.204	20663
804.346	20579
804.488	20419
804.63	20655
804.773	20434
804.915	20511
805.057	20598
805.199	20457
805.341	20575
805.483	20682
805.626	20571
805.768	20476
805.91	20708
806.052	20571
806.194	20499
806.336	20686
806.478	20511
806.62	20317
806.762	20670
806.904	20796
807.046	20925
807.188	20788
807.33	20830
807.472	20853
807.614	20762
807.756	20895
807.898	20644
808.04	20583
808.182	20552
808.324	20712
808.465	20689
808.607	20678
808.749	20819
808.891	20956
809.033	21013
809.174	20880
809.316	20861
809.458	20758
809.6	20739
809.741	20902
809.883	20963
810.025	21017
810.166	21058
810.308	20994
810.45	20979
810.591	20880
810.733	20629
810.875	20712
811.016	20503
811.158	20564
811.299	20705
811.441	20674
811.582	20758
811.724	20701
811.865	20598
812.007	20549
812.148	20609
812.29	20712
812.431	20777
812.573	20921
812.714	20864
812.855	21036
812.997	21256
813.138	21351
813.279	21310
813.421	21195
813.562	21039
813.703	20952
813.845	20739
813.986	20495
814.127	20221
814.268	20199
814.41	20210
814.551	20107
814.692	20229
814.833	20062
814.974	20122
815.115	20191
815.256	19982
815.397	20115
815.539	20046
815.68	19959
815.821	19898
815.962	19936
816.103	19860
816.244	19837
816.385	19750
816.526	19533
816.666	19491
816.807	19373
816.948	19426
817.089	19453
817.23	19419
817.371	19335
817.512	19289
817.653	19316
817.793	19198
817.934	19480
818.075	19320
818.216	19285
818.356	19244
818.497	19023
818.638	19034
818.778	19015
818.919	19008
819.06	19065
819.2	19141
819.341	19164
819.481	19145
819.622	19263
819.762	19483
819.903	19392
820.043	19369
820.184	19274
820.324	19350
820.465	19278
820.605	19293
820.746	19202
820.886	19095
821.026	19263
821.167	19266
821.307	19312
821.447	19320
821.588	19274
821.728	19023
821.868	18844
822.008	18597
822.149	18677
822.289	18715
822.429	18433
822.569	18403
822.709	18509
822.849	18311
822.99	18186
823.13	18186
823.27	18133
823.41	18060
823.55	17931
823.69	17992
823.83	18019
823.97	17939
824.11	17733
824.25	17786
824.389	17847
824.529	17882
824.669	17634
824.809	17901
824.949	17878
825.089	17874
825.228	17798
825.368	17661
825.508	17490
825.648	17646
825.787	17646
825.927	17600
826.067	17539
826.206	17543
826.346	17592
826.485	17627
826.625	17520
826.765	17657
826.904	17558
827.044	17288
827.183	17360
827.323	17242
827.462	17277
827.601	17258
827.741	17315
827.88	17277
828.02	17079
828.159	17151
828.298	17235
828.437	17296
828.577	17212
828.716	17258
828.855	17140
828.994	17018
829.134	16995
829.273	16987
829.412	17022
829.551	16934
829.69	17003
829.829	17033
829.968	17170
830.107	17060
830.246	17060
830.385	16869
830.524	16873
830.663	16877
830.802	16767
830.941	16569
831.08	16550
831.219	16782
831.357	16725
831.496	16877
831.635	16660
831.774	16538
831.913	16485
832.051	16405
832.19	16360
832.329	16386
832.467	16337
832.606	16276
832.744	16272
832.883	16356
833.022	16375
833.16	16379
833.299	16268
833.437	16379
833.576	16398
833.714	16402
833.852	16424
833.991	16485
834.129	16504
834.267	16508
834.406	16417
834.544	16344
834.682	16417
834.821	16474
834.959	16527
835.097	16333
835.235	16519
835.373	16451
835.511	16360
835.65	16261
835.788	16367
835.926	16162
836.064	16192
836.202	16139
836.34	16314
836.478	16405
836.615	16276
836.753	16382
836.891	16447
837.029	16386
837.167	16386
837.305	16360
837.443	16215
837.58	16158
837.718	16200
837.856	16200
837.993	16188
838.131	16344
838.269	16124
838.406	16097
838.544	16010
838.681	15762
838.819	15907
838.956	15671
839.094	15736
839.231	15842
839.369	15827
839.506	16177
839.643	15937
839.781	15774
839.918	15736
840.055	15816
840.193	15785
840.33	15831
840.467	15732
840.604	15892
840.742	16021
840.879	15614
841.016	15606
841.153	15633
841.29	15816
841.427	15717
841.564	15793
841.701	15690
841.838	15755
841.975	15671
842.112	15625
842.249	15625
842.385	15481
842.522	15622
842.659	15538
842.796	15492
842.933	15473
843.069	15545
843.206	15492
843.343	15633
843.479	15466
843.616	15542
843.752	15306
843.889	15329
844.025	15454
844.162	15226
844.298	15454
844.435	15336
844.571	15218
844.708	15412
844.844	15466
844.98	15424
845.117	15348
845.253	15241
845.389	15100
845.525	15146
845.661	15169
845.798	15142
845.934	15112
846.07	14994
846.206	15066
846.342	15222
846.478	15055
846.614	14982
846.75	14941
846.886	14864
847.022	14941
847.158	14910
847.294	14902
847.429	14990
847.565	14845
847.701	15093
847.837	14659
847.972	14678
848.108	14746
848.244	14636
848.379	14564
848.515	14488
848.65	14423
848.786	14457
848.921	14484
849.057	14549
849.192	14621
849.328	14476
849.463	14602
849.598	14301
849.734	14374
849.869	14393
850.004	14301
850.14	14290
850.275	14237
850.41	14237
850.545	14164
850.68	14233
850.815	14187
850.95	14199
851.085	14396
851.22	14271
851.355	14240
851.49	14229
851.625	14180
851.76	14149
851.895	14142
852.03	14187
852.165	14225
852.299	14309
852.434	14339
852.569	14275
852.703	14408
852.838	14324
852.973	14442
853.107	14415
853.242	14324
853.376	14187
853.511	14008
853.645	14035
853.78	14252
853.914	14267
854.048	14092
854.183	14119
854.317	14161
854.451	14343
854.585	14024
854.72	14130
854.854	14157
854.988	14134
855.122	14088
855.256	13894
855.39	14168
855.524	14233
855.658	14221
855.792	14142
855.926	14195
856.06	14187
856.194	14225
856.327	14119
856.461	14073
856.595	13967
856.729	14107
856.862	14275
856.996	14130
857.13	14218
857.263	14218
857.397	14336
857.53	14168
857.664	14138
857.797	14134
857.931	14244
858.064	14206
858.197	14275
858.331	14142
858.464	14130
858.597	14062
858.731	14145
858.864	14043
858.997	14168
859.13	14199
859.263	14164
859.396	14305
859.529	14149
859.662	13997
859.795	14119
859.928	14164
860.061	14248
860.194	14298
860.327	14199
860.46	13993
860.592	14202
860.725	14229
860.858	14263
860.99	14119
861.123	14092
861.256	14103
861.388	14077
861.521	14941
861.653	14100
861.786	13944
861.918	13947
862.05	13970
862.183	14069
862.315	14046
862.447	14214
862.58	14119
862.712	13890
862.844	13757
862.976	13989
863.108	13947
863.24	14343
863.372	13826
863.504	13860
863.636	13917
863.768	13925
863.9	13921
864.032	13894
864.164	13814
864.296	13974
864.428	14069
864.559	14054
864.691	14126
864.823	13982
864.954	13970
865.086	13978
865.217	13978
865.349	13887
865.48	13913
865.612	13871
865.743	14008
865.875	13944
866.006	13871
866.137	13883
866.269	13947
866.4	13845
866.531	13822
866.662	13826
866.793	13856
866.924	13913
867.055	13921
867.186	13902
867.317	13868
867.448	13765
867.579	13898
867.71	13788
867.841	13795
867.972	13769
868.103	13875
868.233	13921
868.364	13849
868.495	13986
868.625	14149
868.756	14210
868.886	14145
869.017	14161
869.147	14237
869.278	14271
869.408	14191
869.539	14191
869.669	14237
869.799	14161
869.929	14343
870.06	14229
870.19	14419
870.32	14476
870.45	14625
870.58	14606
870.71	14598
870.84	14651
870.97	14552
871.1	14412
871.23	14743
871.36	14785
871.489	14621
871.619	14682
871.749	14735
871.879	14807
872.008	14781
872.138	14796
872.267	14769
872.397	14625
872.526	14587
872.656	14602
872.785	14606
872.915	14800
873.044	14880
873.173	14815
873.303	14887
873.432	14800
873.561	14838
873.69	14716
873.819	14811
873.948	14941
874.077	14906
874.206	14838
874.335	14925
874.464	14982
874.593	15173
874.722	15024
874.851	15291
874.979	15161
875.108	15214
875.237	15047
875.365	15013
875.494	14998
875.623	15131
875.751	15157
875.88	15097
876.008	15393
876.136	15298
876.265	15519
876.393	15766
876.521	15591
876.65	15660
876.778	15606
876.906	15637
877.034	15481
877.162	15447
877.29	15488
877.418	15534
877.546	15488
877.674	15587
877.802	15564
877.93	15507
878.058	15572
878.185	15397
878.313	15500
878.441	15481
878.568	15382
878.696	15401
878.824	15584
878.951	15545
879.079	15751
879.206	15861
879.333	15701
879.461	15511
879.588	15606
879.715	15625
879.842	15709
879.97	15641
880.097	15454
880.224	15412
880.351	15401
880.478	15317
880.605	15416
880.732	15359
880.859	15694
880.986	15405
881.112	15439
881.239	15294
881.366	15283
881.493	15104
881.619	15070
881.746	15108
881.872	15146
881.999	14990
882.125	14967
882.252	15146
882.378	15051
882.505	15192
882.631	14998
882.757	14777
882.883	14887
883.01	14788
883.136	14800
883.262	14746
883.388	14743
883.514	14887
883.64	14990
883.766	14872
883.892	14674
884.018	14705
884.143	14785
884.269	14838
884.395	14689
884.52	14507
884.646	14670
884.772	14575
884.897	14488
885.023	14613
885.148	14610
885.274	14727
885.399	14682
885.524	14640
885.65	14560
885.775	14632
885.9	14579
886.025	14739
886.15	14583
886.275	14571
886.4	14408
886.525	14568
886.65	14461
886.775	14469
886.9	14678
887.025	14838
887.149	14552
887.274	14457
887.399	14377
887.523	14412
887.648	14305
887.773	14305
887.897	14396
888.021	14396
888.146	14442
888.27	14571
888.395	14526
888.519	14469
888.643	14511
888.767	14450
888.891	14339
889.015	14244
889.139	14275
889.263	14294
889.387	14404
889.511	14419
889.635	14396
889.759	14259
889.883	14183
890.006	14324
890.13	14431
890.254	14161
890.377	14161
890.501	14092
890.624	14138
890.748	14123
890.871	13879
890.995	13955
891.118	13890
891.241	13887
891.364	13989
891.488	14008
891.611	14008
891.734	13928
891.857	14084
891.98	13982
892.103	14069
892.226	14065
892.349	14005
892.471	13795
892.594	13947
892.717	13894
892.839	13894
892.962	13982
893.085	14058
893.207	13906
893.33	13803
893.452	13951
893.575	14054
893.697	13925
893.819	14168
893.941	14183
894.064	14138
894.186	13974
894.308	13997
894.43	14123
894.552	14267
894.674	14130
894.796	13830
894.918	14084
895.04	13936
895.161	14134
895.283	14043
895.405	14020
895.526	14077
895.648	14157
895.769	14199
895.891	14157
896.012	14225
896.134	14240
896.255	14183
896.376	14020
896.498	14164
896.619	14103
896.74	14069
896.861	14259
896.982	14590
897.103	14670
897.224	14358
897.345	14412
897.466	14358
897.587	14442
897.708	14598
897.828	14480
897.949	14431
898.07	14294
898.19	14362
898.311	14621
898.431	14465
898.552	14541
898.672	14617
898.792	14651
898.913	14446
899.033	14419
899.153	14343
899.273	14298
899.393	14336
899.513	14343
899.633	14385
899.753	14324
899.873	14366
899.993	14355
900.113	14275
900.232	14347
900.352	14389
900.472	14248
900.591	14206
900.711	14377
900.83	14199
900.95	14271
901.069	14343
901.189	14187
901.308	13925
901.427	13845
901.546	13932
901.665	13826
901.784	13871
901.904	13746
902.023	13765
902.141	13438
902.26	13518
902.379	13491
902.498	13483
902.617	13400
902.735	13514
902.854	13407
902.973	13327
903.091	13137
903.21	13228
903.328	13168
903.446	13034
903.565	13046
903.683	13171
903.801	12859
903.919	13008
904.038	12985
904.156	12867
904.274	12958
904.392	12844
904.51	12859
904.627	12875
904.745	12848
904.863	12859
904.981	12604
905.098	12540
905.216	12464
905.334	12642
905.451	12578
905.569	12563
905.686	12513
905.803	12563
905.921	12327
906.038	12464
906.155	12403
906.272	12209
906.389	12327
906.506	12129
906.623	12117
906.74	12038
906.857	12026
906.974	12117
907.091	12277
907.208	12300
907.324	12285
907.441	12057
907.557	11908
907.674	11824
907.79	11863
907.907	11863
908.023	11973
908.139	11870
908.256	11798
908.372	11817
908.488	11741
908.604	11710
908.72	11562
908.836	11703
908.952	11627
909.068	11684
909.184	11760
909.3	11699
909.415	11718
909.531	11657
909.647	11410
909.762	11501
909.878	11315
909.993	11452
910.108	11425
910.224	11436
910.339	11372
910.454	11318
910.57	11292
910.685	11189
910.8	11497
910.915	11463
911.03	11269
911.145	11170
911.259	11143
911.374	11090
911.489	11037
911.604	11006
911.718	10904
911.833	10915
911.947	10763
912.062	10740
912.176	10843
912.291	10877
912.405	10885
912.519	11048
912.633	11083
912.748	10930
912.862	10972
912.976	10793
913.09	10645
913.204	10710
913.318	10748
913.431	10797
913.545	10835
913.659	10896
913.772	10816
913.886	10630
914	10717
914.113	10790
914.226	10774
914.34	10752
914.453	10538
914.566	10744
914.68	10664
914.793	10523
914.906	10432
915.019	10356
915.132	10314
915.245	10363
915.358	10363
915.47	10360
915.583	10497
915.696	10451
915.809	10561
915.921	10554
916.034	10413
916.146	10409
916.259	10299
916.371	10363
916.483	10455
916.595	10299
916.708	10394
916.82	10356
916.932	10382
917.044	10303
917.156	10325
917.268	10238
917.38	10299
917.491	10207
917.603	10249
917.715	10306
917.826	10360
917.938	10128
918.049	10101
918.161	10143
918.272	10379
918.384	10394
918.495	10303
918.606	10143
918.717	10109
918.828	10090
918.939	10131
919.05	9987
919.161	10124
919.272	9850
919.383	10006
919.494	10162
919.604	10318
919.715	10124
919.826	10010
919.936	10074
920.047	10242
920.157	10131
920.267	10230
920.378	10166
920.488	10192
920.598	10268
920.708	10481
920.818	10322
920.928	10337
921.038	10481
921.148	10405
921.258	10169
921.368	10101
921.477	10055
921.587	9937
921.697	9876
921.806	9975
921.916	9876
922.025	9694
922.134	9720
922.244	9652
922.353	9759
922.462	9564
922.571	9473
922.68	9389
922.789	9344
922.898	9313
923.007	9359
923.116	9420
923.224	9355
923.333	9389
923.442	9329
923.55	9233
923.659	9283
923.767	9321
923.876	9260
923.984	9310
924.092	9226
924.201	9279
924.309	9241
924.417	9264
924.525	9135
924.633	9176
924.741	10093
924.849	9047
924.956	9211
925.064	9062
925.172	8944
925.279	9020
925.387	9028
925.494	9089
925.602	9138
925.709	9142
925.816	8906
925.924	9058
926.031	9089
926.138	9032
926.245	9100
926.352	8918
926.459	9131
926.566	9195
926.673	9047
926.779	8937
926.886	8902
926.993	8815
927.099	8834
927.206	8705
927.312	8651
927.419	8861
927.525	8754
927.631	8842
927.737	8644
927.843	8629
927.95	8575
928.056	8648
928.162	8587
928.267	8678
928.373	9321
928.479	8807
928.585	8549
928.69	8686
928.796	8716
928.901	8564
929.007	8457
929.112	8541
929.218	8484
929.323	8469
929.428	8518
929.533	8655
929.638	8408
929.743	8522
929.848	8522
929.953	8434
930.058	8412
930.163	8233
930.267	8256
930.372	8374
930.477	8195
930.581	8450
930.685	8301
930.79	8259
930.894	8195
930.998	8206
931.103	8351
931.207	7947
931.311	7967
931.415	7932
931.519	7655
931.623	7689
