Data from test_V78500241_2604.txt Node
Date: Fri Mar 25 14:51:50 CST 2022
User: usil
Spectrometer: V785-0024
Trigger mode: 0
Integration Time (sec): 4.000000E-1
Scans to average: 1
Nonlinearity correction enabled: false
Boxcar width: 0
Storing dark spectrum: false
XAxis mode: Wavelengths
Number of Pixels in Spectrum: 1024
>>>>>Begin Spectral Data<<<<<
801.071	22078
801.214	21789
801.356	21720
801.499	21488
801.641	21515
801.783	21374
801.926	21485
802.068	21332
802.211	21245
802.353	21199
802.496	21013
802.638	20887
802.78	20842
802.923	20887
803.065	20533
803.208	20648
803.35	20632
803.492	20804
803.635	20990
803.777	20678
803.919	20686
804.061	21233
804.204	20712
804.346	20667
804.488	20518
804.63	20800
804.773	20556
804.915	20602
805.057	20712
805.199	20606
805.341	20606
805.483	20758
805.626	20701
805.768	20571
805.91	20712
806.052	20659
806.194	20541
806.336	20727
806.478	20632
806.62	20568
806.762	20708
806.904	20781
807.046	21055
807.188	21013
807.33	20845
807.472	20941
807.614	20845
807.756	20937
807.898	20735
808.04	20667
808.182	20590
808.324	20629
808.465	20705
808.607	20868
808.749	21028
808.891	21131
809.033	21154
809.174	20941
809.316	21020
809.458	20948
809.6	20910
809.741	20990
809.883	21096
810.025	21165
810.166	21157
810.308	21123
810.45	21070
810.591	20971
810.733	20857
810.875	20746
811.016	20583
811.158	20625
811.299	20785
811.441	20864
811.582	20830
811.724	20765
811.865	20716
812.007	20644
812.148	20724
812.29	20868
812.431	20998
812.573	20994
812.714	21104
812.855	21294
812.997	21272
813.138	21458
813.279	21313
813.421	21169
813.562	21260
813.703	21123
813.845	20788
813.986	20568
814.127	20522
814.268	20400
814.41	20347
814.551	20263
814.692	20400
814.833	20218
814.974	20252
815.115	20393
815.256	20111
815.397	20119
815.539	20172
815.68	20077
815.821	19955
815.962	20210
816.103	19993
816.244	19845
816.385	19769
816.526	19852
816.666	19613
816.807	19430
816.948	19605
817.089	19445
817.23	19571
817.371	19400
817.512	19480
817.653	19282
817.793	19343
817.934	19438
818.075	19472
818.216	19426
818.356	19388
818.497	19247
818.638	19152
818.778	19118
818.919	19076
819.06	19221
819.2	19282
819.341	19396
819.481	19350
819.622	19472
819.762	19643
819.903	19605
820.043	19506
820.184	19403
820.324	19468
820.465	19575
820.605	19324
820.746	19327
820.886	19282
821.026	19415
821.167	19346
821.307	19407
821.447	19365
821.588	19266
821.728	19217
821.868	19069
822.008	18798
822.149	18852
822.289	18795
822.429	18578
822.569	18479
822.709	18563
822.849	18311
822.99	18235
823.13	18296
823.27	18323
823.41	18110
823.55	18064
823.69	18117
823.83	18129
823.97	18117
824.11	17874
824.25	17847
824.389	17828
824.529	17999
824.669	18011
824.809	17950
824.949	17973
825.089	17935
825.228	17870
825.368	17649
825.508	17824
825.648	17745
825.787	17722
825.927	17760
826.067	17611
826.206	17608
826.346	17668
826.485	17695
826.625	17619
826.765	17722
826.904	17608
827.044	17509
827.183	17474
827.323	17349
827.462	17543
827.601	17356
827.741	17379
827.88	17444
828.02	17223
828.159	17273
828.298	17478
828.437	17463
828.577	17280
828.716	17444
828.855	17296
828.994	17151
829.134	17189
829.273	17178
829.412	17094
829.551	17075
829.69	17113
829.829	17067
829.968	17235
830.107	17159
830.246	17105
830.385	17094
830.524	16965
830.663	17003
830.802	16748
830.941	16759
831.08	16854
831.219	16866
831.357	16896
831.496	16968
831.635	16771
831.774	16607
831.913	16523
832.051	16478
832.19	16512
832.329	16615
832.467	16489
832.606	16348
832.744	16398
832.883	16303
833.022	16489
833.16	16447
833.299	16516
833.437	16489
833.576	16455
833.714	16481
833.852	16599
833.991	16607
834.129	16599
834.267	16626
834.406	16603
834.544	16599
834.682	16462
834.821	16550
834.959	16653
835.097	16497
835.235	16519
835.373	16645
835.511	16535
835.65	16459
835.788	16375
835.926	16249
836.064	16211
836.202	16333
836.34	16500
836.478	16527
836.615	16402
836.753	16386
836.891	16481
837.029	16459
837.167	16356
837.305	16379
837.443	16322
837.58	16276
837.718	16402
837.856	16341
837.993	16200
838.131	16242
838.269	16215
838.406	16188
838.544	16120
838.681	16036
838.819	16032
838.956	15953
839.094	15949
839.231	15835
839.369	15987
839.506	16200
839.643	15998
839.781	15804
839.918	15850
840.055	15838
840.193	15895
840.33	15835
840.467	15888
840.604	15972
840.742	16021
840.879	15686
841.016	15720
841.153	15679
841.29	15838
841.427	15873
841.564	15915
841.701	15937
841.838	15762
841.975	15736
842.112	15804
842.249	15671
842.385	15641
842.522	15861
842.659	15739
842.796	15591
842.933	15542
843.069	15584
843.206	15473
843.343	15732
843.479	15660
843.616	15671
843.752	15523
843.889	15283
844.025	15591
844.162	15306
844.298	15557
844.435	15386
844.571	15355
844.708	15504
844.844	15591
844.98	15462
845.117	15538
845.253	15447
845.389	15374
845.525	15424
845.661	15306
845.798	15268
845.934	15089
846.07	15104
846.206	15252
846.342	15283
846.478	15294
846.614	14986
846.75	14918
846.886	14979
847.022	15051
847.158	15032
847.294	15116
847.429	15077
847.565	15055
847.701	15268
847.837	14716
847.972	14701
848.108	14830
848.244	14792
848.379	14598
848.515	14560
848.65	14610
848.786	14514
848.921	14610
849.057	14746
849.192	14762
849.328	14632
849.463	14644
849.598	14556
849.734	14499
849.869	14396
850.004	14381
850.14	14457
850.275	14313
850.41	14218
850.545	14324
850.68	14244
850.815	14294
850.95	14355
851.085	14568
851.22	14575
851.355	14301
851.49	14324
851.625	14263
851.76	14271
851.895	14225
852.03	14240
852.165	14305
852.299	14362
852.434	14412
852.569	14461
852.703	14324
852.838	14480
852.973	14545
853.107	14492
853.242	14278
853.376	14229
853.511	14123
853.645	14206
853.78	14324
853.914	14229
854.048	14244
854.183	14240
854.317	14313
854.451	14358
854.585	14282
854.72	14248
854.854	14328
854.988	14221
855.122	14229
855.256	14039
855.39	14115
855.524	14275
855.658	14317
855.792	14305
855.926	14328
856.06	14351
856.194	14385
856.327	14263
856.461	14313
856.595	14259
856.729	14229
856.862	14343
856.996	14259
857.13	14347
857.263	14385
857.397	14328
857.53	14229
857.664	14309
857.797	14362
857.931	14381
858.064	14282
858.197	14385
858.331	14237
858.464	14218
858.597	14142
858.731	14305
858.864	14301
858.997	14248
859.13	14298
859.263	14282
859.396	14408
859.529	14309
859.662	14263
859.795	14248
859.928	14336
860.061	14419
860.194	14461
860.327	14256
860.46	14282
860.592	14404
860.725	14454
860.858	14434
860.99	14271
861.123	14172
861.256	14256
861.388	14347
861.521	14921
861.653	14138
861.786	14058
861.918	14115
862.05	14168
862.183	14263
862.315	14309
862.447	14362
862.58	14134
862.712	13967
862.844	14031
862.976	14096
863.108	14126
863.24	14480
863.372	14008
863.504	13997
863.636	13967
863.768	14054
863.9	14081
864.032	14020
864.164	14195
864.296	14073
864.428	14221
864.559	14172
864.691	14142
864.823	14062
864.954	14058
865.086	14027
865.217	14077
865.349	13970
865.48	14027
865.612	14050
865.743	14164
865.875	14069
866.006	14016
866.137	13989
866.269	14050
866.4	14031
866.531	14016
866.662	14031
866.793	14012
866.924	14012
867.055	14005
867.186	13982
867.317	14001
867.448	13890
867.579	14039
867.71	13932
867.841	13913
867.972	14046
868.103	14024
868.233	14157
868.364	14016
868.495	14164
868.625	14267
868.756	14377
868.886	14180
869.017	14240
869.147	14336
869.278	14374
869.408	14317
869.539	14195
869.669	14301
869.799	14320
869.929	14404
870.06	14347
870.19	14556
870.32	14587
870.45	14541
870.58	14663
870.71	14720
870.84	14739
870.97	14579
871.1	14594
871.23	14842
871.36	14891
871.489	14663
871.619	14845
871.749	14891
871.879	14857
872.008	14952
872.138	14823
872.267	14796
872.397	14701
872.526	14758
872.656	14746
872.785	14765
872.915	14929
873.044	15058
873.173	14986
873.303	14967
873.432	14944
873.561	15005
873.69	14971
873.819	15005
873.948	14952
874.077	14937
874.206	14861
874.335	14990
874.464	15043
874.593	15294
874.722	15230
874.851	15233
874.979	15256
875.108	15302
875.237	15108
875.365	15233
875.494	15233
875.623	15321
875.751	15203
875.88	15302
876.008	15447
876.136	15496
876.265	15591
876.393	15895
876.521	15797
876.65	15717
876.778	15660
876.906	15591
877.034	15644
877.162	15694
877.29	15622
877.418	15732
877.546	15614
877.674	15599
877.802	15584
877.93	15614
878.058	15652
878.185	15580
878.313	15675
878.441	15580
878.568	15530
878.696	15610
878.824	15629
878.951	15694
879.079	15808
879.206	15991
879.333	15819
879.461	15701
879.588	15759
879.715	15766
879.842	15998
879.97	15675
880.097	15469
880.224	15485
880.351	15618
880.478	15458
880.605	15389
880.732	15477
880.859	15724
880.986	15488
881.112	15580
881.239	15473
881.366	15279
881.493	15233
881.619	15146
881.746	15123
881.872	15165
881.999	15116
882.125	15199
882.252	15283
882.378	15150
882.505	15199
882.631	15138
882.757	14941
882.883	15039
883.01	15028
883.136	14960
883.262	14880
883.388	14758
883.514	15013
883.64	14963
883.766	14929
883.892	14807
884.018	14788
884.143	14937
884.269	15112
884.395	14826
884.52	14716
884.646	14648
884.772	14655
884.897	14617
885.023	14724
885.148	14781
885.274	14853
885.399	14864
885.524	14678
885.65	14636
885.775	14686
885.9	14712
886.025	14891
886.15	14712
886.275	14629
886.4	14610
886.525	14682
886.65	14629
886.775	14682
886.9	14800
887.025	14925
887.149	14712
887.274	14606
887.399	14476
887.523	14480
887.648	14404
887.773	14381
887.897	14629
888.021	14552
888.146	14552
888.27	14640
888.395	14598
888.519	14602
888.643	14514
888.767	14549
888.891	14412
889.015	14317
889.139	14469
889.263	14256
889.387	14393
889.511	14621
889.635	14465
889.759	14328
889.883	14465
890.006	14431
890.13	14533
890.254	14370
890.377	14320
890.501	14164
890.624	14145
890.748	14240
890.871	14199
890.995	14092
891.118	14012
891.241	14084
891.364	14164
891.488	14176
891.611	14069
891.734	14126
891.857	14126
891.98	14153
892.103	14130
892.226	14119
892.349	14077
892.471	13989
892.594	14043
892.717	14008
892.839	14214
892.962	14096
893.085	14149
893.207	14134
893.33	13856
893.452	14031
893.575	14149
893.697	14039
893.819	14149
893.941	14237
894.064	14199
894.186	14069
894.308	14062
894.43	14191
894.552	14225
894.674	14221
894.796	14077
894.918	14084
895.04	14138
895.161	14244
895.283	14157
895.405	14107
895.526	14115
895.648	14176
895.769	14195
895.891	14233
896.012	14210
896.134	14271
896.255	14218
896.376	14187
896.498	14324
896.619	14278
896.74	14332
896.861	14343
896.982	14495
897.103	14754
897.224	14469
897.345	14492
897.466	14362
897.587	14526
897.708	14613
897.828	14503
897.949	14549
898.07	14427
898.19	14419
898.311	14678
898.431	14518
898.552	14632
898.672	14636
898.792	14602
898.913	14636
899.033	14583
899.153	14442
899.273	14362
899.393	14511
899.513	14454
899.633	14336
899.753	14415
899.873	14358
899.993	14438
900.113	14473
900.232	14450
900.352	14427
900.472	14355
900.591	14157
900.711	14389
900.83	14309
900.95	14442
901.069	14473
901.189	14172
901.308	14020
901.427	13993
901.546	13963
901.665	14054
901.784	13967
901.904	13849
902.023	13738
902.141	13521
902.26	13510
902.379	13594
902.498	13567
902.617	13567
902.735	13655
902.854	13620
902.973	13472
903.091	13209
903.21	13335
903.328	13263
903.446	13259
903.565	13091
903.683	13168
903.801	12981
903.919	13187
904.038	13122
904.156	13023
904.274	13065
904.392	12985
904.51	12916
904.627	12970
904.745	12909
904.863	13061
904.981	12814
905.098	12593
905.216	12688
905.334	12669
905.451	12642
905.569	12578
905.686	12681
905.803	12662
905.921	12441
906.038	12593
906.155	12483
906.272	12372
906.389	12323
906.506	12285
906.623	12308
906.74	12213
906.857	12106
906.974	12148
907.091	12213
907.208	12403
907.324	12194
907.441	12095
907.557	12045
907.674	12007
907.79	11916
907.907	11980
908.023	11977
908.139	11939
908.256	11916
908.372	11866
908.488	11904
908.604	11790
908.72	11691
908.836	11771
908.952	11649
909.068	11775
909.184	11866
909.3	11668
909.415	11840
909.531	11783
909.647	11471
909.762	11535
909.878	11497
909.993	11490
910.108	11429
910.224	11429
910.339	11516
910.454	11406
910.57	11349
910.685	11330
910.8	11577
910.915	11532
911.03	11326
911.145	11216
911.259	11132
911.374	11227
911.489	11067
911.604	11132
911.718	10984
911.833	10965
911.947	10873
912.062	10892
912.176	10889
912.291	11045
912.405	10995
912.519	11132
912.633	11178
912.748	10968
912.862	10991
912.976	10824
913.09	10782
913.204	10820
913.318	10805
913.431	10942
913.545	10942
913.659	10972
913.772	10801
913.886	10736
914	10656
914.113	10824
914.226	10828
914.34	10873
914.453	10691
914.566	10729
914.68	10702
914.793	10645
914.906	10481
915.019	10481
915.132	10413
915.245	10474
915.358	10508
915.47	10447
915.583	10512
915.696	10523
915.809	10645
915.921	10618
916.034	10481
916.146	10470
916.259	10375
916.371	10535
916.483	10481
916.595	10375
916.708	10432
916.82	10421
916.932	10306
917.044	10413
917.156	10447
917.268	10242
917.38	10291
917.491	10272
917.603	10322
917.715	10360
917.826	10367
917.938	10344
918.049	10211
918.161	10299
918.272	10474
918.384	10379
918.495	10295
918.606	10261
918.717	10188
918.828	10188
918.939	10291
919.05	10154
919.161	10131
919.272	9964
919.383	10090
919.494	10325
919.604	10409
919.715	10268
919.826	10071
919.936	10169
920.047	10200
920.157	10284
920.267	10371
920.378	10284
920.488	10169
920.598	10459
920.708	10596
920.818	10394
920.928	10421
921.038	10573
921.148	10531
921.258	10234
921.368	10101
921.477	10093
921.587	10128
921.697	9922
921.806	10021
921.916	10017
922.025	9808
922.134	9705
922.244	9720
922.353	9778
922.462	9656
922.571	9561
922.68	9462
922.789	9469
922.898	9526
923.007	9431
923.116	9450
923.224	9420
923.333	9378
923.442	9306
923.55	9332
923.659	9348
923.767	9351
923.876	9393
923.984	9428
924.092	9279
924.201	9355
924.309	9241
924.417	9329
924.525	9291
924.633	9291
924.741	10002
924.849	9116
924.956	9283
925.064	9085
925.172	9017
925.279	9119
925.387	9135
925.494	9062
925.602	9233
925.709	9123
925.816	9058
925.924	9123
926.031	9188
926.138	9077
926.245	9138
926.352	9001
926.459	9116
926.566	9192
926.673	9070
926.779	9028
926.886	8910
926.993	8823
927.099	8807
927.206	8777
927.312	8727
927.419	8929
927.525	8826
927.631	8880
927.737	8693
927.843	8686
927.95	8590
928.056	8724
928.162	8678
928.267	8758
928.373	9355
928.479	8785
928.585	8583
928.69	8644
928.796	8743
928.901	8640
929.007	8537
929.112	8590
929.218	8632
929.323	8571
929.428	8568
929.533	8708
929.638	8408
929.743	8530
929.848	8488
929.953	8526
930.058	8427
930.163	8256
930.267	8328
930.372	8446
930.477	8233
930.581	8522
930.685	8317
930.79	8225
930.894	8324
930.998	8210
931.103	8469
931.207	7997
931.311	7944
931.415	7944
931.519	7757
931.623	7761
