Data from test_V78500241_2216.txt Node
Date: Fri Mar 25 14:49:08 CST 2022
User: usil
Spectrometer: V785-0024
Trigger mode: 0
Integration Time (sec): 4.000000E-1
Scans to average: 1
Nonlinearity correction enabled: false
Boxcar width: 0
Storing dark spectrum: false
XAxis mode: Wavelengths
Number of Pixels in Spectrum: 1024
>>>>>Begin Spectral Data<<<<<
801.071	22150
801.214	22177
801.356	21816
801.499	21778
801.641	21603
801.783	21564
801.926	21492
802.068	21492
802.211	21370
802.353	21329
802.496	21093
802.638	21005
802.78	20918
802.923	20838
803.065	20743
803.208	20849
803.35	20849
803.492	20979
803.635	21077
803.777	20796
803.919	20861
804.061	21233
804.204	20906
804.346	20788
804.488	20644
804.63	20861
804.773	20705
804.915	20807
805.057	20933
805.199	20815
805.341	20815
805.483	20887
805.626	20857
805.768	20754
805.91	20750
806.052	20929
806.194	20724
806.336	20815
806.478	20788
806.62	20792
806.762	20960
806.904	21127
807.046	21340
807.188	21142
807.33	21123
807.472	21207
807.614	20982
807.756	21039
807.898	20952
808.04	20918
808.182	20773
808.324	20830
808.465	20948
808.607	21081
808.749	21176
808.891	21279
809.033	21230
809.174	21264
809.316	21096
809.458	21195
809.6	21089
809.741	21218
809.883	21222
810.025	21492
810.166	21275
810.308	21363
810.45	21264
810.591	21203
810.733	21074
810.875	20967
811.016	20906
811.158	20826
811.299	21066
811.441	21089
811.582	20990
811.724	21085
811.865	20880
812.007	20971
812.148	20910
812.29	21013
812.431	21070
812.573	21275
812.714	21348
812.855	21515
812.997	21523
813.138	21728
813.279	21500
813.421	21431
813.562	21351
813.703	21264
813.845	21100
813.986	20815
814.127	20644
814.268	20640
814.41	20564
814.551	20541
814.692	20473
814.833	20419
814.974	20446
815.115	20473
815.256	20351
815.397	20259
815.539	20313
815.68	20210
815.821	20233
815.962	20176
816.103	20214
816.244	19989
816.385	20054
816.526	19986
816.666	19784
816.807	19605
816.948	19715
817.089	19780
817.23	19731
817.371	19658
817.512	19632
817.653	19605
817.793	19548
817.934	19499
818.075	19586
818.216	19624
818.356	19559
818.497	19396
818.638	19251
818.778	19316
818.919	19392
819.06	19415
819.2	19510
819.341	19529
819.481	19533
819.622	19616
819.762	19811
819.903	19742
820.043	19738
820.184	19571
820.324	19670
820.465	19594
820.605	19624
820.746	19578
820.886	19457
821.026	19449
821.167	19476
821.307	19655
821.447	19540
821.588	19396
821.728	19297
821.868	19187
822.008	18932
822.149	19050
822.289	18882
822.429	18711
822.569	18764
822.709	18726
822.849	18532
822.99	18517
823.13	18498
823.27	18513
823.41	18304
823.55	18357
823.69	18357
823.83	18391
823.97	18232
824.11	18064
824.25	18140
824.389	18098
824.529	18076
824.669	18038
824.809	18136
824.949	18076
825.089	18121
825.228	18201
825.368	17927
825.508	17863
825.648	17965
825.787	17866
825.927	17893
826.067	17779
826.206	17878
826.346	17897
826.485	17927
826.625	17950
826.765	17996
826.904	17897
827.044	17615
827.183	17634
827.323	17581
827.462	17646
827.601	17467
827.741	17566
827.88	17642
828.02	17547
828.159	17493
828.298	17463
828.437	17528
828.577	17516
828.716	17646
828.855	17562
828.994	17345
829.134	17250
829.273	17311
829.412	17258
829.551	17356
829.69	17261
829.829	17345
829.968	17383
830.107	17421
830.246	17421
830.385	17159
830.524	17189
830.663	17288
830.802	17010
830.941	16953
831.08	16915
831.219	16915
831.357	16949
831.496	17239
831.635	16930
831.774	16847
831.913	16698
832.051	16786
832.19	16790
832.329	16740
832.467	16672
832.606	16565
832.744	16634
832.883	16569
833.022	16550
833.16	16664
833.299	16569
833.437	16626
833.576	16653
833.714	16721
833.852	16664
833.991	16691
834.129	16649
834.267	16717
834.406	16634
834.544	16748
834.682	16782
834.821	16531
834.959	16816
835.097	16649
835.235	16774
835.373	16626
835.511	16645
835.65	16512
835.788	16588
835.926	16497
836.064	16329
836.202	16481
836.34	16538
836.478	16565
836.615	16470
836.753	16569
836.891	16649
837.029	16569
837.167	16493
837.305	16428
837.443	16508
837.58	16512
837.718	16504
837.856	16398
837.993	16432
838.131	16322
838.269	16257
838.406	16390
838.544	16261
838.681	16188
838.819	16192
838.956	15930
839.094	15915
839.231	16029
839.369	16048
839.506	16329
839.643	16322
839.781	15991
839.918	15945
840.055	16010
840.193	15930
840.33	15941
840.467	15964
840.604	16013
840.742	16150
840.879	15865
841.016	15846
841.153	15880
841.29	16105
841.427	16021
841.564	16032
841.701	15956
841.838	15895
841.975	15888
842.112	15907
842.249	15743
842.385	15739
842.522	15949
842.659	15739
842.796	15648
842.933	15759
843.069	15587
843.206	15663
843.343	15778
843.479	15739
843.616	15717
843.752	15545
843.889	15580
844.025	15660
844.162	15553
844.298	15663
844.435	15492
844.571	15504
844.708	15534
844.844	15656
844.98	15690
845.117	15667
845.253	15359
845.389	15439
845.525	15534
845.661	15488
845.798	15336
845.934	15458
846.07	15275
846.206	15275
846.342	15542
846.478	15230
846.614	15165
846.75	15108
846.886	15028
847.022	15207
847.158	15081
847.294	15062
847.429	15127
847.565	15062
847.701	15332
847.837	14796
847.972	14899
848.108	14811
848.244	14921
848.379	14769
848.515	14659
848.65	14739
848.786	14705
848.921	14663
849.057	14811
849.192	14777
849.328	14701
849.463	14606
849.598	14697
849.734	14625
849.869	14530
850.004	14495
850.14	14446
850.275	14499
850.41	14438
850.545	14423
850.68	14427
850.815	14480
850.95	14351
851.085	14549
851.22	14651
851.355	14499
851.49	14434
851.625	14404
851.76	14389
851.895	14370
852.03	14377
852.165	14366
852.299	14419
852.434	14575
852.569	14419
852.703	14454
852.838	14514
852.973	14602
853.107	14583
853.242	14370
853.376	14381
853.511	14221
853.645	14305
853.78	14419
853.914	14381
854.048	14294
854.183	14271
854.317	14351
854.451	14507
854.585	14294
854.72	14305
854.854	14336
854.988	14229
855.122	14324
855.256	14202
855.39	14282
855.524	14511
855.658	14434
855.792	14385
855.926	14320
856.06	14381
856.194	14393
856.327	14301
856.461	14317
856.595	14286
856.729	14347
856.862	14434
856.996	14454
857.13	14351
857.263	14446
857.397	14492
857.53	14317
857.664	14347
857.797	14484
857.931	14499
858.064	14377
858.197	14374
858.331	14309
858.464	14282
858.597	14202
858.731	14298
858.864	14233
858.997	14305
859.13	14225
859.263	14339
859.396	14427
859.529	14286
859.662	14278
859.795	14328
859.928	14442
860.061	14507
860.194	14469
860.327	14366
860.46	14332
860.592	14495
860.725	14530
860.858	14507
860.99	14286
861.123	14199
861.256	14286
861.388	14298
861.521	14906
861.653	14309
861.786	14248
861.918	14084
862.05	14214
862.183	14294
862.315	14400
862.447	14366
862.58	14202
862.712	14161
862.844	13993
862.976	14107
863.108	14183
863.24	14495
863.372	14008
863.504	14123
863.636	14088
863.768	14073
863.9	14142
864.032	14050
864.164	14069
864.296	14126
864.428	14191
864.559	14202
864.691	14180
864.823	14176
864.954	14237
865.086	14218
865.217	14100
865.349	14020
865.48	14111
865.612	14237
865.743	14347
865.875	14157
866.006	14096
866.137	14119
866.269	14069
866.4	14130
866.531	14123
866.662	13997
866.793	14031
866.924	14172
867.055	14119
867.186	14088
867.317	14081
867.448	14016
867.579	14001
867.71	14092
867.841	13993
867.972	14100
868.103	14084
868.233	14035
868.364	14088
868.495	14096
868.625	14351
868.756	14355
868.886	14214
869.017	14336
869.147	14526
869.278	14419
869.408	14336
869.539	14400
869.669	14339
869.799	14404
869.929	14473
870.06	14590
870.19	14632
870.32	14602
870.45	14655
870.58	14800
870.71	14773
870.84	14720
870.97	14800
871.1	14583
871.23	14902
871.36	14868
871.489	14842
871.619	14868
871.749	14891
871.879	14944
872.008	15146
872.138	14933
872.267	14830
872.397	14902
872.526	14777
872.656	14712
872.785	14769
872.915	14971
873.044	14971
873.173	14872
873.303	15077
873.432	15017
873.561	15051
873.69	15013
873.819	14990
873.948	15070
874.077	15028
874.206	14914
874.335	14986
874.464	15135
874.593	15211
874.722	15123
874.851	15367
874.979	15393
875.108	15310
875.237	15264
875.365	15207
875.494	15275
875.623	15401
875.751	15207
875.88	15306
876.008	15492
876.136	15511
876.265	15671
876.393	15816
876.521	15770
876.65	15759
876.778	15694
876.906	15576
877.034	15660
877.162	15679
877.29	15591
877.418	15671
877.546	15717
877.674	15663
877.802	15709
877.93	15717
878.058	15728
878.185	15561
878.313	15739
878.441	15717
878.568	15530
878.696	15667
878.824	15770
878.951	15755
879.079	15911
879.206	15972
879.333	15884
879.461	15739
879.588	15831
879.715	15842
879.842	15956
879.97	15846
880.097	15580
880.224	15401
880.351	15614
880.478	15637
880.605	15420
880.732	15580
880.859	15838
880.986	15572
881.112	15549
881.239	15439
881.366	15386
881.493	15249
881.619	15142
881.746	15256
881.872	15260
881.999	15104
882.125	15188
882.252	15291
882.378	15302
882.505	15374
882.631	15138
882.757	14975
882.883	15108
883.01	15001
883.136	14971
883.262	14929
883.388	14941
883.514	15051
883.64	14994
883.766	14933
883.892	14838
884.018	14876
884.143	14982
884.269	15089
884.395	14769
884.52	14651
884.646	14682
884.772	14659
884.897	14617
885.023	14796
885.148	14845
885.274	14944
885.399	14796
885.524	14708
885.65	14682
885.775	14667
885.9	14743
886.025	14914
886.15	14781
886.275	14724
886.4	14697
886.525	14731
886.65	14541
886.775	14678
886.9	14811
887.025	14944
887.149	14682
887.274	14556
887.399	14507
887.523	14575
887.648	14454
887.773	14431
887.897	14579
888.021	14686
888.146	14575
888.27	14594
888.395	14693
888.519	14552
888.643	14625
888.767	14670
888.891	14431
889.015	14370
889.139	14446
889.263	14366
889.387	14556
889.511	14606
889.635	14541
889.759	14442
889.883	14473
890.006	14400
890.13	14511
890.254	14385
890.377	14412
890.501	14362
890.624	14202
890.748	14237
890.871	14119
890.995	14183
891.118	14073
891.241	14077
891.364	14168
891.488	14229
891.611	14058
891.734	14202
891.857	14252
891.98	14123
892.103	14172
892.226	14195
892.349	14088
892.471	13967
892.594	14031
892.717	14119
892.839	14145
892.962	14145
893.085	14103
893.207	14103
893.33	14027
893.452	13932
893.575	14218
893.697	14119
893.819	14263
893.941	14290
894.064	14180
894.186	14088
894.308	14043
894.43	14309
894.552	14351
894.674	14332
894.796	14111
894.918	14168
895.04	14081
895.161	14324
895.283	14256
895.405	14157
895.526	14202
895.648	14149
895.769	14309
895.891	14256
896.012	14347
896.134	14252
896.255	14275
896.376	14278
896.498	14252
896.619	14275
896.74	14347
896.861	14290
896.982	14632
897.103	14701
897.224	14598
897.345	14514
897.466	14522
897.587	14583
897.708	14758
897.828	14476
897.949	14465
898.07	14480
898.19	14568
898.311	14686
898.431	14579
898.552	14629
898.672	14758
898.792	14644
898.913	14632
899.033	14613
899.153	14552
899.273	14442
899.393	14484
899.513	14594
899.633	14617
899.753	14507
899.873	14461
899.993	14610
900.113	14484
900.232	14533
900.352	14442
900.472	14454
900.591	14313
900.711	14339
900.83	14225
900.95	14492
901.069	14564
901.189	14358
901.308	14153
901.427	14046
901.546	14065
901.665	14096
901.784	14031
901.904	13982
902.023	13921
902.141	13674
902.26	13628
902.379	13651
902.498	13537
902.617	13533
902.735	13674
902.854	13639
902.973	13468
903.091	13392
903.21	13324
903.328	13346
903.446	13194
903.565	13255
903.683	13129
903.801	13088
903.919	13171
904.038	13107
904.156	12962
904.274	13050
904.392	13031
904.51	12966
904.627	12909
904.745	13057
904.863	13038
904.981	12745
905.098	12760
905.216	12658
905.334	12726
905.451	12642
905.569	12662
905.686	12787
905.803	12745
905.921	12506
906.038	12612
906.155	12475
906.272	12422
906.389	12414
906.506	12232
906.623	12273
906.74	12277
906.857	12182
906.974	12300
907.091	12418
907.208	12334
907.324	12235
907.441	12220
907.557	12038
907.674	11999
907.79	11980
907.907	11980
908.023	12110
908.139	12022
908.256	11980
908.372	11942
908.488	11923
908.604	11843
908.72	11726
908.836	11798
908.952	11737
909.068	11817
909.184	11893
909.3	11760
909.415	11866
909.531	11752
909.647	11581
909.762	11566
909.878	11493
909.993	11627
910.108	11512
910.224	11501
910.339	11539
910.454	11406
910.57	11395
910.685	11421
910.8	11604
910.915	11528
911.03	11425
911.145	11261
911.259	11140
911.374	11261
911.489	11197
911.604	11113
911.718	11006
911.833	10991
911.947	10980
912.062	10877
912.176	10991
912.291	11033
912.405	11037
912.519	11166
912.633	11227
912.748	11117
912.862	11060
912.976	10843
913.09	10793
913.204	10767
913.318	10953
913.431	11067
913.545	11006
913.659	11098
913.772	10881
913.886	10752
914	10714
914.113	10850
914.226	10869
914.34	10805
914.453	10721
914.566	10847
914.68	10717
914.793	10702
914.906	10577
915.019	10459
915.132	10348
915.245	10428
915.358	10531
915.47	10485
915.583	10577
915.696	10542
915.809	10607
915.921	10596
916.034	10413
916.146	10440
916.259	10470
916.371	10577
916.483	10538
916.595	10394
916.708	10398
916.82	10367
916.932	10371
917.044	10402
917.156	10314
917.268	10291
917.38	10303
917.491	10363
917.603	10348
917.715	10451
917.826	10474
917.938	10360
918.049	10249
918.161	10306
918.272	10542
918.384	10470
918.495	10337
918.606	10257
918.717	10143
918.828	10230
918.939	10272
919.05	10116
919.161	10185
919.272	9991
919.383	10071
919.494	10337
919.604	10386
919.715	10166
919.826	10188
919.936	10200
920.047	10329
920.157	10143
920.267	10432
920.378	10348
920.488	10272
920.598	10417
920.708	10550
920.818	10356
920.928	10390
921.038	10580
921.148	10531
921.258	10238
921.368	10128
921.477	10093
921.587	10036
921.697	9987
921.806	10143
921.916	9979
922.025	9785
922.134	9876
922.244	9652
922.353	9842
922.462	9663
922.571	9682
922.68	9496
922.789	9477
922.898	9542
923.007	9386
923.116	9447
923.224	9515
923.333	9439
923.442	9382
923.55	9344
923.659	9408
923.767	9466
923.876	9348
923.984	9416
924.092	9214
924.201	9408
924.309	9344
924.417	9386
924.525	9351
924.633	9264
924.741	10249
924.849	9085
924.956	9302
925.064	9123
925.172	9070
925.279	9074
925.387	9116
925.494	9146
925.602	9287
925.709	9161
925.816	9077
925.924	9142
926.031	9192
926.138	9127
926.245	9108
926.352	9028
926.459	9264
926.566	9142
926.673	9138
926.779	8948
926.886	8986
926.993	8872
927.099	8891
927.206	8819
927.312	8857
927.419	8834
927.525	8830
927.631	8933
927.737	8773
927.843	8746
927.95	8621
928.056	8758
928.162	8697
928.267	8796
928.373	9367
928.479	8902
928.585	8579
928.69	8693
928.796	8766
928.901	8716
929.007	8556
929.112	8644
929.218	8640
929.323	8564
929.428	8610
929.533	8670
929.638	8530
929.743	8530
929.848	8598
929.953	8499
930.058	8499
930.163	8294
930.267	8358
930.372	8541
930.477	8286
930.581	8545
930.685	8374
930.79	8320
930.894	8271
930.998	8210
931.103	8473
931.207	8020
931.311	8084
931.415	7940
931.519	7818
931.623	7788
