Data from test_V78500241_506.txt Node
Date: Fri Mar 25 14:37:14 CST 2022
User: usil
Spectrometer: V785-0024
Trigger mode: 0
Integration Time (sec): 4.000000E-1
Scans to average: 1
Nonlinearity correction enabled: false
Boxcar width: 0
Storing dark spectrum: false
XAxis mode: Wavelengths
Number of Pixels in Spectrum: 1024
>>>>>Begin Spectral Data<<<<<
801.071	26918
801.214	26845
801.356	26720
801.499	26488
801.641	26400
801.783	26309
801.926	26484
802.068	26210
802.211	26138
802.353	26062
802.496	25898
802.638	25856
802.78	25734
802.923	25830
803.065	25674
803.208	25708
803.35	25689
803.492	25833
803.635	25966
803.777	25757
803.919	25807
804.061	26096
804.204	25833
804.346	25791
804.488	25738
804.63	25738
804.773	25647
804.915	25723
805.057	25890
805.199	25689
805.341	25700
805.483	25856
805.626	25769
805.768	25765
805.91	25841
806.052	25890
806.194	25769
806.336	25917
806.478	25795
806.62	25894
806.762	25906
806.904	26233
807.046	26332
807.188	26237
807.33	26385
807.472	26393
807.614	26427
807.756	26450
807.898	26461
808.04	26415
808.182	26693
808.324	27017
808.465	27313
808.607	27736
808.749	27903
808.891	28158
809.033	28306
809.174	27975
809.316	27606
809.458	27363
809.6	27222
809.741	26940
809.883	26830
810.025	26845
810.166	26746
810.308	26743
810.45	26537
810.591	26511
810.733	26275
810.875	26183
811.016	26202
811.158	26092
811.299	26404
811.441	26594
811.582	26351
811.724	26180
811.865	26134
812.007	26111
812.148	26092
812.29	26142
812.431	26278
812.573	26309
812.714	26351
812.855	26598
812.997	26621
813.138	26754
813.279	26727
813.421	26568
813.562	26507
813.703	26275
813.845	26206
813.986	25860
814.127	25776
814.268	25643
814.41	25689
814.551	25514
814.692	25658
814.833	25639
814.974	25537
815.115	25495
815.256	25426
815.397	25324
815.539	25285
815.68	25449
815.821	25339
815.962	25434
816.103	25206
816.244	25046
816.385	24954
816.526	25019
816.666	24825
816.807	24703
816.948	24787
817.089	24844
817.23	24734
817.371	24631
817.512	24684
817.653	24658
817.793	24631
817.934	24791
818.075	24684
818.216	24627
818.356	24532
818.497	24517
818.638	24319
818.778	24361
818.919	24429
819.06	24410
819.2	24384
819.341	24608
819.481	24593
819.622	24658
819.762	24958
819.903	24787
820.043	24802
820.184	24620
820.324	24620
820.465	24749
820.605	24795
820.746	24642
820.886	24623
821.026	24631
821.167	24688
821.307	24612
821.447	24502
821.588	24437
821.728	24292
821.868	24129
822.008	23992
822.149	24022
822.289	24007
822.429	23745
822.569	23802
822.709	23615
822.849	23440
822.99	23379
823.13	23474
823.27	23299
823.41	23223
823.55	23277
823.69	23193
823.83	23220
823.97	23143
824.11	22946
824.25	22908
824.389	22915
824.529	23071
824.669	23006
824.809	23071
824.949	23090
825.089	22991
825.228	23060
825.368	22778
825.508	22820
825.648	22801
825.787	22927
825.927	22854
826.067	22744
826.206	22721
826.346	22816
826.485	22774
826.625	22694
826.765	22930
826.904	22835
827.044	22615
827.183	22421
827.323	22470
827.462	22413
827.601	22573
827.741	22474
827.88	22565
828.02	22333
828.159	22310
828.298	22413
828.437	22337
828.577	22470
828.716	22531
828.855	22405
828.994	22154
829.134	22090
829.273	22124
829.412	22021
829.551	22040
829.69	22116
829.829	22147
829.968	22109
830.107	22143
830.246	22162
830.385	22013
830.524	22051
830.663	21899
830.802	21880
830.941	21717
831.08	21774
831.219	21804
831.357	21873
831.496	21793
831.635	21800
831.774	21785
831.913	21641
832.051	21576
832.19	21450
832.329	21564
832.467	21431
832.606	21412
832.744	21252
832.883	21310
833.022	21294
833.16	21302
833.299	21401
833.437	21416
833.576	21511
833.714	21553
833.852	21511
833.991	21557
834.129	21637
834.267	21454
834.406	21561
834.544	21428
834.682	21401
834.821	21401
834.959	21572
835.097	21359
835.235	21599
835.373	21329
835.511	21401
835.65	21294
835.788	21245
835.926	21161
836.064	21077
836.202	21066
836.34	21306
836.478	21252
836.615	21161
836.753	21154
836.891	21283
837.029	21329
837.167	21135
837.305	21055
837.443	21199
837.58	20944
837.718	21116
837.856	21184
837.993	20986
838.131	21093
838.269	20883
838.406	20929
838.544	20895
838.681	20655
838.819	20804
838.956	20556
839.094	20480
839.231	20495
839.369	20705
839.506	20838
839.643	20769
839.781	20571
839.918	20324
840.055	20545
840.193	20492
840.33	20339
840.467	20488
840.604	20389
840.742	20651
840.879	20263
841.016	20332
841.153	20278
841.29	20522
841.427	20339
841.564	20457
841.701	20313
841.838	20256
841.975	20225
842.112	20351
842.249	20176
842.385	20031
842.522	20301
842.659	20275
842.796	20134
842.933	20191
843.069	20054
843.206	19978
843.343	20206
843.479	20115
843.616	20054
843.752	19887
843.889	19986
844.025	20130
844.162	19898
844.298	19955
844.435	19913
844.571	19974
844.708	20065
844.844	20062
844.98	20058
845.117	20221
845.253	20172
845.389	20130
845.525	20366
845.661	20826
845.798	21252
845.934	21869
846.07	21800
846.206	21888
846.342	21656
846.478	20967
846.614	20282
846.75	19826
846.886	19685
847.022	19655
847.158	19426
847.294	19438
847.429	19430
847.565	19445
847.701	19685
847.837	19114
847.972	19084
848.108	19278
848.244	19187
848.379	18928
848.515	19031
848.65	18821
848.786	18798
848.921	18833
849.057	18977
849.192	18947
849.328	18924
849.463	19004
849.598	18859
849.734	18749
849.869	18829
850.004	18760
850.14	18646
850.275	18688
850.41	18604
850.545	18673
850.68	18654
850.815	18677
850.95	18589
851.085	18798
851.22	18791
851.355	18665
851.49	18582
851.625	18486
851.76	18525
851.895	18418
852.03	18513
852.165	18563
852.299	18566
852.434	18764
852.569	18707
852.703	18703
852.838	18833
852.973	18707
853.107	18734
853.242	18642
853.376	18388
853.511	18456
853.645	18456
853.78	18502
853.914	18555
854.048	18350
854.183	18399
854.317	18437
854.451	18593
854.585	18486
854.72	18490
854.854	18589
854.988	18448
855.122	18407
855.256	18270
855.39	18414
855.524	18448
855.658	18486
855.792	18506
855.926	18433
856.06	18479
856.194	18578
856.327	18467
856.461	18311
856.595	18277
856.729	18437
856.862	18597
856.996	18570
857.13	18475
857.263	18566
857.397	18540
857.53	18311
857.664	18418
857.797	18506
857.931	18441
858.064	18574
858.197	18532
858.331	18319
858.464	18330
858.597	18376
858.731	18380
858.864	18361
858.997	18429
859.13	18441
859.263	18384
859.396	18486
859.529	18330
859.662	18422
859.795	18346
859.928	18300
860.061	18475
860.194	18540
860.327	18296
860.46	18338
860.592	18388
860.725	18445
860.858	18467
860.99	18357
861.123	18254
861.256	18270
861.388	18369
861.521	19171
861.653	18285
861.786	18186
861.918	18224
862.05	18391
862.183	18346
862.315	18448
862.447	18494
862.58	18353
862.712	18205
862.844	18152
862.976	18300
863.108	18163
863.24	18563
863.372	18060
863.504	18136
863.636	18110
863.768	18171
863.9	18026
864.032	18041
864.164	18053
864.296	18064
864.428	18163
864.559	18144
864.691	18163
864.823	18064
864.954	18114
865.086	18003
865.217	18110
865.349	17870
865.48	17973
865.612	18041
865.743	18083
865.875	17999
866.006	17996
866.137	18003
866.269	18026
866.4	18026
866.531	17832
866.662	17893
866.793	17988
866.924	17920
867.055	17984
867.186	17984
867.317	17916
867.448	17908
867.579	17950
867.71	17843
867.841	17783
867.972	17920
868.103	17931
868.233	18041
868.364	17897
868.495	17958
868.625	18136
868.756	18281
868.886	18079
869.017	18178
869.147	18266
869.278	18380
869.408	18209
869.539	18133
869.669	18216
869.799	18239
869.929	18315
870.06	18224
870.19	18445
870.32	18426
870.45	18551
870.58	18551
870.71	18719
870.84	18623
870.97	18601
871.1	18631
871.23	18757
871.36	18829
871.489	18798
871.619	18753
871.749	18810
871.879	18741
872.008	18901
872.138	18833
872.267	18681
872.397	18642
872.526	18563
872.656	18635
872.785	18757
872.915	18821
873.044	18882
873.173	18783
873.303	18909
873.432	18901
873.561	19057
873.69	18939
873.819	18840
873.948	18878
874.077	18924
874.206	18753
874.335	18806
874.464	18916
874.593	19156
874.722	19129
874.851	19160
874.979	19137
875.108	19213
875.237	19061
875.365	19038
875.494	19198
875.623	19285
875.751	19183
875.88	19255
876.008	19350
876.136	19445
876.265	19586
876.393	19753
876.521	19628
876.65	19639
876.778	19521
876.906	19590
877.034	19590
877.162	19594
877.29	19476
877.418	19556
877.546	19647
877.674	19670
877.802	19628
877.93	19624
878.058	19696
878.185	19613
878.313	19651
878.441	19723
878.568	19582
878.696	19746
878.824	19925
878.951	20062
879.079	20122
879.206	20465
879.333	20564
879.461	20583
879.588	20705
879.715	20800
879.842	20853
879.97	20606
880.097	20115
880.224	19909
880.351	19898
880.478	19776
880.605	19795
880.732	19693
880.859	19940
880.986	19784
881.112	19719
881.239	19495
881.366	19430
881.493	19449
881.619	19297
881.746	19373
881.872	19278
881.999	19297
882.125	19194
882.252	19278
882.378	19282
882.505	19388
882.631	19206
882.757	19244
882.883	19190
883.01	18981
883.136	19004
883.262	18970
883.388	18977
883.514	19076
883.64	19110
883.766	18973
883.892	18810
884.018	18863
884.143	18977
884.269	18996
884.395	18749
884.52	18604
884.646	18757
884.772	18814
884.897	18585
885.023	18707
885.148	18730
885.274	18871
885.399	18802
885.524	18726
885.65	18745
885.775	18711
885.9	18635
886.025	18817
886.15	18696
886.275	18517
886.4	18654
886.525	18570
886.65	18395
886.775	18544
886.9	18749
887.025	18776
887.149	18585
887.274	18418
887.399	18292
887.523	18308
887.648	18273
887.773	18296
887.897	18357
888.021	18319
888.146	18289
888.27	18399
888.395	18395
888.519	18254
888.643	18433
888.767	18319
888.891	18220
889.015	18045
889.139	18182
889.263	18186
889.387	18296
889.511	18330
889.635	18243
889.759	17908
889.883	18038
890.006	18087
890.13	18308
890.254	17961
890.377	18007
890.501	17802
890.624	17779
890.748	17817
890.871	17714
890.995	17627
891.118	17710
891.241	17718
891.364	17554
891.488	17737
891.611	17722
891.734	17676
891.857	17684
891.98	17703
892.103	17718
892.226	17684
892.349	17585
892.471	17448
892.594	17554
892.717	17596
892.839	17619
892.962	17665
893.085	17661
893.207	17745
893.33	17497
893.452	17562
893.575	17627
893.697	17471
893.819	17794
893.941	17901
894.064	17726
894.186	17532
894.308	17524
894.43	17653
894.552	17684
894.674	17676
894.796	17539
894.918	17577
895.04	17455
895.161	17687
895.283	17608
895.405	17589
895.526	17589
895.648	17657
895.769	17646
895.891	17615
896.012	17764
896.134	17661
896.255	17623
896.376	17737
896.498	17634
896.619	17672
896.74	17585
896.861	17767
896.982	17988
897.103	18102
897.224	17946
897.345	17790
897.466	17969
897.587	17901
897.708	18095
897.828	17988
897.949	17878
898.07	17752
898.19	17805
898.311	18011
898.431	17882
898.552	17950
898.672	17984
898.792	18136
898.913	17824
899.033	17748
899.153	17623
899.273	17634
899.393	17676
899.513	17661
899.633	17646
899.753	17722
899.873	17672
899.993	17760
900.113	17604
900.232	17836
900.352	17691
900.472	17600
900.591	17493
900.711	17532
900.83	17630
900.95	17672
901.069	17562
901.189	17421
901.308	17311
901.427	17128
901.546	17170
901.665	17231
901.784	17227
901.904	17090
902.023	16968
902.141	16656
902.26	16691
902.379	16744
902.498	16660
902.617	16615
902.735	16698
902.854	16653
902.973	16504
903.091	16314
903.21	16314
903.328	16234
903.446	16253
903.565	16200
903.683	16200
903.801	16097
903.919	16112
904.038	16071
904.156	15899
904.274	15972
904.392	15934
904.51	15953
904.627	15854
904.745	15972
904.863	16055
904.981	15629
905.098	15561
905.216	15466
905.334	15652
905.451	15606
905.569	15622
905.686	15652
905.803	15526
905.921	15443
906.038	15488
906.155	15382
906.272	15252
906.389	15329
906.506	15214
906.623	15146
906.74	15169
906.857	14921
906.974	14952
907.091	15013
907.208	15241
907.324	15192
907.441	15039
907.557	14895
907.674	14883
907.79	14792
907.907	14731
908.023	14823
908.139	14777
908.256	14750
908.372	14697
908.488	14746
908.604	14552
908.72	14503
908.836	14590
908.952	14480
909.068	14454
909.184	14625
909.3	14541
909.415	14518
909.531	14545
909.647	14248
909.762	14271
909.878	14244
909.993	14123
910.108	14240
910.224	14161
910.339	14225
910.454	14084
910.57	14092
910.685	13940
910.8	14282
910.915	14221
911.03	14065
911.145	13909
911.259	13871
911.374	13791
911.489	13769
911.604	13738
911.718	13571
911.833	13655
911.947	13529
912.062	13339
912.176	13578
912.291	13586
912.405	13628
912.519	13780
912.633	13769
912.748	13632
912.862	13594
912.976	13419
913.09	13293
913.204	13240
913.318	13449
913.431	13491
913.545	13552
913.659	13685
913.772	13491
913.886	13381
914	13346
914.113	13407
914.226	13483
914.34	13362
914.453	13198
914.566	13282
914.68	13244
914.793	13206
914.906	12996
915.019	12901
915.132	12878
915.245	12958
915.358	12951
915.47	13008
915.583	12943
915.696	12958
915.809	13122
915.921	13149
916.034	12924
916.146	12825
916.259	12837
916.371	12901
916.483	12970
916.595	12738
916.708	12863
916.82	12715
916.932	12749
917.044	12791
917.156	12894
917.268	12662
917.38	12837
917.491	12673
917.603	12700
917.715	12753
917.826	12825
917.938	12764
918.049	12502
918.161	12650
918.272	12848
918.384	12798
918.495	12589
918.606	12566
918.717	12418
918.828	12551
918.939	12422
919.05	12483
919.161	12448
919.272	12273
919.383	12429
919.494	12490
919.604	12692
919.715	12502
919.826	12410
919.936	12369
920.047	12502
920.157	12521
920.267	12673
920.378	12467
920.488	12445
920.598	12585
920.708	12798
920.818	12665
920.928	12578
921.038	12787
921.148	12738
921.258	12361
921.368	12395
921.477	12228
921.587	12323
921.697	12144
921.806	12273
921.916	12106
922.025	11984
922.134	11961
922.244	11817
922.353	11889
922.462	11809
922.571	11668
922.68	11562
922.789	11558
922.898	11566
923.007	11471
923.116	11535
923.224	11482
923.333	11509
923.442	11379
923.55	11433
923.659	11467
923.767	11512
923.876	11360
923.984	11414
924.092	11231
924.201	11349
924.309	11330
924.417	11360
924.525	11292
924.633	11246
924.741	12148
924.849	11136
924.956	11197
925.064	11102
925.172	11029
925.279	11018
925.387	11140
925.494	11132
925.602	11220
925.709	11143
925.816	11025
925.924	11117
926.031	11113
926.138	11003
926.245	11223
926.352	10968
926.459	11178
926.566	11159
926.673	10991
926.779	10862
926.886	10877
926.993	10824
927.099	10778
927.206	10694
927.312	10683
927.419	10786
927.525	10717
927.631	10717
927.737	10611
927.843	10519
927.95	10481
928.056	10611
928.162	10592
928.267	10516
928.373	11174
928.479	10683
928.585	10413
928.69	10592
928.796	10561
928.901	10512
929.007	10322
929.112	10489
929.218	10398
929.323	10318
929.428	10371
929.533	10516
929.638	10344
929.743	10234
929.848	10344
929.953	10261
930.058	10227
930.163	10082
930.267	10086
930.372	10173
930.477	10017
930.581	10284
930.685	10181
930.79	9930
930.894	10048
930.998	9972
931.103	10071
931.207	9743
931.311	9656
931.415	9591
931.519	9515
931.623	9458
