Data from test_V78500241_2711.txt Node
Date: Fri Mar 25 14:52:35 CST 2022
User: usil
Spectrometer: V785-0024
Trigger mode: 0
Integration Time (sec): 4.000000E-1
Scans to average: 1
Nonlinearity correction enabled: false
Boxcar width: 0
Storing dark spectrum: false
XAxis mode: Wavelengths
Number of Pixels in Spectrum: 1024
>>>>>Begin Spectral Data<<<<<
801.071	21956
801.214	21926
801.356	21766
801.499	21637
801.641	21336
801.783	21435
801.926	21306
802.068	21340
802.211	21317
802.353	21222
802.496	20941
802.638	20902
802.78	20800
802.923	20629
803.065	20678
803.208	20659
803.35	20670
803.492	20838
803.635	20842
803.777	20727
803.919	20716
804.061	21203
804.204	20845
804.346	20663
804.488	20716
804.63	20727
804.773	20609
804.915	20708
805.057	20708
805.199	20632
805.341	20689
805.483	20720
805.626	20720
805.768	20587
805.91	20651
806.052	20682
806.194	20549
806.336	20792
806.478	20667
806.62	20568
806.762	20773
806.904	20804
807.046	21085
807.188	20937
807.33	20914
807.472	21085
807.614	20918
807.756	20918
807.898	20743
808.04	20682
808.182	20739
808.324	20781
808.465	20834
808.607	20971
808.749	21028
808.891	21131
809.033	21195
809.174	21127
809.316	21001
809.458	21020
809.6	20979
809.741	20998
809.883	21176
810.025	21142
810.166	21176
810.308	21161
810.45	21112
810.591	21024
810.733	20941
810.875	20853
811.016	20552
811.158	20659
811.299	20826
811.441	20910
811.582	20838
811.724	20796
811.865	20785
812.007	20716
812.148	20754
812.29	20712
812.431	20887
812.573	20952
812.714	21085
812.855	21260
812.997	21294
813.138	21401
813.279	21287
813.421	21306
813.562	21199
813.703	21009
813.845	20963
813.986	20625
814.127	20541
814.268	20389
814.41	20499
814.551	20366
814.692	20488
814.833	20233
814.974	20317
815.115	20328
815.256	20229
815.397	20202
815.539	20221
815.68	20134
815.821	19970
815.962	20058
816.103	20008
816.244	19875
816.385	19799
816.526	19750
816.666	19655
816.807	19506
816.948	19548
817.089	19597
817.23	19377
817.371	19457
817.512	19434
817.653	19582
817.793	19438
817.934	19407
818.075	19487
818.216	19392
818.356	19312
818.497	19331
818.638	19103
818.778	19156
818.919	19152
819.06	19209
819.2	19270
819.341	19320
819.481	19392
819.622	19537
819.762	19647
819.903	19533
820.043	19567
820.184	19472
820.324	19354
820.465	19601
820.605	19518
820.746	19510
820.886	19320
821.026	19563
821.167	19365
821.307	19491
821.447	19346
821.588	19339
821.728	19103
821.868	18966
822.008	18768
822.149	18856
822.289	18905
822.429	18665
822.569	18544
822.709	18517
822.849	18448
822.99	18353
823.13	18410
823.27	18296
823.41	18182
823.55	18114
823.69	18209
823.83	18190
823.97	18083
824.11	17893
824.25	17889
824.389	17912
824.529	18083
824.669	17977
824.809	17988
824.949	17927
825.089	18049
825.228	17920
825.368	17649
825.508	17695
825.648	17687
825.787	17745
825.927	17691
826.067	17672
826.206	17638
826.346	17695
826.485	17741
826.625	17653
826.765	17676
826.904	17707
827.044	17570
827.183	17391
827.323	17421
827.462	17532
827.601	17307
827.741	17273
827.88	17440
828.02	17353
828.159	17288
828.298	17516
828.437	17505
828.577	17395
828.716	17452
828.855	17277
828.994	17204
829.134	17094
829.273	17204
829.412	17117
829.551	17094
829.69	17128
829.829	17159
829.968	17208
830.107	17208
830.246	17269
830.385	17143
830.524	17128
830.663	16927
830.802	16862
830.941	16736
831.08	16782
831.219	16831
831.357	16858
831.496	17037
831.635	16797
831.774	16656
831.913	16630
832.051	16618
832.19	16489
832.329	16592
832.467	16538
832.606	16512
832.744	16466
832.883	16455
833.022	16333
833.16	16512
833.299	16497
833.437	16558
833.576	16470
833.714	16443
833.852	16538
833.991	16478
834.129	16508
834.267	16611
834.406	16558
834.544	16519
834.682	16584
834.821	16554
834.959	16668
835.097	16417
835.235	16603
835.373	16470
835.511	16478
835.65	16462
835.788	16466
835.926	16284
836.064	16226
836.202	16268
836.34	16424
836.478	16504
836.615	16447
836.753	16516
836.891	16428
837.029	16443
837.167	16413
837.305	16398
837.443	16310
837.58	16280
837.718	16272
837.856	16280
837.993	16268
838.131	16268
838.269	16219
838.406	16177
838.544	16154
838.681	16010
838.819	15956
838.956	15880
839.094	15907
839.231	16021
839.369	16021
839.506	16268
839.643	16147
839.781	15892
839.918	15869
840.055	15865
840.193	15880
840.33	15876
840.467	15850
840.604	15941
840.742	16196
840.879	15739
841.016	15827
841.153	15808
841.29	15907
841.427	15854
841.564	15922
841.701	15937
841.838	15831
841.975	15819
842.112	15835
842.249	15667
842.385	15625
842.522	15778
842.659	15819
842.796	15576
842.933	15686
843.069	15648
843.206	15606
843.343	15800
843.479	15637
843.616	15648
843.752	15393
843.889	15382
844.025	15500
844.162	15405
844.298	15443
844.435	15507
844.571	15370
844.708	15473
844.844	15587
844.98	15644
845.117	15473
845.253	15386
845.389	15329
845.525	15378
845.661	15317
845.798	15203
845.934	15272
846.07	15230
846.206	15306
846.342	15382
846.478	15272
846.614	15024
846.75	14998
846.886	14994
847.022	15146
847.158	14933
847.294	15028
847.429	15032
847.565	14998
847.701	15249
847.837	14811
847.972	14682
848.108	14834
848.244	14750
848.379	14648
848.515	14648
848.65	14564
848.786	14590
848.921	14682
849.057	14678
849.192	14727
849.328	14670
849.463	14648
849.598	14518
849.734	14590
849.869	14400
850.004	14377
850.14	14488
850.275	14343
850.41	14214
850.545	14301
850.68	14336
850.815	14366
850.95	14415
851.085	14545
851.22	14438
851.355	14431
851.49	14423
851.625	14339
851.76	14377
851.895	14161
852.03	14332
852.165	14415
852.299	14404
852.434	14358
852.569	14377
852.703	14377
852.838	14446
852.973	14530
853.107	14511
853.242	14347
853.376	14259
853.511	14138
853.645	14157
853.78	14298
853.914	14294
854.048	14275
854.183	14092
854.317	14248
854.451	14495
854.585	14237
854.72	14252
854.854	14389
854.988	14161
855.122	14233
855.256	14180
855.39	14195
855.524	14309
855.658	14263
855.792	14309
855.926	14317
856.06	14256
856.194	14305
856.327	14267
856.461	14225
856.595	14252
856.729	14229
856.862	14355
856.996	14229
857.13	14336
857.263	14374
857.397	14339
857.53	14256
857.664	14305
857.797	14259
857.931	14427
858.064	14286
858.197	14263
858.331	14119
858.464	14199
858.597	14088
858.731	14252
858.864	14210
858.997	14107
859.13	14256
859.263	14240
859.396	14317
859.529	14210
859.662	14134
859.795	14164
859.928	14187
860.061	14313
860.194	14404
860.327	14313
860.46	14214
860.592	14317
860.725	14286
860.858	14404
860.99	14290
861.123	14183
861.256	14142
861.388	14256
861.521	14785
861.653	14206
861.786	14046
861.918	14149
862.05	14126
862.183	14206
862.315	14259
862.447	14259
862.58	14138
862.712	14092
862.844	13974
862.976	14043
863.108	14001
863.24	14446
863.372	13936
863.504	13989
863.636	14005
863.768	13986
863.9	13974
864.032	13959
864.164	14008
864.296	13997
864.428	14103
864.559	14119
864.691	14119
864.823	14046
864.954	14012
865.086	14096
865.217	13955
865.349	13913
865.48	14020
865.612	13967
865.743	14214
865.875	13993
866.006	13986
866.137	13986
866.269	14157
866.4	14024
866.531	14012
866.662	13959
866.793	13986
866.924	13989
867.055	13940
867.186	14008
867.317	13959
867.448	13902
867.579	13974
867.71	13852
867.841	13856
867.972	13967
868.103	14046
868.233	13932
868.364	14005
868.495	14069
868.625	14206
868.756	14336
868.886	14077
869.017	14282
869.147	14370
869.278	14408
869.408	14351
869.539	14286
869.669	14225
869.799	14252
869.929	14412
870.06	14412
870.19	14533
870.32	14549
870.45	14644
870.58	14655
870.71	14731
870.84	14724
870.97	14655
871.1	14678
871.23	14819
871.36	14788
871.489	14823
871.619	14842
871.749	14861
871.879	14902
872.008	14971
872.138	14864
872.267	14891
872.397	14762
872.526	14663
872.656	14701
872.785	14708
872.915	14960
873.044	14956
873.173	14777
873.303	14941
873.432	14891
873.561	14967
873.69	14868
873.819	14918
873.948	14906
874.077	14933
874.206	14849
874.335	14967
874.464	15028
874.593	15199
874.722	15127
874.851	15233
874.979	15245
875.108	15218
875.237	15104
875.365	15233
875.494	15237
875.623	15264
875.751	15192
875.88	15192
876.008	15408
876.136	15439
876.265	15576
876.393	15797
876.521	15747
876.65	15694
876.778	15686
876.906	15534
877.034	15561
877.162	15534
877.29	15682
877.418	15675
877.546	15568
877.674	15587
877.802	15576
877.93	15580
878.058	15572
878.185	15477
878.313	15587
878.441	15679
878.568	15477
878.696	15572
878.824	15694
878.951	15717
879.079	15793
879.206	15945
879.333	15705
879.461	15633
879.588	15724
879.715	15739
879.842	15888
879.97	15751
880.097	15572
880.224	15504
880.351	15466
880.478	15564
880.605	15412
880.732	15435
880.859	15797
880.986	15534
881.112	15393
881.239	15408
881.366	15321
881.493	15138
881.619	15180
881.746	15131
881.872	15104
881.999	15062
882.125	15043
882.252	15161
882.378	15161
882.505	15268
882.631	15051
882.757	15070
882.883	14979
883.01	14994
883.136	14914
883.262	14842
883.388	14705
883.514	14963
883.64	14960
883.766	14906
883.892	14724
884.018	14743
884.143	14902
884.269	15085
884.395	14727
884.52	14632
884.646	14632
884.772	14549
884.897	14610
885.023	14693
885.148	14804
885.274	14823
885.399	14746
885.524	14663
885.65	14689
885.775	14750
885.9	14545
886.025	14815
886.15	14663
886.275	14537
886.4	14640
886.525	14678
886.65	14648
886.775	14568
886.9	14857
887.025	14823
887.149	14587
887.274	14579
887.399	14594
887.523	14530
887.648	14434
887.773	14396
887.897	14454
888.021	14511
888.146	14545
888.27	14514
888.395	14621
888.519	14556
888.643	14598
888.767	14537
888.891	14507
889.015	14301
889.139	14442
889.263	14412
889.387	14514
889.511	14541
889.635	14408
889.759	14309
889.883	14305
890.006	14385
890.13	14389
890.254	14142
890.377	14320
890.501	14081
890.624	14107
890.748	14233
890.871	14001
890.995	13986
891.118	13921
891.241	14111
891.364	14050
891.488	14210
891.611	14024
891.734	14043
891.857	14149
891.98	14115
892.103	14142
892.226	14107
892.349	14035
892.471	13860
892.594	14130
892.717	14005
892.839	13944
892.962	13997
893.085	14176
893.207	13963
893.33	13986
893.452	13963
893.575	14134
893.697	14054
893.819	14225
893.941	14324
894.064	14218
894.186	14043
894.308	14016
894.43	14153
894.552	14286
894.674	14123
894.796	14062
894.918	14111
895.04	14062
895.161	14256
895.283	14214
895.405	14084
895.526	14214
895.648	14115
895.769	14229
895.891	14191
896.012	14332
896.134	14366
896.255	14256
896.376	14134
896.498	14233
896.619	14240
896.74	14180
896.861	14286
896.982	14522
897.103	14716
897.224	14564
897.345	14533
897.466	14476
897.587	14503
897.708	14606
897.828	14549
897.949	14431
898.07	14358
898.19	14457
898.311	14632
898.431	14533
898.552	14495
898.672	14705
898.792	14587
898.913	14621
899.033	14427
899.153	14518
899.273	14351
899.393	14408
899.513	14480
899.633	14564
899.753	14499
899.873	14442
899.993	14465
900.113	14427
900.232	14351
900.352	14446
900.472	14374
900.591	14256
900.711	14263
900.83	14252
900.95	14404
901.069	14393
901.189	14278
901.308	14020
901.427	13970
901.546	13913
901.665	13982
901.784	13883
901.904	13738
902.023	13780
902.141	13601
902.26	13510
902.379	13670
902.498	13499
902.617	13582
902.735	13578
902.854	13510
902.973	13476
903.091	13312
903.21	13293
903.328	13190
903.446	13183
903.565	13110
903.683	13183
903.801	13031
903.919	13065
904.038	13034
904.156	12871
904.274	12993
904.392	12924
904.51	12863
904.627	12920
904.745	12947
904.863	12977
904.981	12650
905.098	12585
905.216	12665
905.334	12612
905.451	12589
905.569	12585
905.686	12570
905.803	12662
905.921	12429
906.038	12563
906.155	12376
906.272	12262
906.389	12433
906.506	12254
906.623	12292
906.74	12262
906.857	12022
906.974	12171
907.091	12292
907.208	12270
907.324	12277
907.441	12068
907.557	11908
907.674	11942
907.79	11893
907.907	11942
908.023	11950
908.139	11904
908.256	11832
908.372	11859
908.488	11942
908.604	11748
908.72	11657
908.836	11718
908.952	11745
909.068	11745
909.184	11805
909.3	11638
909.415	11790
909.531	11726
909.647	11455
909.762	11570
909.878	11497
909.993	11554
910.108	11459
910.224	11452
910.339	11444
910.454	11406
910.57	11334
910.685	11288
910.8	11604
910.915	11471
911.03	11379
911.145	11269
911.259	11193
911.374	11197
911.489	11136
911.604	11079
911.718	11037
911.833	10984
911.947	10812
912.062	10786
912.176	10934
912.291	11018
912.405	10942
912.519	11204
912.633	11166
912.748	10984
912.862	10911
912.976	10828
913.09	10706
913.204	10805
913.318	10873
913.431	10965
913.545	10965
913.659	11003
913.772	10797
913.886	10721
914	10656
914.113	10908
914.226	10797
914.34	10828
914.453	10721
914.566	10816
914.68	10645
914.793	10721
914.906	10493
915.019	10428
915.132	10371
915.245	10462
915.358	10485
915.47	10508
915.583	10421
915.696	10516
915.809	10603
915.921	10546
916.034	10474
916.146	10360
916.259	10386
916.371	10470
916.483	10512
916.595	10398
916.708	10382
916.82	10375
916.932	10356
917.044	10371
917.156	10314
917.268	10310
917.38	10314
917.491	10337
917.603	10306
917.715	10440
917.826	10436
917.938	10246
918.049	10200
918.161	10356
918.272	10409
918.384	10443
918.495	10306
918.606	10074
918.717	10090
918.828	10192
918.939	10215
919.05	10029
919.161	10040
919.272	10010
919.383	10078
919.494	10246
919.604	10360
919.715	10128
919.826	10128
919.936	10086
920.047	10287
920.157	10219
920.267	10363
920.378	10204
920.488	10128
920.598	10500
920.708	10538
920.818	10398
920.928	10382
921.038	10500
921.148	10417
921.258	10257
921.368	10177
921.477	10124
921.587	9956
921.697	9892
921.806	10010
921.916	9873
922.025	9759
922.134	9785
922.244	9720
922.353	9793
922.462	9614
922.571	9644
922.68	9435
922.789	9363
922.898	9443
923.007	9420
923.116	9488
923.224	9412
923.333	9405
923.442	9351
923.55	9279
923.659	9359
923.767	9340
923.876	9253
923.984	9287
924.092	9275
924.201	9310
924.309	9355
924.417	9283
924.525	9291
924.633	9291
924.741	10032
924.849	9047
924.956	9199
925.064	9093
925.172	9097
925.279	9039
925.387	9043
925.494	9119
925.602	9214
925.709	9108
925.816	9009
925.924	9112
926.031	9272
926.138	9146
926.245	9203
926.352	9081
926.459	9119
926.566	9214
926.673	9013
926.779	8963
926.886	8971
926.993	8834
927.099	8830
927.206	8720
927.312	8746
927.419	8792
927.525	8823
927.631	8872
927.737	8785
927.843	8689
927.95	8556
928.056	8686
928.162	8686
928.267	8788
928.373	9405
928.479	8720
928.585	8552
928.69	8716
928.796	8743
928.901	8590
929.007	8488
929.112	8583
929.218	8667
929.323	8606
929.428	8556
929.533	8678
929.638	8423
929.743	8457
929.848	8541
929.953	8507
930.058	8438
930.163	8309
930.267	8301
930.372	8442
930.477	8298
930.581	8571
930.685	8396
930.79	8187
930.894	8237
930.998	8271
931.103	8404
931.207	8058
931.311	7986
931.415	7868
931.519	7772
931.623	7780
