Data from test_V78500241_189.txt Node
Date: Fri Mar 25 14:35:02 CST 2022
User: usil
Spectrometer: V785-0024
Trigger mode: 0
Integration Time (sec): 4.000000E-1
Scans to average: 1
Nonlinearity correction enabled: false
Boxcar width: 0
Storing dark spectrum: false
XAxis mode: Wavelengths
Number of Pixels in Spectrum: 1024
>>>>>Begin Spectral Data<<<<<
801.071	28375
801.214	28158
801.356	28070
801.499	27823
801.641	27800
801.783	27762
801.926	27785
802.068	27629
802.211	27739
802.353	27530
802.496	27397
802.638	27340
802.78	27370
802.923	27279
803.065	27329
803.208	27279
803.35	27294
803.492	27420
803.635	27492
803.777	27393
803.919	27606
804.061	27724
804.204	27435
804.346	27241
804.488	27329
804.63	27412
804.773	27146
804.915	27294
805.057	27378
805.199	27245
805.341	27485
805.483	27568
805.626	27431
805.768	27306
805.91	27610
806.052	27504
806.194	27412
806.336	27641
806.478	27583
806.62	27408
806.762	27739
806.904	27694
807.046	28013
807.188	27831
807.33	27903
807.472	28032
807.614	27861
807.756	28013
807.898	28128
808.04	28002
808.182	28147
808.324	28310
808.465	28527
808.607	28812
808.749	29029
808.891	29208
809.033	29284
809.174	29037
809.316	28942
809.458	28596
809.6	28432
809.741	28401
809.883	28284
810.025	28432
810.166	28314
810.308	28268
810.45	28287
810.591	27979
810.733	28010
810.875	27945
811.016	27800
811.158	27785
811.299	27797
811.441	27884
811.582	28017
811.724	27739
811.865	27774
812.007	27713
812.148	27709
812.29	27831
812.431	28063
812.573	28093
812.714	28090
812.855	28291
812.997	28246
813.138	28371
813.279	28375
813.421	28405
813.562	28082
813.703	28070
813.845	28029
813.986	27629
814.127	27431
814.268	27386
814.41	27374
814.551	27332
814.692	27511
814.833	27340
814.974	27226
815.115	27363
815.256	27146
815.397	27138
815.539	27116
815.68	27028
815.821	26998
815.962	27062
816.103	26986
816.244	26944
816.385	26754
816.526	26708
816.666	26514
816.807	26286
816.948	26503
817.089	26587
817.23	26480
817.371	26499
817.512	26381
817.653	26225
817.793	26393
817.934	26381
818.075	26347
818.216	26453
818.356	26419
818.497	26206
818.638	26096
818.778	26149
818.919	26100
819.06	26126
819.2	26218
819.341	26389
819.481	26336
819.622	26396
819.762	26590
819.903	26434
820.043	26503
820.184	26301
820.324	26256
820.465	26278
820.605	26404
820.746	26370
820.886	26214
821.026	26370
821.167	26305
821.307	26400
821.447	26225
821.588	26267
821.728	26016
821.868	25837
822.008	25818
822.149	25803
822.289	25746
822.429	25518
822.569	25331
822.709	25327
822.849	25183
822.99	25091
823.13	25080
823.27	25133
823.41	24977
823.55	24947
823.69	25015
823.83	25008
823.97	24924
824.11	24768
824.25	24760
824.389	24829
824.529	24829
824.669	24688
824.809	24768
824.949	24802
825.089	24821
825.228	24806
825.368	24654
825.508	24475
825.648	24578
825.787	24574
825.927	24612
826.067	24517
826.206	24555
826.346	24677
826.485	24547
826.625	24544
826.765	24574
826.904	24547
827.044	24418
827.183	24254
827.323	24216
827.462	24281
827.601	24098
827.741	24174
827.88	24213
828.02	24053
828.159	24247
828.298	24197
828.437	24251
828.577	24194
828.716	24296
828.855	24064
828.994	24011
829.134	23973
829.273	23889
829.412	23832
829.551	23809
829.69	23821
829.829	23954
829.968	23950
830.107	23882
830.246	23817
830.385	23847
830.524	23710
830.663	23638
830.802	23668
830.941	23429
831.08	23364
831.219	23478
831.357	23471
831.496	23630
831.635	23379
831.774	23284
831.913	23326
832.051	23296
832.19	23261
832.329	23273
832.467	23067
832.606	23079
832.744	23033
832.883	23113
833.022	23033
833.16	22949
833.299	23159
833.437	23086
833.576	23174
833.714	23166
833.852	23258
833.991	23090
834.129	23094
834.267	23254
834.406	23174
834.544	23174
834.682	23220
834.821	23113
834.959	23174
835.097	23044
835.235	23159
835.373	23044
835.511	23014
835.65	22915
835.788	22923
835.926	22892
836.064	22740
836.202	22736
836.34	22911
836.478	23018
836.615	22938
836.753	22881
836.891	22915
837.029	22835
837.167	22877
837.305	22736
837.443	22725
837.58	22683
837.718	22767
837.856	22797
837.993	22584
838.131	22748
838.269	22580
838.406	22580
838.544	22531
838.681	22417
838.819	22188
838.956	22162
839.094	22314
839.231	22154
839.369	22226
839.506	22580
839.643	22314
839.781	22051
839.918	22044
840.055	22025
840.193	22036
840.33	22105
840.467	22040
840.604	22120
840.742	22265
840.879	21854
841.016	21956
841.153	21865
841.29	22223
841.427	21975
841.564	22112
841.701	21994
841.838	21934
841.975	21926
842.112	21915
842.249	21797
842.385	21644
842.522	21994
842.659	21789
842.796	21694
842.933	21743
843.069	21739
843.206	21652
843.343	21732
843.479	21751
843.616	21667
843.752	21507
843.889	21477
844.025	21561
844.162	21526
844.298	21622
844.435	21492
844.571	21507
844.708	21652
844.844	21759
844.98	21637
845.117	21766
845.253	21637
845.389	21492
845.525	21766
845.661	22078
845.798	22348
845.934	22702
846.07	22717
846.206	22630
846.342	22569
846.478	22128
846.614	21587
846.75	21473
846.886	21169
847.022	21127
847.158	21062
847.294	20994
847.429	20982
847.565	20861
847.701	21138
847.837	20686
847.972	20678
848.108	20864
848.244	20705
848.379	20564
848.515	20423
848.65	20442
848.786	20507
848.921	20488
849.057	20609
849.192	20579
849.328	20393
849.463	20507
849.598	20305
849.734	20339
849.869	20351
850.004	20221
850.14	20320
850.275	20195
850.41	20134
850.545	20161
850.68	20248
850.815	20221
850.95	20191
851.085	20377
851.22	20332
851.355	20248
851.49	20084
851.625	20122
851.76	20183
851.895	20115
852.03	20084
852.165	20149
852.299	20351
852.434	20267
852.569	20324
852.703	20130
852.838	20244
852.973	20317
853.107	20256
853.242	20134
853.376	20103
853.511	19913
853.645	20005
853.78	20149
853.914	20005
854.048	19978
854.183	20119
854.317	20054
854.451	20210
854.585	20115
854.72	19986
854.854	20065
854.988	19982
855.122	19970
855.256	19822
855.39	19947
855.524	20039
855.658	20157
855.792	19944
855.926	19978
856.06	20065
856.194	20073
856.327	20001
856.461	19955
856.595	19947
856.729	20073
856.862	20176
856.996	20027
857.13	19982
857.263	20195
857.397	20073
857.53	19940
857.664	20046
857.797	20153
857.931	20069
858.064	19898
858.197	20119
858.331	20012
858.464	19894
858.597	19830
858.731	19970
858.864	19856
858.997	19849
859.13	20005
859.263	20001
859.396	20012
859.529	19906
859.662	19868
859.795	19906
859.928	19928
860.061	19974
860.194	20084
860.327	20005
860.46	19849
860.592	19951
860.725	20001
860.858	19959
860.99	19917
861.123	19871
861.256	19791
861.388	19856
861.521	20488
861.653	19875
861.786	19738
861.918	19849
862.05	19883
862.183	19963
862.315	20081
862.447	19940
862.58	19902
862.712	19811
862.844	19696
862.976	19723
863.108	19643
863.24	20081
863.372	19616
863.504	19567
863.636	19635
863.768	19734
863.9	19727
864.032	19548
864.164	19609
864.296	19624
864.428	19791
864.559	19784
864.691	19704
864.823	19696
864.954	19575
865.086	19578
865.217	19582
865.349	19464
865.48	19518
865.612	19578
865.743	19540
865.875	19540
866.006	19540
866.137	19514
866.269	19552
866.4	19559
866.531	19533
866.662	19438
866.793	19521
866.924	19457
867.055	19506
867.186	19548
867.317	19434
867.448	19434
867.579	19316
867.71	19381
867.841	19354
867.972	19537
868.103	19445
868.233	19563
868.364	19468
868.495	19464
868.625	19780
868.756	19772
868.886	19643
869.017	19685
869.147	19746
869.278	19757
869.408	19681
869.539	19696
869.669	19769
869.799	19811
869.929	19879
870.06	19746
870.19	20024
870.32	19997
870.45	20168
870.58	20126
870.71	20149
870.84	20035
870.97	20164
871.1	20035
871.23	20259
871.36	20149
871.489	20267
871.619	20347
871.749	20374
871.879	20324
872.008	20377
872.138	20206
872.267	20309
872.397	20100
872.526	20214
872.656	20119
872.785	20126
872.915	20320
873.044	20305
873.173	20320
873.303	20282
873.432	20404
873.561	20415
873.69	20351
873.819	20298
873.948	20400
874.077	20339
874.206	20244
874.335	20317
874.464	20537
874.593	20511
874.722	20667
874.851	20625
874.979	20712
875.108	20697
875.237	20511
875.365	20564
875.494	20583
875.623	20469
875.751	20469
875.88	20594
876.008	20712
876.136	20811
876.265	21043
876.393	21074
876.521	21024
876.65	21195
876.778	20982
876.906	20982
877.034	20929
877.162	20921
877.29	20887
877.418	21058
877.546	21093
877.674	21062
877.802	21009
877.93	21055
878.058	21100
878.185	20998
878.313	21066
878.441	21192
878.568	20967
878.696	21104
878.824	21207
878.951	21340
879.079	21412
879.206	21656
879.333	21709
879.461	21766
879.588	21918
879.715	21937
879.842	21922
879.97	21679
880.097	21329
880.224	21176
880.351	21173
880.478	21180
880.605	21009
880.732	21066
880.859	21306
880.986	20967
881.112	21058
881.239	20899
881.366	20724
881.493	20724
881.619	20552
881.746	20697
881.872	20617
881.999	20564
882.125	20590
882.252	20632
882.378	20575
882.505	20804
882.631	20609
882.757	20381
882.883	20404
883.01	20400
883.136	20320
883.262	20336
883.388	20336
883.514	20362
883.64	20454
883.766	20278
883.892	20199
884.018	20237
884.143	20244
884.269	20362
884.395	20153
884.52	20107
884.646	20149
884.772	20039
884.897	19955
885.023	19959
885.148	20100
885.274	20145
885.399	20111
885.524	20043
885.65	20035
885.775	20024
885.9	19982
886.025	20054
886.15	20084
886.275	19913
886.4	19761
886.525	19784
886.65	19940
886.775	19841
886.9	19932
887.025	20115
887.149	19890
887.274	19727
887.399	19727
887.523	19704
887.648	19689
887.773	19582
887.897	19769
888.021	19651
888.146	19525
888.27	19700
888.395	19833
888.519	19651
888.643	19719
888.767	19635
888.891	19502
889.015	19403
889.139	19468
889.263	19460
889.387	19514
889.511	19632
889.635	19575
889.759	19400
889.883	19445
890.006	19343
890.13	19544
890.254	19289
890.377	19228
890.501	19266
890.624	19122
890.748	19251
890.871	19190
890.995	18951
891.118	19027
891.241	19133
891.364	18981
891.488	19065
891.611	18958
891.734	19027
891.857	19072
891.98	18973
892.103	19156
892.226	19004
892.349	18920
892.471	18791
892.594	18882
892.717	19000
892.839	18932
892.962	18894
893.085	18970
893.207	18798
893.33	18810
893.452	18844
893.575	18920
893.697	18821
893.819	19042
893.941	19080
894.064	19046
894.186	18810
894.308	18848
894.43	18970
894.552	19015
894.674	18935
894.796	18833
894.918	18954
895.04	18954
895.161	18985
895.283	18905
895.405	18878
895.526	18871
895.648	18833
895.769	18863
895.891	18890
896.012	18943
896.134	18909
896.255	18939
896.376	18993
896.498	18932
896.619	18932
896.74	18928
896.861	18973
896.982	19198
897.103	19381
897.224	19244
897.345	19168
897.466	19110
897.587	19259
897.708	19289
897.828	19194
897.949	19107
898.07	19015
898.19	19160
898.311	19251
898.431	18954
898.552	19175
898.672	19263
898.792	19080
898.913	19164
899.033	19019
899.153	18924
899.273	18920
899.393	18947
899.513	18844
899.633	18928
899.753	18863
899.873	18749
899.993	18909
900.113	18913
900.232	18856
900.352	18795
900.472	18719
900.591	18620
900.711	18738
900.83	18665
900.95	18745
901.069	18764
901.189	18627
901.308	18467
901.427	18418
901.546	18365
901.665	18448
901.784	18414
901.904	18117
902.023	18064
902.141	17980
902.26	17695
902.379	17866
902.498	17748
902.617	17775
902.735	17752
902.854	17676
902.973	17573
903.091	17425
903.21	17490
903.328	17440
903.446	17410
903.565	17296
903.683	17330
903.801	17174
903.919	17414
904.038	17265
904.156	17109
904.274	17136
904.392	16923
904.51	17079
904.627	17151
904.745	17052
904.863	17075
904.981	16900
905.098	16820
905.216	16740
905.334	16729
905.451	16755
905.569	16694
905.686	16793
905.803	16660
905.921	16462
906.038	16428
906.155	16565
906.272	16310
906.389	16409
906.506	16242
906.623	16185
906.74	16249
906.857	16169
906.974	16032
907.091	16295
907.208	16371
907.324	16181
907.441	16101
907.557	15934
907.674	15899
907.79	15846
907.907	15945
908.023	15964
908.139	15842
908.256	15759
908.372	15762
908.488	15816
908.604	15648
908.72	15656
908.836	15553
908.952	15580
909.068	15641
909.184	15724
909.3	15663
909.415	15572
909.531	15568
909.647	15306
909.762	15279
909.878	15230
909.993	15287
910.108	15165
910.224	15218
910.339	15252
910.454	15146
910.57	15074
910.685	15135
910.8	15332
910.915	15355
911.03	15112
911.145	14975
911.259	14902
911.374	14948
911.489	14815
911.604	14804
911.718	14594
911.833	14697
911.947	14511
912.062	14499
912.176	14651
912.291	14667
912.405	14682
912.519	14788
912.633	14781
912.748	14686
912.862	14549
912.976	14514
913.09	14320
913.204	14415
913.318	14511
913.431	14556
913.545	14461
913.659	14499
913.772	14526
913.886	14309
914	14358
914.113	14347
914.226	14404
914.34	14396
914.453	14210
914.566	14278
914.68	14271
914.793	14145
914.906	13959
915.019	13852
915.132	13898
915.245	13944
915.358	13993
915.47	13967
915.583	13913
915.696	14039
915.809	14088
915.921	14149
916.034	13917
916.146	13887
916.259	13875
916.371	13947
916.483	13811
916.595	13776
916.708	13837
916.82	13780
916.932	13776
917.044	13681
917.156	13727
917.268	13613
917.38	13670
917.491	13715
917.603	13670
917.715	13715
917.826	13719
917.938	13472
918.049	13487
918.161	13658
918.272	13750
918.384	13590
918.495	13670
918.606	13506
918.717	13396
918.828	13514
918.939	13521
919.05	13445
919.161	13331
919.272	13247
919.383	13251
919.494	13472
919.604	13636
919.715	13453
919.826	13285
919.936	13373
920.047	13339
920.157	13415
920.267	13567
920.378	13407
920.488	13327
920.598	13457
920.708	13708
920.818	13441
920.928	13499
921.038	13700
921.148	13624
921.258	13354
921.368	13285
921.477	13118
921.587	13095
921.697	13084
921.806	13175
921.916	12951
922.025	12802
922.134	12757
922.244	12707
922.353	12852
922.462	12711
922.571	12612
922.68	12422
922.789	12410
922.898	12380
923.007	12277
923.116	12532
923.224	12475
923.333	12399
923.442	12308
923.55	12338
923.659	12323
923.767	12323
923.876	12247
923.984	12311
924.092	12136
924.201	12209
924.309	12163
924.417	12213
924.525	12148
924.633	12167
924.741	13031
924.849	11904
924.956	12022
925.064	11920
925.172	11794
925.279	11851
925.387	12019
925.494	11836
925.602	12022
925.709	11999
925.816	11828
925.924	11935
926.031	11958
926.138	11939
926.245	11824
926.352	11798
926.459	11999
926.566	11901
926.673	11733
926.779	11779
926.886	11714
926.993	11520
927.099	11570
927.206	11486
927.312	11474
927.419	11543
927.525	11505
927.631	11528
927.737	11379
927.843	11330
927.95	11258
928.056	11345
928.162	11318
928.267	11379
928.373	11958
928.479	11474
928.585	11204
928.69	11330
928.796	11311
928.901	11185
929.007	11105
929.112	11204
929.218	11147
929.323	11098
929.428	11201
929.533	11170
929.638	11018
929.743	11010
929.848	11155
929.953	11151
930.058	10957
930.163	10759
930.267	10748
930.372	10896
930.477	10771
930.581	11033
930.685	10843
930.79	10748
930.894	10668
930.998	10691
931.103	10850
931.207	10413
931.311	10352
931.415	10272
931.519	10021
931.623	10017
