Data from test_V78500241_1469.txt Node
Date: Fri Mar 25 14:43:56 CST 2022
User: usil
Spectrometer: V785-0024
Trigger mode: 0
Integration Time (sec): 4.000000E-1
Scans to average: 1
Nonlinearity correction enabled: false
Boxcar width: 0
Storing dark spectrum: false
XAxis mode: Wavelengths
Number of Pixels in Spectrum: 1024
>>>>>Begin Spectral Data<<<<<
801.071	22443
801.214	22280
801.356	22006
801.499	21964
801.641	21880
801.783	21736
801.926	21838
802.068	21766
802.211	21595
802.353	21515
802.496	21317
802.638	21348
802.78	21226
802.923	21211
803.065	21135
803.208	21077
803.35	21135
803.492	21226
803.635	21241
803.777	21108
803.919	21116
804.061	21458
804.204	21135
804.346	21077
804.488	21024
804.63	21089
804.773	20853
804.915	21074
805.057	21165
805.199	20937
805.341	21123
805.483	21218
805.626	21108
805.768	21043
805.91	21036
806.052	21131
806.194	20994
806.336	21169
806.478	20887
806.62	20986
806.762	21081
806.904	21203
807.046	21507
807.188	21511
807.33	21378
807.472	21469
807.614	21325
807.756	21329
807.898	21211
808.04	21218
808.182	21245
808.324	21443
808.465	21363
808.607	21454
808.749	21667
808.891	21732
809.033	21854
809.174	21751
809.316	21644
809.458	21614
809.6	21561
809.741	21416
809.883	21595
810.025	21625
810.166	21663
810.308	21732
810.45	21576
810.591	21466
810.733	21294
810.875	21321
811.016	21192
811.158	21077
811.299	21344
811.441	21272
811.582	21416
811.724	21176
811.865	21195
812.007	21275
812.148	21207
812.29	21226
812.431	21435
812.573	21504
812.714	21682
812.855	21713
812.997	21972
813.138	21922
813.279	21884
813.421	21728
813.562	21732
813.703	21424
813.845	21340
813.986	21070
814.127	20819
814.268	20857
814.41	20910
814.551	20830
814.692	20925
814.833	20758
814.974	20682
815.115	20750
815.256	20602
815.397	20693
815.539	20549
815.68	20484
815.821	20442
815.962	20613
816.103	20488
816.244	20366
816.385	20294
816.526	20221
816.666	20168
816.807	19951
816.948	19913
817.089	20024
817.23	20020
817.371	19951
817.512	19993
817.653	19940
817.793	19894
817.934	19986
818.075	19936
818.216	19906
818.356	19963
818.497	19712
818.638	19601
818.778	19677
818.919	19575
819.06	19708
819.2	19799
819.341	19708
819.481	19788
819.622	20008
819.762	20043
819.903	20001
820.043	19974
820.184	19864
820.324	19849
820.465	20081
820.605	20039
820.746	19928
820.886	19753
821.026	20008
821.167	19879
821.307	19887
821.447	19849
821.588	19765
821.728	19559
821.868	19411
822.008	19331
822.149	19255
822.289	19343
822.429	19050
822.569	18916
822.709	18913
822.849	18806
822.99	18745
823.13	18661
823.27	18722
823.41	18669
823.55	18589
823.69	18563
823.83	18642
823.97	18445
824.11	18426
824.25	18315
824.389	18323
824.529	18532
824.669	18410
824.809	18494
824.949	18456
825.089	18342
825.228	18403
825.368	18136
825.508	18174
825.648	18171
825.787	18247
825.927	18182
826.067	18159
826.206	18133
826.346	18167
826.485	18121
826.625	18125
826.765	18281
826.904	18235
827.044	17935
827.183	17923
827.323	17832
827.462	17836
827.601	17821
827.741	17840
827.88	17802
828.02	17798
828.159	17832
828.298	17847
828.437	17878
828.577	17840
828.716	17828
828.855	17893
828.994	17630
829.134	17619
829.273	17558
829.412	17699
829.551	17562
829.69	17611
829.829	17649
829.968	17657
830.107	17630
830.246	17520
830.385	17604
830.524	17467
830.663	17406
830.802	17334
830.941	17185
831.08	17147
831.219	17288
831.357	17254
831.496	17429
831.635	17288
831.774	17280
831.913	17136
832.051	17003
832.19	16995
832.329	17033
832.467	16881
832.606	16862
832.744	16847
832.883	16972
833.022	16885
833.16	17025
833.299	16961
833.437	16919
833.576	16946
833.714	16923
833.852	16987
833.991	17060
834.129	17094
834.267	17132
834.406	16927
834.544	16991
834.682	16873
834.821	16953
834.959	17220
835.097	16995
835.235	16995
835.373	17022
835.511	16965
835.65	16908
835.788	16801
835.926	16637
836.064	16645
836.202	16771
836.34	16858
836.478	16900
836.615	16843
836.753	16930
836.891	16953
837.029	16881
837.167	16778
837.305	16740
837.443	16767
837.58	16577
837.718	16736
837.856	16618
837.993	16656
838.131	16744
838.269	16706
838.406	16675
838.544	16577
838.681	16382
838.819	16352
838.956	16238
839.094	16253
839.231	16238
839.369	16428
839.506	16645
839.643	16428
839.781	16325
839.918	16268
840.055	16253
840.193	16314
840.33	16356
840.467	16272
840.604	16287
840.742	16573
840.879	16105
841.016	16166
841.153	16276
841.29	16440
841.427	16295
841.564	16306
841.701	16379
841.838	16265
841.975	16230
842.112	16226
842.249	16086
842.385	16051
842.522	16181
842.659	16055
842.796	15964
842.933	16059
843.069	15953
843.206	16135
843.343	16097
843.479	16032
843.616	16093
843.752	15926
843.889	15762
844.025	16021
844.162	15774
844.298	15941
844.435	15762
844.571	15842
844.708	15838
844.844	15972
844.98	16040
845.117	16029
845.253	15865
845.389	15823
845.525	15816
845.661	15759
845.798	15854
845.934	15968
846.07	15869
846.206	15998
846.342	15941
846.478	15797
846.614	15564
846.75	15462
846.886	15363
847.022	15542
847.158	15511
847.294	15386
847.429	15435
847.565	15424
847.701	15629
847.837	15218
847.972	15180
848.108	15256
848.244	15291
848.379	15055
848.515	15005
848.65	14891
848.786	15036
848.921	15081
849.057	15157
849.192	15108
849.328	15074
849.463	14982
849.598	15024
849.734	14864
849.869	14933
850.004	14788
850.14	14765
850.275	14876
850.41	14708
850.545	14644
850.68	14743
850.815	14739
850.95	14845
851.085	14921
851.22	14853
851.355	14746
851.49	14777
851.625	14762
851.76	14712
851.895	14644
852.03	14644
852.165	14811
852.299	14804
852.434	14914
852.569	14876
852.703	14804
852.838	14838
852.973	14895
853.107	14925
853.242	14663
853.376	14636
853.511	14499
853.645	14629
853.78	14689
853.914	14648
854.048	14682
854.183	14530
854.317	14606
854.451	14815
854.585	14560
854.72	14560
854.854	14594
854.988	14594
855.122	14674
855.256	14476
855.39	14564
855.524	14773
855.658	14705
855.792	14590
855.926	14716
856.06	14644
856.194	14727
856.327	14625
856.461	14526
856.595	14587
856.729	14621
856.862	14731
856.996	14701
857.13	14754
857.263	14678
857.397	14773
857.53	14629
857.664	14678
857.797	14754
857.931	14697
858.064	14758
858.197	14769
858.331	14552
858.464	14507
858.597	14579
858.731	14526
858.864	14621
858.997	14663
859.13	14667
859.263	14602
859.396	14785
859.529	14571
859.662	14598
859.795	14549
859.928	14689
860.061	14689
860.194	14804
860.327	14579
860.46	14655
860.592	14769
860.725	14769
860.858	14731
860.99	14682
861.123	14541
861.256	14583
861.388	14632
861.521	15256
861.653	14571
861.786	14404
861.918	14579
862.05	14533
862.183	14556
862.315	14556
862.447	14560
862.58	14537
862.712	14469
862.844	14259
862.976	14343
863.108	14473
863.24	14948
863.372	14259
863.504	14412
863.636	14461
863.768	14431
863.9	14442
864.032	14263
864.164	14351
864.296	14495
864.428	14526
864.559	14514
864.691	14446
864.823	14396
864.954	14442
865.086	14450
865.217	14317
865.349	14309
865.48	14351
865.612	14415
865.743	14492
865.875	14278
866.006	14320
866.137	14389
866.269	14389
866.4	14294
866.531	14396
866.662	14225
866.793	14320
866.924	14374
867.055	14343
867.186	14434
867.317	14290
867.448	14218
867.579	14320
867.71	14195
867.841	14301
867.972	14317
868.103	14423
868.233	14328
868.364	14396
868.495	14412
868.625	14579
868.756	14663
868.886	14575
869.017	14480
869.147	14720
869.278	14689
869.408	14594
869.539	14587
869.669	14731
869.799	14579
869.929	14708
870.06	14762
870.19	14895
870.32	14891
870.45	14925
870.58	15039
870.71	15112
870.84	15097
870.97	15043
871.1	15127
871.23	15165
871.36	15146
871.489	15047
871.619	15245
871.749	15214
871.879	15275
872.008	15374
872.138	15226
872.267	15199
872.397	15005
872.526	14979
872.656	15066
872.785	15032
872.915	15142
873.044	15355
873.173	15230
873.303	15310
873.432	15291
873.561	15367
873.69	15268
873.819	15264
873.948	15329
874.077	15340
874.206	15272
874.335	15275
874.464	15378
874.593	15576
874.722	15462
874.851	15408
874.979	15545
875.108	15564
875.237	15557
875.365	15507
875.494	15587
875.623	15660
875.751	15568
875.88	15595
876.008	15667
876.136	15842
876.265	15968
876.393	16013
876.521	15956
876.65	16093
876.778	15983
876.906	15953
877.034	15884
877.162	15964
877.29	15869
877.418	16036
877.546	15994
877.674	15975
877.802	15956
877.93	15979
878.058	15979
878.185	15880
878.313	15994
878.441	16010
878.568	15907
878.696	16002
878.824	16131
878.951	16071
879.079	16306
879.206	16341
879.333	16154
879.461	16177
879.588	16169
879.715	16249
879.842	16459
879.97	16169
880.097	15895
880.224	15797
880.351	15804
880.478	15987
880.605	15964
880.732	15835
880.859	16029
880.986	15827
881.112	15937
881.239	15698
881.366	15644
881.493	15682
881.619	15443
881.746	15492
881.872	15481
881.999	15481
882.125	15424
882.252	15656
882.378	15500
882.505	15701
882.631	15424
882.757	15355
882.883	15412
883.01	15222
883.136	15237
883.262	15192
883.388	15169
883.514	15245
883.64	15363
883.766	15199
883.892	15116
884.018	15116
884.143	15268
884.269	15420
884.395	15184
884.52	15043
884.646	14998
884.772	14967
884.897	14933
885.023	14933
885.148	15165
885.274	15138
885.399	15211
885.524	15043
885.65	15039
885.775	15085
885.9	14986
886.025	15119
886.15	15009
886.275	15093
886.4	14944
886.525	14948
886.65	14975
886.775	14944
886.9	15100
887.025	15256
887.149	15039
887.274	14853
887.399	14807
887.523	14769
887.648	14754
887.773	14765
887.897	14891
888.021	14918
888.146	14788
888.27	14975
888.395	15036
888.519	14895
888.643	14925
888.767	14887
888.891	14773
889.015	14640
889.139	14762
889.263	14621
889.387	14781
889.511	14944
889.635	14830
889.759	14522
889.883	14621
890.006	14667
890.13	14708
890.254	14636
890.377	14670
890.501	14545
890.624	14427
890.748	14590
890.871	14450
890.995	14278
891.118	14259
891.241	14461
891.364	14259
891.488	14530
891.611	14301
891.734	14355
891.857	14442
891.98	14412
892.103	14511
892.226	14404
892.349	14347
892.471	14278
892.594	14389
892.717	14336
892.839	14317
892.962	14324
893.085	14431
893.207	14328
893.33	14271
893.452	14317
893.575	14419
893.697	14339
893.819	14507
893.941	14560
894.064	14621
894.186	14362
894.308	14309
894.43	14511
894.552	14602
894.674	14579
894.796	14370
894.918	14385
895.04	14396
895.161	14454
895.283	14492
895.405	14419
895.526	14484
895.648	14492
895.769	14541
895.891	14556
896.012	14530
896.134	14507
896.255	14503
896.376	14571
896.498	14457
896.619	14617
896.74	14533
896.861	14705
896.982	14792
897.103	14986
897.224	14880
897.345	14823
897.466	14659
897.587	14830
897.708	14967
897.828	14918
897.949	14849
898.07	14708
898.19	14754
898.311	14998
898.431	14823
898.552	14975
898.672	14960
898.792	15017
898.913	14952
899.033	14819
899.153	14697
899.273	14602
899.393	14781
899.513	14796
899.633	14655
899.753	14769
899.873	14781
899.993	14682
900.113	14697
900.232	14777
900.352	14651
900.472	14674
900.591	14606
900.711	14617
900.83	14522
900.95	14663
901.069	14743
901.189	14484
901.308	14275
901.427	14271
901.546	14267
901.665	14355
901.784	14396
901.904	14134
902.023	14020
902.141	13909
902.26	13822
902.379	13890
902.498	13845
902.617	13830
902.735	13887
902.854	13803
902.973	13761
903.091	13632
903.21	13586
903.328	13552
903.446	13476
903.565	13396
903.683	13533
903.801	13304
903.919	13449
904.038	13316
904.156	13198
904.274	13232
904.392	13187
904.51	13217
904.627	13110
904.745	13251
904.863	13301
904.981	13034
905.098	12795
905.216	12886
905.334	12894
905.451	13008
905.569	12909
905.686	12882
905.803	12848
905.921	12711
906.038	12837
906.155	12764
906.272	12578
906.389	12650
906.506	12441
906.623	12479
906.74	12471
906.857	12338
906.974	12471
907.091	12551
907.208	12593
907.324	12471
907.441	12475
907.557	12213
907.674	12232
907.79	12171
907.907	12216
908.023	12285
908.139	12220
908.256	12228
908.372	12163
908.488	12072
908.604	11969
908.72	11916
908.836	11992
908.952	11969
909.068	11996
909.184	12091
909.3	11980
909.415	12019
909.531	11874
909.647	11813
909.762	11756
909.878	11760
909.993	11745
910.108	11710
910.224	11733
910.339	11714
910.454	11703
910.57	11638
910.685	11570
910.8	11855
910.915	11809
911.03	11615
911.145	11433
911.259	11448
911.374	11547
911.489	11360
911.604	11303
911.718	11235
911.833	11159
911.947	11162
912.062	11033
912.176	11128
912.291	11121
912.405	11185
912.519	11330
912.633	11429
912.748	11258
912.862	11231
912.976	11071
913.09	11025
913.204	10980
913.318	11109
913.431	11162
913.545	11151
913.659	11136
913.772	11025
913.886	10949
914	10949
914.113	10999
914.226	11094
914.34	10927
914.453	10896
914.566	11014
914.68	10885
914.793	10904
914.906	10786
915.019	10618
915.132	10683
915.245	10683
915.358	10679
915.47	10710
915.583	10729
915.696	10816
915.809	10843
915.921	10835
916.034	10672
916.146	10599
916.259	10497
916.371	10729
916.483	10675
916.595	10599
916.708	10618
916.82	10672
916.932	10660
917.044	10599
917.156	10573
917.268	10516
917.38	10565
917.491	10527
917.603	10504
917.715	10588
917.826	10603
917.938	10436
918.049	10363
918.161	10519
918.272	10596
918.384	10634
918.495	10481
918.606	10379
918.717	10306
918.828	10428
918.939	10379
919.05	10234
919.161	10329
919.272	10207
919.383	10265
919.494	10394
919.604	10558
919.715	10390
919.826	10371
919.936	10402
920.047	10550
920.157	10440
920.267	10645
920.378	10481
920.488	10356
920.598	10538
920.708	10698
920.818	10569
920.928	10656
921.038	10786
921.148	10733
921.258	10489
921.368	10348
921.477	10242
921.587	10230
921.697	10120
921.806	10181
921.916	10150
922.025	9991
922.134	9953
922.244	9854
922.353	9998
922.462	9915
922.571	9736
922.68	9606
922.789	9625
922.898	9622
923.007	9564
923.116	9637
923.224	9709
923.333	9622
923.442	9519
923.55	9549
923.659	9485
923.767	9515
923.876	9397
923.984	9610
924.092	9420
924.201	9545
924.309	9507
924.417	9511
924.525	9420
924.633	9458
924.741	10409
924.849	9279
924.956	9397
925.064	9245
925.172	9211
925.279	9287
925.387	9249
925.494	9287
925.602	9458
925.709	9340
925.816	9241
925.924	9298
926.031	9370
926.138	9283
926.245	9245
926.352	9222
926.459	9359
926.566	9370
926.673	9214
926.779	9249
926.886	9074
926.993	9036
927.099	8948
927.206	8937
927.312	8979
927.419	9032
927.525	9017
927.631	9112
927.737	8842
927.843	8883
927.95	8792
928.056	8849
928.162	8895
928.267	8914
928.373	9477
928.479	8986
928.585	8781
928.69	8876
928.796	8918
928.901	8857
929.007	8762
929.112	8754
929.218	8830
929.323	8750
929.428	8712
929.533	8807
929.638	8632
929.743	8674
929.848	8773
929.953	8689
930.058	8644
930.163	8454
930.267	8446
930.372	8629
930.477	8495
930.581	8724
930.685	8545
930.79	8419
930.894	8438
930.998	8446
931.103	8514
931.207	8214
931.311	8168
931.415	8035
931.519	7902
931.623	7871
