Data from test_V78500241_2266.txt Node
Date: Fri Mar 25 14:49:29 CST 2022
User: usil
Spectrometer: V785-0024
Trigger mode: 0
Integration Time (sec): 4.000000E-1
Scans to average: 1
Nonlinearity correction enabled: false
Boxcar width: 0
Storing dark spectrum: false
XAxis mode: Wavelengths
Number of Pixels in Spectrum: 1024
>>>>>Begin Spectral Data<<<<<
801.071	22192
801.214	22143
801.356	21861
801.499	21603
801.641	21679
801.783	21492
801.926	21618
802.068	21530
802.211	21431
802.353	21291
802.496	21058
802.638	21100
802.78	20956
802.923	20899
803.065	20933
803.208	20891
803.35	20887
803.492	20952
803.635	20994
803.777	20826
803.919	20929
804.061	21214
804.204	20910
804.346	20842
804.488	20659
804.63	20842
804.773	20857
804.915	20762
805.057	20834
805.199	20739
805.341	20902
805.483	20838
805.626	21039
805.768	20769
805.91	20804
806.052	20929
806.194	20735
806.336	20891
806.478	20819
806.62	20792
806.762	20845
806.904	20956
807.046	21169
807.188	21154
807.33	21211
807.472	21131
807.614	20952
807.756	21112
807.898	21013
808.04	20914
808.182	20853
808.324	20876
808.465	21009
808.607	20990
808.749	21142
808.891	21370
809.033	21241
809.174	21279
809.316	21119
809.458	21112
809.6	21165
809.741	21173
809.883	21252
810.025	21412
810.166	21275
810.308	21401
810.45	21283
810.591	21173
810.733	21051
810.875	21036
811.016	20910
811.158	20895
811.299	20982
811.441	20998
811.582	21260
811.724	20891
811.865	20941
812.007	20868
812.148	20845
812.29	20956
812.431	21066
812.573	21116
812.714	21222
812.855	21412
812.997	21641
813.138	21663
813.279	21599
813.421	21511
813.562	21279
813.703	21226
813.845	21074
813.986	20906
814.127	20720
814.268	20530
814.41	20564
814.551	20480
814.692	20564
814.833	20419
814.974	20442
815.115	20412
815.256	20381
815.397	20347
815.539	20385
815.68	20275
815.821	20130
815.962	20256
816.103	20199
816.244	20111
816.385	20005
816.526	19978
816.666	19772
816.807	19632
816.948	19791
817.089	19746
817.23	19571
817.371	19567
817.512	19750
817.653	19453
817.793	19628
817.934	19605
818.075	19616
818.216	19597
818.356	19605
818.497	19320
818.638	19369
818.778	19278
818.919	19335
819.06	19407
819.2	19529
819.341	19487
819.481	19502
819.622	19632
819.762	19791
819.903	19628
820.043	19723
820.184	19616
820.324	19613
820.465	19620
820.605	19529
820.746	19601
820.886	19483
821.026	19537
821.167	19563
821.307	19540
821.447	19529
821.588	19422
821.728	19251
821.868	19190
822.008	18993
822.149	19046
822.289	19065
822.429	18684
822.569	18871
822.709	18650
822.849	18391
822.99	18407
823.13	18403
823.27	18441
823.41	18247
823.55	18186
823.69	18194
823.83	18319
823.97	18266
824.11	17992
824.25	17977
824.389	18136
824.529	18064
824.669	18102
824.809	18258
824.949	18167
825.089	18148
825.228	18121
825.368	17958
825.508	17897
825.648	17878
825.787	17878
825.927	17863
826.067	17927
826.206	17859
826.346	17805
826.485	17878
826.625	17809
826.765	17878
826.904	17927
827.044	17657
827.183	17600
827.323	17547
827.462	17581
827.601	17490
827.741	17501
827.88	17562
828.02	17410
828.159	17589
828.298	17440
828.437	17573
828.577	17440
828.716	17657
828.855	17509
828.994	17326
829.134	17330
829.273	17341
829.412	17159
829.551	17223
829.69	17288
829.829	17220
829.968	17433
830.107	17315
830.246	17261
830.385	17258
830.524	17193
830.663	17090
830.802	17155
830.941	16797
831.08	16915
831.219	16953
831.357	16953
831.496	17128
831.635	16850
831.774	16790
831.913	16771
832.051	16702
832.19	16691
832.329	16683
832.467	16588
832.606	16596
832.744	16664
832.883	16611
833.022	16535
833.16	16580
833.299	16588
833.437	16584
833.576	16580
833.714	16679
833.852	16618
833.991	16607
834.129	16641
834.267	16641
834.406	16607
834.544	16615
834.682	16542
834.821	16622
834.959	16733
835.097	16618
835.235	16675
835.373	16649
835.511	16683
835.65	16569
835.788	16569
835.926	16379
836.064	16360
836.202	16268
836.34	16436
836.478	16584
836.615	16538
836.753	16436
836.891	16664
837.029	16554
837.167	16333
837.305	16550
837.443	16462
837.58	16337
837.718	16402
837.856	16337
837.993	16413
838.131	16379
838.269	16261
838.406	16337
838.544	16242
838.681	16044
838.819	15934
838.956	15918
839.094	16032
839.231	15968
839.369	16109
839.506	16367
839.643	16181
839.781	15884
839.918	15926
840.055	15998
840.193	15983
840.33	15911
840.467	15994
840.604	15979
840.742	16147
840.879	15854
841.016	15819
841.153	15819
841.29	16017
841.427	15968
841.564	15941
841.701	15930
841.838	15800
841.975	15789
842.112	15903
842.249	15724
842.385	15667
842.522	15911
842.659	15808
842.796	15660
842.933	15751
843.069	15762
843.206	15641
843.343	15701
843.479	15705
843.616	15717
843.752	15561
843.889	15454
844.025	15614
844.162	15447
844.298	15633
844.435	15526
844.571	15454
844.708	15477
844.844	15698
844.98	15603
845.117	15526
845.253	15485
845.389	15370
845.525	15397
845.661	15435
845.798	15252
845.934	15321
846.07	15279
846.206	15355
846.342	15458
846.478	15268
846.614	15119
846.75	14975
846.886	15081
847.022	15119
847.158	15024
847.294	15058
847.429	15157
847.565	15013
847.701	15340
847.837	14845
847.972	14804
848.108	14815
848.244	14804
848.379	14739
848.515	14724
848.65	14606
848.786	14667
848.921	14769
849.057	14864
849.192	14777
849.328	14777
849.463	14613
849.598	14674
849.734	14598
849.869	14514
850.004	14499
850.14	14530
850.275	14377
850.41	14305
850.545	14374
850.68	14381
850.815	14412
850.95	14461
851.085	14617
851.22	14541
851.355	14404
851.49	14339
851.625	14336
851.76	14347
851.895	14164
852.03	14305
852.165	14431
852.299	14370
852.434	14473
852.569	14476
852.703	14381
852.838	14522
852.973	14629
853.107	14629
853.242	14343
853.376	14278
853.511	14210
853.645	14202
853.78	14431
853.914	14294
854.048	14252
854.183	14294
854.317	14324
854.451	14488
854.585	14157
854.72	14259
854.854	14332
854.988	14164
855.122	14263
855.256	14126
855.39	14309
855.524	14347
855.658	14275
855.792	14294
855.926	14248
856.06	14362
856.194	14309
856.327	14309
856.461	14267
856.595	14237
856.729	14191
856.862	14431
856.996	14370
857.13	14389
857.263	14362
857.397	14351
857.53	14404
857.664	14393
857.797	14336
857.931	14332
858.064	14366
858.197	14408
858.331	14324
858.464	14206
858.597	14256
858.731	14298
858.864	14259
858.997	14248
859.13	14229
859.263	14252
859.396	14385
859.529	14195
859.662	14301
859.795	14210
859.928	14313
860.061	14381
860.194	14492
860.327	14259
860.46	14259
860.592	14469
860.725	14438
860.858	14438
860.99	14320
861.123	14252
861.256	14149
861.388	14298
861.521	14895
861.653	14153
861.786	14183
861.918	14180
862.05	14237
862.183	14263
862.315	14259
862.447	14286
862.58	14317
862.712	14046
862.844	14065
862.976	14077
863.108	14073
863.24	14488
863.372	14016
863.504	14065
863.636	14073
863.768	14123
863.9	14138
864.032	14024
864.164	14088
864.296	14073
864.428	14202
864.559	14252
864.691	14100
864.823	14157
864.954	14161
865.086	14119
865.217	14126
865.349	13989
865.48	14039
865.612	14119
865.743	14183
865.875	14020
866.006	14035
866.137	14027
866.269	14145
866.4	14077
866.531	14073
866.662	14027
866.793	13940
866.924	14031
867.055	14058
867.186	14001
867.317	14092
867.448	13947
867.579	14069
867.71	13963
867.841	13890
867.972	14111
868.103	14065
868.233	14168
868.364	14081
868.495	14088
868.625	14294
868.756	14358
868.886	14183
869.017	14225
869.147	14332
869.278	14358
869.408	14301
869.539	14355
869.669	14381
869.799	14385
869.929	14362
870.06	14374
870.19	14590
870.32	14632
870.45	14587
870.58	14750
870.71	14765
870.84	14754
870.97	14686
871.1	14674
871.23	14815
871.36	14887
871.489	14788
871.619	14861
871.749	14838
871.879	15005
872.008	15089
872.138	14891
872.267	14838
872.397	14716
872.526	14724
872.656	14731
872.785	14701
872.915	14929
873.044	14895
873.173	14952
873.303	14941
873.432	14925
873.561	15017
873.69	15039
873.819	15032
873.948	15017
874.077	14941
874.206	14944
874.335	15043
874.464	15055
874.593	15230
874.722	15207
874.851	15298
874.979	15279
875.108	15218
875.237	15237
875.365	15138
875.494	15207
875.623	15310
875.751	15233
875.88	15329
876.008	15389
876.136	15504
876.265	15568
876.393	15751
876.521	15671
876.65	15762
876.778	15675
876.906	15717
877.034	15606
877.162	15679
877.29	15553
877.418	15496
877.546	15705
877.674	15694
877.802	15701
877.93	15675
878.058	15629
878.185	15534
878.313	15648
878.441	15671
878.568	15515
878.696	15576
878.824	15739
878.951	15747
879.079	15800
879.206	15975
879.333	15827
879.461	15808
879.588	15720
879.715	15888
879.842	15899
879.97	15717
880.097	15496
880.224	15485
880.351	15557
880.478	15591
880.605	15458
880.732	15507
880.859	15762
880.986	15473
881.112	15584
881.239	15439
881.366	15245
881.493	15256
881.619	15085
881.746	15180
881.872	15283
881.999	15097
882.125	15104
882.252	15135
882.378	15268
882.505	15260
882.631	15005
882.757	15055
882.883	15100
883.01	15017
883.136	14979
883.262	14853
883.388	14842
883.514	15066
883.64	15036
883.766	15017
883.892	14804
884.018	14777
884.143	14986
884.269	15017
884.395	14735
884.52	14613
884.646	14693
884.772	14629
884.897	14636
885.023	14727
885.148	14777
885.274	14788
885.399	14788
885.524	14693
885.65	14689
885.775	14735
885.9	14754
886.025	14834
886.15	14773
886.275	14655
886.4	14564
886.525	14701
886.65	14602
886.775	14552
886.9	14807
887.025	14910
887.149	14705
887.274	14541
887.399	14438
887.523	14522
887.648	14415
887.773	14381
887.897	14530
888.021	14571
888.146	14560
888.27	14560
888.395	14667
888.519	14533
888.643	14629
888.767	14564
888.891	14461
889.015	14434
889.139	14393
889.263	14336
889.387	14518
889.511	14571
889.635	14454
889.759	14320
889.883	14404
890.006	14278
890.13	14454
890.254	14377
890.377	14358
890.501	14206
890.624	14157
890.748	14328
890.871	14164
890.995	14043
891.118	13970
891.241	14202
891.364	14111
891.488	14164
891.611	14164
891.734	14069
891.857	14142
891.98	14138
892.103	14138
892.226	14149
892.349	14111
892.471	13921
892.594	14092
892.717	14164
892.839	14046
892.962	14054
893.085	14138
893.207	14237
893.33	13944
893.452	13993
893.575	14187
893.697	14039
893.819	14324
893.941	14275
894.064	14256
894.186	14050
894.308	14046
894.43	14233
894.552	14336
894.674	14206
894.796	14001
894.918	14058
895.04	14142
895.161	14237
895.283	14187
895.405	14176
895.526	14142
895.648	14187
895.769	14237
895.891	14168
896.012	14320
896.134	14278
896.255	14275
896.376	14176
896.498	14240
896.619	14377
896.74	14298
896.861	14423
896.982	14826
897.103	14754
897.224	14537
897.345	14568
897.466	14381
897.587	14514
897.708	14644
897.828	14606
897.949	14469
898.07	14362
898.19	14511
898.311	14682
898.431	14617
898.552	14549
898.672	14716
898.792	14739
898.913	14613
899.033	14552
899.153	14473
899.273	14339
899.393	14431
899.513	14495
899.633	14454
899.753	14564
899.873	14442
899.993	14560
900.113	14469
900.232	14476
900.352	14568
900.472	14404
900.591	14328
900.711	14404
900.83	14328
900.95	14339
901.069	14480
901.189	14267
901.308	14111
901.427	13970
901.546	14039
901.665	14065
901.784	14081
901.904	13917
902.023	13788
902.141	13632
902.26	13605
902.379	13685
902.498	13525
902.617	13540
902.735	13590
902.854	13559
902.973	13594
903.091	13316
903.21	13369
903.328	13304
903.446	13285
903.565	13156
903.683	13194
903.801	13061
903.919	13137
904.038	13046
904.156	13000
904.274	13019
904.392	12977
904.51	12981
904.627	12913
904.745	12996
904.863	12954
904.981	12757
905.098	12631
905.216	12589
905.334	12665
905.451	12635
905.569	12623
905.686	12726
905.803	12692
905.921	12471
906.038	12654
906.155	12498
906.272	12422
906.389	12498
906.506	12239
906.623	12289
906.74	12167
906.857	12152
906.974	12155
907.091	12308
907.208	12395
907.324	12308
907.441	12224
907.557	12102
907.674	12038
907.79	11961
907.907	11942
908.023	12030
908.139	11973
908.256	11874
908.372	11980
908.488	11935
908.604	11718
908.72	11779
908.836	11786
908.952	11790
909.068	11828
909.184	11893
909.3	11684
909.415	11855
909.531	11802
909.647	11615
909.762	11497
909.878	11512
909.993	11474
910.108	11592
910.224	11520
910.339	11444
910.454	11391
910.57	11398
910.685	11406
910.8	11554
910.915	11482
911.03	11429
911.145	11242
911.259	11307
911.374	11220
911.489	11246
911.604	11067
911.718	10991
911.833	10991
911.947	10965
912.062	10866
912.176	10843
912.291	10896
912.405	10972
912.519	11098
912.633	11140
912.748	11079
912.862	10953
912.976	10896
913.09	10755
913.204	10828
913.318	10866
913.431	10972
913.545	10938
913.659	10984
913.772	10858
913.886	10797
914	10710
914.113	10763
914.226	10854
914.34	10854
914.453	10710
914.566	10812
914.68	10694
914.793	10710
914.906	10538
915.019	10527
915.132	10417
915.245	10451
915.358	10527
915.47	10512
915.583	10455
915.696	10561
915.809	10637
915.921	10687
916.034	10466
916.146	10382
916.259	10489
916.371	10497
916.483	10519
916.595	10341
916.708	10371
916.82	10489
916.932	10470
917.044	10379
917.156	10344
917.268	10329
917.38	10402
917.491	10314
917.603	10344
917.715	10382
917.826	10485
917.938	10375
918.049	10268
918.161	10310
918.272	10481
918.384	10443
918.495	10322
918.606	10192
918.717	10185
918.828	10249
918.939	10166
919.05	10071
919.161	10204
919.272	9907
919.383	9975
919.494	10230
919.604	10398
919.715	10196
919.826	10200
919.936	10276
920.047	10287
920.157	10295
920.267	10455
920.378	10227
920.488	10169
920.598	10352
920.708	10558
920.818	10459
920.928	10455
921.038	10523
921.148	10626
921.258	10280
921.368	10124
921.477	10124
921.587	10135
921.697	9972
921.806	10124
921.916	10036
922.025	9857
922.134	9743
922.244	9751
922.353	9816
922.462	9625
922.571	9576
922.68	9530
922.789	9443
922.898	9492
923.007	9466
923.116	9564
923.224	9458
923.333	9492
923.442	9313
923.55	9443
923.659	9321
923.767	9397
923.876	9325
923.984	9439
924.092	9302
924.201	9447
924.309	9302
924.417	9378
924.525	9340
924.633	9302
924.741	10265
924.849	9138
924.956	9291
925.064	9093
925.172	9039
925.279	9077
925.387	9146
925.494	9135
925.602	9287
925.709	9241
925.816	9058
925.924	9150
926.031	9180
926.138	9138
926.245	9180
926.352	9066
926.459	9138
926.566	9203
926.673	9116
926.779	8956
926.886	8929
926.993	8861
927.099	8830
927.206	8804
927.312	8838
927.419	8895
927.525	8902
927.631	8872
927.737	8804
927.843	8678
927.95	8625
928.056	8705
928.162	8735
928.267	8750
928.373	9386
928.479	8815
928.585	8575
928.69	8754
928.796	8708
928.901	8632
929.007	8511
929.112	8629
929.218	8636
929.323	8617
929.428	8598
929.533	8727
929.638	8503
929.743	8526
929.848	8552
929.953	8583
930.058	8434
930.163	8332
930.267	8393
930.372	8427
930.477	8298
930.581	8587
930.685	8355
930.79	8275
930.894	8294
930.998	8256
931.103	8358
931.207	8069
931.311	8096
931.415	7917
931.519	7700
931.623	7822
