Data from test_V78500241_2337.txt Node
Date: Fri Mar 25 14:49:59 CST 2022
User: usil
Spectrometer: V785-0024
Trigger mode: 0
Integration Time (sec): 4.000000E-1
Scans to average: 1
Nonlinearity correction enabled: false
Boxcar width: 0
Storing dark spectrum: false
XAxis mode: Wavelengths
Number of Pixels in Spectrum: 1024
>>>>>Begin Spectral Data<<<<<
801.071	22284
801.214	22029
801.356	21774
801.499	21720
801.641	21641
801.783	21690
801.926	21466
802.068	21481
802.211	21317
802.353	21488
802.496	21176
802.638	21100
802.78	20895
802.923	21020
803.065	20842
803.208	20937
803.35	20845
803.492	21009
803.635	21009
803.777	20781
803.919	20982
804.061	21199
804.204	21074
804.346	20876
804.488	20743
804.63	20853
804.773	20750
804.915	20853
805.057	20788
805.199	20788
805.341	20948
805.483	20849
805.626	20895
805.768	20724
805.91	20800
806.052	20819
806.194	20746
806.336	20956
806.478	20872
806.62	20800
806.762	21001
806.904	21055
807.046	21195
807.188	21131
807.33	21161
807.472	21165
807.614	20982
807.756	21032
807.898	20921
808.04	20956
808.182	20845
808.324	20891
808.465	20933
808.607	21024
808.749	21142
808.891	21199
809.033	21393
809.174	21256
809.316	21169
809.458	21180
809.6	21123
809.741	21192
809.883	21268
810.025	21386
810.166	21306
810.308	21370
810.45	21344
810.591	21272
810.733	21096
810.875	20941
811.016	20815
811.158	20857
811.299	20956
811.441	21150
811.582	21032
811.724	20979
811.865	20876
812.007	20895
812.148	20895
812.29	20990
812.431	21070
812.573	21195
812.714	21405
812.855	21428
812.997	21504
813.138	21724
813.279	21576
813.421	21477
813.562	21367
813.703	21218
813.845	20933
813.986	20823
814.127	20697
814.268	20545
814.41	20560
814.551	20495
814.692	20526
814.833	20457
814.974	20499
815.115	20533
815.256	20351
815.397	20317
815.539	20358
815.68	20286
815.821	20199
815.962	20183
816.103	20240
816.244	20001
816.385	19974
816.526	20001
816.666	19791
816.807	19685
816.948	19723
817.089	19814
817.23	19750
817.371	19552
817.512	19639
817.653	19552
817.793	19548
817.934	19487
818.075	19495
818.216	19578
818.356	19487
818.497	19548
818.638	19388
818.778	19259
818.919	19304
819.06	19384
819.2	19449
819.341	19491
819.481	19453
819.622	19460
819.762	19811
819.903	19719
820.043	19643
820.184	19586
820.324	19582
820.465	19655
820.605	19628
820.746	19624
820.886	19396
821.026	19655
821.167	19529
821.307	19594
821.447	19521
821.588	19430
821.728	19289
821.868	19118
822.008	18958
822.149	18989
822.289	18954
822.429	18787
822.569	18760
822.709	18673
822.849	18513
822.99	18429
823.13	18486
823.27	18395
823.41	18353
823.55	18323
823.69	18289
823.83	18254
823.97	18114
824.11	17980
824.25	18049
824.389	18049
824.529	18148
824.669	17973
824.809	18076
824.949	18110
825.089	18197
825.228	18007
825.368	17870
825.508	17878
825.648	17866
825.787	17897
825.927	17897
826.067	17760
826.206	17653
826.346	17832
826.485	17893
826.625	17824
826.765	17904
826.904	17927
827.044	17630
827.183	17665
827.323	17452
827.462	17680
827.601	17562
827.741	17471
827.88	17524
828.02	17414
828.159	17505
828.298	17486
828.437	17501
828.577	17444
828.716	17615
828.855	17505
828.994	17280
829.134	17284
829.273	17231
829.412	17200
829.551	17269
829.69	17140
829.829	17242
829.968	17387
830.107	17292
830.246	17303
830.385	17208
830.524	17147
830.663	17109
830.802	17014
830.941	16858
831.08	16889
831.219	16934
831.357	16968
831.496	17113
831.635	16862
831.774	16805
831.913	16793
832.051	16637
832.19	16675
832.329	16668
832.467	16485
832.606	16443
832.744	16508
832.883	16478
833.022	16580
833.16	16584
833.299	16478
833.437	16580
833.576	16611
833.714	16584
833.852	16561
833.991	16592
834.129	16660
834.267	16664
834.406	16660
834.544	16679
834.682	16493
834.821	16611
834.959	16831
835.097	16561
835.235	16752
835.373	16653
835.511	16664
835.65	16485
835.788	16390
835.926	16291
836.064	16413
836.202	16394
836.34	16569
836.478	16546
836.615	16554
836.753	16573
836.891	16561
837.029	16588
837.167	16489
837.305	16432
837.443	16363
837.58	16291
837.718	16382
837.856	16375
837.993	16333
838.131	16352
838.269	16268
838.406	16379
838.544	16177
838.681	16032
838.819	16029
838.956	15941
839.094	15888
839.231	15838
839.369	16021
839.506	16299
839.643	16109
839.781	15892
839.918	15903
840.055	15960
840.193	15941
840.33	15956
840.467	15903
840.604	15895
840.742	16139
840.879	15774
841.016	15922
841.153	15941
841.29	16051
841.427	15915
841.564	15915
841.701	15846
841.838	15869
841.975	15861
842.112	15861
842.249	15778
842.385	15622
842.522	15949
842.659	15759
842.796	15736
842.933	15739
843.069	15564
843.206	15576
843.343	15705
843.479	15690
843.616	15755
843.752	15473
843.889	15564
844.025	15542
844.162	15412
844.298	15538
844.435	15469
844.571	15428
844.708	15424
844.844	15576
844.98	15736
845.117	15519
845.253	15447
845.389	15302
845.525	15405
845.661	15393
845.798	15283
845.934	15321
846.07	15211
846.206	15321
846.342	15378
846.478	15222
846.614	15123
846.75	15001
846.886	14975
847.022	15226
847.158	15089
847.294	14967
847.429	14960
847.565	14960
847.701	15252
847.837	14754
847.972	14842
848.108	14895
848.244	14849
848.379	14636
848.515	14648
848.65	14579
848.786	14594
848.921	14682
849.057	14746
849.192	14762
849.328	14648
849.463	14743
849.598	14507
849.734	14514
849.869	14469
850.004	14412
850.14	14457
850.275	14408
850.41	14412
850.545	14332
850.68	14358
850.815	14408
850.95	14465
851.085	14659
851.22	14461
851.355	14461
851.49	14431
851.625	14343
851.76	14355
851.895	14294
852.03	14343
852.165	14332
852.299	14442
852.434	14522
852.569	14438
852.703	14415
852.838	14465
852.973	14613
853.107	14518
853.242	14366
853.376	14374
853.511	14176
853.645	14259
853.78	14339
853.914	14301
854.048	14233
854.183	14263
854.317	14393
854.451	14511
854.585	14267
854.72	14278
854.854	14355
854.988	14259
855.122	14240
855.256	14157
855.39	14256
855.524	14278
855.658	14317
855.792	14324
855.926	14320
856.06	14240
856.194	14313
856.327	14259
856.461	14107
856.595	14252
856.729	14214
856.862	14431
856.996	14347
857.13	14374
857.263	14393
857.397	14442
857.53	14286
857.664	14317
857.797	14419
857.931	14332
858.064	14347
858.197	14404
858.331	14343
858.464	14317
858.597	14229
858.731	14271
858.864	14256
858.997	14225
859.13	14336
859.263	14324
859.396	14400
859.529	14336
859.662	14290
859.795	14248
859.928	14320
860.061	14355
860.194	14305
860.327	14271
860.46	14313
860.592	14370
860.725	14385
860.858	14446
860.99	14221
861.123	14206
861.256	14142
861.388	14290
861.521	14739
861.653	14168
861.786	14103
861.918	14214
862.05	14256
862.183	14294
862.315	14286
862.447	14248
862.58	14176
862.712	14134
862.844	14084
862.976	14126
863.108	14027
863.24	14454
863.372	14050
863.504	14096
863.636	14039
863.768	14031
863.9	13967
864.032	13947
864.164	14008
864.296	14073
864.428	14161
864.559	14199
864.691	14119
864.823	14130
864.954	14153
865.086	14069
865.217	14115
865.349	13997
865.48	14126
865.612	14126
865.743	14130
865.875	14054
866.006	14027
866.137	14054
866.269	14008
866.4	14035
866.531	13909
866.662	13989
866.793	13928
866.924	13906
867.055	14039
867.186	14092
867.317	14084
867.448	13932
867.579	13997
867.71	13944
867.841	13940
867.972	14012
868.103	14050
868.233	14012
868.364	14046
868.495	14145
868.625	14286
868.756	14305
868.886	14237
869.017	14305
869.147	14370
869.278	14358
869.408	14275
869.539	14248
869.669	14320
869.799	14248
869.929	14526
870.06	14389
870.19	14590
870.32	14590
870.45	14575
870.58	14712
870.71	14739
870.84	14815
870.97	14663
871.1	14727
871.23	14868
871.36	14895
871.489	14743
871.619	14765
871.749	14944
871.879	14880
872.008	14960
872.138	14910
872.267	14986
872.397	14735
872.526	14644
872.656	14655
872.785	14686
872.915	14925
873.044	15001
873.173	14853
873.303	14971
873.432	14967
873.561	15138
873.69	14952
873.819	14963
873.948	15001
874.077	14906
874.206	14876
874.335	14842
874.464	15070
874.593	15199
874.722	15089
874.851	15245
874.979	15237
875.108	15363
875.237	15184
875.365	15119
875.494	15199
875.623	15348
875.751	15192
875.88	15218
876.008	15443
876.136	15454
876.265	15778
876.393	15846
876.521	15842
876.65	15747
876.778	15690
876.906	15625
877.034	15663
877.162	15755
877.29	15584
877.418	15652
877.546	15690
877.674	15698
877.802	15648
877.93	15648
878.058	15519
878.185	15618
878.313	15682
878.441	15679
878.568	15530
878.696	15568
878.824	15644
878.951	15736
879.079	15831
879.206	15972
879.333	15930
879.461	15743
879.588	15781
879.715	15873
879.842	15884
879.97	15747
880.097	15443
880.224	15485
880.351	15584
880.478	15534
880.605	15595
880.732	15382
880.859	15709
880.986	15606
881.112	15389
881.239	15401
881.366	15302
881.493	15237
881.619	15180
881.746	15241
881.872	15241
881.999	15135
882.125	15131
882.252	15146
882.378	15214
882.505	15264
882.631	15135
882.757	15005
882.883	15039
883.01	15032
883.136	14975
883.262	14727
883.388	14842
883.514	14929
883.64	15036
883.766	14967
883.892	14758
884.018	14872
884.143	14910
884.269	15043
884.395	14739
884.52	14796
884.646	14735
884.772	14556
884.897	14549
885.023	14651
885.148	14781
885.274	14861
885.399	14842
885.524	14678
885.65	14648
885.775	14659
885.9	14678
886.025	14773
886.15	14705
886.275	14720
886.4	14568
886.525	14617
886.65	14583
886.775	14560
886.9	14811
887.025	14956
887.149	14712
887.274	14598
887.399	14465
887.523	14469
887.648	14389
887.773	14351
887.897	14621
888.021	14613
888.146	14404
888.27	14541
888.395	14720
888.519	14526
888.643	14518
888.767	14636
888.891	14431
889.015	14408
889.139	14434
889.263	14438
889.387	14530
889.511	14625
889.635	14473
889.759	14408
889.883	14396
890.006	14362
890.13	14511
890.254	14286
890.377	14309
890.501	14096
890.624	14244
890.748	14218
890.871	14065
890.995	14008
891.118	14069
891.241	14134
891.364	14115
891.488	14164
891.611	13978
891.734	14100
891.857	14107
891.98	14119
892.103	14187
892.226	14145
892.349	14115
892.471	13921
892.594	14027
892.717	13982
892.839	14081
892.962	14077
893.085	14153
893.207	14084
893.33	13902
893.452	13986
893.575	14206
893.697	14024
893.819	14278
893.941	14157
894.064	14317
894.186	14031
894.308	14046
894.43	14229
894.552	14377
894.674	14313
894.796	14111
894.918	14191
895.04	14153
895.161	14214
895.283	14240
895.405	14084
895.526	14153
895.648	14263
895.769	14298
895.891	14278
896.012	14366
896.134	14286
896.255	14252
896.376	14195
896.498	14259
896.619	14278
896.74	14183
896.861	14404
896.982	14583
897.103	14743
897.224	14503
897.345	14488
897.466	14419
897.587	14495
897.708	14739
897.828	14598
897.949	14568
898.07	14408
898.19	14495
898.311	14613
898.431	14533
898.552	14571
898.672	14731
898.792	14731
898.913	14659
899.033	14587
899.153	14457
899.273	14396
899.393	14507
899.513	14419
899.633	14575
899.753	14495
899.873	14484
899.993	14423
900.113	14454
900.232	14484
900.352	14526
900.472	14328
900.591	14351
900.711	14358
900.83	14347
900.95	14457
901.069	14461
901.189	14286
901.308	14046
901.427	14016
901.546	13970
901.665	13989
901.784	14092
901.904	13879
902.023	13822
902.141	13647
902.26	13681
902.379	13605
902.498	13586
902.617	13563
902.735	13613
902.854	13578
902.973	13483
903.091	13358
903.21	13343
903.328	13335
903.446	13160
903.565	13145
903.683	13206
903.801	13137
903.919	13145
904.038	13160
904.156	12954
904.274	13084
904.392	12962
904.51	12905
904.627	12890
904.745	13046
904.863	12962
904.981	12791
905.098	12650
905.216	12627
905.334	12741
905.451	12684
905.569	12730
905.686	12726
905.803	12722
905.921	12494
906.038	12681
906.155	12506
906.272	12334
906.389	12426
906.506	12304
906.623	12251
906.74	12277
906.857	12190
906.974	12175
907.091	12346
907.208	12357
907.324	12258
907.441	12178
907.557	12053
907.674	11950
907.79	11851
907.907	11946
908.023	12030
908.139	11961
908.256	11958
908.372	11942
908.488	11882
908.604	11817
908.72	11672
908.836	11885
908.952	11695
909.068	11691
909.184	11893
909.3	11733
909.415	11802
909.531	11646
909.647	11592
909.762	11474
909.878	11448
909.993	11547
910.108	11493
910.224	11387
910.339	11512
910.454	11512
910.57	11318
910.685	11322
910.8	11585
910.915	11509
911.03	11421
911.145	11208
911.259	11185
911.374	11212
911.489	11143
911.604	11102
911.718	11025
911.833	11006
911.947	10923
912.062	10858
912.176	10968
912.291	11056
912.405	10991
912.519	11151
912.633	11147
912.748	10961
912.862	11029
912.976	10946
913.09	10801
913.204	10824
913.318	10869
913.431	10938
913.545	11067
913.659	10911
913.772	10934
913.886	10797
914	10691
914.113	10782
914.226	10987
914.34	10759
914.453	10744
914.566	10771
914.68	10675
914.793	10607
914.906	10508
915.019	10489
915.132	10375
915.245	10519
915.358	10519
915.47	10565
915.583	10443
915.696	10596
915.809	10592
915.921	10611
916.034	10440
916.146	10417
916.259	10409
916.371	10497
916.483	10554
916.595	10382
916.708	10371
916.82	10371
916.932	10474
917.044	10382
917.156	10360
917.268	10329
917.38	10276
917.491	10257
917.603	10375
917.715	10390
917.826	10413
917.938	10344
918.049	10215
918.161	10310
918.272	10455
918.384	10516
918.495	10352
918.606	10200
918.717	10093
918.828	10242
918.939	10192
919.05	10097
919.161	10109
919.272	10006
919.383	10044
919.494	10238
919.604	10409
919.715	10272
919.826	10120
919.936	10150
920.047	10253
920.157	10173
920.267	10413
920.378	10249
920.488	10215
920.598	10409
920.708	10569
920.818	10451
920.928	10424
921.038	10603
921.148	10565
921.258	10257
921.368	10223
921.477	10090
921.587	10090
921.697	9930
921.806	10105
921.916	9960
922.025	9812
922.134	9831
922.244	9755
922.353	9770
922.462	9637
922.571	9595
922.68	9458
922.789	9481
922.898	9511
923.007	9500
923.116	9511
923.224	9469
923.333	9450
923.442	9420
923.55	9348
923.659	9439
923.767	9443
923.876	9367
923.984	9412
924.092	9268
924.201	9351
924.309	9405
924.417	9298
924.525	9211
924.633	9310
924.741	10101
924.849	9043
924.956	9306
925.064	9066
925.172	8994
925.279	9070
925.387	9192
925.494	9150
925.602	9272
925.709	9207
925.816	9089
925.924	9070
926.031	9233
926.138	9131
926.245	9180
926.352	9020
926.459	9169
926.566	9192
926.673	9017
926.779	8960
926.886	8979
926.993	8918
927.099	8864
927.206	8762
927.312	8838
927.419	8830
927.525	8800
927.631	8849
927.737	8716
927.843	8720
927.95	8533
928.056	8663
928.162	8750
928.267	8773
928.373	9439
928.479	8838
928.585	8594
928.69	8693
928.796	8792
928.901	8686
929.007	8602
929.112	8655
929.218	8571
929.323	8533
929.428	8560
929.533	8678
929.638	8408
929.743	8564
929.848	8556
929.953	8545
930.058	8423
930.163	8263
930.267	8336
930.372	8423
930.477	8282
930.581	8541
930.685	8434
930.79	8218
930.894	8229
930.998	8279
931.103	8450
931.207	8062
931.311	8016
931.415	7944
931.519	7753
931.623	7742
