Data from test_V78500241_115.txt Node
Date: Fri Mar 25 14:34:31 CST 2022
User: usil
Spectrometer: V785-0024
Trigger mode: 0
Integration Time (sec): 4.000000E-1
Scans to average: 1
Nonlinearity correction enabled: false
Boxcar width: 0
Storing dark spectrum: false
XAxis mode: Wavelengths
Number of Pixels in Spectrum: 1024
>>>>>Begin Spectral Data<<<<<
801.071	31285
801.214	31388
801.356	31050
801.499	30992
801.641	30954
801.783	30935
801.926	30924
802.068	30920
802.211	30882
802.353	30802
802.496	30490
802.638	30764
802.78	30597
802.923	30445
803.065	30498
803.208	30688
803.35	30669
803.492	30791
803.635	30734
803.777	30897
803.919	30825
804.061	31183
804.204	30886
804.346	30814
804.488	30989
804.63	30764
804.773	30779
804.915	30970
805.057	31114
805.199	31076
805.341	31103
805.483	31358
805.626	31244
805.768	31274
805.91	31479
806.052	31674
806.194	31365
806.336	31780
806.478	31761
806.62	31966
806.762	32176
806.904	32438
807.046	32701
807.188	32914
807.33	33157
807.472	33587
807.614	33972
807.756	34550
807.898	35083
808.04	35965
808.182	37202
808.324	38781
808.465	40569
808.607	42505
808.749	44271
808.891	45226
809.033	45359
809.174	44400
809.316	42673
809.458	40474
809.6	38415
809.741	36901
809.883	35832
810.025	34900
810.166	34238
810.308	33778
810.45	33367
810.591	32963
810.733	32868
810.875	32457
811.016	32294
811.158	32161
811.299	32187
811.441	32111
811.582	31989
811.724	31951
811.865	31837
812.007	31666
812.148	31776
812.29	31780
812.431	31932
812.573	31833
812.714	31917
812.855	32005
812.997	32111
813.138	32145
813.279	32103
813.421	31860
813.562	31902
813.703	31590
813.845	31616
813.986	31228
814.127	30985
814.268	30901
814.41	30992
814.551	30916
814.692	30871
814.833	30791
814.974	30620
815.115	30741
815.256	30525
815.397	30604
815.539	30604
815.68	30441
815.821	30445
815.962	30563
816.103	30448
816.244	30323
816.385	30171
816.526	30083
816.666	29840
816.807	29840
816.948	29878
817.089	29828
817.23	29687
817.371	29771
817.512	29752
817.653	29680
817.793	29596
817.934	29684
818.075	29752
818.216	29707
818.356	29509
818.497	29596
818.638	29524
818.778	29375
818.919	29493
819.06	29512
819.2	29505
819.341	29596
819.481	29455
819.622	29802
819.762	29748
819.903	29984
820.043	29851
820.184	29665
820.324	29554
820.465	29767
820.605	29505
820.746	29592
820.886	29288
821.026	29474
821.167	29452
821.307	29493
821.447	29520
821.588	29261
821.728	29060
821.868	28877
822.008	28888
822.149	28862
822.289	28771
822.429	28660
822.569	28599
822.709	28398
822.849	28291
822.99	28230
823.13	28257
823.27	28299
823.41	27994
823.55	27945
823.69	27949
823.83	28093
823.97	27949
824.11	27759
824.25	27770
824.389	27698
824.529	27766
824.669	27690
824.809	27812
824.949	27899
825.089	27861
825.228	27762
825.368	27625
825.508	27545
825.648	27625
825.787	27713
825.927	27568
826.067	27633
826.206	27641
826.346	27644
826.485	27603
826.625	27488
826.765	27660
826.904	27610
827.044	27393
827.183	27370
827.323	27252
827.462	27211
827.601	27237
827.741	27222
827.88	27272
828.02	27085
828.159	27135
828.298	27131
828.437	27188
828.577	27055
828.716	27287
828.855	27127
828.994	26887
829.134	26982
829.273	26883
829.412	26853
829.551	26731
829.69	26906
829.829	26724
829.968	26891
830.107	26899
830.246	26777
830.385	26697
830.524	26712
830.663	26731
830.802	26594
830.941	26503
831.08	26446
831.219	26598
831.357	26518
831.496	26526
831.635	26419
831.774	26347
831.913	26381
832.051	26240
832.19	26290
832.329	26240
832.467	26153
832.606	26035
832.744	26214
832.883	26248
833.022	26157
833.16	26381
833.299	26362
833.437	26370
833.576	26457
833.714	26670
833.852	26716
833.991	26838
834.129	26902
834.267	26921
834.406	26872
834.544	26689
834.682	26609
834.821	26453
834.959	26583
835.097	26301
835.235	26400
835.373	26404
835.511	26046
835.65	26054
835.788	26001
835.926	25811
836.064	25704
836.202	25670
836.34	25921
836.478	25986
836.615	25704
836.753	25807
836.891	25928
837.029	25986
837.167	25795
837.305	25696
837.443	25590
837.58	25567
837.718	25708
837.856	25597
837.993	25521
838.131	25700
838.269	25514
838.406	25365
838.544	25301
838.681	25362
838.819	25236
838.956	25042
839.094	25038
839.231	24958
839.369	25160
839.506	25278
839.643	25194
839.781	24852
839.918	24939
840.055	24875
840.193	24890
840.33	24890
840.467	24920
840.604	24863
840.742	25084
840.879	24757
841.016	24817
841.153	24650
841.29	24924
841.427	24692
841.564	24791
841.701	24958
841.838	24688
841.975	24688
842.112	24612
842.249	24612
842.385	24688
842.522	24802
842.659	24555
842.796	24372
842.933	24525
843.069	24479
843.206	24509
843.343	24692
843.479	24631
843.616	24726
843.752	24460
843.889	24460
844.025	24578
844.162	24604
844.298	24707
844.435	24559
844.571	24715
844.708	24897
844.844	25228
844.98	25460
845.117	25849
845.253	26332
845.389	27412
845.525	29303
845.661	32674
845.798	36669
845.934	39945
846.07	41037
846.206	40322
846.342	37639
846.478	33656
846.614	30148
846.75	27633
846.886	26202
847.022	25400
847.158	24939
847.294	24707
847.429	24391
847.565	24262
847.701	24338
847.837	23794
847.972	23710
848.108	23699
848.244	23596
848.379	23410
848.515	23455
848.65	23334
848.786	23204
848.921	23258
849.057	23368
849.192	23299
849.328	23353
849.463	23345
849.598	23395
849.734	23181
849.869	23060
850.004	23041
850.14	23018
850.275	23018
850.41	22923
850.545	22862
850.68	22892
850.815	23044
850.95	22892
851.085	23094
851.22	23140
851.355	22995
851.49	22949
851.625	22889
851.76	22869
851.895	22767
852.03	22767
852.165	22847
852.299	23014
852.434	23048
852.569	23052
852.703	22923
852.838	22927
852.973	23147
853.107	23094
853.242	22972
853.376	22774
853.511	22812
853.645	22885
853.78	23037
853.914	22927
854.048	22930
854.183	23083
854.317	22961
854.451	23098
854.585	22923
854.72	23052
854.854	23014
854.988	22854
855.122	22911
855.256	22740
855.39	22911
855.524	22892
855.658	22858
855.792	22740
855.926	22752
856.06	22733
856.194	22771
856.327	22778
856.461	22710
856.595	22596
856.729	22615
856.862	22793
856.996	22687
857.13	22729
857.263	22702
857.397	22683
857.53	22729
857.664	22755
857.797	22630
857.931	22729
858.064	22683
858.197	22774
858.331	22630
858.464	22481
858.597	22440
858.731	22588
858.864	22459
858.997	22493
859.13	22550
859.263	22474
859.396	22550
859.529	22531
859.662	22428
859.795	22413
859.928	22466
860.061	22713
860.194	22744
860.327	22516
860.46	22440
860.592	22630
860.725	22554
860.858	22523
860.99	22565
861.123	22371
861.256	22382
861.388	22402
861.521	23220
861.653	22363
861.786	22158
861.918	22432
862.05	22459
862.183	22634
862.315	22675
862.447	22702
862.58	22497
862.712	22219
862.844	22204
862.976	22310
863.108	22234
863.24	22470
863.372	22135
863.504	22219
863.636	22272
863.768	22314
863.9	22070
864.032	22147
864.164	22147
864.296	22105
864.428	22238
864.559	22200
864.691	22120
864.823	22139
864.954	22070
865.086	22139
865.217	22021
865.349	21819
865.48	21918
865.612	22044
865.743	22177
865.875	22086
866.006	21903
866.137	21941
866.269	22051
866.4	21983
866.531	21949
866.662	21884
866.793	21941
866.924	21941
867.055	22048
867.186	21949
867.317	21972
867.448	21778
867.579	21827
867.71	21823
867.841	21888
867.972	21899
868.103	21819
868.233	21907
868.364	21945
868.495	22059
868.625	22185
868.756	22246
868.886	22021
869.017	22215
869.147	22223
869.278	22306
869.408	22154
869.539	22131
869.669	22238
869.799	22181
869.929	22337
870.06	22169
870.19	22527
870.32	22462
870.45	22443
870.58	22584
870.71	22744
870.84	22725
870.97	22660
871.1	22504
871.23	22812
871.36	22778
871.489	22771
871.619	22733
871.749	22752
871.879	22900
872.008	23022
872.138	22869
872.267	22858
872.397	22911
872.526	22672
872.656	22759
872.785	22809
872.915	23033
873.044	23113
873.173	22953
873.303	22934
873.432	22968
873.561	23113
873.69	22999
873.819	23006
873.948	23006
874.077	23018
874.206	22957
874.335	23117
874.464	23185
874.593	23444
874.722	23322
874.851	23486
874.979	23360
875.108	23459
875.237	23471
875.365	23414
875.494	23436
875.623	23604
875.751	23391
875.88	23547
876.008	23646
876.136	23859
876.265	24072
876.393	24117
876.521	24167
876.65	24152
876.778	24213
876.906	24159
877.034	24076
877.162	24239
877.29	24247
877.418	24315
877.546	24289
877.674	24376
877.802	24544
877.93	24570
878.058	24658
878.185	24711
878.313	24996
878.441	25179
878.568	25301
878.696	25685
878.824	26069
878.951	26891
879.079	27774
879.206	29079
879.333	30289
879.461	31285
879.588	31849
879.715	31997
879.842	31559
879.97	30201
880.097	28843
880.224	27884
880.351	27294
880.478	26773
880.605	26309
880.732	26073
880.859	26221
880.986	25982
881.112	25868
881.239	25556
881.366	25457
881.493	25403
881.619	25377
881.746	25453
881.872	25521
881.999	25244
882.125	25373
882.252	25400
882.378	25563
882.505	25613
882.631	25362
882.757	25198
882.883	25449
883.01	25228
883.136	25179
883.262	25129
883.388	24996
883.514	25255
883.64	25247
883.766	25133
883.892	25034
884.018	25015
884.143	25221
884.269	25225
884.395	25027
884.52	25027
884.646	24962
884.772	24852
884.897	24768
885.023	24833
885.148	24791
885.274	24913
885.399	24757
885.524	24639
885.65	24593
885.775	24597
885.9	24445
886.025	24376
886.15	24258
886.275	24121
886.4	24026
886.525	23965
886.65	23931
886.775	23859
886.9	23866
887.025	23988
887.149	23691
887.274	23505
887.399	23440
887.523	23364
887.648	23311
887.773	23189
887.897	23402
888.021	23166
888.146	23029
888.27	23254
888.395	23083
888.519	23010
888.643	22942
888.767	22968
888.891	22831
889.015	22645
889.139	22740
889.263	22645
889.387	22656
889.511	22831
889.635	22573
889.759	22531
889.883	22603
890.006	22531
890.13	22538
890.254	22424
890.377	22280
890.501	22101
890.624	22128
890.748	22185
890.871	22040
890.995	21983
891.118	21808
891.241	21838
891.364	21918
891.488	22002
891.611	21918
891.734	21892
891.857	21736
891.98	21838
892.103	21835
892.226	21766
892.349	21648
892.471	21549
892.594	21595
892.717	21690
892.839	21679
892.962	21587
893.085	21641
893.207	21485
893.33	21294
893.452	21439
893.575	21458
893.697	21367
893.819	21496
893.941	21622
894.064	21534
894.186	21287
894.308	21382
894.43	21496
894.552	21515
894.674	21348
894.796	21211
894.918	21332
895.04	21279
895.161	21237
895.283	21184
895.405	21146
895.526	21154
895.648	20990
895.769	21123
895.891	21226
896.012	21317
896.134	21237
896.255	21173
896.376	21222
896.498	21146
896.619	21108
896.74	21077
896.861	21264
896.982	21542
897.103	21568
897.224	21374
897.345	21408
897.466	21214
897.587	21211
897.708	21454
897.828	21252
897.949	21150
898.07	21093
898.19	21264
898.311	21393
898.431	21169
898.552	21226
898.672	21173
898.792	21241
898.913	21192
899.033	21043
899.153	20914
899.273	20853
899.393	20861
899.513	20880
899.633	20819
899.753	20807
899.873	20807
899.993	20853
900.113	20804
900.232	20925
900.352	20769
900.472	20579
900.591	20651
900.711	20705
900.83	20484
900.95	20819
901.069	20792
901.189	20381
901.308	20275
901.427	20206
901.546	20256
901.665	20218
901.784	20233
901.904	20027
902.023	19967
902.141	19818
902.26	19746
902.379	19738
902.498	19655
902.617	19605
902.735	19643
902.854	19544
902.973	19495
903.091	19251
903.21	19384
903.328	19316
903.446	19133
903.565	19069
903.683	19034
903.801	18901
903.919	19080
904.038	19031
904.156	18802
904.274	18958
904.392	18779
904.51	18875
904.627	18856
904.745	18882
904.863	18844
904.981	18597
905.098	18429
905.216	18441
905.334	18384
905.451	18547
905.569	18429
905.686	18536
905.803	18448
905.921	18323
906.038	18361
906.155	18296
906.272	18186
906.389	18178
906.506	17977
906.623	18015
906.74	18038
906.857	17817
906.974	17950
907.091	18102
907.208	18133
907.324	18057
907.441	17828
907.557	17741
907.674	17714
907.79	17699
907.907	17684
908.023	17642
908.139	17604
908.256	17532
908.372	17520
908.488	17463
908.604	17353
908.72	17391
908.836	17330
908.952	17315
909.068	17406
909.184	17547
909.3	17311
909.415	17376
909.531	17326
909.647	17071
909.762	16995
909.878	16976
909.993	17079
910.108	16976
910.224	16999
910.339	16946
910.454	16866
910.57	16778
910.685	16752
910.8	17064
910.915	16900
911.03	16736
911.145	16626
911.259	16558
911.374	16679
911.489	16516
911.604	16466
911.718	16303
911.833	16329
911.947	16226
912.062	16177
912.176	16310
912.291	16291
912.405	16306
912.519	16459
912.633	16516
912.748	16295
912.862	16310
912.976	16177
913.09	15964
913.204	16143
913.318	16154
913.431	16196
913.545	16120
913.659	16185
913.772	16105
913.886	15979
914	15960
914.113	15937
914.226	16105
914.34	16051
914.453	15918
914.566	15953
914.68	15937
914.793	15793
914.906	15542
915.019	15625
915.132	15477
915.245	15618
915.358	15538
915.47	15530
915.583	15523
915.696	15580
915.809	15679
915.921	15663
916.034	15469
916.146	15386
916.259	15443
916.371	15553
916.483	15625
916.595	15416
916.708	15420
916.82	15386
916.932	15405
917.044	15393
917.156	15241
917.268	15218
917.38	15192
917.491	15207
917.603	15157
917.715	15195
917.826	15214
917.938	15142
918.049	15085
918.161	15142
918.272	15150
918.384	15203
918.495	15100
918.606	14998
918.717	14834
918.828	14975
918.939	14918
919.05	14861
919.161	14807
919.272	14678
919.383	14632
919.494	14857
919.604	15081
919.715	14773
919.826	14701
919.936	14727
920.047	14918
920.157	14864
920.267	14895
920.378	14796
920.488	14720
920.598	14937
920.708	14998
920.818	14895
920.928	14887
921.038	15058
921.148	15013
921.258	14781
921.368	14564
921.477	14530
921.587	14427
921.697	14366
921.806	14454
921.916	14431
922.025	14206
922.134	14092
922.244	14130
922.353	14119
922.462	13947
922.571	13989
922.68	13795
922.789	13674
922.898	13681
923.007	13693
923.116	13753
923.224	13753
923.333	13704
923.442	13594
923.55	13548
923.659	13552
923.767	13582
923.876	13460
923.984	13632
924.092	13487
924.201	13472
924.309	13434
924.417	13407
924.525	13354
924.633	13369
924.741	14396
924.849	13247
924.956	13381
925.064	13209
925.172	13069
925.279	13114
925.387	13236
925.494	13149
925.602	13263
925.709	13251
925.816	13008
925.924	13088
926.031	13247
926.138	13000
926.245	13179
926.352	12939
926.459	13149
926.566	13149
926.673	12966
926.779	12779
926.886	12882
926.993	12757
927.099	12757
927.206	12627
927.312	12658
927.419	12722
927.525	12658
927.631	12760
927.737	12563
927.843	12509
927.95	12429
928.056	12585
928.162	12475
928.267	12563
928.373	13080
928.479	12654
928.585	12315
928.69	12388
928.796	12490
928.901	12323
929.007	12133
929.112	12410
929.218	12327
929.323	12292
929.428	12106
929.533	12323
929.638	12152
929.743	12186
929.848	12152
929.953	12155
930.058	12064
930.163	11836
930.267	11958
930.372	11969
930.477	11870
930.581	11958
930.685	11927
930.79	11680
930.894	11760
930.998	11779
931.103	11893
931.207	11478
931.311	11436
931.415	11345
931.519	11098
931.623	11071
