Data from test_V78500241_3572.txt Node
Date: Fri Mar 25 14:58:35 CST 2022
User: usil
Spectrometer: V785-0024
Trigger mode: 0
Integration Time (sec): 4.000000E-1
Scans to average: 1
Nonlinearity correction enabled: false
Boxcar width: 0
Storing dark spectrum: false
XAxis mode: Wavelengths
Number of Pixels in Spectrum: 1024
>>>>>Begin Spectral Data<<<<<
801.071	21949
801.214	21827
801.356	21496
801.499	21428
801.641	21264
801.783	21279
801.926	21393
802.068	21268
802.211	21119
802.353	21020
802.496	20826
802.638	20864
802.78	20697
802.923	20598
803.065	20590
803.208	20579
803.35	20552
803.492	20651
803.635	20708
803.777	20530
803.919	20705
804.061	20918
804.204	20648
804.346	20526
804.488	20503
804.63	20556
804.773	20412
804.915	20488
805.057	20625
805.199	20518
805.341	20587
805.483	20659
805.626	20590
805.768	20396
805.91	20488
806.052	20503
806.194	20351
806.336	20575
806.478	20484
806.62	20358
806.762	20522
806.904	20674
807.046	20872
807.188	20792
807.33	20807
807.472	20910
807.614	20773
807.756	20743
807.898	20514
808.04	20526
808.182	20686
808.324	20495
808.465	20625
808.607	20712
808.749	20899
808.891	21009
809.033	21150
809.174	20918
809.316	20891
809.458	20975
809.6	20724
809.741	20880
809.883	20918
810.025	20921
810.166	20937
810.308	21001
810.45	20952
810.591	20804
810.733	20686
810.875	20613
811.016	20594
811.158	20469
811.299	20712
811.441	20655
811.582	20834
811.724	20473
811.865	20526
812.007	20495
812.148	20606
812.29	20686
812.431	20815
812.573	20925
812.714	21119
812.855	21085
812.997	21245
813.138	21393
813.279	21237
813.421	21135
813.562	21119
813.703	20899
813.845	20670
813.986	20408
814.127	20244
814.268	20214
814.41	20263
814.551	20164
814.692	20267
814.833	20107
814.974	20153
815.115	20256
815.256	19909
815.397	20081
815.539	20016
815.68	19928
815.821	19868
815.962	19993
816.103	19860
816.244	19723
816.385	19628
816.526	19567
816.666	19491
816.807	19289
816.948	19464
817.089	19464
817.23	19278
817.371	19381
817.512	19403
817.653	19160
817.793	19240
817.934	19297
818.075	19327
818.216	19354
818.356	19244
818.497	19152
818.638	18981
818.778	19080
818.919	19103
819.06	19050
819.2	19206
819.341	19183
819.481	19236
819.622	19293
819.762	19483
819.903	19419
820.043	19354
820.184	19221
820.324	19301
820.465	19251
820.605	19198
820.746	19335
820.886	19122
821.026	19175
821.167	19206
821.307	19221
821.447	19236
821.588	19160
821.728	18935
821.868	18844
822.008	18681
822.149	18738
822.289	18650
822.429	18486
822.569	18391
822.709	18357
822.849	18228
822.99	18209
823.13	18194
823.27	18186
823.41	17946
823.55	17908
823.69	17927
823.83	17935
823.97	17988
824.11	17722
824.25	17687
824.389	17821
824.529	17859
824.669	17859
824.809	17851
824.949	17942
825.089	17809
825.228	17783
825.368	17589
825.508	17623
825.648	17653
825.787	17585
825.927	17596
826.067	17524
826.206	17532
826.346	17668
826.485	17573
826.625	17516
826.765	17707
826.904	17638
827.044	17330
827.183	17360
827.323	17239
827.462	17261
827.601	17231
827.741	17178
827.88	17109
828.02	17185
828.159	17170
828.298	17231
828.437	17216
828.577	17212
828.716	17425
828.855	17307
828.994	17041
829.134	17045
829.273	17025
829.412	16930
829.551	16919
829.69	16915
829.829	17098
829.968	17178
830.107	17113
830.246	17022
830.385	16892
830.524	16923
830.663	16820
830.802	16664
830.941	16664
831.08	16660
831.219	16782
831.357	16816
831.496	16866
831.635	16725
831.774	16565
831.913	16428
832.051	16523
832.19	16550
832.329	16493
832.467	16363
832.606	16291
832.744	16329
832.883	16363
833.022	16284
833.16	16424
833.299	16394
833.437	16386
833.576	16333
833.714	16466
833.852	16436
833.991	16402
834.129	16390
834.267	16466
834.406	16405
834.544	16432
834.682	16558
834.821	16402
834.959	16500
835.097	16230
835.235	16500
835.373	16504
835.511	16424
835.65	16265
835.788	16329
835.926	16249
836.064	16131
836.202	16196
836.34	16470
836.478	16356
836.615	16451
836.753	16394
836.891	16390
837.029	16371
837.167	16272
837.305	16314
837.443	16329
837.58	16162
837.718	16177
837.856	16333
837.993	16192
838.131	16280
838.269	16120
838.406	16139
838.544	16120
838.681	15994
838.819	15850
838.956	15827
839.094	15724
839.231	15816
839.369	15922
839.506	16169
839.643	16021
839.781	15797
839.918	15747
840.055	15785
840.193	15739
840.33	15690
840.467	15751
840.604	15770
840.742	15945
840.879	15644
841.016	15682
841.153	15663
841.29	15854
841.427	15831
841.564	15804
841.701	15747
841.838	15652
841.975	15720
842.112	15720
842.249	15614
842.385	15545
842.522	15762
842.659	15595
842.796	15500
842.933	15538
843.069	15523
843.206	15466
843.343	15576
843.479	15587
843.616	15633
843.752	15351
843.889	15389
844.025	15431
844.162	15302
844.298	15492
844.435	15252
844.571	15218
844.708	15393
844.844	15507
844.98	15488
845.117	15447
845.253	15256
845.389	15195
845.525	15237
845.661	15287
845.798	15093
845.934	15176
846.07	15097
846.206	15306
846.342	15203
846.478	15154
846.614	14952
846.75	14834
846.886	14918
847.022	15013
847.158	14883
847.294	14921
847.429	15013
847.565	14925
847.701	15116
847.837	14670
847.972	14651
848.108	14716
848.244	14644
848.379	14598
848.515	14518
848.65	14438
848.786	14526
848.921	14530
849.057	14663
849.192	14511
849.328	14571
849.463	14644
849.598	14431
849.734	14446
849.869	14393
850.004	14290
850.14	14256
850.275	14336
850.41	14199
850.545	14244
850.68	14301
850.815	14225
850.95	14191
851.085	14473
851.22	14362
851.355	14294
851.49	14206
851.625	14210
851.76	14187
851.895	14103
852.03	14187
852.165	14313
852.299	14366
852.434	14393
852.569	14343
852.703	14336
852.838	14374
852.973	14393
853.107	14370
853.242	14149
853.376	14153
853.511	14111
853.645	14145
853.78	14183
853.914	14240
854.048	14126
854.183	14130
854.317	14161
854.451	14301
854.585	14103
854.72	14058
854.854	14210
854.988	14039
855.122	14069
855.256	13967
855.39	14210
855.524	14195
855.658	14191
855.792	14202
855.926	14191
856.06	14161
856.194	14275
856.327	14161
856.461	14183
856.595	14168
856.729	14195
856.862	14275
856.996	14031
857.13	14218
857.263	14324
857.397	14267
857.53	14111
857.664	14024
857.797	14145
857.931	14256
858.064	14149
858.197	14229
858.331	14145
858.464	14161
858.597	14145
858.731	14119
858.864	14096
858.997	14096
859.13	14191
859.263	14202
859.396	14214
859.529	14126
859.662	14088
859.795	14126
859.928	14195
860.061	14324
860.194	14309
860.327	14134
860.46	14088
860.592	14214
860.725	14229
860.858	14168
860.99	14180
861.123	14130
861.256	14100
861.388	14115
861.521	14838
861.653	14149
861.786	14020
861.918	13940
862.05	14062
862.183	14069
862.315	14153
862.447	14233
862.58	13989
862.712	13940
862.844	13947
862.976	13974
863.108	13936
863.24	14317
863.372	13807
863.504	13921
863.636	13906
863.768	13947
863.9	13932
864.032	14027
864.164	13871
864.296	14035
864.428	14001
864.559	13978
864.691	13997
864.823	13951
864.954	13978
865.086	13917
865.217	13913
865.349	13856
865.48	13970
865.612	13928
865.743	14024
865.875	13940
866.006	13978
866.137	13928
866.269	13909
866.4	13849
866.531	13833
866.662	13883
866.793	13871
866.924	13894
867.055	13982
867.186	13959
867.317	13879
867.448	13772
867.579	13837
867.71	13879
867.841	13879
867.972	13967
868.103	13852
868.233	13982
868.364	13887
868.495	14024
868.625	14077
868.756	14233
868.886	14069
869.017	14103
869.147	14286
869.278	14263
869.408	14180
869.539	14199
869.669	14263
869.799	14164
869.929	14298
870.06	14221
870.19	14511
870.32	14427
870.45	14602
870.58	14488
870.71	14651
870.84	14610
870.97	14602
871.1	14484
871.23	14674
871.36	14830
871.489	14640
871.619	14750
871.749	14765
871.879	14792
872.008	14872
872.138	14842
872.267	14758
872.397	14640
872.526	14583
872.656	14473
872.785	14743
872.915	14765
873.044	14834
873.173	14895
873.303	14944
873.432	14956
873.561	14948
873.69	14819
873.819	14929
873.948	14975
874.077	14792
874.206	14823
874.335	14823
874.464	15005
874.593	15195
874.722	14979
874.851	15104
874.979	15176
875.108	15188
875.237	15112
875.365	15009
875.494	15097
875.623	15214
875.751	15055
875.88	15135
876.008	15389
876.136	15382
876.265	15553
876.393	15679
876.521	15633
876.65	15595
876.778	15526
876.906	15542
877.034	15519
877.162	15572
877.29	15355
877.418	15587
877.546	15424
877.674	15591
877.802	15606
877.93	15481
878.058	15511
878.185	15443
878.313	15462
878.441	15614
878.568	15367
878.696	15435
878.824	15519
878.951	15641
879.079	15698
879.206	15819
879.333	15778
879.461	15557
879.588	15637
879.715	15793
879.842	15819
879.97	15572
880.097	15336
880.224	15310
880.351	15454
880.478	15428
880.605	15367
880.732	15439
880.859	15633
880.986	15397
881.112	15515
881.239	15310
881.366	15184
881.493	15100
881.619	15005
881.746	15039
881.872	15017
881.999	15089
882.125	15017
882.252	15142
882.378	15104
882.505	15157
882.631	14967
882.757	14834
882.883	14975
883.01	14857
883.136	14826
883.262	14686
883.388	14735
883.514	14876
883.64	14925
883.766	14861
883.892	14632
884.018	14735
884.143	14914
884.269	14952
884.395	14610
884.52	14537
884.646	14602
884.772	14484
884.897	14415
885.023	14480
885.148	14693
885.274	14739
885.399	14575
885.524	14678
885.65	14583
885.775	14606
885.9	14503
886.025	14727
886.15	14674
886.275	14568
886.4	14469
886.525	14590
886.65	14446
886.775	14431
886.9	14693
887.025	14826
887.149	14473
887.274	14324
887.399	14495
887.523	14374
887.648	14339
887.773	14286
887.897	14568
888.021	14480
888.146	14396
888.27	14518
888.395	14427
888.519	14499
888.643	14522
888.767	14374
888.891	14358
889.015	14317
889.139	14332
889.263	14240
889.387	14377
889.511	14495
889.635	14374
889.759	14294
889.883	14275
890.006	14309
890.13	14358
890.254	14248
890.377	14233
890.501	14054
890.624	14107
890.748	14115
890.871	13970
890.995	13906
891.118	13856
891.241	13951
891.364	14005
891.488	14073
891.611	13974
891.734	13864
891.857	13986
891.98	13951
892.103	14046
892.226	13951
892.349	13902
892.471	13841
892.594	13940
892.717	13921
892.839	13951
892.962	14012
893.085	14031
893.207	13986
893.33	13928
893.452	13883
893.575	14100
893.697	14050
893.819	14119
893.941	14172
894.064	14111
894.186	13936
894.308	13913
894.43	14065
894.552	14206
894.674	14145
894.796	14027
894.918	13986
895.04	13982
895.161	14229
895.283	14096
895.405	14016
895.526	14065
895.648	14191
895.769	14088
895.891	14100
896.012	14161
896.134	14248
896.255	14100
896.376	14111
896.498	14157
896.619	14180
896.74	14157
896.861	14301
896.982	14408
897.103	14701
897.224	14454
897.345	14343
897.466	14332
897.587	14396
897.708	14419
897.828	14415
897.949	14343
898.07	14309
898.19	14438
898.311	14564
898.431	14404
898.552	14518
898.672	14579
898.792	14693
898.913	14507
899.033	14419
899.153	14339
899.273	14206
899.393	14339
899.513	14313
899.633	14275
899.753	14374
899.873	14328
899.993	14404
900.113	14381
900.232	14404
900.352	14324
900.472	14256
900.591	14123
900.711	14282
900.83	14138
900.95	14240
901.069	14320
901.189	14039
901.308	13955
901.427	13883
901.546	13936
901.665	13967
901.784	13940
901.904	13765
902.023	13613
902.141	13521
902.26	13487
902.379	13502
902.498	13430
902.617	13339
902.735	13567
902.854	13449
902.973	13343
903.091	13304
903.21	13156
903.328	13187
903.446	13133
903.565	12954
903.683	13065
903.801	12947
903.919	13027
904.038	13042
904.156	12833
904.274	12954
904.392	12837
904.51	12795
904.627	12814
904.745	12882
904.863	12897
904.981	12620
905.098	12574
905.216	12490
905.334	12574
905.451	12597
905.569	12513
905.686	12639
905.803	12559
905.921	12388
906.038	12418
906.155	12452
906.272	12167
906.389	12311
906.506	12175
906.623	12079
906.74	12098
906.857	11999
906.974	12049
907.091	12163
907.208	12266
907.324	12216
907.441	12038
907.557	11920
907.674	11889
907.79	11783
907.907	11847
908.023	11897
908.139	11927
908.256	11821
908.372	11843
908.488	11779
908.604	11703
908.72	11611
908.836	11733
908.952	11604
909.068	11680
909.184	11722
909.3	11623
909.415	11642
909.531	11741
909.647	11421
909.762	11440
909.878	11349
909.993	11376
910.108	11402
910.224	11360
910.339	11410
910.454	11334
910.57	11166
910.685	11227
910.8	11532
910.915	11452
911.03	11330
911.145	11147
911.259	11105
911.374	11136
911.489	11056
911.604	11018
911.718	10869
911.833	10911
911.947	10839
912.062	10714
912.176	10755
912.291	10850
912.405	10858
912.519	11045
912.633	11094
912.748	10927
912.862	10896
912.976	10725
913.09	10653
913.204	10774
913.318	10717
913.431	10869
913.545	10828
913.659	10858
913.772	10854
913.886	10736
914	10641
914.113	10649
914.226	10729
914.34	10679
914.453	10550
914.566	10793
914.68	10588
914.793	10538
914.906	10459
915.019	10386
915.132	10363
915.245	10325
915.358	10428
915.47	10409
915.583	10344
915.696	10485
915.809	10527
915.921	10516
916.034	10291
916.146	10405
916.259	10238
916.371	10421
916.483	10436
916.595	10337
916.708	10284
916.82	10360
916.932	10291
917.044	10333
917.156	10253
917.268	10234
917.38	10280
917.491	10219
917.603	10287
917.715	10356
917.826	10257
917.938	10234
918.049	10166
918.161	10219
918.272	10363
918.384	10341
918.495	10268
918.606	10082
918.717	10013
918.828	10143
918.939	10181
919.05	10025
919.161	10093
919.272	9907
919.383	9994
919.494	10078
919.604	10325
919.715	10082
919.826	10048
919.936	10116
920.047	10177
920.157	10093
920.267	10310
920.378	10181
920.488	10162
920.598	10363
920.708	10554
920.818	10299
920.928	10394
921.038	10500
921.148	10516
921.258	10177
921.368	10082
921.477	10021
921.587	9964
921.697	9865
921.806	9998
921.916	9838
922.025	9656
922.134	9648
922.244	9686
922.353	9743
922.462	9622
922.571	9591
922.68	9458
922.789	9389
922.898	9466
923.007	9298
923.116	9435
923.224	9344
923.333	9443
923.442	9325
923.55	9306
923.659	9389
923.767	9275
923.876	9260
923.984	9302
924.092	9230
924.201	9317
924.309	9211
924.417	9302
924.525	9154
924.633	9161
924.741	10010
924.849	8994
924.956	9226
925.064	9051
925.172	8937
925.279	8990
925.387	9028
925.494	9017
925.602	9195
925.709	9192
925.816	8990
925.924	9047
926.031	9039
926.138	9036
926.245	9055
926.352	8899
926.459	9104
926.566	9142
926.673	9062
926.779	8902
926.886	8918
926.993	8792
927.099	8781
927.206	8750
927.312	8727
927.419	8796
927.525	8758
927.631	8754
927.737	8674
927.843	8613
927.95	8530
928.056	8655
928.162	8648
928.267	8743
928.373	9283
928.479	8773
928.585	8412
928.69	8598
928.796	8773
928.901	8511
929.007	8393
929.112	8564
929.218	8613
929.323	8533
929.428	8480
929.533	8575
929.638	8400
929.743	8393
929.848	8571
929.953	8492
930.058	8370
930.163	8183
930.267	8286
930.372	8423
930.477	8240
930.581	8450
930.685	8317
930.79	8256
930.894	8202
930.998	8221
931.103	8279
931.207	8005
931.311	7902
931.415	7811
931.519	7628
931.623	7639
