Data from test_V78500241_2819.txt Node
Date: Fri Mar 25 14:53:20 CST 2022
User: usil
Spectrometer: V785-0024
Trigger mode: 0
Integration Time (sec): 4.000000E-1
Scans to average: 1
Nonlinearity correction enabled: false
Boxcar width: 0
Storing dark spectrum: false
XAxis mode: Wavelengths
Number of Pixels in Spectrum: 1024
>>>>>Begin Spectral Data<<<<<
801.071	21994
801.214	21987
801.356	21739
801.499	21545
801.641	21519
801.783	21382
801.926	21447
802.068	21313
802.211	21291
802.353	21214
802.496	20960
802.638	20929
802.78	20842
802.923	20819
803.065	20697
803.208	20731
803.35	20773
803.492	20834
803.635	20842
803.777	20868
803.919	20777
804.061	21138
804.204	20701
804.346	20689
804.488	20583
804.63	20796
804.773	20655
804.915	20648
805.057	20838
805.199	20552
805.341	20609
805.483	20853
805.626	20686
805.768	20552
805.91	20785
806.052	20807
806.194	20495
806.336	20807
806.478	20651
806.62	20560
806.762	20720
806.904	20804
807.046	21096
807.188	21058
807.33	20864
807.472	21131
807.614	20880
807.756	20918
807.898	20739
808.04	20686
808.182	20564
808.324	20762
808.465	20708
808.607	20842
808.749	21066
808.891	21077
809.033	21165
809.174	21009
809.316	20986
809.458	21020
809.6	21039
809.741	21070
809.883	21077
810.025	21203
810.166	21135
810.308	21184
810.45	21081
810.591	20986
810.733	20960
810.875	20883
811.016	20678
811.158	20712
811.299	20914
811.441	20788
811.582	20876
811.724	20712
811.865	20663
812.007	20777
812.148	20800
812.29	20849
812.431	20887
812.573	21089
812.714	21207
812.855	21287
812.997	21344
813.138	21458
813.279	21477
813.421	21256
813.562	21203
813.703	20971
813.845	20948
813.986	20750
814.127	20590
814.268	20339
814.41	20393
814.551	20332
814.692	20370
814.833	20339
814.974	20259
815.115	20267
815.256	20218
815.397	20100
815.539	20294
815.68	20039
815.821	19986
815.962	20145
816.103	20138
816.244	19879
816.385	19833
816.526	19894
816.666	19628
816.807	19464
816.948	19586
817.089	19666
817.23	19582
817.371	19491
817.512	19460
817.653	19445
817.793	19331
817.934	19476
818.075	19415
818.216	19441
818.356	19487
818.497	19304
818.638	19221
818.778	19015
818.919	19152
819.06	19278
819.2	19293
819.341	19400
819.481	19460
819.622	19559
819.762	19643
819.903	19544
820.043	19495
820.184	19411
820.324	19483
820.465	19476
820.605	19487
820.746	19369
820.886	19247
821.026	19472
821.167	19464
821.307	19381
821.447	19438
821.588	19301
821.728	19072
821.868	18996
822.008	18935
822.149	18856
822.289	18795
822.429	18612
822.569	18620
822.709	18551
822.849	18422
822.99	18384
823.13	18285
823.27	18369
823.41	18091
823.55	18106
823.69	18235
823.83	18110
823.97	18083
824.11	17889
824.25	17866
824.389	17904
824.529	17980
824.669	17927
824.809	17988
824.949	18068
825.089	18079
825.228	17878
825.368	17741
825.508	17813
825.648	17783
825.787	17901
825.927	17840
826.067	17619
826.206	17630
826.346	17611
826.485	17684
826.625	17741
826.765	17707
826.904	17703
827.044	17505
827.183	17512
827.323	17379
827.462	17440
827.601	17459
827.741	17372
827.88	17543
828.02	17265
828.159	17299
828.298	17406
828.437	17440
828.577	17391
828.716	17570
828.855	17280
828.994	17121
829.134	17193
829.273	17254
829.412	17086
829.551	17113
829.69	17124
829.829	17178
829.968	17220
830.107	17235
830.246	17174
830.385	17094
830.524	17041
830.663	17003
830.802	16877
830.941	16706
831.08	16793
831.219	16877
831.357	16934
831.496	16991
831.635	16683
831.774	16637
831.913	16672
832.051	16516
832.19	16580
832.329	16615
832.467	16440
832.606	16421
832.744	16440
832.883	16554
833.022	16398
833.16	16519
833.299	16535
833.437	16451
833.576	16512
833.714	16497
833.852	16550
833.991	16565
834.129	16470
834.267	16611
834.406	16603
834.544	16462
834.682	16519
834.821	16561
834.959	16653
835.097	16512
835.235	16584
835.373	16550
835.511	16466
835.65	16451
835.788	16428
835.926	16268
836.064	16207
836.202	16154
836.34	16417
836.478	16527
836.615	16447
836.753	16363
836.891	16565
837.029	16424
837.167	16303
837.305	16363
837.443	16367
837.58	16177
837.718	16470
837.856	16249
837.993	16265
838.131	16287
838.269	16143
838.406	16291
838.544	16147
838.681	16036
838.819	15960
838.956	15751
839.094	16010
839.231	15854
839.369	15972
839.506	16295
839.643	16025
839.781	15876
839.918	15804
840.055	15869
840.193	15648
840.33	15701
840.467	15850
840.604	15854
840.742	16097
840.879	15747
841.016	15747
841.153	15755
841.29	15823
841.427	15884
841.564	15838
841.701	15838
841.838	15762
841.975	15770
842.112	15793
842.249	15644
842.385	15549
842.522	15812
842.659	15614
842.796	15553
842.933	15633
843.069	15500
843.206	15553
843.343	15686
843.479	15625
843.616	15584
843.752	15405
843.889	15477
844.025	15572
844.162	15351
844.298	15507
844.435	15378
844.571	15447
844.708	15477
844.844	15576
844.98	15557
845.117	15519
845.253	15336
845.389	15287
845.525	15325
845.661	15279
845.798	15157
845.934	15203
846.07	15157
846.206	15275
846.342	15351
846.478	15077
846.614	15043
846.75	14990
846.886	14906
847.022	15070
847.158	15009
847.294	15074
847.429	14971
847.565	14971
847.701	15245
847.837	14773
847.972	14625
848.108	14777
848.244	14785
848.379	14617
848.515	14522
848.65	14412
848.786	14686
848.921	14473
849.057	14617
849.192	14701
849.328	14651
849.463	14632
849.598	14564
849.734	14484
849.869	14503
850.004	14374
850.14	14389
850.275	14343
850.41	14320
850.545	14282
850.68	14389
850.815	14385
850.95	14263
851.085	14488
851.22	14431
851.355	14343
851.49	14294
851.625	14351
851.76	14343
851.895	14199
852.03	14339
852.165	14271
852.299	14256
852.434	14434
852.569	14423
852.703	14400
852.838	14415
852.973	14488
853.107	14495
853.242	14218
853.376	14263
853.511	14043
853.645	14210
853.78	14317
853.914	14282
854.048	14202
854.183	14218
854.317	14244
854.451	14381
854.585	14168
854.72	14225
854.854	14263
854.988	14142
855.122	14176
855.256	14138
855.39	14237
855.524	14244
855.658	14275
855.792	14267
855.926	14221
856.06	14252
856.194	14355
856.327	14275
856.461	14176
856.595	14214
856.729	14225
856.862	14294
856.996	14271
857.13	14309
857.263	14332
857.397	14355
857.53	14244
857.664	14275
857.797	14355
857.931	14324
858.064	14218
858.197	14362
858.331	14149
858.464	14218
858.597	14092
858.731	14164
858.864	14244
858.997	14130
859.13	14313
859.263	14199
859.396	14218
859.529	14142
859.662	14244
859.795	14119
859.928	14370
860.061	14366
860.194	14396
860.327	14309
860.46	14237
860.592	14328
860.725	14298
860.858	14332
860.99	14191
861.123	14065
861.256	14153
861.388	14301
861.521	14796
861.653	14126
861.786	14058
861.918	14008
862.05	14145
862.183	14153
862.315	14275
862.447	14229
862.58	14164
862.712	14046
862.844	13890
862.976	14035
863.108	14077
863.24	14469
863.372	13849
863.504	13978
863.636	14012
863.768	13959
863.9	14031
864.032	13955
864.164	13955
864.296	13993
864.428	14107
864.559	14111
864.691	13989
864.823	14138
864.954	13967
865.086	13986
865.217	14012
865.349	13917
865.48	13963
865.612	14031
865.743	14153
865.875	13928
866.006	13860
866.137	14043
866.269	14012
866.4	13940
866.531	13898
866.662	13875
866.793	13967
866.924	14027
867.055	14012
867.186	13955
867.317	13852
867.448	13902
867.579	13928
867.71	13788
867.841	13890
867.972	14020
868.103	14035
868.233	13993
868.364	14005
868.495	14115
868.625	14164
868.756	14271
868.886	14081
869.017	14164
869.147	14336
869.278	14317
869.408	14183
869.539	14214
869.669	14377
869.799	14187
869.929	14259
870.06	14347
870.19	14545
870.32	14507
870.45	14503
870.58	14598
870.71	14712
870.84	14708
870.97	14682
871.1	14629
871.23	14769
871.36	14754
871.489	14849
871.619	14845
871.749	14804
871.879	14914
872.008	15009
872.138	14853
872.267	14864
872.397	14667
872.526	14568
872.656	14651
872.785	14663
872.915	14842
873.044	14906
873.173	14868
873.303	14975
873.432	14906
873.561	14948
873.69	14868
873.819	14849
873.948	14933
874.077	15032
874.206	14952
874.335	14902
874.464	15009
874.593	15131
874.722	15157
874.851	15260
874.979	15119
875.108	15302
875.237	15116
875.365	15112
875.494	15173
875.623	15241
875.751	15169
875.88	15283
876.008	15389
876.136	15306
876.265	15648
876.393	15720
876.521	15743
876.65	15797
876.778	15622
876.906	15625
877.034	15557
877.162	15553
877.29	15530
877.418	15591
877.546	15587
877.674	15622
877.802	15614
877.93	15614
878.058	15603
878.185	15462
878.313	15610
878.441	15629
878.568	15523
878.696	15584
878.824	15641
878.951	15770
879.079	15762
879.206	15979
879.333	15797
879.461	15766
879.588	15701
879.715	15819
879.842	15907
879.97	15667
880.097	15523
880.224	15382
880.351	15530
880.478	15408
880.605	15458
880.732	15386
880.859	15667
880.986	15488
881.112	15458
881.239	15435
881.366	15237
881.493	15165
881.619	15127
881.746	15154
881.872	15051
881.999	14975
882.125	15142
882.252	15298
882.378	15211
882.505	15336
882.631	15138
882.757	14994
882.883	14929
883.01	14979
883.136	14845
883.262	14735
883.388	14785
883.514	14956
883.64	14944
883.766	14804
883.892	14743
884.018	14838
884.143	14872
884.269	14948
884.395	14682
884.52	14648
884.646	14640
884.772	14594
884.897	14644
885.023	14602
885.148	14705
885.274	14750
885.399	14697
885.524	14598
885.65	14720
885.775	14621
885.9	14636
886.025	14815
886.15	14659
886.275	14560
886.4	14530
886.525	14686
886.65	14537
886.775	14522
886.9	14708
887.025	14773
887.149	14663
887.274	14469
887.399	14484
887.523	14355
887.648	14404
887.773	14347
887.897	14495
888.021	14415
888.146	14400
888.27	14537
888.395	14556
888.519	14526
888.643	14526
888.767	14697
888.891	14389
889.015	14320
889.139	14415
889.263	14336
889.387	14393
889.511	14514
889.635	14434
889.759	14366
889.883	14275
890.006	14377
890.13	14454
890.254	14271
890.377	14290
890.501	14126
890.624	14111
890.748	14244
890.871	14157
890.995	13970
891.118	13997
891.241	14012
891.364	14027
891.488	14180
891.611	13978
891.734	14077
891.857	14149
891.98	14043
892.103	14065
892.226	14115
892.349	13993
892.471	13921
892.594	13974
892.717	14103
892.839	14062
892.962	14043
893.085	14092
893.207	13970
893.33	13947
893.452	14005
893.575	14138
893.697	13997
893.819	14180
893.941	14252
894.064	14271
894.186	14001
894.308	13959
894.43	14157
894.552	14271
894.674	14161
894.796	14054
894.918	14039
895.04	14081
895.161	14111
895.283	14244
895.405	14107
895.526	14168
895.648	14202
895.769	14161
895.891	14202
896.012	14320
896.134	14210
896.255	14176
896.376	14103
896.498	14202
896.619	14248
896.74	14191
896.861	14187
896.982	14480
897.103	14750
897.224	14530
897.345	14480
897.466	14434
897.587	14423
897.708	14743
897.828	14492
897.949	14332
898.07	14309
898.19	14465
898.311	14602
898.431	14442
898.552	14545
898.672	14587
898.792	14644
898.913	14503
899.033	14476
899.153	14393
899.273	14278
899.393	14351
899.513	14374
899.633	14370
899.753	14473
899.873	14355
899.993	14454
900.113	14393
900.232	14427
900.352	14431
900.472	14320
900.591	14218
900.711	14324
900.83	14313
900.95	14377
901.069	14298
901.189	14237
901.308	14062
901.427	13921
901.546	13963
901.665	14012
901.784	14069
901.904	13784
902.023	13742
902.141	13578
902.26	13468
902.379	13624
902.498	13453
902.617	13403
902.735	13632
902.854	13533
902.973	13457
903.091	13316
903.21	13324
903.328	13304
903.446	13270
903.565	13076
903.683	13103
903.801	12993
903.919	13099
904.038	12993
904.156	12966
904.274	13034
904.392	12939
904.51	12962
904.627	12920
904.745	12989
904.863	12935
904.981	12776
905.098	12601
905.216	12593
905.334	12646
905.451	12650
905.569	12544
905.686	12589
905.803	12639
905.921	12486
906.038	12483
906.155	12361
906.272	12285
906.389	12323
906.506	12190
906.623	12270
906.74	12190
906.857	12064
906.974	12140
907.091	12308
907.208	12365
907.324	12213
907.441	12171
907.557	11984
907.674	11969
907.79	11901
907.907	11931
908.023	12007
908.139	12022
908.256	11920
908.372	11855
908.488	11878
908.604	11756
908.72	11653
908.836	11726
908.952	11661
909.068	11741
909.184	11840
909.3	11756
909.415	11794
909.531	11680
909.647	11539
909.762	11444
909.878	11532
909.993	11532
910.108	11414
910.224	11414
910.339	11334
910.454	11410
910.57	11356
910.685	11254
910.8	11493
910.915	11501
911.03	11311
911.145	11235
911.259	11155
911.374	11269
911.489	11102
911.604	11083
911.718	10968
911.833	10987
911.947	10801
912.062	10736
912.176	10919
912.291	10946
912.405	10911
912.519	11109
912.633	11223
912.748	11018
912.862	10927
912.976	10797
913.09	10733
913.204	10812
913.318	10801
913.431	10953
913.545	10991
913.659	10938
913.772	10797
913.886	10675
914	10679
914.113	10668
914.226	10782
914.34	10767
914.453	10630
914.566	10733
914.68	10607
914.793	10634
914.906	10466
915.019	10451
915.132	10333
915.245	10451
915.358	10436
915.47	10466
915.583	10519
915.696	10508
915.809	10630
915.921	10592
916.034	10379
916.146	10424
916.259	10322
916.371	10493
916.483	10455
916.595	10337
916.708	10398
916.82	10352
916.932	10394
917.044	10341
917.156	10333
917.268	10158
917.38	10284
917.491	10227
917.603	10318
917.715	10379
917.826	10413
917.938	10253
918.049	10162
918.161	10234
918.272	10489
918.384	10382
918.495	10314
918.606	10192
918.717	10128
918.828	10204
918.939	10223
919.05	10109
919.161	10139
919.272	9994
919.383	9983
919.494	10169
919.604	10382
919.715	10280
919.826	10063
919.936	10086
920.047	10230
920.157	10162
920.267	10417
920.378	10272
920.488	10181
920.598	10421
920.708	10584
920.818	10322
920.928	10440
921.038	10485
921.148	10527
921.258	10230
921.368	10112
921.477	10093
921.587	10013
921.697	9956
921.806	9979
921.916	9937
922.025	9835
922.134	9740
922.244	9682
922.353	9743
922.462	9705
922.571	9584
922.68	9462
922.789	9397
922.898	9424
923.007	9389
923.116	9443
923.224	9439
923.333	9367
923.442	9310
923.55	9237
923.659	9310
923.767	9374
923.876	9256
923.984	9443
924.092	9283
924.201	9344
924.309	9298
924.417	9306
924.525	9233
924.633	9294
924.741	10029
924.849	9055
924.956	9230
925.064	9013
925.172	8990
925.279	9100
925.387	9066
925.494	8994
925.602	9188
925.709	9112
925.816	9032
925.924	9123
926.031	9146
926.138	9135
926.245	9112
926.352	8998
926.459	9112
926.566	9230
926.673	9013
926.779	8906
926.886	8952
926.993	8811
927.099	8830
927.206	8777
927.312	8735
927.419	8788
927.525	8777
927.631	8838
927.737	8735
927.843	8693
927.95	8621
928.056	8701
928.162	8678
928.267	8754
928.373	9184
928.479	8739
928.585	8568
928.69	8731
928.796	8735
928.901	8651
929.007	8442
929.112	8659
929.218	8625
929.323	8549
929.428	8556
929.533	8568
929.638	8457
929.743	8480
929.848	8476
929.953	8526
930.058	8404
930.163	8237
930.267	8282
930.372	8434
930.477	8199
930.581	8457
930.685	8347
930.79	8263
930.894	8218
930.998	8161
931.103	8374
931.207	8092
931.311	7947
931.415	7982
931.519	7742
931.623	7814
