Data from test_V78500241_2867.txt Node
Date: Fri Mar 25 14:53:40 CST 2022
User: usil
Spectrometer: V785-0024
Trigger mode: 0
Integration Time (sec): 4.000000E-1
Scans to average: 1
Nonlinearity correction enabled: false
Boxcar width: 0
Storing dark spectrum: false
XAxis mode: Wavelengths
Number of Pixels in Spectrum: 1024
>>>>>Begin Spectral Data<<<<<
801.071	21979
801.214	21865
801.356	21755
801.499	21728
801.641	21416
801.783	21435
801.926	21466
802.068	21370
802.211	21325
802.353	21230
802.496	20887
802.638	20815
802.78	20982
802.923	20804
803.065	20636
803.208	20765
803.35	20796
803.492	20842
803.635	20937
803.777	20735
803.919	20883
804.061	21100
804.204	20754
804.346	20617
804.488	20587
804.63	20712
804.773	20632
804.915	20682
805.057	20823
805.199	20629
805.341	20651
805.483	20655
805.626	20765
805.768	20712
805.91	20686
806.052	20693
806.194	20556
806.336	20823
806.478	20640
806.62	20583
806.762	20769
806.904	20952
807.046	21051
807.188	21013
807.33	21100
807.472	21165
807.614	20941
807.756	20990
807.898	20758
808.04	20796
808.182	20678
808.324	20777
808.465	20933
808.607	20914
808.749	21028
808.891	21077
809.033	21176
809.174	21123
809.316	20979
809.458	21089
809.6	21085
809.741	21146
809.883	21058
810.025	21287
810.166	21275
810.308	21188
810.45	21062
810.591	21085
810.733	20944
810.875	20925
811.016	20743
811.158	20609
811.299	20937
811.441	20845
811.582	20872
811.724	20845
811.865	20792
812.007	20724
812.148	20792
812.29	20735
812.431	20941
812.573	21051
812.714	21100
812.855	21332
812.997	21500
813.138	21469
813.279	21405
813.421	21283
813.562	21310
813.703	21093
813.845	20849
813.986	20792
814.127	20549
814.268	20450
814.41	20412
814.551	20317
814.692	20396
814.833	20290
814.974	20313
815.115	20355
815.256	20168
815.397	20183
815.539	20210
815.68	20172
815.821	20077
815.962	20130
816.103	20001
816.244	19887
816.385	19875
816.526	19780
816.666	19537
816.807	19392
816.948	19616
817.089	19521
817.23	19483
817.371	19472
817.512	19464
817.653	19502
817.793	19445
817.934	19521
818.075	19476
818.216	19571
818.356	19487
818.497	19335
818.638	19156
818.778	19263
818.919	19206
819.06	19339
819.2	19278
819.341	19304
819.481	19411
819.622	19388
819.762	19616
819.903	19563
820.043	19586
820.184	19476
820.324	19426
820.465	19514
820.605	19464
820.746	19483
820.886	19293
821.026	19441
821.167	19343
821.307	19548
821.447	19373
821.588	19244
821.728	19168
821.868	18894
822.008	18920
822.149	18878
822.289	18821
822.429	18627
822.569	18578
822.709	18490
822.849	18353
822.99	18357
823.13	18292
823.27	18388
823.41	18121
823.55	18083
823.69	18079
823.83	18235
823.97	18174
824.11	17855
824.25	17904
824.389	17859
824.529	17961
824.669	17863
824.809	17996
824.949	18030
825.089	17870
825.228	17931
825.368	17813
825.508	17729
825.648	17794
825.787	17760
825.927	17687
826.067	17733
826.206	17600
826.346	17760
826.485	17737
826.625	17722
826.765	17752
826.904	17775
827.044	17482
827.183	17535
827.323	17360
827.462	17414
827.601	17448
827.741	17379
827.88	17410
828.02	17337
828.159	17414
828.298	17410
828.437	17421
828.577	17292
828.716	17455
828.855	17330
828.994	17136
829.134	17136
829.273	17178
829.412	17102
829.551	17105
829.69	17121
829.829	17185
829.968	17200
830.107	17197
830.246	17208
830.385	16957
830.524	16965
830.663	16961
830.802	16809
830.941	16721
831.08	16820
831.219	16748
831.357	16900
831.496	17025
831.635	16790
831.774	16729
831.913	16687
832.051	16519
832.19	16512
832.329	16531
832.467	16455
832.606	16402
832.744	16436
832.883	16409
833.022	16417
833.16	16459
833.299	16405
833.437	16440
833.576	16504
833.714	16432
833.852	16535
833.991	16402
834.129	16447
834.267	16516
834.406	16611
834.544	16542
834.682	16527
834.821	16531
834.959	16622
835.097	16558
835.235	16565
835.373	16481
835.511	16512
835.65	16371
835.788	16375
835.926	16287
836.064	16230
836.202	16242
836.34	16424
836.478	16493
836.615	16470
836.753	16451
836.891	16558
837.029	16478
837.167	16375
837.305	16299
837.443	16249
837.58	16185
837.718	16253
837.856	16314
837.993	16253
838.131	16284
838.269	16181
838.406	16150
838.544	16120
838.681	15983
838.819	16055
838.956	15854
839.094	15850
839.231	15823
839.369	15979
839.506	16215
839.643	16101
839.781	15934
839.918	15812
840.055	15831
840.193	15873
840.33	15861
840.467	15762
840.604	15850
840.742	16105
840.879	15694
841.016	15682
841.153	15720
841.29	15922
841.427	15873
841.564	15732
841.701	15850
841.838	15739
841.975	15682
842.112	15667
842.249	15610
842.385	15701
842.522	15850
842.659	15515
842.796	15648
842.933	15732
843.069	15561
843.206	15473
843.343	15675
843.479	15538
843.616	15557
843.752	15386
843.889	15408
844.025	15534
844.162	15374
844.298	15553
844.435	15408
844.571	15249
844.708	15492
844.844	15564
844.98	15603
845.117	15469
845.253	15378
845.389	15237
845.525	15378
845.661	15439
845.798	15176
845.934	15176
846.07	15146
846.206	15332
846.342	15306
846.478	15192
846.614	15020
846.75	14902
846.886	15028
847.022	15036
847.158	14929
847.294	15024
847.429	15001
847.565	14994
847.701	15131
847.837	14636
847.972	14655
848.108	14868
848.244	14777
848.379	14689
848.515	14575
848.65	14450
848.786	14537
848.921	14503
849.057	14697
849.192	14667
849.328	14621
849.463	14552
849.598	14480
849.734	14419
849.869	14393
850.004	14301
850.14	14351
850.275	14389
850.41	14305
850.545	14210
850.68	14320
850.815	14301
850.95	14381
851.085	14511
851.22	14415
851.355	14309
851.49	14298
851.625	14294
851.76	14294
851.895	14172
852.03	14103
852.165	14275
852.299	14336
852.434	14355
852.569	14381
852.703	14377
852.838	14377
852.973	14473
853.107	14465
853.242	14358
853.376	14237
853.511	14069
853.645	14149
853.78	14347
853.914	14199
854.048	14221
854.183	14164
854.317	14111
854.451	14336
854.585	14199
854.72	14218
854.854	14328
854.988	14065
855.122	14244
855.256	13970
855.39	14252
855.524	14214
855.658	14221
855.792	14256
855.926	14077
856.06	14244
856.194	14275
856.327	14218
856.461	14161
856.595	14172
856.729	14214
856.862	14275
856.996	14164
857.13	14309
857.263	14332
857.397	14298
857.53	14240
857.664	14240
857.797	14278
857.931	14252
858.064	14214
858.197	14267
858.331	14278
858.464	14153
858.597	14168
858.731	14107
858.864	14077
858.997	14187
859.13	14256
859.263	14218
859.396	14267
859.529	14210
859.662	14119
859.795	14176
859.928	14153
860.061	14362
860.194	14221
860.327	14244
860.46	14240
860.592	14366
860.725	14275
860.858	14385
860.99	14221
861.123	14145
861.256	14126
861.388	14252
861.521	14701
861.653	14031
861.786	14024
861.918	14046
862.05	14065
862.183	14123
862.315	14256
862.447	14126
862.58	14103
862.712	13928
862.844	13936
862.976	14043
863.108	14100
863.24	14362
863.372	13913
863.504	13959
863.636	13925
863.768	14039
863.9	13940
864.032	13811
864.164	13936
864.296	14027
864.428	14081
864.559	14134
864.691	14126
864.823	14046
864.954	13944
865.086	14031
865.217	14012
865.349	13894
865.48	13909
865.612	13986
865.743	14073
865.875	13955
866.006	13967
866.137	13868
866.269	13856
866.4	13974
866.531	13944
866.662	13959
866.793	13860
866.924	13917
867.055	14069
867.186	13944
867.317	13852
867.448	13826
867.579	13944
867.71	13875
867.841	13772
867.972	14001
868.103	13986
868.233	13890
868.364	13909
868.495	14020
868.625	14157
868.756	14286
868.886	14187
869.017	14206
869.147	14286
869.278	14301
869.408	14233
869.539	14240
869.669	14324
869.799	14252
869.929	14370
870.06	14377
870.19	14537
870.32	14579
870.45	14533
870.58	14667
870.71	14716
870.84	14731
870.97	14636
871.1	14564
871.23	14727
871.36	14655
871.489	14678
871.619	14701
871.749	14811
871.879	14853
872.008	14914
872.138	14918
872.267	14838
872.397	14693
872.526	14625
872.656	14590
872.785	14708
872.915	14788
873.044	14883
873.173	14815
873.303	14834
873.432	15001
873.561	14937
873.69	14914
873.819	14868
873.948	14921
874.077	14864
874.206	14792
874.335	14902
874.464	15058
874.593	15123
874.722	15051
874.851	15214
874.979	15203
875.108	15195
875.237	15157
875.365	15024
875.494	15123
875.623	15184
875.751	15157
875.88	15310
876.008	15241
876.136	15351
876.265	15610
876.393	15797
876.521	15595
876.65	15751
876.778	15686
876.906	15637
877.034	15542
877.162	15519
877.29	15603
877.418	15663
877.546	15492
877.674	15572
877.802	15526
877.93	15660
878.058	15466
878.185	15511
878.313	15549
878.441	15618
878.568	15420
878.696	15458
878.824	15591
878.951	15660
879.079	15808
879.206	15918
879.333	15823
879.461	15618
879.588	15644
879.715	15831
879.842	15778
879.97	15679
880.097	15450
880.224	15397
880.351	15492
880.478	15496
880.605	15416
880.732	15469
880.859	15675
880.986	15526
881.112	15424
881.239	15370
881.366	15169
881.493	15123
881.619	15097
881.746	15127
881.872	15150
881.999	15039
882.125	15013
882.252	15070
882.378	15119
882.505	15199
882.631	15100
882.757	14925
882.883	14948
883.01	14853
883.136	14902
883.262	14705
883.388	14750
883.514	14899
883.64	14929
883.766	14914
883.892	14750
884.018	14697
884.143	14933
884.269	14963
884.395	14632
884.52	14564
884.646	14644
884.772	14632
884.897	14473
885.023	14545
885.148	14773
885.274	14804
885.399	14819
885.524	14651
885.65	14621
885.775	14667
885.9	14571
886.025	14750
886.15	14678
886.275	14598
886.4	14457
886.525	14583
886.65	14537
886.775	14590
886.9	14781
887.025	14826
887.149	14644
887.274	14530
887.399	14423
887.523	14404
887.648	14324
887.773	14374
887.897	14457
888.021	14469
888.146	14457
888.27	14617
888.395	14461
888.519	14556
888.643	14480
888.767	14571
888.891	14275
889.015	14332
889.139	14385
889.263	14263
889.387	14423
889.511	14518
889.635	14495
889.759	14267
889.883	14374
890.006	14431
890.13	14450
890.254	14244
890.377	14336
890.501	14218
890.624	14100
890.748	14187
890.871	14069
890.995	13932
891.118	13913
891.241	13967
891.364	14073
891.488	14123
891.611	13944
891.734	13963
891.857	14012
891.98	14069
892.103	14115
892.226	14050
892.349	14123
892.471	13822
892.594	13993
892.717	14077
892.839	14050
892.962	14043
893.085	14077
893.207	14043
893.33	13947
893.452	13993
893.575	14016
893.697	14016
893.819	14180
893.941	14301
894.064	14206
894.186	14005
894.308	14005
894.43	14107
894.552	14187
894.674	14164
894.796	13993
894.918	14103
895.04	14069
895.161	14218
895.283	14100
895.405	14001
895.526	14062
895.648	14084
895.769	14081
895.891	14130
896.012	14336
896.134	14195
896.255	14153
896.376	14214
896.498	14180
896.619	14294
896.74	14237
896.861	14210
896.982	14480
897.103	14651
897.224	14568
897.345	14537
897.466	14385
897.587	14454
897.708	14583
897.828	14568
897.949	14396
898.07	14336
898.19	14438
898.311	14560
898.431	14473
898.552	14552
898.672	14625
898.792	14674
898.913	14590
899.033	14518
899.153	14366
899.273	14377
899.393	14347
899.513	14366
899.633	14412
899.753	14343
899.873	14438
899.993	14408
900.113	14355
900.232	14434
900.352	14393
900.472	14256
900.591	14195
900.711	14309
900.83	14259
900.95	14377
901.069	14415
901.189	14252
901.308	14005
901.427	13951
901.546	13959
901.665	14035
901.784	13993
901.904	13772
902.023	13738
902.141	13624
902.26	13559
902.379	13613
902.498	13571
902.617	13449
902.735	13491
902.854	13521
902.973	13510
903.091	13350
903.21	13232
903.328	13274
903.446	13190
903.565	13141
903.683	13168
903.801	13031
903.919	13072
904.038	13072
904.156	12882
904.274	13072
904.392	12973
904.51	12829
904.627	12935
904.745	12951
904.863	12901
904.981	12677
905.098	12528
905.216	12585
905.334	12563
905.451	12635
905.569	12525
905.686	12669
905.803	12658
905.921	12433
906.038	12475
906.155	12422
906.272	12365
906.389	12323
906.506	12171
906.623	12224
906.74	12057
906.857	12038
906.974	12182
907.091	12205
907.208	12296
907.324	12216
907.441	12194
907.557	12038
907.674	11965
907.79	11832
907.907	11878
908.023	11999
908.139	11950
908.256	11988
908.372	11889
908.488	11897
908.604	11714
908.72	11634
908.836	11748
908.952	11649
909.068	11695
909.184	11714
909.3	11665
909.415	11714
909.531	11623
909.647	11509
909.762	11444
909.878	11440
909.993	11512
910.108	11463
910.224	11391
910.339	11551
910.454	11376
910.57	11288
910.685	11189
910.8	11455
910.915	11425
911.03	11315
911.145	11140
911.259	11201
911.374	11246
911.489	11098
911.604	11045
911.718	10930
911.833	10949
911.947	10847
912.062	10702
912.176	10915
912.291	10980
912.405	10976
912.519	11075
912.633	11098
912.748	10976
912.862	10923
912.976	10782
913.09	10725
913.204	10729
913.318	10866
913.431	10892
913.545	10862
913.659	10885
913.772	10797
913.886	10683
914	10698
914.113	10763
914.226	10892
914.34	10710
914.453	10565
914.566	10691
914.68	10679
914.793	10592
914.906	10485
915.019	10405
915.132	10325
915.245	10382
915.358	10409
915.47	10485
915.583	10402
915.696	10443
915.809	10607
915.921	10558
916.034	10379
916.146	10386
916.259	10367
916.371	10421
916.483	10459
916.595	10325
916.708	10299
916.82	10424
916.932	10386
917.044	10356
917.156	10318
917.268	10257
917.38	10227
917.491	10268
917.603	10329
917.715	10310
917.826	10421
917.938	10238
918.049	10188
918.161	10291
918.272	10417
918.384	10360
918.495	10200
918.606	10147
918.717	10093
918.828	10150
918.939	10135
919.05	10059
919.161	10158
919.272	9991
919.383	10010
919.494	10265
919.604	10424
919.715	10177
919.826	10166
919.936	10116
920.047	10139
920.157	10223
920.267	10348
920.378	10188
920.488	10135
920.598	10310
920.708	10398
920.818	10363
920.928	10341
921.038	10489
921.148	10527
921.258	10192
921.368	10154
921.477	10055
921.587	10044
921.697	9888
921.806	10078
921.916	9930
922.025	9732
922.134	9690
922.244	9690
922.353	9720
922.462	9584
922.571	9500
922.68	9408
922.789	9393
922.898	9393
923.007	9370
923.116	9447
923.224	9469
923.333	9389
923.442	9329
923.55	9279
923.659	9329
923.767	9382
923.876	9279
923.984	9336
924.092	9226
924.201	9302
924.309	9264
924.417	9329
924.525	9199
924.633	9211
924.741	10120
924.849	9028
924.956	9237
925.064	9017
925.172	8994
925.279	9020
925.387	9100
925.494	9039
925.602	9226
925.709	9237
925.816	9055
925.924	9074
926.031	9237
926.138	9138
926.245	9135
926.352	9051
926.459	9184
926.566	9150
926.673	9039
926.779	8929
926.886	8963
926.993	8849
927.099	8766
927.206	8727
927.312	8746
927.419	8796
927.525	8769
927.631	8800
927.737	8701
927.843	8720
927.95	8571
928.056	8674
928.162	8754
928.267	8724
928.373	9211
928.479	8754
928.585	8579
928.69	8686
928.796	8678
928.901	8590
929.007	8415
929.112	8564
929.218	8590
929.323	8476
929.428	8522
929.533	8667
929.638	8438
929.743	8400
929.848	8518
929.953	8518
930.058	8438
930.163	8240
930.267	8248
930.372	8495
930.477	8263
930.581	8454
930.685	8381
930.79	8256
930.894	8191
930.998	8214
931.103	8286
931.207	8027
931.311	7978
931.415	7970
931.519	7753
931.623	7655
