Data from test_V78500241_2053.txt Node
Date: Fri Mar 25 14:48:00 CST 2022
User: usil
Spectrometer: V785-0024
Trigger mode: 0
Integration Time (sec): 4.000000E-1
Scans to average: 1
Nonlinearity correction enabled: false
Boxcar width: 0
Storing dark spectrum: false
XAxis mode: Wavelengths
Number of Pixels in Spectrum: 1024
>>>>>Begin Spectral Data<<<<<
801.071	22074
801.214	22082
801.356	21755
801.499	21599
801.641	21519
801.783	21606
801.926	21519
802.068	21469
802.211	21367
802.353	21302
802.496	21036
802.638	20998
802.78	20842
802.923	20883
803.065	20796
803.208	20834
803.35	20902
803.492	20883
803.635	20975
803.777	20830
803.919	20830
804.061	21237
804.204	20887
804.346	20781
804.488	20689
804.63	20823
804.773	20807
804.915	20762
805.057	20735
805.199	20777
805.341	20838
805.483	20769
805.626	20891
805.768	20663
805.91	20746
806.052	20716
806.194	20686
806.336	20845
806.478	20693
806.62	20693
806.762	20804
806.904	20918
807.046	21188
807.188	21085
807.33	21051
807.472	21036
807.614	20952
807.756	21062
807.898	20872
808.04	20815
808.182	20830
808.324	20781
808.465	20853
808.607	20937
808.749	21066
808.891	21195
809.033	21272
809.174	21188
809.316	21066
809.458	21104
809.6	21116
809.741	21188
809.883	21275
810.025	21245
810.166	21348
810.308	21332
810.45	21230
810.591	21203
810.733	20872
810.875	20902
811.016	20731
811.158	20804
811.299	20967
811.441	21089
811.582	20994
811.724	20872
811.865	20826
812.007	20762
812.148	20815
812.29	21058
812.431	21081
812.573	21192
812.714	21260
812.855	21439
812.997	21504
813.138	21606
813.279	21386
813.421	21370
813.562	21306
813.703	21203
813.845	21036
813.986	20746
814.127	20621
814.268	20537
814.41	20507
814.551	20427
814.692	20507
814.833	20355
814.974	20412
815.115	20514
815.256	20126
815.397	20400
815.539	20305
815.68	20202
815.821	20107
815.962	20107
816.103	20157
816.244	20024
816.385	19875
816.526	19811
816.666	19609
816.807	19453
816.948	19723
817.089	19811
817.23	19540
817.371	19658
817.512	19628
817.653	19586
817.793	19563
817.934	19639
818.075	19647
818.216	19616
818.356	19476
818.497	19407
818.638	19213
818.778	19297
818.919	19255
819.06	19285
819.2	19415
819.341	19430
819.481	19415
819.622	19670
819.762	19761
819.903	19753
820.043	19613
820.184	19677
820.324	19597
820.465	19613
820.605	19582
820.746	19529
820.886	19502
821.026	19483
821.167	19487
821.307	19586
821.447	19449
821.588	19396
821.728	19316
821.868	19088
822.008	18935
822.149	18954
822.289	18890
822.429	18722
822.569	18673
822.709	18661
822.849	18502
822.99	18540
823.13	18528
823.27	18372
823.41	18315
823.55	18243
823.69	18380
823.83	18251
823.97	18213
824.11	17946
824.25	18049
824.389	18007
824.529	18114
824.669	18114
824.809	18133
824.949	18068
825.089	18140
825.228	17992
825.368	17939
825.508	17863
825.648	17752
825.787	17828
825.927	17863
826.067	17764
826.206	17745
826.346	17901
826.485	17813
826.625	17764
826.765	17904
826.904	17771
827.044	17497
827.183	17611
827.323	17501
827.462	17627
827.601	17452
827.741	17520
827.88	17615
828.02	17353
828.159	17543
828.298	17493
828.437	17604
828.577	17539
828.716	17676
828.855	17452
828.994	17288
829.134	17212
829.273	17288
829.412	17227
829.551	17212
829.69	17181
829.829	17284
829.968	17292
830.107	17376
830.246	17277
830.385	17155
830.524	17235
830.663	17090
830.802	16919
830.941	16881
831.08	16896
831.219	17037
831.357	16892
831.496	17136
831.635	16968
831.774	16774
831.913	16752
832.051	16752
832.19	16592
832.329	16702
832.467	16561
832.606	16622
832.744	16516
832.883	16470
833.022	16554
833.16	16611
833.299	16588
833.437	16653
833.576	16607
833.714	16592
833.852	16664
833.991	16637
834.129	16645
834.267	16622
834.406	16527
834.544	16634
834.682	16694
834.821	16538
834.959	16691
835.097	16603
835.235	16698
835.373	16706
835.511	16691
835.65	16561
835.788	16443
835.926	16352
836.064	16284
836.202	16436
836.34	16500
836.478	16535
836.615	16558
836.753	16603
836.891	16630
837.029	16504
837.167	16565
837.305	16337
837.443	16287
837.58	16356
837.718	16500
837.856	16436
837.993	16382
838.131	16367
838.269	16230
838.406	16253
838.544	16337
838.681	16135
838.819	16147
838.956	15873
839.094	15895
839.231	16029
839.369	15987
839.506	16291
839.643	16169
839.781	16013
839.918	15888
840.055	15930
840.193	16017
840.33	15869
840.467	15918
840.604	15880
840.742	16112
840.879	15755
841.016	15865
841.153	15861
841.29	16128
841.427	16013
841.564	15922
841.701	16051
841.838	15842
841.975	15835
842.112	15888
842.249	15705
842.385	15778
842.522	15972
842.659	15823
842.796	15736
842.933	15701
843.069	15686
843.206	15724
843.343	15789
843.479	15732
843.616	15739
843.752	15580
843.889	15458
844.025	15652
844.162	15538
844.298	15580
844.435	15549
844.571	15431
844.708	15614
844.844	15629
844.98	15644
845.117	15660
845.253	15435
845.389	15416
845.525	15473
845.661	15374
845.798	15340
845.934	15412
846.07	15313
846.206	15332
846.342	15355
846.478	15237
846.614	15138
846.75	15119
846.886	15138
847.022	15146
847.158	15070
847.294	15077
847.429	15207
847.565	15081
847.701	15317
847.837	14849
847.972	14727
848.108	14979
848.244	14910
848.379	14773
848.515	14537
848.65	14727
848.786	14720
848.921	14739
849.057	14667
849.192	14800
849.328	14670
849.463	14724
849.598	14651
849.734	14606
849.869	14571
850.004	14495
850.14	14469
850.275	14541
850.41	14454
850.545	14438
850.68	14377
850.815	14499
850.95	14446
851.085	14606
851.22	14552
851.355	14377
851.49	14431
851.625	14336
851.76	14370
851.895	14328
852.03	14328
852.165	14400
852.299	14507
852.434	14537
852.569	14560
852.703	14476
852.838	14545
852.973	14659
853.107	14663
853.242	14438
853.376	14389
853.511	14275
853.645	14324
853.78	14400
853.914	14389
854.048	14374
854.183	14259
854.317	14305
854.451	14625
854.585	14336
854.72	14324
854.854	14377
854.988	14240
855.122	14313
855.256	14191
855.39	14263
855.524	14370
855.658	14282
855.792	14328
855.926	14347
856.06	14465
856.194	14450
856.327	14324
856.461	14263
856.595	14214
856.729	14309
856.862	14473
856.996	14374
857.13	14370
857.263	14438
857.397	14492
857.53	14301
857.664	14355
857.797	14290
857.931	14423
858.064	14301
858.197	14415
858.331	14358
858.464	14336
858.597	14320
858.731	14351
858.864	14336
858.997	14317
859.13	14385
859.263	14351
859.396	14412
859.529	14259
859.662	14252
859.795	14332
859.928	14267
860.061	14381
860.194	14514
860.327	14328
860.46	14355
860.592	14434
860.725	14465
860.858	14492
860.99	14385
861.123	14218
861.256	14206
861.388	14362
861.521	15192
861.653	14214
861.786	14229
861.918	14210
862.05	14221
862.183	14187
862.315	14400
862.447	14484
862.58	14336
862.712	14168
862.844	13947
862.976	14202
863.108	14134
863.24	14434
863.372	14107
863.504	14005
863.636	14142
863.768	14142
863.9	14130
864.032	13989
864.164	14031
864.296	14069
864.428	14225
864.559	14240
864.691	14252
864.823	14199
864.954	14161
865.086	14214
865.217	14035
865.349	14031
865.48	14119
865.612	14046
865.743	14237
865.875	14149
866.006	14027
866.137	14020
866.269	14092
866.4	14035
866.531	14081
866.662	13970
866.793	13913
866.924	14046
867.055	14187
867.186	14096
867.317	13993
867.448	13989
867.579	14054
867.71	14016
867.841	13970
867.972	14130
868.103	14073
868.233	14069
868.364	14161
868.495	14187
868.625	14263
868.756	14324
868.886	14191
869.017	14301
869.147	14324
869.278	14461
869.408	14317
869.539	14393
869.669	14408
869.799	14347
869.929	14507
870.06	14480
870.19	14648
870.32	14651
870.45	14708
870.58	14743
870.71	14838
870.84	14876
870.97	14800
871.1	14769
871.23	14933
871.36	15039
871.489	14796
871.619	14857
871.749	14868
871.879	15009
872.008	15001
872.138	14906
872.267	14906
872.397	14826
872.526	14750
872.656	14750
872.785	14887
872.915	14929
873.044	15020
873.173	15039
873.303	14967
873.432	15039
873.561	14986
873.69	14918
873.819	14914
873.948	14960
874.077	14956
874.206	14891
874.335	15043
874.464	15214
874.593	15283
874.722	15230
874.851	15294
874.979	15363
875.108	15279
875.237	15195
875.365	15207
875.494	15256
875.623	15386
875.751	15226
875.88	15310
876.008	15557
876.136	15428
876.265	15603
876.393	15865
876.521	15804
876.65	15869
876.778	15705
876.906	15591
877.034	15705
877.162	15736
877.29	15576
877.418	15797
877.546	15701
877.674	15675
877.802	15751
877.93	15781
878.058	15732
878.185	15648
878.313	15671
878.441	15686
878.568	15584
878.696	15644
878.824	15732
878.951	15759
879.079	15880
879.206	16036
879.333	15876
879.461	15690
879.588	15774
879.715	15915
879.842	16021
879.97	15686
880.097	15450
880.224	15538
880.351	15523
880.478	15523
880.605	15576
880.732	15485
880.859	15789
880.986	15530
881.112	15572
881.239	15424
881.366	15405
881.493	15287
881.619	15268
881.746	15226
881.872	15119
881.999	15203
882.125	15188
882.252	15195
882.378	15279
882.505	15306
882.631	15188
882.757	14941
882.883	15055
883.01	14998
883.136	15017
883.262	14910
883.388	14941
883.514	15047
883.64	15119
883.766	14998
883.892	14823
884.018	14842
884.143	15089
884.269	15093
884.395	14815
884.52	14754
884.646	14720
884.772	14663
884.897	14708
885.023	14762
885.148	14819
885.274	14952
885.399	14910
885.524	14788
885.65	14811
885.775	14731
885.9	14689
886.025	14887
886.15	14849
886.275	14606
886.4	14648
886.525	14663
886.65	14708
886.775	14674
886.9	14804
887.025	14990
887.149	14682
887.274	14659
887.399	14583
887.523	14507
887.648	14511
887.773	14415
887.897	14670
888.021	14659
888.146	14503
888.27	14758
888.395	14693
888.519	14663
888.643	14651
888.767	14636
888.891	14518
889.015	14343
889.139	14454
889.263	14404
889.387	14549
889.511	14636
889.635	14476
889.759	14366
889.883	14400
890.006	14404
890.13	14587
890.254	14419
890.377	14408
890.501	14237
890.624	14199
890.748	14309
890.871	14176
890.995	14046
891.118	14046
891.241	14157
891.364	14176
891.488	14237
891.611	14103
891.734	14126
891.857	14252
891.98	14191
892.103	14237
892.226	14088
892.349	14191
892.471	13959
892.594	14157
892.717	14096
892.839	14058
892.962	14138
893.085	14229
893.207	14111
893.33	14008
893.452	14065
893.575	14191
893.697	14054
893.819	14229
893.941	14305
894.064	14305
894.186	14115
894.308	14145
894.43	14244
894.552	14290
894.674	14214
894.796	14115
894.918	14221
895.04	14172
895.161	14225
895.283	14324
895.405	14202
895.526	14233
895.648	14123
895.769	14142
895.891	14195
896.012	14263
896.134	14343
896.255	14317
896.376	14309
896.498	14324
896.619	14362
896.74	14309
896.861	14290
896.982	14667
897.103	14880
897.224	14530
897.345	14552
897.466	14556
897.587	14617
897.708	14632
897.828	14640
897.949	14613
898.07	14427
898.19	14473
898.311	14701
898.431	14503
898.552	14560
898.672	14773
898.792	14705
898.913	14731
899.033	14575
899.153	14454
899.273	14442
899.393	14476
899.513	14606
899.633	14461
899.753	14556
899.873	14526
899.993	14587
900.113	14507
900.232	14621
900.352	14492
900.472	14419
900.591	14336
900.711	14465
900.83	14366
900.95	14396
901.069	14473
901.189	14309
901.308	14123
901.427	13936
901.546	13963
901.665	14024
901.784	14027
901.904	14054
902.023	13814
902.141	13681
902.26	13655
902.379	13662
902.498	13590
902.617	13586
902.735	13559
902.854	13605
902.973	13613
903.091	13289
903.21	13343
903.328	13350
903.446	13316
903.565	13213
903.683	13168
903.801	13031
903.919	13164
904.038	13179
904.156	12935
904.274	13122
904.392	13065
904.51	12970
904.627	12977
904.745	13038
904.863	12928
904.981	12844
905.098	12650
905.216	12722
905.334	12639
905.451	12787
905.569	12677
905.686	12722
905.803	12681
905.921	12460
906.038	12627
906.155	12566
906.272	12410
906.389	12441
906.506	12266
906.623	12270
906.74	12300
906.857	12186
906.974	12159
907.091	12353
907.208	12414
907.324	12346
907.441	12155
907.557	12064
907.674	12011
907.79	11870
907.907	11977
908.023	12091
908.139	11958
908.256	11969
908.372	11973
908.488	11904
908.604	11798
908.72	11783
908.836	11786
908.952	11726
909.068	11775
909.184	11821
909.3	11790
909.415	11843
909.531	11729
909.647	11611
909.762	11589
909.878	11478
909.993	11657
910.108	11516
910.224	11570
910.339	11570
910.454	11478
910.57	11406
910.685	11349
910.8	11577
910.915	11551
911.03	11433
911.145	11250
911.259	11360
911.374	11208
911.489	11223
911.604	11109
911.718	10896
911.833	11025
911.947	10877
912.062	10896
912.176	10980
912.291	11010
912.405	11075
912.519	11105
912.633	11208
912.748	11117
912.862	11003
912.976	10980
913.09	10782
913.204	10850
913.318	10771
913.431	10984
913.545	10957
913.659	11056
913.772	10850
913.886	10748
914	10744
914.113	10858
914.226	10900
914.34	10850
914.453	10634
914.566	10904
914.68	10805
914.793	10706
914.906	10516
915.019	10447
915.132	10363
915.245	10497
915.358	10531
915.47	10550
915.583	10519
915.696	10531
915.809	10656
915.921	10637
916.034	10394
916.146	10462
916.259	10424
916.371	10584
916.483	10424
916.595	10375
916.708	10421
916.82	10504
916.932	10455
917.044	10356
917.156	10363
917.268	10367
917.38	10390
917.491	10265
917.603	10333
917.715	10382
917.826	10443
917.938	10306
918.049	10211
918.161	10367
918.272	10531
918.384	10485
918.495	10322
918.606	10173
918.717	10200
918.828	10230
918.939	10333
919.05	10124
919.161	10242
919.272	10032
919.383	10109
919.494	10284
919.604	10386
919.715	10268
919.826	10131
919.936	10234
920.047	10299
920.157	10227
920.267	10447
920.378	10329
920.488	10158
920.598	10348
920.708	10599
920.818	10462
920.928	10481
921.038	10599
921.148	10558
921.258	10253
921.368	10086
921.477	10112
921.587	10082
921.697	9934
921.806	10093
921.916	9975
922.025	9823
922.134	9816
922.244	9743
922.353	9800
922.462	9724
922.571	9606
922.68	9424
922.789	9504
922.898	9458
923.007	9370
923.116	9507
923.224	9420
923.333	9561
923.442	9439
923.55	9344
923.659	9378
923.767	9519
923.876	9363
923.984	9386
924.092	9340
924.201	9359
924.309	9344
924.417	9416
924.525	9222
924.633	9253
924.741	10185
924.849	9138
924.956	9256
925.064	9112
925.172	9108
925.279	9089
925.387	9157
925.494	9207
925.602	9279
925.709	9245
925.816	9093
925.924	9230
926.031	9272
926.138	9180
926.245	9184
926.352	9077
926.459	9195
926.566	9218
926.673	9157
926.779	9036
926.886	9017
926.993	8941
927.099	8834
927.206	8838
927.312	8815
927.419	8902
927.525	8845
927.631	8918
927.737	8792
927.843	8834
927.95	8727
928.056	8735
928.162	8811
928.267	8819
928.373	9420
928.479	8891
928.585	8663
928.69	8796
928.796	8823
928.901	8716
929.007	8594
929.112	8750
929.218	8632
929.323	8625
929.428	8530
929.533	8670
929.638	8457
929.743	8560
929.848	8655
929.953	8648
930.058	8514
930.163	8362
930.267	8362
930.372	8511
930.477	8442
930.581	8670
930.685	8374
930.79	8320
930.894	8412
930.998	8339
931.103	8434
931.207	8126
931.311	8073
931.415	7989
931.519	7780
931.623	7830
