Data from test_V78500241_1309.txt Node
Date: Fri Mar 25 14:42:49 CST 2022
User: usil
Spectrometer: V785-0024
Trigger mode: 0
Integration Time (sec): 4.000000E-1
Scans to average: 1
Nonlinearity correction enabled: false
Boxcar width: 0
Storing dark spectrum: false
XAxis mode: Wavelengths
Number of Pixels in Spectrum: 1024
>>>>>Begin Spectral Data<<<<<
801.071	22390
801.214	22226
801.356	22207
801.499	22029
801.641	21728
801.783	21705
801.926	21732
802.068	21739
802.211	21496
802.353	21603
802.496	21378
802.638	21203
802.78	21226
802.923	21222
803.065	21058
803.208	21127
803.35	21180
803.492	21245
803.635	21237
803.777	21135
803.919	21203
804.061	21435
804.204	21165
804.346	21032
804.488	20925
804.63	21058
804.773	20891
804.915	21077
805.057	21252
805.199	21058
805.341	21112
805.483	21055
805.626	21195
805.768	21051
805.91	21070
806.052	21001
806.194	20982
806.336	21062
806.478	21199
806.62	20982
806.762	21093
806.904	21306
807.046	21389
807.188	21355
807.33	21260
807.472	21466
807.614	21199
807.756	21454
807.898	21298
808.04	21272
808.182	21252
808.324	21272
808.465	21306
808.607	21477
808.749	21629
808.891	21648
809.033	21804
809.174	21675
809.316	21545
809.458	21545
809.6	21374
809.741	21545
809.883	21568
810.025	21641
810.166	21675
810.308	21496
810.45	21736
810.591	21504
810.733	21367
810.875	21355
811.016	21180
811.158	21184
811.299	21351
811.441	21393
811.582	21405
811.724	21241
811.865	21230
812.007	21188
812.148	21180
812.29	21245
812.431	21268
812.573	21485
812.714	21625
812.855	21618
812.997	21770
813.138	21994
813.279	21812
813.421	21766
813.562	21641
813.703	21530
813.845	21416
813.986	21222
814.127	20876
814.268	20887
814.41	20727
814.551	20724
814.692	20876
814.833	20746
814.974	20769
815.115	20815
815.256	20613
815.397	20621
815.539	20598
815.68	20503
815.821	20393
815.962	20514
816.103	20560
816.244	20282
816.385	20214
816.526	20149
816.666	19989
816.807	20001
816.948	19997
817.089	20043
817.23	19982
817.371	19898
817.512	19978
817.653	19879
817.793	19807
817.934	19947
818.075	19993
818.216	19879
818.356	19811
818.497	19833
818.638	19552
818.778	19662
818.919	19594
819.06	19616
819.2	19803
819.341	19761
819.481	19674
819.622	19871
819.762	20077
819.903	20107
820.043	19906
820.184	19879
820.324	19864
820.465	19822
820.605	19902
820.746	19955
820.886	19811
821.026	19997
821.167	19879
821.307	19890
821.447	19803
821.588	19674
821.728	19658
821.868	19491
822.008	19282
822.149	19206
822.289	19221
822.429	19129
822.569	18954
822.709	18981
822.849	18863
822.99	18757
823.13	18837
823.27	18738
823.41	18639
823.55	18616
823.69	18700
823.83	18566
823.97	18445
824.11	18433
824.25	18357
824.389	18365
824.529	18403
824.669	18395
824.809	18540
824.949	18490
825.089	18467
825.228	18407
825.368	18155
825.508	18228
825.648	18247
825.787	18300
825.927	18281
826.067	18136
826.206	18121
826.346	18213
826.485	18148
826.625	18129
826.765	18194
826.904	18167
827.044	17908
827.183	17870
827.323	17897
827.462	17885
827.601	17821
827.741	17767
827.88	17855
828.02	17680
828.159	17897
828.298	17912
828.437	17855
828.577	17859
828.716	17916
828.855	17843
828.994	17570
829.134	17585
829.273	17691
829.412	17501
829.551	17471
829.69	17627
829.829	17699
829.968	17718
830.107	17665
830.246	17619
830.385	17558
830.524	17467
830.663	17349
830.802	17315
830.941	17174
831.08	17212
831.219	17261
831.357	17402
831.496	17379
831.635	17159
831.774	17128
831.913	17113
832.051	17056
832.19	16987
832.329	16946
832.467	16976
832.606	16843
832.744	16946
832.883	16987
833.022	16980
833.16	16984
833.299	16930
833.437	16877
833.576	16961
833.714	16904
833.852	17033
833.991	16923
834.129	17132
834.267	17041
834.406	16984
834.544	16980
834.682	16999
834.821	16976
834.959	17124
835.097	16934
835.235	17018
835.373	16961
835.511	17083
835.65	16908
835.788	16835
835.926	16679
836.064	16759
836.202	16725
836.34	16885
836.478	16995
836.615	16869
836.753	16946
836.891	17033
837.029	16942
837.167	16896
837.305	16869
837.443	16850
837.58	16687
837.718	16786
837.856	16812
837.993	16626
838.131	16702
838.269	16618
838.406	16725
838.544	16596
838.681	16500
838.819	16516
838.956	16360
839.094	16287
839.231	16356
839.369	16398
839.506	16767
839.643	16550
839.781	16341
839.918	16303
840.055	16379
840.193	16265
840.33	16291
840.467	16287
840.604	16382
840.742	16542
840.879	16154
841.016	16257
841.153	16109
841.29	16352
841.427	16306
841.564	16325
841.701	16398
841.838	16398
841.975	16116
842.112	16192
842.249	16185
842.385	16131
842.522	16261
842.659	16063
842.796	16090
842.933	15945
843.069	16063
843.206	16048
843.343	16112
843.479	16013
843.616	16101
843.752	15884
843.889	15903
844.025	16010
844.162	15823
844.298	15968
844.435	15953
844.571	15865
844.708	15937
844.844	15964
844.98	16063
845.117	15960
845.253	15770
845.389	15835
845.525	15800
845.661	15876
845.798	15751
845.934	15991
846.07	15895
846.206	15842
846.342	15956
846.478	15774
846.614	15603
846.75	15542
846.886	15363
847.022	15485
847.158	15439
847.294	15507
847.429	15511
847.565	15382
847.701	15648
847.837	15138
847.972	15142
848.108	15188
848.244	15214
848.379	15017
848.515	14975
848.65	15100
848.786	15017
848.921	15024
849.057	15138
849.192	15093
849.328	15097
849.463	14933
849.598	14960
849.734	14941
849.869	14929
850.004	14765
850.14	14864
850.275	14743
850.41	14773
850.545	14708
850.68	14815
850.815	14838
850.95	14815
851.085	15058
851.22	14921
851.355	14804
851.49	14819
851.625	14769
851.76	14705
851.895	14705
852.03	14655
852.165	14629
852.299	14792
852.434	14838
852.569	14815
852.703	14727
852.838	14845
852.973	14944
853.107	14906
853.242	14765
853.376	14758
853.511	14533
853.645	14644
853.78	14765
853.914	14693
854.048	14606
854.183	14594
854.317	14621
854.451	14804
854.585	14701
854.72	14682
854.854	14693
854.988	14670
855.122	14579
855.256	14533
855.39	14556
855.524	14777
855.658	14682
855.792	14682
855.926	14765
856.06	14720
856.194	14758
856.327	14610
856.461	14606
856.595	14625
856.729	14613
856.862	14708
856.996	14636
857.13	14724
857.263	14750
857.397	14804
857.53	14693
857.664	14670
857.797	14712
857.931	14693
858.064	14777
858.197	14739
858.331	14564
858.464	14564
858.597	14488
858.731	14594
858.864	14682
858.997	14610
859.13	14659
859.263	14708
859.396	14815
859.529	14613
859.662	14621
859.795	14667
859.928	14667
860.061	14735
860.194	14788
860.327	14750
860.46	14651
860.592	14765
860.725	14819
860.858	14777
860.99	14632
861.123	14629
861.256	14480
861.388	14644
861.521	15363
861.653	14518
861.786	14454
861.918	14583
862.05	14587
862.183	14556
862.315	14655
862.447	14678
862.58	14522
862.712	14465
862.844	14408
862.976	14507
863.108	14389
863.24	14895
863.372	14358
863.504	14377
863.636	14469
863.768	14412
863.9	14423
864.032	14366
864.164	14438
864.296	14484
864.428	14636
864.559	14621
864.691	14473
864.823	14473
864.954	14442
865.086	14419
865.217	14442
865.349	14381
865.48	14377
865.612	14408
865.743	14530
865.875	14495
866.006	14381
866.137	14400
866.269	14469
866.4	14385
866.531	14408
866.662	14343
866.793	14419
866.924	14248
867.055	14362
867.186	14351
867.317	14358
867.448	14263
867.579	14408
867.71	14286
867.841	14256
867.972	14309
868.103	14381
868.233	14480
868.364	14404
868.495	14514
868.625	14568
868.756	14663
868.886	14686
869.017	14644
869.147	14613
869.278	14746
869.408	14667
869.539	14655
869.669	14815
869.799	14682
869.929	14796
870.06	14826
870.19	14986
870.32	14918
870.45	14929
870.58	15058
870.71	15173
870.84	15097
870.97	15070
871.1	15032
871.23	15157
871.36	15116
871.489	15116
871.619	15150
871.749	15287
871.879	15268
872.008	15386
872.138	15230
872.267	15249
872.397	15058
872.526	15047
872.656	15009
872.785	15146
872.915	15329
873.044	15222
873.173	15157
873.303	15237
873.432	15348
873.561	15287
873.69	15374
873.819	15287
873.948	15317
874.077	15245
874.206	15268
874.335	15348
874.464	15405
874.593	15492
874.722	15481
874.851	15606
874.979	15614
875.108	15641
875.237	15606
875.365	15530
875.494	15568
875.623	15644
875.751	15519
875.88	15625
876.008	15713
876.136	15861
876.265	16021
876.393	16314
876.521	16025
876.65	16143
876.778	16040
876.906	16002
877.034	15888
877.162	15972
877.29	15892
877.418	15968
877.546	16067
877.674	16025
877.802	16002
877.93	16006
878.058	16051
878.185	15869
878.313	16082
878.441	16101
878.568	15857
878.696	15915
878.824	16055
878.951	16147
879.079	16207
879.206	16390
879.333	16322
879.461	16276
879.588	16192
879.715	16246
879.842	16436
879.97	16128
880.097	16025
880.224	15994
880.351	15968
880.478	15968
880.605	15857
880.732	15937
880.859	16173
880.986	15880
881.112	15926
881.239	15762
881.366	15644
881.493	15622
881.619	15622
881.746	15488
881.872	15629
881.999	15374
882.125	15462
882.252	15580
882.378	15584
882.505	15648
882.631	15557
882.757	15416
882.883	15488
883.01	15405
883.136	15245
883.262	15245
883.388	15176
883.514	15439
883.64	15469
883.766	15249
883.892	15154
884.018	15264
884.143	15336
884.269	15397
884.395	15077
884.52	15066
884.646	15043
884.772	15013
884.897	15047
885.023	15013
885.148	15093
885.274	15218
885.399	15131
885.524	15039
885.65	15123
885.775	15085
885.9	15024
886.025	15184
886.15	15135
886.275	14944
886.4	15070
886.525	15013
886.65	14994
886.775	15013
886.9	15036
887.025	15321
887.149	14956
887.274	14800
887.399	14853
887.523	14880
887.648	14724
887.773	14727
887.897	14982
888.021	14982
888.146	14910
888.27	15028
888.395	14956
888.519	14918
888.643	15043
888.767	14921
888.891	14925
889.015	14819
889.139	14769
889.263	14621
889.387	14899
889.511	14895
889.635	14823
889.759	14735
889.883	14701
890.006	14807
890.13	14830
890.254	14716
890.377	14682
890.501	14602
890.624	14552
890.748	14610
890.871	14488
890.995	14328
891.118	14282
891.241	14362
891.364	14427
891.488	14560
891.611	14385
891.734	14377
891.857	14594
891.98	14484
892.103	14503
892.226	14415
892.349	14427
892.471	14237
892.594	14465
892.717	14533
892.839	14461
892.962	14556
893.085	14571
893.207	14469
893.33	14282
893.452	14374
893.575	14533
893.697	14434
893.819	14514
893.941	14678
894.064	14560
894.186	14450
894.308	14408
894.43	14568
894.552	14598
894.674	14549
894.796	14347
894.918	14461
895.04	14590
895.161	14617
895.283	14674
895.405	14514
895.526	14511
895.648	14541
895.769	14610
895.891	14556
896.012	14598
896.134	14621
896.255	14708
896.376	14648
896.498	14594
896.619	14705
896.74	14545
896.861	14670
896.982	14967
897.103	15157
897.224	14876
897.345	14891
897.466	14792
897.587	14929
897.708	15020
897.828	14929
897.949	14845
898.07	14739
898.19	14876
898.311	15074
898.431	14861
898.552	15020
898.672	15062
898.792	15074
898.913	14963
899.033	14849
899.153	14861
899.273	14701
899.393	14826
899.513	14773
899.633	14773
899.753	14826
899.873	14777
899.993	14910
900.113	14708
900.232	14800
900.352	14765
900.472	14720
900.591	14590
900.711	14636
900.83	14579
900.95	14750
901.069	14758
901.189	14541
901.308	14320
901.427	14358
901.546	14290
901.665	14339
901.784	14233
901.904	14233
902.023	14145
902.141	13947
902.26	13814
902.379	13982
902.498	13791
902.617	13833
902.735	13989
902.854	13788
902.973	13780
903.091	13632
903.21	13624
903.328	13605
903.446	13483
903.565	13521
903.683	13540
903.801	13400
903.919	13480
904.038	13487
904.156	13228
904.274	13327
904.392	13251
904.51	13228
904.627	13137
904.745	13285
904.863	13346
904.981	13072
905.098	12894
905.216	12928
905.334	13038
905.451	12894
905.569	12886
905.686	12962
905.803	13000
905.921	12760
906.038	12871
906.155	12783
906.272	12700
906.389	12639
906.506	12555
906.623	12563
906.74	12570
906.857	12509
906.974	12418
907.091	12578
907.208	12665
907.324	12547
907.441	12483
907.557	12422
907.674	12235
907.79	12216
907.907	12243
908.023	12304
908.139	12281
908.256	12205
908.372	12133
908.488	12220
908.604	12045
908.72	11935
908.836	12019
908.952	12019
909.068	12106
909.184	12216
909.3	12076
909.415	12049
909.531	12083
909.647	11874
909.762	11836
909.878	11790
909.993	11859
910.108	11771
910.224	11779
910.339	11786
910.454	11684
910.57	11600
910.685	11585
910.8	11931
910.915	11851
911.03	11726
911.145	11467
911.259	11535
911.374	11509
911.489	11402
911.604	11448
911.718	11349
911.833	11337
911.947	11201
912.062	11132
912.176	11235
912.291	11307
912.405	11178
912.519	11486
912.633	11463
912.748	11288
912.862	11349
912.976	11208
913.09	10995
913.204	11048
913.318	11147
913.431	11220
913.545	11162
913.659	11250
913.772	11098
913.886	11086
914	10923
914.113	11086
914.226	11094
914.34	11185
914.453	10972
914.566	11056
914.68	10976
914.793	10991
914.906	10790
915.019	10733
915.132	10748
915.245	10714
915.358	10812
915.47	10828
915.583	10786
915.696	10782
915.809	10904
915.921	10889
916.034	10752
916.146	10706
916.259	10698
916.371	10946
916.483	10721
916.595	10645
916.708	10615
916.82	10767
916.932	10626
917.044	10622
917.156	10607
917.268	10558
917.38	10558
917.491	10618
917.603	10656
917.715	10630
917.826	10679
917.938	10554
918.049	10485
918.161	10592
918.272	10664
918.384	10717
918.495	10588
918.606	10405
918.717	10409
918.828	10443
918.939	10489
919.05	10272
919.161	10466
919.272	10268
919.383	10306
919.494	10519
919.604	10687
919.715	10417
919.826	10295
919.936	10428
920.047	10565
920.157	10489
920.267	10573
920.378	10508
920.488	10481
920.598	10535
920.708	10786
920.818	10714
920.928	10637
921.038	10835
921.148	10793
921.258	10451
921.368	10421
921.477	10280
921.587	10265
921.697	10154
921.806	10348
921.916	10150
922.025	10078
922.134	10017
922.244	10067
922.353	10025
922.462	9911
922.571	9854
922.68	9709
922.789	9679
922.898	9705
923.007	9599
923.116	9686
923.224	9660
923.333	9694
923.442	9534
923.55	9561
923.659	9523
923.767	9625
923.876	9553
923.984	9660
924.092	9507
924.201	9591
924.309	9519
924.417	9500
924.525	9523
924.633	9545
924.741	10253
924.849	9268
924.956	9515
925.064	9329
925.172	9264
925.279	9241
925.387	9306
925.494	9397
925.602	9450
925.709	9424
925.816	9211
925.924	9332
926.031	9389
926.138	9321
926.245	9393
926.352	9268
926.459	9336
926.566	9458
926.673	9279
926.779	9199
926.886	9230
926.993	9062
927.099	9089
927.206	8986
927.312	8925
927.419	9100
927.525	9085
927.631	9123
927.737	9001
927.843	8952
927.95	8842
928.056	8902
928.162	8956
928.267	9013
928.373	9652
928.479	9009
928.585	8830
928.69	8845
928.796	8948
928.901	8853
929.007	8670
929.112	8868
929.218	8804
929.323	8785
929.428	8754
929.533	8918
929.638	8686
929.743	8773
929.848	8785
929.953	8705
930.058	8667
930.163	8473
930.267	8587
930.372	8689
930.477	8461
930.581	8739
930.685	8617
930.79	8492
930.894	8431
930.998	8438
931.103	8545
931.207	8286
931.311	8214
931.415	8100
931.519	7928
931.623	7951
