Data from test_V78500241_917.txt Node
Date: Fri Mar 25 14:40:06 CST 2022
User: usil
Spectrometer: V785-0024
Trigger mode: 0
Integration Time (sec): 4.000000E-1
Scans to average: 1
Nonlinearity correction enabled: false
Boxcar width: 0
Storing dark spectrum: false
XAxis mode: Wavelengths
Number of Pixels in Spectrum: 1024
>>>>>Begin Spectral Data<<<<<
801.071	24722
801.214	24631
801.356	24365
801.499	24277
801.641	24133
801.783	24148
801.926	24136
802.068	24095
802.211	23897
802.353	23790
802.496	23756
802.638	23657
802.78	23600
802.923	23577
803.065	23524
803.208	23330
803.35	23334
803.492	23539
803.635	23471
803.777	23482
803.919	23509
804.061	23828
804.204	23585
804.346	23425
804.488	23471
804.63	23539
804.773	23292
804.915	23376
805.057	23562
805.199	23509
805.341	23539
805.483	23627
805.626	23535
805.768	23512
805.91	23452
806.052	23573
806.194	23539
806.336	23665
806.478	23718
806.62	23577
806.762	23760
806.904	23904
807.046	24369
807.188	24369
807.33	24266
807.472	24498
807.614	24513
807.756	24650
807.898	24658
808.04	24875
808.182	25255
808.324	25746
808.465	26134
808.607	26895
808.749	27348
808.891	27679
809.033	27770
809.174	27458
809.316	26891
809.458	26233
809.6	25700
809.741	25377
809.883	25088
810.025	24932
810.166	24779
810.308	24677
810.45	24559
810.591	24448
810.733	24194
810.875	23999
811.016	24045
811.158	23893
811.299	24045
811.441	24087
811.582	24007
811.724	23847
811.865	23741
812.007	23847
812.148	23726
812.29	23805
812.431	23977
812.573	24129
812.714	24038
812.855	24285
812.997	24262
813.138	24505
813.279	24330
813.421	24136
813.562	24148
813.703	24034
813.845	23931
813.986	23619
814.127	23433
814.268	23337
814.41	23288
814.551	23166
814.692	23341
814.833	23132
814.974	23178
815.115	23220
815.256	22957
815.397	23117
815.539	23003
815.68	22862
815.821	22816
815.962	22995
816.103	23022
816.244	22713
816.385	22641
816.526	22717
816.666	22508
816.807	22207
816.948	22310
817.089	22561
817.23	22394
817.371	22310
817.512	22253
817.653	22318
817.793	22299
817.934	22375
818.075	22344
818.216	22253
818.356	22188
818.497	22124
818.638	21972
818.778	22074
818.919	21930
819.06	22040
819.2	22086
819.341	22272
819.481	22147
819.622	22341
819.762	22402
819.903	22379
820.043	22352
820.184	22207
820.324	22276
820.465	22268
820.605	22337
820.746	22181
820.886	22017
821.026	22265
821.167	22204
821.307	22306
821.447	22090
821.588	22078
821.728	21979
821.868	21694
822.008	21583
822.149	21576
822.289	21603
822.429	21378
822.569	21157
822.709	21283
822.849	21074
822.99	21077
823.13	20963
823.27	21051
823.41	20792
823.55	20800
823.69	20921
823.83	20811
823.97	20777
824.11	20617
824.25	20697
824.389	20575
824.529	20682
824.669	20651
824.809	20693
824.949	20705
825.089	20750
825.228	20678
825.368	20450
825.508	20473
825.648	20446
825.787	20423
825.927	20480
826.067	20305
826.206	20427
826.346	20522
826.485	20473
826.625	20419
826.765	20526
826.904	20450
827.044	20218
827.183	20103
827.323	20084
827.462	20100
827.601	20069
827.741	20027
827.88	20043
828.02	20046
828.159	20024
828.298	20001
828.437	20134
828.577	20027
828.716	20180
828.855	19989
828.994	19734
829.134	19712
829.273	19826
829.412	19750
829.551	19704
829.69	19727
829.829	19765
829.968	19959
830.107	19932
830.246	19757
830.385	19742
830.524	19639
830.663	19559
830.802	19529
830.941	19297
831.08	19228
831.219	19411
831.357	19396
831.496	19533
831.635	19335
831.774	19331
831.913	19263
832.051	19209
832.19	19183
832.329	19114
832.467	19156
832.606	19038
832.744	19088
832.883	19004
833.022	19141
833.16	19053
833.299	19107
833.437	19206
833.576	19217
833.714	19160
833.852	19247
833.991	19422
834.129	19324
834.267	19301
834.406	19304
834.544	19209
834.682	19358
834.821	19122
834.959	19388
835.097	19076
835.235	19221
835.373	19095
835.511	19076
835.65	18928
835.788	18935
835.926	18859
836.064	18787
836.202	18776
836.34	18928
836.478	19008
836.615	18962
836.753	18802
836.891	19004
837.029	18882
837.167	18890
837.305	18798
837.443	18715
837.58	18722
837.718	18848
837.856	18764
837.993	18726
838.131	18707
838.269	18620
838.406	18821
838.544	18528
838.681	18555
838.819	18365
838.956	18273
839.094	18300
839.231	18247
839.369	18372
839.506	18700
839.643	18334
839.781	18232
839.918	18205
840.055	18296
840.193	18182
840.33	18350
840.467	18213
840.604	18209
840.742	18369
840.879	17946
841.016	18064
841.153	18125
841.29	18342
841.427	18140
841.564	18201
841.701	18232
841.838	18019
841.975	18087
842.112	18087
842.249	17954
842.385	17931
842.522	18205
842.659	17946
842.796	18007
842.933	17935
843.069	17916
843.206	17836
843.343	18045
843.479	17942
843.616	17942
843.752	17748
843.889	17729
844.025	17958
844.162	17756
844.298	17874
844.435	17764
844.571	17779
844.708	17923
844.844	18076
844.98	18209
845.117	18273
845.253	18178
845.389	18426
845.525	18848
845.661	19811
845.798	20849
845.934	21698
846.07	22093
846.206	21960
846.342	21351
846.478	20088
846.614	19084
846.75	18277
846.886	17984
847.022	17824
847.158	17589
847.294	17497
847.429	17459
847.565	17330
847.701	17600
847.837	17128
847.972	16908
848.108	17090
848.244	17075
848.379	16881
848.515	16820
848.65	16805
848.786	16889
848.921	16793
849.057	16991
849.192	16877
849.328	16889
849.463	16828
849.598	16812
849.734	16790
849.869	16755
850.004	16554
850.14	16603
850.275	16554
850.41	16512
850.545	16542
850.68	16599
850.815	16554
850.95	16550
851.085	16694
851.22	16649
851.355	16592
851.49	16554
851.625	16664
851.76	16607
851.895	16379
852.03	16493
852.165	16622
852.299	16542
852.434	16607
852.569	16679
852.703	16664
852.838	16584
852.973	16733
853.107	16820
853.242	16542
853.376	16592
853.511	16363
853.645	16447
853.78	16561
853.914	16542
854.048	16504
854.183	16519
854.317	16592
854.451	16580
854.585	16519
854.72	16508
854.854	16626
854.988	16394
855.122	16489
855.256	16356
855.39	16390
855.524	16546
855.658	16485
855.792	16379
855.926	16504
856.06	16512
856.194	16630
856.327	16356
856.461	16432
856.595	16424
856.729	16382
856.862	16607
856.996	16493
857.13	16493
857.263	16497
857.397	16660
857.53	16428
857.664	16512
857.797	16527
857.931	16561
858.064	16466
858.197	16569
858.331	16489
858.464	16333
858.597	16249
858.731	16363
858.864	16363
858.997	16402
859.13	16455
859.263	16386
859.396	16455
859.529	16363
859.662	16341
859.795	16325
859.928	16459
860.061	16497
860.194	16596
860.327	16394
860.46	16402
860.592	16516
860.725	16558
860.858	16352
860.99	16363
861.123	16287
861.256	16291
861.388	16386
861.521	17075
861.653	16356
861.786	16169
861.918	16314
862.05	16310
862.183	16337
862.315	16417
862.447	16440
862.58	16325
862.712	16139
862.844	16006
862.976	16325
863.108	16211
863.24	16687
863.372	16185
863.504	16116
863.636	16097
863.768	16055
863.9	16166
864.032	16071
864.164	16185
864.296	16162
864.428	16253
864.559	16147
864.691	16303
864.823	16188
864.954	16124
865.086	16147
865.217	16173
865.349	16048
865.48	16055
865.612	16131
865.743	16295
865.875	16135
866.006	16120
866.137	16040
866.269	16109
866.4	16048
866.531	16048
866.662	15934
866.793	16032
866.924	16029
867.055	16067
867.186	16112
867.317	15911
867.448	16002
867.579	16071
867.71	16040
867.841	15994
867.972	16040
868.103	16032
868.233	16120
868.364	16109
868.495	16082
868.625	16253
868.756	16299
868.886	16314
869.017	16348
869.147	16360
869.278	16470
869.408	16352
869.539	16223
869.669	16394
869.799	16318
869.929	16386
870.06	16443
870.19	16546
870.32	16679
870.45	16702
870.58	16710
870.71	16839
870.84	16763
870.97	16702
871.1	16809
871.23	16938
871.36	16915
871.489	16866
871.619	16908
871.749	16858
871.879	16946
872.008	17048
872.138	16873
872.267	16847
872.397	16721
872.526	16790
872.656	16713
872.785	16755
872.915	16953
873.044	17003
873.173	16980
873.303	17003
873.432	17048
873.561	17185
873.69	17048
873.819	16968
873.948	17060
874.077	17102
874.206	16965
874.335	17029
874.464	17181
874.593	17147
874.722	17261
874.851	17307
874.979	17261
875.108	17311
875.237	17395
875.365	17239
875.494	17353
875.623	17471
875.751	17490
875.88	17395
876.008	17558
876.136	17566
876.265	17794
876.393	17843
876.521	17794
876.65	17897
876.778	17756
876.906	17718
877.034	17783
877.162	17927
877.29	17703
877.418	17817
877.546	17950
877.674	17813
877.802	17901
877.93	17939
878.058	17828
878.185	17851
878.313	18049
878.441	18041
878.568	18003
878.696	18300
878.824	18342
878.951	18642
879.079	18897
879.206	19346
879.333	19563
879.461	19788
879.588	19978
879.715	20069
879.842	20020
879.97	19613
880.097	19015
880.224	18601
880.351	18540
880.478	18361
880.605	18144
880.732	18327
880.859	18464
880.986	18117
881.112	18106
881.239	18060
881.366	17897
881.493	17779
881.619	17760
881.746	17798
881.872	17760
881.999	17832
882.125	17783
882.252	17756
882.378	17920
882.505	17832
882.631	17760
882.757	17646
882.883	17714
883.01	17646
883.136	17619
883.262	17524
883.388	17520
883.514	17585
883.64	17581
883.766	17634
883.892	17444
884.018	17406
884.143	17627
884.269	17703
884.395	17387
884.52	17273
884.646	17356
884.772	17220
884.897	17204
885.023	17254
885.148	17436
885.274	17410
885.399	17417
885.524	17162
885.65	17223
885.775	17273
885.9	17185
886.025	17383
886.15	17140
886.275	17018
886.4	17083
886.525	16980
886.65	17041
886.775	17045
886.9	17189
887.025	17254
887.149	16949
887.274	16801
887.399	16820
887.523	16847
887.648	16645
887.773	16645
887.897	16778
888.021	16759
888.146	16660
888.27	16854
888.395	16843
888.519	16820
888.643	16801
888.767	16809
888.891	16698
889.015	16592
889.139	16592
889.263	16573
889.387	16615
889.511	16630
889.635	16584
889.759	16390
889.883	16561
890.006	16428
890.13	16504
890.254	16356
890.377	16356
890.501	16215
890.624	16234
890.748	16219
890.871	16040
890.995	16090
891.118	16063
891.241	16059
891.364	16055
891.488	16249
891.611	16090
891.734	16013
891.857	16188
891.98	15979
892.103	16112
892.226	16101
892.349	15956
892.471	15934
892.594	15934
892.717	16074
892.839	15975
892.962	16025
893.085	16177
893.207	15987
893.33	15968
893.452	15915
893.575	16044
893.697	15983
893.819	16067
893.941	16169
894.064	16188
894.186	15869
894.308	16063
894.43	16017
894.552	16158
894.674	15994
894.796	15949
894.918	15937
895.04	15918
895.161	16112
895.283	16051
895.405	15941
895.526	16017
895.648	15968
895.769	16051
895.891	16040
896.012	16131
896.134	16074
896.255	16021
896.376	16116
896.498	16032
896.619	16158
896.74	16135
896.861	16181
896.982	16360
897.103	16516
897.224	16337
897.345	16291
897.466	16276
897.587	16310
897.708	16478
897.828	16424
897.949	16371
898.07	16158
898.19	16295
898.311	16592
898.431	16352
898.552	16405
898.672	16531
898.792	16565
898.913	16455
899.033	16325
899.153	16166
899.273	16086
899.393	16306
899.513	16329
899.633	16265
899.753	16280
899.873	16154
899.993	16329
900.113	16188
900.232	16276
900.352	16173
900.472	16238
900.591	15972
900.711	16097
900.83	15972
900.95	16101
901.069	16101
901.189	15945
901.308	15850
901.427	15781
901.546	15679
901.665	15713
901.784	15675
901.904	15553
902.023	15523
902.141	15443
902.26	15241
902.379	15405
902.498	15310
902.617	15176
902.735	15161
902.854	15203
902.973	15161
903.091	14921
903.21	14929
903.328	14891
903.446	14811
903.565	14800
903.683	14754
903.801	14602
903.919	14640
904.038	14758
904.156	14511
904.274	14621
904.392	14579
904.51	14530
904.627	14518
904.745	14499
904.863	14655
904.981	14317
905.098	14267
905.216	14164
905.334	14275
905.451	14161
905.569	14157
905.686	14206
905.803	14221
905.921	14020
906.038	14100
906.155	14016
906.272	13833
906.389	13913
906.506	13772
906.623	13830
906.74	13753
906.857	13731
906.974	13719
907.091	13731
907.208	13906
907.324	13765
907.441	13715
907.557	13457
907.674	13453
907.79	13285
907.907	13438
908.023	13502
908.139	13521
908.256	13411
908.372	13403
908.488	13236
908.604	13175
908.72	13095
908.836	13259
908.952	13141
909.068	13221
909.184	13293
909.3	13183
909.415	13232
909.531	13137
909.647	13031
909.762	12947
909.878	12901
909.993	13008
910.108	12875
910.224	12840
910.339	12859
910.454	12840
910.57	12760
910.685	12760
910.8	12951
910.915	12867
911.03	12734
911.145	12608
911.259	12464
911.374	12582
911.489	12525
911.604	12429
911.718	12388
911.833	12342
911.947	12232
912.062	12232
912.176	12376
912.291	12220
912.405	12300
912.519	12502
912.633	12513
912.748	12334
912.862	12353
912.976	12182
913.09	12019
913.204	12121
913.318	12190
913.431	12197
913.545	12311
913.659	12220
913.772	12224
913.886	11939
914	12034
914.113	12068
914.226	12205
914.34	12136
914.453	11992
914.566	12133
914.68	12003
914.793	11935
914.906	11859
915.019	11745
915.132	11604
915.245	11836
915.358	11866
915.47	11729
915.583	11752
915.696	11748
915.809	11889
915.921	11916
916.034	11649
916.146	11649
916.259	11661
916.371	11714
916.483	11752
916.595	11638
916.708	11691
916.82	11752
916.932	11642
917.044	11630
917.156	11493
917.268	11471
917.38	11699
917.491	11467
917.603	11592
917.715	11562
917.826	11562
917.938	11490
918.049	11417
918.161	11490
918.272	11642
918.384	11589
918.495	11596
918.606	11368
918.717	11307
918.828	11349
918.939	11406
919.05	11254
919.161	11330
919.272	11166
919.383	11235
919.494	11436
919.604	11619
919.715	11364
919.826	11269
919.936	11341
920.047	11360
920.157	11334
920.267	11532
920.378	11452
920.488	11417
920.598	11512
920.708	11653
920.818	11554
920.928	11585
921.038	11741
921.148	11760
921.258	11395
921.368	11330
921.477	11220
921.587	11193
921.697	11033
921.806	11208
921.916	11151
922.025	10915
922.134	10915
922.244	10889
922.353	10927
922.462	10736
922.571	10710
922.68	10561
922.789	10531
922.898	10565
923.007	10424
923.116	10694
923.224	10637
923.333	10611
923.442	10462
923.55	10459
923.659	10478
923.767	10523
923.876	10478
923.984	10497
924.092	10280
924.201	10447
924.309	10424
924.417	10390
924.525	10333
924.633	10367
924.741	11041
924.849	10169
924.956	10303
925.064	10154
925.172	10139
925.279	10219
925.387	10188
925.494	10162
925.602	10272
925.709	10158
925.816	10135
925.924	10097
926.031	10242
926.138	10154
926.245	10219
926.352	10063
926.459	10272
926.566	10280
926.673	10063
926.779	10055
926.886	10017
926.993	9842
927.099	9880
927.206	9857
927.312	9835
927.419	9941
927.525	9899
927.631	9857
927.737	9804
927.843	9705
927.95	9633
928.056	9652
928.162	9747
928.267	9819
928.373	10409
928.479	9774
928.585	9633
928.69	9701
928.796	9728
928.901	9610
929.007	9412
929.112	9667
929.218	9576
929.323	9568
929.428	9466
929.533	9743
929.638	9420
929.743	9519
929.848	9542
929.953	9477
930.058	9389
930.163	9291
930.267	9317
930.372	9420
930.477	9253
930.581	9469
930.685	9287
930.79	9256
930.894	9275
930.998	9214
931.103	9367
931.207	8986
931.311	8998
931.415	8868
931.519	8766
931.623	8610
