Data from test_V78500241_1808.txt Node
Date: Fri Mar 25 14:46:18 CST 2022
User: usil
Spectrometer: V785-0024
Trigger mode: 0
Integration Time (sec): 4.000000E-1
Scans to average: 1
Nonlinearity correction enabled: false
Boxcar width: 0
Storing dark spectrum: false
XAxis mode: Wavelengths
Number of Pixels in Spectrum: 1024
>>>>>Begin Spectral Data<<<<<
801.071	22257
801.214	22093
801.356	21972
801.499	21633
801.641	21667
801.783	21557
801.926	21572
802.068	21519
802.211	21397
802.353	21435
802.496	21017
802.638	21119
802.78	20975
802.923	20998
803.065	20800
803.208	20796
803.35	20925
803.492	21001
803.635	20979
803.777	20963
803.919	21020
804.061	21150
804.204	20921
804.346	20826
804.488	20788
804.63	20731
804.773	20781
804.915	20857
805.057	20883
805.199	20815
805.341	20883
805.483	20933
805.626	20956
805.768	20667
805.91	20830
806.052	20815
806.194	20632
806.336	20941
806.478	20701
806.62	20727
806.762	20838
806.904	21017
807.046	21211
807.188	21195
807.33	21093
807.472	21195
807.614	20887
807.756	20902
807.898	20857
808.04	20960
808.182	20899
808.324	20925
808.465	20864
808.607	21039
808.749	21169
808.891	21306
809.033	21195
809.174	21275
809.316	21222
809.458	21036
809.6	21211
809.741	21256
809.883	21176
810.025	21317
810.166	21340
810.308	21298
810.45	21233
810.591	21195
810.733	21112
810.875	21032
811.016	20834
811.158	20914
811.299	21184
811.441	21142
811.582	21024
811.724	20956
811.865	20796
812.007	20910
812.148	20895
812.29	20975
812.431	21176
812.573	21199
812.714	21408
812.855	21420
812.997	21572
813.138	21671
813.279	21477
813.421	21443
813.562	21454
813.703	21302
813.845	21066
813.986	20857
814.127	20621
814.268	20575
814.41	20636
814.551	20347
814.692	20549
814.833	20423
814.974	20549
815.115	20533
815.256	20351
815.397	20419
815.539	20415
815.68	20317
815.821	20172
815.962	20244
816.103	20214
816.244	20103
816.385	19951
816.526	20149
816.666	19719
816.807	19613
816.948	19807
817.089	19883
817.23	19651
817.371	19674
817.512	19639
817.653	19685
817.793	19578
817.934	19628
818.075	19719
818.216	19772
818.356	19575
818.497	19430
818.638	19240
818.778	19331
818.919	19331
819.06	19365
819.2	19521
819.341	19556
819.481	19521
819.622	19757
819.762	19795
819.903	19666
820.043	19658
820.184	19559
820.324	19624
820.465	19738
820.605	19601
820.746	19620
820.886	19472
821.026	19639
821.167	19601
821.307	19559
821.447	19601
821.588	19377
821.728	19331
821.868	19145
822.008	18954
822.149	19023
822.289	18973
822.429	18817
822.569	18703
822.709	18768
822.849	18574
822.99	18585
823.13	18437
823.27	18445
823.41	18311
823.55	18243
823.69	18327
823.83	18296
823.97	18117
824.11	18114
824.25	18038
824.389	18114
824.529	18125
824.669	18026
824.809	18174
824.949	18114
825.089	18083
825.228	18125
825.368	17927
825.508	17965
825.648	17901
825.787	17874
825.927	17912
826.067	17794
826.206	17908
826.346	17851
826.485	17942
826.625	17859
826.765	17958
826.904	17939
827.044	17604
827.183	17623
827.323	17672
827.462	17493
827.601	17551
827.741	17505
827.88	17570
828.02	17429
828.159	17501
828.298	17562
828.437	17745
828.577	17512
828.716	17649
828.855	17566
828.994	17299
829.134	17311
829.273	17239
829.412	17223
829.551	17391
829.69	17379
829.829	17429
829.968	17444
830.107	17474
830.246	17421
830.385	17216
830.524	17220
830.663	17102
830.802	17025
830.941	16980
831.08	16965
831.219	17075
831.357	17025
831.496	17124
831.635	16957
831.774	16809
831.913	16854
832.051	16702
832.19	16733
832.329	16733
832.467	16535
832.606	16698
832.744	16554
832.883	16656
833.022	16596
833.16	16721
833.299	16626
833.437	16637
833.576	16767
833.714	16634
833.852	16706
833.991	16759
834.129	16774
834.267	16828
834.406	16736
834.544	16713
834.682	16622
834.821	16702
834.959	16869
835.097	16588
835.235	16820
835.373	16801
835.511	16740
835.65	16607
835.788	16542
835.926	16478
836.064	16318
836.202	16478
836.34	16649
836.478	16675
836.615	16535
836.753	16634
836.891	16645
837.029	16516
837.167	16504
837.305	16519
837.443	16459
837.58	16405
837.718	16466
837.856	16542
837.993	16436
838.131	16462
838.269	16352
838.406	16413
838.544	16261
838.681	16169
838.819	16154
838.956	16021
839.094	16010
839.231	16120
839.369	16181
839.506	16428
839.643	16169
839.781	16055
839.918	15934
840.055	15998
840.193	16032
840.33	16071
840.467	16013
840.604	16036
840.742	16150
840.879	15960
841.016	15869
841.153	15842
841.29	16048
841.427	16021
841.564	16036
841.701	16036
841.838	15907
841.975	15941
842.112	15915
842.249	15846
842.385	15793
842.522	15926
842.659	15899
842.796	15827
842.933	15789
843.069	15759
843.206	15736
843.343	15857
843.479	15789
843.616	15785
843.752	15713
843.889	15694
844.025	15816
844.162	15473
844.298	15720
844.435	15625
844.571	15500
844.708	15507
844.844	15736
844.98	15686
845.117	15641
845.253	15561
845.389	15496
845.525	15519
845.661	15458
845.798	15329
845.934	15439
846.07	15454
846.206	15462
846.342	15614
846.478	15321
846.614	15230
846.75	15161
846.886	15097
847.022	15336
847.158	15173
847.294	15203
847.429	15207
847.565	15176
847.701	15370
847.837	14906
847.972	14773
848.108	15024
848.244	15005
848.379	14853
848.515	14823
848.65	14739
848.786	14796
848.921	14750
849.057	14785
849.192	14788
849.328	14838
849.463	14712
849.598	14788
849.734	14682
849.869	14708
850.004	14503
850.14	14518
850.275	14514
850.41	14400
850.545	14427
850.68	14454
850.815	14545
850.95	14530
851.085	14644
851.22	14621
851.355	14564
851.49	14514
851.625	14537
851.76	14579
851.895	14503
852.03	14526
852.165	14480
852.299	14594
852.434	14644
852.569	14549
852.703	14552
852.838	14617
852.973	14682
853.107	14663
853.242	14465
853.376	14457
853.511	14313
853.645	14347
853.78	14484
853.914	14412
854.048	14461
854.183	14423
854.317	14427
854.451	14549
854.585	14396
854.72	14427
854.854	14473
854.988	14377
855.122	14381
855.256	14240
855.39	14404
855.524	14476
855.658	14469
855.792	14412
855.926	14412
856.06	14465
856.194	14533
856.327	14434
856.461	14415
856.595	14404
856.729	14343
856.862	14568
856.996	14545
857.13	14431
857.263	14579
857.397	14511
857.53	14358
857.664	14526
857.797	14560
857.931	14533
858.064	14480
858.197	14488
858.331	14431
858.464	14415
858.597	14275
858.731	14408
858.864	14396
858.997	14377
859.13	14503
859.263	14404
859.396	14545
859.529	14507
859.662	14351
859.795	14415
859.928	14488
860.061	14613
860.194	14552
860.327	14454
860.46	14446
860.592	14434
860.725	14495
860.858	14526
860.99	14492
861.123	14393
861.256	14374
861.388	14381
861.521	15013
861.653	14301
861.786	14202
861.918	14324
862.05	14358
862.183	14240
862.315	14275
862.447	14450
862.58	14377
862.712	14240
862.844	14130
862.976	14298
863.108	14176
863.24	14530
863.372	14229
863.504	14119
863.636	14168
863.768	14256
863.9	14221
864.032	14050
864.164	14168
864.296	14164
864.428	14370
864.559	14332
864.691	14267
864.823	14187
864.954	14233
865.086	14142
865.217	14142
865.349	14180
865.48	14153
865.612	14225
865.743	14355
865.875	14145
866.006	14065
866.137	14214
866.269	14183
866.4	14164
866.531	14206
866.662	14153
866.793	14130
866.924	14153
867.055	14263
867.186	14210
867.317	14191
867.448	14054
867.579	14168
867.71	14115
867.841	14062
867.972	14191
868.103	14115
868.233	14107
868.364	14225
868.495	14244
868.625	14419
868.756	14514
868.886	14393
869.017	14457
869.147	14473
869.278	14518
869.408	14495
869.539	14385
869.669	14488
869.799	14526
869.929	14545
870.06	14431
870.19	14796
870.32	14735
870.45	14727
870.58	14804
870.71	14902
870.84	14830
870.97	14895
871.1	14765
871.23	15028
871.36	15005
871.489	14887
871.619	14910
871.749	15036
871.879	15055
872.008	15077
872.138	14967
872.267	15066
872.397	14842
872.526	14910
872.656	14811
872.785	14899
872.915	15131
873.044	15154
873.173	15051
873.303	15188
873.432	15036
873.561	15180
873.69	15017
873.819	15066
873.948	15237
874.077	15192
874.206	15097
874.335	15104
874.464	15249
874.593	15355
874.722	15370
874.851	15401
874.979	15382
875.108	15382
875.237	15329
875.365	15344
875.494	15336
875.623	15439
875.751	15310
875.88	15443
876.008	15435
876.136	15576
876.265	15892
876.393	15880
876.521	15857
876.65	15869
876.778	15895
876.906	15770
877.034	15705
877.162	15842
877.29	15759
877.418	15778
877.546	15819
877.674	15831
877.802	15759
877.93	15835
878.058	15759
878.185	15698
878.313	15827
878.441	15797
878.568	15568
878.696	15778
878.824	15915
878.951	15880
879.079	15892
879.206	16032
879.333	15922
879.461	15884
879.588	15907
879.715	16013
879.842	16071
879.97	15915
880.097	15755
880.224	15576
880.351	15698
880.478	15660
880.605	15538
880.732	15625
880.859	15873
880.986	15663
881.112	15705
881.239	15603
881.366	15408
881.493	15336
881.619	15275
881.746	15291
881.872	15287
881.999	15321
882.125	15310
882.252	15325
882.378	15321
882.505	15389
882.631	15252
882.757	15146
882.883	15108
883.01	15077
883.136	15104
883.262	14956
883.388	14963
883.514	15100
883.64	15222
883.766	15154
883.892	14891
884.018	15024
884.143	15066
884.269	15135
884.395	14944
884.52	14807
884.646	14834
884.772	14819
884.897	14758
885.023	14834
885.148	14921
885.274	14963
885.399	14891
885.524	14861
885.65	14910
885.775	14864
885.9	14823
886.025	14918
886.15	14887
886.275	14807
886.4	14686
886.525	14724
886.65	14693
886.775	14750
886.9	14941
887.025	15043
887.149	14826
887.274	14708
887.399	14754
887.523	14606
887.648	14526
887.773	14564
887.897	14731
888.021	14735
888.146	14610
888.27	14762
888.395	14781
888.519	14678
888.643	14754
888.767	14667
888.891	14621
889.015	14446
889.139	14533
889.263	14552
889.387	14697
889.511	14708
889.635	14606
889.759	14419
889.883	14488
890.006	14476
890.13	14537
890.254	14454
890.377	14575
890.501	14332
890.624	14259
890.748	14419
890.871	14248
890.995	14130
891.118	14145
891.241	14237
891.364	14210
891.488	14351
891.611	14237
891.734	14199
891.857	14336
891.98	14286
892.103	14324
892.226	14195
892.349	14145
892.471	14035
892.594	14145
892.717	14183
892.839	14123
892.962	14233
893.085	14278
893.207	14138
893.33	14039
893.452	14142
893.575	14275
893.697	14195
893.819	14332
893.941	14507
894.064	14351
894.186	14183
894.308	14134
894.43	14301
894.552	14503
894.674	14336
894.796	14195
894.918	14252
895.04	14210
895.161	14362
895.283	14317
895.405	14244
895.526	14328
895.648	14294
895.769	14362
895.891	14419
896.012	14415
896.134	14434
896.255	14347
896.376	14263
896.498	14286
896.619	14336
896.74	14355
896.861	14469
896.982	14762
897.103	14876
897.224	14735
897.345	14636
897.466	14648
897.587	14640
897.708	14887
897.828	14663
897.949	14602
898.07	14556
898.19	14606
898.311	14804
898.431	14724
898.552	14712
898.672	14750
898.792	14781
898.913	14788
899.033	14693
899.153	14556
899.273	14469
899.393	14579
899.513	14556
899.633	14606
899.753	14651
899.873	14499
899.993	14602
900.113	14564
900.232	14613
900.352	14514
900.472	14465
900.591	14511
900.711	14385
900.83	14358
900.95	14476
901.069	14629
901.189	14332
901.308	14164
901.427	14149
901.546	14168
901.665	14073
901.784	14210
901.904	13993
902.023	13841
902.141	13757
902.26	13666
902.379	13761
902.498	13753
902.617	13525
902.735	13757
902.854	13689
902.973	13594
903.091	13392
903.21	13384
903.328	13365
903.446	13266
903.565	13308
903.683	13282
903.801	13107
903.919	13183
904.038	13293
904.156	13069
904.274	13164
904.392	13095
904.51	13069
904.627	13027
904.745	13012
904.863	13076
904.981	12871
905.098	12798
905.216	12711
905.334	12757
905.451	12722
905.569	12753
905.686	12783
905.803	12745
905.921	12601
906.038	12677
906.155	12498
906.272	12540
906.389	12471
906.506	12292
906.623	12285
906.74	12273
906.857	12224
906.974	12292
907.091	12361
907.208	12464
907.324	12319
907.441	12289
907.557	12140
907.674	12060
907.79	12045
907.907	12102
908.023	12083
908.139	12079
908.256	12022
908.372	12011
908.488	11996
908.604	11878
908.72	11840
908.836	11802
908.952	11870
909.068	11874
909.184	11992
909.3	11855
909.415	12007
909.531	11885
909.647	11608
909.762	11627
909.878	11592
909.993	11688
910.108	11600
910.224	11604
910.339	11570
910.454	11471
910.57	11505
910.685	11387
910.8	11729
910.915	11634
911.03	11474
911.145	11349
911.259	11391
911.374	11250
911.489	11235
911.604	11197
911.718	11041
911.833	11174
911.947	10896
912.062	10885
912.176	11014
912.291	11048
912.405	11094
912.519	11277
912.633	11280
912.748	11140
912.862	11067
912.976	10987
913.09	10904
913.204	10908
913.318	10957
913.431	11052
913.545	11006
913.659	10984
913.772	10942
913.886	10820
914	10744
914.113	10919
914.226	10923
914.34	10984
914.453	10710
914.566	10904
914.68	10698
914.793	10744
914.906	10603
915.019	10558
915.132	10527
915.245	10561
915.358	10565
915.47	10592
915.583	10618
915.696	10599
915.809	10733
915.921	10736
916.034	10577
916.146	10500
916.259	10504
916.371	10649
916.483	10565
916.595	10436
916.708	10493
916.82	10577
916.932	10523
917.044	10417
917.156	10527
917.268	10337
917.38	10417
917.491	10398
917.603	10382
917.715	10478
917.826	10493
917.938	10379
918.049	10261
918.161	10432
918.272	10550
918.384	10550
918.495	10421
918.606	10253
918.717	10204
918.828	10333
918.939	10284
919.05	10200
919.161	10329
919.272	10078
919.383	10204
919.494	10390
919.604	10497
919.715	10242
919.826	10204
919.936	10280
920.047	10428
920.157	10318
920.267	10470
920.378	10390
920.488	10261
920.598	10542
920.708	10645
920.818	10493
920.928	10428
921.038	10683
921.148	10683
921.258	10417
921.368	10329
921.477	10257
921.587	10211
921.697	10017
921.806	10230
921.916	10101
922.025	9941
922.134	9861
922.244	9827
922.353	9911
922.462	9781
922.571	9694
922.68	9610
922.789	9538
922.898	9515
923.007	9462
923.116	9625
923.224	9614
923.333	9534
923.442	9515
923.55	9412
923.659	9431
923.767	9473
923.876	9386
923.984	9526
924.092	9389
924.201	9454
924.309	9439
924.417	9450
924.525	9336
924.633	9431
924.741	10310
924.849	9279
924.956	9344
925.064	9188
925.172	9074
925.279	9192
925.387	9188
925.494	9161
925.602	9397
925.709	9264
925.816	9199
925.924	9199
926.031	9287
926.138	9245
926.245	9184
926.352	9184
926.459	9298
926.566	9256
926.673	9165
926.779	9131
926.886	9081
926.993	8956
927.099	8906
927.206	8853
927.312	8914
927.419	8941
927.525	9024
927.631	8967
927.737	8902
927.843	8849
927.95	8648
928.056	8830
928.162	8826
928.267	8868
928.373	9469
928.479	8925
928.585	8651
928.69	8743
928.796	8849
928.901	8731
929.007	8689
929.112	8686
929.218	8670
929.323	8667
929.428	8655
929.533	8739
929.638	8655
929.743	8606
929.848	8712
929.953	8625
930.058	8526
930.163	8347
930.267	8412
930.372	8530
930.477	8415
930.581	8621
930.685	8514
930.79	8393
930.894	8328
930.998	8377
931.103	8454
931.207	8172
931.311	8020
931.415	8073
931.519	7818
931.623	7860
