Data from test_V78500241_2752.txt Node
Date: Fri Mar 25 14:52:52 CST 2022
User: usil
Spectrometer: V785-0024
Trigger mode: 0
Integration Time (sec): 4.000000E-1
Scans to average: 1
Nonlinearity correction enabled: false
Boxcar width: 0
Storing dark spectrum: false
XAxis mode: Wavelengths
Number of Pixels in Spectrum: 1024
>>>>>Begin Spectral Data<<<<<
801.071	22070
801.214	21895
801.356	21747
801.499	21545
801.641	21428
801.783	21397
801.926	21542
802.068	21332
802.211	21283
802.353	21093
802.496	20895
802.638	20891
802.78	20834
802.923	20705
803.065	20697
803.208	20613
803.35	20727
803.492	20902
803.635	20807
803.777	20613
803.919	20826
804.061	21051
804.204	20705
804.346	20712
804.488	20530
804.63	20697
804.773	20629
804.915	20564
805.057	20716
805.199	20621
805.341	20625
805.483	20830
805.626	20708
805.768	20636
805.91	20575
806.052	20659
806.194	20484
806.336	20708
806.478	20667
806.62	20568
806.762	20644
806.904	20735
807.046	21070
807.188	20906
807.33	20948
807.472	21020
807.614	20941
807.756	20937
807.898	20773
808.04	20663
808.182	20667
808.324	20705
808.465	20743
808.607	20910
808.749	20998
808.891	21127
809.033	21169
809.174	21028
809.316	20963
809.458	20921
809.6	20941
809.741	20975
809.883	21051
810.025	21176
810.166	21127
810.308	21093
810.45	21119
810.591	21009
810.733	20834
810.875	20807
811.016	20659
811.158	20636
811.299	20864
811.441	20891
811.582	20811
811.724	20720
811.865	20708
812.007	20724
812.148	20697
812.29	20758
812.431	20815
812.573	20925
812.714	21180
812.855	21275
812.997	21355
813.138	21485
813.279	21374
813.421	21252
813.562	21176
813.703	20986
813.845	20948
813.986	20602
814.127	20495
814.268	20393
814.41	20404
814.551	20271
814.692	20282
814.833	20191
814.974	20267
815.115	20256
815.256	20138
815.397	20092
815.539	20183
815.68	20058
815.821	19932
815.962	20054
816.103	20020
816.244	19814
816.385	19700
816.526	19639
816.666	19582
816.807	19460
816.948	19521
817.089	19514
817.23	19495
817.371	19411
817.512	19445
817.653	19377
817.793	19373
817.934	19464
818.075	19487
818.216	19464
818.356	19449
818.497	19377
818.638	19091
818.778	19072
818.919	19168
819.06	19213
819.2	19301
819.341	19358
819.481	19247
819.622	19460
819.762	19628
819.903	19620
820.043	19499
820.184	19335
820.324	19350
820.465	19464
820.605	19533
820.746	19327
820.886	19206
821.026	19434
821.167	19354
821.307	19384
821.447	19301
821.588	19247
821.728	19061
821.868	18939
822.008	18753
822.149	18913
822.289	18882
822.429	18669
822.569	18456
822.709	18509
822.849	18285
822.99	18384
823.13	18262
823.27	18277
823.41	18159
823.55	18026
823.69	18209
823.83	18171
823.97	18041
824.11	17901
824.25	17916
824.389	17893
824.529	17988
824.669	17939
824.809	17912
824.949	17870
825.089	17992
825.228	17843
825.368	17638
825.508	17794
825.648	17627
825.787	17684
825.927	17714
826.067	17653
826.206	17543
826.346	17748
826.485	17676
826.625	17619
826.765	17859
826.904	17726
827.044	17501
827.183	17501
827.323	17292
827.462	17482
827.601	17353
827.741	17296
827.88	17391
828.02	17185
828.159	17151
828.298	17372
828.437	17398
828.577	17391
828.716	17482
828.855	17368
828.994	17067
829.134	17208
829.273	17280
829.412	17033
829.551	16972
829.69	17121
829.829	17227
829.968	17231
830.107	17197
830.246	17204
830.385	17067
830.524	17064
830.663	16942
830.802	16816
830.941	16687
831.08	16683
831.219	16767
831.357	16850
831.496	16976
831.635	16588
831.774	16607
831.913	16554
832.051	16500
832.19	16493
832.329	16675
832.467	16455
832.606	16409
832.744	16462
832.883	16474
833.022	16478
833.16	16428
833.299	16512
833.437	16379
833.576	16447
833.714	16459
833.852	16478
833.991	16489
834.129	16550
834.267	16546
834.406	16573
834.544	16531
834.682	16565
834.821	16493
834.959	16626
835.097	16413
835.235	16569
835.373	16432
835.511	16455
835.65	16310
835.788	16337
835.926	16230
836.064	16204
836.202	16246
836.34	16508
836.478	16447
836.615	16363
836.753	16405
836.891	16337
837.029	16394
837.167	16371
837.305	16333
837.443	16325
837.58	16219
837.718	16303
837.856	16329
837.993	16234
838.131	16249
838.269	16238
838.406	16188
838.544	16230
838.681	15911
838.819	16002
838.956	15918
839.094	15918
839.231	15926
839.369	15987
839.506	16086
839.643	16097
839.781	15915
839.918	15755
840.055	15766
840.193	15816
840.33	15778
840.467	15698
840.604	15770
840.742	16120
840.879	15679
841.016	15724
841.153	15690
841.29	15926
841.427	15816
841.564	15895
841.701	15922
841.838	15736
841.975	15675
842.112	15728
842.249	15523
842.385	15534
842.522	15675
842.659	15648
842.796	15492
842.933	15549
843.069	15618
843.206	15488
843.343	15682
843.479	15542
843.616	15530
843.752	15401
843.889	15401
844.025	15572
844.162	15382
844.298	15439
844.435	15439
844.571	15405
844.708	15492
844.844	15504
844.98	15477
845.117	15428
845.253	15393
845.389	15302
845.525	15367
845.661	15283
845.798	15268
845.934	15207
846.07	15123
846.206	15252
846.342	15252
846.478	15161
846.614	15005
846.75	14929
846.886	14971
847.022	15036
847.158	14990
847.294	14986
847.429	14967
847.565	15009
847.701	15184
847.837	14743
847.972	14697
848.108	14876
848.244	14762
848.379	14537
848.515	14636
848.65	14552
848.786	14621
848.921	14644
849.057	14625
849.192	14613
849.328	14568
849.463	14541
849.598	14503
849.734	14298
849.869	14503
850.004	14381
850.14	14431
850.275	14309
850.41	14290
850.545	14259
850.68	14199
850.815	14408
850.95	14298
851.085	14461
851.22	14423
851.355	14347
851.49	14286
851.625	14263
851.76	14317
851.895	14336
852.03	14195
852.165	14332
852.299	14320
852.434	14415
852.569	14256
852.703	14324
852.838	14389
852.973	14480
853.107	14450
853.242	14244
853.376	14267
853.511	14088
853.645	14084
853.78	14214
853.914	14240
854.048	14202
854.183	14134
854.317	14168
854.451	14347
854.585	14191
854.72	14168
854.854	14298
854.988	14138
855.122	14138
855.256	14077
855.39	14149
855.524	14374
855.658	14256
855.792	14161
855.926	14164
856.06	14183
856.194	14229
856.327	14244
856.461	14103
856.595	14092
856.729	14221
856.862	14233
856.996	14210
857.13	14259
857.263	14305
857.397	14313
857.53	14161
857.664	14324
857.797	14301
857.931	14427
858.064	14275
858.197	14370
858.331	14103
858.464	14096
858.597	14050
858.731	14073
858.864	14107
858.997	14214
859.13	14206
859.263	14256
859.396	14336
859.529	14183
859.662	14138
859.795	14103
859.928	14202
860.061	14431
860.194	14339
860.327	14328
860.46	14195
860.592	14195
860.725	14278
860.858	14298
860.99	14237
861.123	14145
861.256	14043
861.388	14123
861.521	14834
861.653	14073
861.786	14054
861.918	14046
862.05	14107
862.183	14054
862.315	14145
862.447	14328
862.58	14138
862.712	13974
862.844	13959
862.976	14012
863.108	13947
863.24	14408
863.372	13921
863.504	14001
863.636	13940
863.768	14024
863.9	14012
864.032	13940
864.164	13982
864.296	14027
864.428	13993
864.559	14138
864.691	14084
864.823	14001
864.954	13986
865.086	14024
865.217	13951
865.349	13898
865.48	13887
865.612	14005
865.743	14134
865.875	14050
866.006	13974
866.137	13959
866.269	13959
866.4	13947
866.531	13959
866.662	13883
866.793	13936
866.924	13974
867.055	13978
867.186	13902
867.317	13963
867.448	13868
867.579	13879
867.71	13932
867.841	13906
867.972	14027
868.103	13986
868.233	13978
868.364	13932
868.495	14043
868.625	14176
868.756	14259
868.886	14168
869.017	14187
869.147	14370
869.278	14381
869.408	14309
869.539	14191
869.669	14385
869.799	14221
869.929	14336
870.06	14347
870.19	14560
870.32	14454
870.45	14549
870.58	14640
870.71	14648
870.84	14697
870.97	14571
871.1	14590
871.23	14853
871.36	14796
871.489	14735
871.619	14743
871.749	14796
871.879	14815
872.008	14887
872.138	14785
872.267	14758
872.397	14750
872.526	14705
872.656	14716
872.785	14689
872.915	14853
873.044	14876
873.173	14849
873.303	14899
873.432	14956
873.561	14967
873.69	14849
873.819	14823
873.948	14918
874.077	14906
874.206	14845
874.335	14914
874.464	15039
874.593	15127
874.722	15112
874.851	15222
874.979	15188
875.108	15245
875.237	15161
875.365	15081
875.494	15142
875.623	15283
875.751	15089
875.88	15249
876.008	15317
876.136	15428
876.265	15603
876.393	15835
876.521	15606
876.65	15675
876.778	15705
876.906	15587
877.034	15545
877.162	15641
877.29	15526
877.418	15629
877.546	15523
877.674	15682
877.802	15667
877.93	15572
878.058	15564
878.185	15450
878.313	15542
878.441	15610
878.568	15450
878.696	15496
878.824	15591
878.951	15660
879.079	15808
879.206	15899
879.333	15781
879.461	15679
879.588	15713
879.715	15793
879.842	15873
879.97	15762
880.097	15523
880.224	15420
880.351	15469
880.478	15370
880.605	15412
880.732	15382
880.859	15766
880.986	15545
881.112	15348
881.239	15344
881.366	15272
881.493	15123
881.619	15199
881.746	15165
881.872	15085
881.999	15100
882.125	15116
882.252	15150
882.378	15138
882.505	15226
882.631	15077
882.757	14994
882.883	14952
883.01	14952
883.136	14906
883.262	14800
883.388	14731
883.514	14864
883.64	14986
883.766	14845
883.892	14800
884.018	14769
884.143	14963
884.269	15032
884.395	14636
884.52	14739
884.646	14670
884.772	14648
884.897	14518
885.023	14629
885.148	14716
885.274	14754
885.399	14769
885.524	14621
885.65	14606
885.775	14663
885.9	14610
886.025	14708
886.15	14712
886.275	14617
886.4	14579
886.525	14549
886.65	14602
886.775	14541
886.9	14701
887.025	14804
887.149	14617
887.274	14465
887.399	14415
887.523	14336
887.648	14366
887.773	14476
887.897	14602
888.021	14526
888.146	14305
888.27	14552
888.395	14587
888.519	14583
888.643	14560
888.767	14545
888.891	14488
889.015	14332
889.139	14457
889.263	14328
889.387	14351
889.511	14488
889.635	14465
889.759	14362
889.883	14332
890.006	14389
890.13	14499
890.254	14362
890.377	14309
890.501	14172
890.624	14100
890.748	14153
890.871	14100
890.995	14008
891.118	13909
891.241	14039
891.364	14062
891.488	14164
891.611	13986
891.734	14039
891.857	14050
891.98	14073
892.103	14092
892.226	14024
892.349	14062
892.471	13864
892.594	14024
892.717	14054
892.839	13986
892.962	14081
893.085	14206
893.207	14008
893.33	13955
893.452	14020
893.575	14111
893.697	14005
893.819	14225
893.941	14286
894.064	14187
894.186	13955
894.308	13997
894.43	14119
894.552	14278
894.674	14199
894.796	13986
894.918	14077
895.04	14126
895.161	14206
895.283	14119
895.405	14035
895.526	14161
895.648	14058
895.769	14157
895.891	14195
896.012	14233
896.134	14271
896.255	14206
896.376	14149
896.498	14210
896.619	14256
896.74	14191
896.861	14240
896.982	14636
897.103	14697
897.224	14480
897.345	14499
897.466	14396
897.587	14476
897.708	14499
897.828	14568
897.949	14454
898.07	14347
898.19	14461
898.311	14655
898.431	14469
898.552	14613
898.672	14606
898.792	14568
898.913	14602
899.033	14408
899.153	14377
899.273	14187
899.393	14404
899.513	14442
899.633	14396
899.753	14396
899.873	14396
899.993	14438
900.113	14358
900.232	14431
900.352	14389
900.472	14343
900.591	14233
900.711	14294
900.83	14263
900.95	14305
901.069	14370
901.189	14180
901.308	13898
901.427	13879
901.546	13875
901.665	13898
901.784	13947
901.904	13879
902.023	13715
902.141	13567
902.26	13464
902.379	13624
902.498	13487
902.617	13476
902.735	13518
902.854	13552
902.973	13457
903.091	13335
903.21	13190
903.328	13266
903.446	13187
903.565	13149
903.683	13107
903.801	12954
903.919	13008
904.038	13042
904.156	12894
904.274	13061
904.392	12935
904.51	12825
904.627	13012
904.745	12970
904.863	12989
904.981	12650
905.098	12650
905.216	12597
905.334	12616
905.451	12551
905.569	12597
905.686	12688
905.803	12608
905.921	12433
906.038	12547
906.155	12380
906.272	12338
906.389	12338
906.506	12258
906.623	12232
906.74	12098
906.857	12152
906.974	12045
907.091	12232
907.208	12376
907.324	12186
907.441	12155
907.557	11988
907.674	11912
907.79	11923
907.907	11912
908.023	11908
908.139	11927
908.256	11908
908.372	11859
908.488	11840
908.604	11786
908.72	11714
908.836	11726
908.952	11688
909.068	11760
909.184	11870
909.3	11722
909.415	11748
909.531	11691
909.647	11570
909.762	11505
909.878	11368
909.993	11490
910.108	11421
910.224	11535
910.339	11383
910.454	11467
910.57	11349
910.685	11208
910.8	11562
910.915	11497
911.03	11376
911.145	11132
911.259	11155
911.374	11151
911.489	11151
911.604	11045
911.718	10949
911.833	10976
911.947	10850
912.062	10729
912.176	10889
912.291	10976
912.405	10923
912.519	11094
912.633	11140
912.748	10987
912.862	11022
912.976	10797
913.09	10759
913.204	10710
913.318	10812
913.431	10843
913.545	10892
913.659	10866
913.772	10786
913.886	10717
914	10687
914.113	10805
914.226	10828
914.34	10740
914.453	10615
914.566	10706
914.68	10668
914.793	10634
914.906	10474
915.019	10405
915.132	10363
915.245	10428
915.358	10500
915.47	10474
915.583	10405
915.696	10470
915.809	10607
915.921	10561
916.034	10459
916.146	10341
916.259	10367
916.371	10489
916.483	10405
916.595	10344
916.708	10382
916.82	10440
916.932	10341
917.044	10375
917.156	10363
917.268	10268
917.38	10246
917.491	10207
917.603	10276
917.715	10424
917.826	10325
917.938	10318
918.049	10158
918.161	10284
918.272	10394
918.384	10432
918.495	10280
918.606	10166
918.717	10139
918.828	10173
918.939	10162
919.05	10082
919.161	10131
919.272	9979
919.383	9975
919.494	10188
919.604	10386
919.715	10177
919.826	10071
919.936	10139
920.047	10230
920.157	10162
920.267	10402
920.378	10185
920.488	10154
920.598	10367
920.708	10481
920.818	10470
920.928	10306
921.038	10527
921.148	10516
921.258	10249
921.368	10147
921.477	10010
921.587	10006
921.697	9972
921.806	10021
921.916	9915
922.025	9766
922.134	9781
922.244	9652
922.353	9736
922.462	9633
922.571	9622
922.68	9386
922.789	9370
922.898	9511
923.007	9329
923.116	9504
923.224	9545
923.333	9370
923.442	9275
923.55	9272
923.659	9298
923.767	9389
923.876	9268
923.984	9428
924.092	9230
924.201	9268
924.309	9226
924.417	9313
924.525	9169
924.633	9264
924.741	10002
924.849	9062
924.956	9260
925.064	9047
925.172	8994
925.279	9036
925.387	9047
925.494	9070
925.602	9211
925.709	9161
925.816	9085
925.924	9036
926.031	9116
926.138	9112
926.245	9077
926.352	8998
926.459	9195
926.566	9161
926.673	8990
926.779	8937
926.886	8925
926.993	8823
927.099	8815
927.206	8667
927.312	8769
927.419	8861
927.525	8883
927.631	8864
927.737	8674
927.843	8686
927.95	8590
928.056	8636
928.162	8716
928.267	8800
928.373	9329
928.479	8758
928.585	8552
928.69	8708
928.796	8716
928.901	8579
929.007	8533
929.112	8598
929.218	8533
929.323	8571
929.428	8457
929.533	8575
929.638	8476
929.743	8518
929.848	8564
929.953	8503
930.058	8442
930.163	8259
930.267	8282
930.372	8408
930.477	8286
930.581	8495
930.685	8362
930.79	8259
930.894	8259
930.998	8183
931.103	8370
931.207	8043
931.311	7986
931.415	7955
931.519	7746
931.623	7719
