Data from test_V78500241_1532.txt Node
Date: Fri Mar 25 14:44:22 CST 2022
User: usil
Spectrometer: V785-0024
Trigger mode: 0
Integration Time (sec): 4.000000E-1
Scans to average: 1
Nonlinearity correction enabled: false
Boxcar width: 0
Storing dark spectrum: false
XAxis mode: Wavelengths
Number of Pixels in Spectrum: 1024
>>>>>Begin Spectral Data<<<<<
801.071	22417
801.214	22246
801.356	22105
801.499	22063
801.641	21903
801.783	21709
801.926	21720
802.068	21595
802.211	21724
802.353	21557
802.496	21298
802.638	21199
802.78	21249
802.923	21169
803.065	21173
803.208	21058
803.35	21123
803.492	21249
803.635	21359
803.777	21127
803.919	21150
804.061	21488
804.204	21108
804.346	21047
804.488	20944
804.63	20994
804.773	20937
804.915	21009
805.057	21161
805.199	20941
805.341	21070
805.483	21123
805.626	21142
805.768	21013
805.91	21036
806.052	21074
806.194	20872
806.336	21226
806.478	21089
806.62	21081
806.762	21119
806.904	21294
807.046	21492
807.188	21321
807.33	21336
807.472	21454
807.614	21291
807.756	21348
807.898	21199
808.04	21131
808.182	21226
808.324	21370
808.465	21233
808.607	21618
808.749	21549
808.891	21713
809.033	21827
809.174	21831
809.316	21526
809.458	21644
809.6	21443
809.741	21625
809.883	21553
810.025	21739
810.166	21675
810.308	21618
810.45	21595
810.591	21458
810.733	21393
810.875	21268
811.016	21245
811.158	21112
811.299	21310
811.441	21241
811.582	21302
811.724	21176
811.865	21256
812.007	21313
812.148	21047
812.29	21279
812.431	21538
812.573	21587
812.714	21686
812.855	21724
812.997	21960
813.138	21998
813.279	21789
813.421	21778
813.562	21671
813.703	21599
813.845	21397
813.986	21085
814.127	20967
814.268	20872
814.41	20800
814.551	20864
814.692	20861
814.833	20746
814.974	20792
815.115	20712
815.256	20689
815.397	20587
815.539	20609
815.68	20442
815.821	20484
815.962	20530
816.103	20431
816.244	20480
816.385	20278
816.526	20221
816.666	20088
816.807	19970
816.948	19955
817.089	20145
817.23	20050
817.371	19970
817.512	19928
817.653	19906
817.793	19944
817.934	19944
818.075	19932
818.216	19989
818.356	19864
818.497	19795
818.638	19571
818.778	19651
818.919	19578
819.06	19674
819.2	19772
819.341	19803
819.481	19769
819.622	20012
819.762	20134
819.903	19982
820.043	19986
820.184	19932
820.324	19917
820.465	19944
820.605	19921
820.746	19932
820.886	19746
821.026	19883
821.167	19845
821.307	19833
821.447	19769
821.588	19757
821.728	19719
821.868	19339
822.008	19301
822.149	19236
822.289	19240
822.429	19004
822.569	18985
822.709	19027
822.849	18871
822.99	18840
823.13	18776
823.27	18700
823.41	18658
823.55	18502
823.69	18665
823.83	18623
823.97	18570
824.11	18380
824.25	18483
824.389	18369
824.529	18426
824.669	18342
824.809	18502
824.949	18475
825.089	18365
825.228	18323
825.368	18182
825.508	18232
825.648	18152
825.787	18144
825.927	18277
826.067	18041
826.206	18034
826.346	18136
826.485	18209
826.625	18148
826.765	18251
826.904	18098
827.044	17942
827.183	17908
827.323	17779
827.462	17916
827.601	17851
827.741	17748
827.88	17904
828.02	17646
828.159	17840
828.298	17836
828.437	17832
828.577	17783
828.716	18019
828.855	17748
828.994	17493
829.134	17562
829.273	17646
829.412	17490
829.551	17646
829.69	17600
829.829	17604
829.968	17687
830.107	17558
830.246	17562
830.385	17490
830.524	17452
830.663	17235
830.802	17273
830.941	17231
831.08	17109
831.219	17159
831.357	17337
831.496	17315
831.635	17151
831.774	17178
831.913	17067
832.051	16984
832.19	17105
832.329	17075
832.467	16949
832.606	16828
832.744	16862
832.883	16938
833.022	16835
833.16	16885
833.299	16854
833.437	16908
833.576	16908
833.714	16934
833.852	16953
833.991	16934
834.129	17037
834.267	17022
834.406	16889
834.544	16991
834.682	16904
834.821	16934
834.959	17102
835.097	16869
835.235	17064
835.373	16927
835.511	16774
835.65	16805
835.788	16850
835.926	16721
836.064	16565
836.202	16656
836.34	16755
836.478	16873
836.615	16736
836.753	16839
836.891	16904
837.029	16930
837.167	16782
837.305	16771
837.443	16759
837.58	16634
837.718	16790
837.856	16694
837.993	16717
838.131	16687
838.269	16569
838.406	16599
838.544	16596
838.681	16443
838.819	16417
838.956	16143
839.094	16211
839.231	16230
839.369	16268
839.506	16615
839.643	16428
839.781	16242
839.918	16242
840.055	16112
840.193	16188
840.33	16219
840.467	16234
840.604	16169
840.742	16421
840.879	16093
841.016	16105
841.153	16093
841.29	16253
841.427	16303
841.564	16268
841.701	16131
841.838	16154
841.975	16143
842.112	16131
842.249	15975
842.385	15987
842.522	16078
842.659	15983
842.796	15911
842.933	15941
843.069	15907
843.206	16025
843.343	16013
843.479	16044
843.616	16017
843.752	15774
843.889	15808
844.025	15804
844.162	15724
844.298	15876
844.435	15797
844.571	15816
844.708	15861
844.844	15903
844.98	15964
845.117	15907
845.253	15778
845.389	15705
845.525	15797
845.661	15778
845.798	15732
845.934	15720
846.07	15675
846.206	15804
846.342	15800
846.478	15717
846.614	15443
846.75	15351
846.886	15249
847.022	15408
847.158	15355
847.294	15317
847.429	15397
847.565	15313
847.701	15504
847.837	15077
847.972	15036
848.108	15081
848.244	15119
848.379	14887
848.515	14956
848.65	14902
848.786	14944
848.921	14864
849.057	15047
849.192	15062
849.328	14921
849.463	14979
849.598	14819
849.734	14857
849.869	14731
850.004	14777
850.14	14712
850.275	14754
850.41	14606
850.545	14663
850.68	14727
850.815	14693
850.95	14720
851.085	14902
851.22	14750
851.355	14758
851.49	14659
851.625	14682
851.76	14579
851.895	14659
852.03	14590
852.165	14625
852.299	14746
852.434	14785
852.569	14842
852.703	14670
852.838	14720
852.973	14906
853.107	14849
853.242	14758
853.376	14549
853.511	14541
853.645	14469
853.78	14636
853.914	14651
854.048	14526
854.183	14583
854.317	14537
854.451	14720
854.585	14545
854.72	14415
854.854	14579
854.988	14450
855.122	14560
855.256	14419
855.39	14511
855.524	14689
855.658	14598
855.792	14556
855.926	14629
856.06	14598
856.194	14762
856.327	14590
856.461	14545
856.595	14503
856.729	14610
856.862	14667
856.996	14583
857.13	14625
857.263	14689
857.397	14716
857.53	14636
857.664	14568
857.797	14651
857.931	14708
858.064	14606
858.197	14693
858.331	14606
858.464	14461
858.597	14492
858.731	14571
858.864	14590
858.997	14492
859.13	14575
859.263	14537
859.396	14682
859.529	14545
859.662	14454
859.795	14488
859.928	14610
860.061	14670
860.194	14682
860.327	14636
860.46	14648
860.592	14659
860.725	14667
860.858	14720
860.99	14476
861.123	14514
861.256	14549
861.388	14667
861.521	15180
861.653	14347
861.786	14366
861.918	14339
862.05	14446
862.183	14533
862.315	14469
862.447	14590
862.58	14454
862.712	14313
862.844	14267
862.976	14412
863.108	14396
863.24	14792
863.372	14301
863.504	14358
863.636	14237
863.768	14393
863.9	14298
864.032	14206
864.164	14267
864.296	14328
864.428	14454
864.559	14366
864.691	14423
864.823	14446
864.954	14374
865.086	14339
865.217	14366
865.349	14240
865.48	14374
865.612	14358
865.743	14442
865.875	14267
866.006	14305
866.137	14362
866.269	14324
866.4	14309
866.531	14309
866.662	14111
866.793	14294
866.924	14267
867.055	14358
867.186	14355
867.317	14256
867.448	14252
867.579	14252
867.71	14237
867.841	14202
867.972	14278
868.103	14237
868.233	14202
868.364	14282
868.495	14499
868.625	14511
868.756	14651
868.886	14400
869.017	14499
869.147	14686
869.278	14663
869.408	14602
869.539	14579
869.669	14598
869.799	14682
869.929	14697
870.06	14762
870.19	14910
870.32	14792
870.45	14853
870.58	14891
870.71	14994
870.84	15081
870.97	14990
871.1	14982
871.23	15039
871.36	15108
871.489	15058
871.619	15157
871.749	15142
871.879	15184
872.008	15211
872.138	15150
872.267	15176
872.397	14975
872.526	14899
872.656	14994
872.785	14975
872.915	15108
873.044	15184
873.173	15173
873.303	15161
873.432	15146
873.561	15150
873.69	15195
873.819	15211
873.948	15329
874.077	15142
874.206	15119
874.335	15256
874.464	15306
874.593	15492
874.722	15382
874.851	15564
874.979	15515
875.108	15523
875.237	15458
875.365	15401
875.494	15424
875.623	15466
875.751	15477
875.88	15530
876.008	15717
876.136	15797
876.265	15911
876.393	16029
876.521	15987
876.65	16013
876.778	15987
876.906	15934
877.034	15857
877.162	15899
877.29	15888
877.418	15907
877.546	15945
877.674	15945
877.802	15895
877.93	15994
878.058	15880
878.185	15800
878.313	15937
878.441	15918
878.568	15797
878.696	15861
878.824	15937
878.951	16017
879.079	16200
879.206	16276
879.333	16272
879.461	15979
879.588	16162
879.715	16219
879.842	16405
879.97	16067
880.097	15770
880.224	15751
880.351	15789
880.478	15865
880.605	15713
880.732	15724
880.859	15964
880.986	15793
881.112	15812
881.239	15682
881.366	15572
881.493	15603
881.619	15447
881.746	15431
881.872	15412
881.999	15344
882.125	15447
882.252	15431
882.378	15523
882.505	15572
882.631	15424
882.757	15306
882.883	15237
883.01	15188
883.136	15249
883.262	15108
883.388	15055
883.514	15272
883.64	15393
883.766	15226
883.892	15081
884.018	15108
884.143	15252
884.269	15355
884.395	15074
884.52	14914
884.646	15100
884.772	14895
884.897	14815
885.023	14914
885.148	15039
885.274	15108
885.399	15108
885.524	14967
885.65	15066
885.775	14933
885.9	14880
886.025	15100
886.15	15089
886.275	14891
886.4	14876
886.525	14925
886.65	14880
886.775	14826
886.9	15077
887.025	15207
887.149	14921
887.274	14838
887.399	14781
887.523	14746
887.648	14708
887.773	14689
887.897	14834
888.021	14857
888.146	14899
888.27	14830
888.395	14933
888.519	14842
888.643	14788
888.767	14887
888.891	14693
889.015	14689
889.139	14720
889.263	14590
889.387	14750
889.511	14857
889.635	14834
889.759	14629
889.883	14571
890.006	14655
890.13	14689
890.254	14571
890.377	14648
890.501	14484
890.624	14499
890.748	14541
890.871	14385
890.995	14286
891.118	14286
891.241	14377
891.364	14362
891.488	14434
891.611	14301
891.734	14343
891.857	14381
891.98	14317
892.103	14427
892.226	14377
892.349	14290
892.471	14214
892.594	14328
892.717	14286
892.839	14313
892.962	14305
893.085	14412
893.207	14385
893.33	14153
893.452	14221
893.575	14355
893.697	14366
893.819	14545
893.941	14518
894.064	14446
894.186	14229
894.308	14256
894.43	14393
894.552	14526
894.674	14461
894.796	14313
894.918	14370
895.04	14374
895.161	14389
895.283	14328
895.405	14404
895.526	14404
895.648	14336
895.769	14427
895.891	14434
896.012	14499
896.134	14598
896.255	14499
896.376	14423
896.498	14419
896.619	14495
896.74	14438
896.861	14533
896.982	14807
897.103	14933
897.224	14746
897.345	14746
897.466	14625
897.587	14686
897.708	14929
897.828	14861
897.949	14712
898.07	14640
898.19	14727
898.311	14941
898.431	14762
898.552	14876
898.672	14887
898.792	14952
898.913	14842
899.033	14796
899.153	14746
899.273	14617
899.393	14625
899.513	14712
899.633	14636
899.753	14739
899.873	14708
899.993	14708
900.113	14735
900.232	14651
900.352	14636
900.472	14594
900.591	14511
900.711	14598
900.83	14514
900.95	14640
901.069	14644
901.189	14533
901.308	14427
901.427	14214
901.546	14218
901.665	14259
901.784	14233
901.904	14168
902.023	14027
902.141	13852
902.26	13852
902.379	13887
902.498	13860
902.617	13784
902.735	13837
902.854	13788
902.973	13689
903.091	13518
903.21	13518
903.328	13510
903.446	13457
903.565	13419
903.683	13369
903.801	13381
903.919	13403
904.038	13327
904.156	13149
904.274	13327
904.392	13160
904.51	13107
904.627	13103
904.745	13118
904.863	13198
904.981	12947
905.098	12825
905.216	12844
905.334	12935
905.451	12821
905.569	12886
905.686	12962
905.803	12817
905.921	12669
906.038	12749
906.155	12711
906.272	12551
906.389	12544
906.506	12467
906.623	12456
906.74	12350
906.857	12277
906.974	12357
907.091	12536
907.208	12585
907.324	12483
907.441	12395
907.557	12243
907.674	12205
907.79	12098
907.907	12152
908.023	12213
908.139	12098
908.256	12079
908.372	12087
908.488	12068
908.604	11984
908.72	11912
908.836	11935
908.952	11882
909.068	12057
909.184	12011
909.3	11961
909.415	12091
909.531	12068
909.647	11722
909.762	11726
909.878	11688
909.993	11619
910.108	11691
910.224	11775
910.339	11805
910.454	11646
910.57	11566
910.685	11501
910.8	11790
910.915	11695
911.03	11558
911.145	11364
911.259	11444
911.374	11474
911.489	11277
911.604	11322
911.718	11159
911.833	11204
911.947	11025
912.062	10965
912.176	11071
912.291	11178
912.405	11140
912.519	11376
912.633	11322
912.748	11166
912.862	11151
912.976	11025
913.09	10953
913.204	10968
913.318	10999
913.431	11079
913.545	11010
913.659	11147
913.772	10972
913.886	10866
914	10991
914.113	10949
914.226	10980
914.34	11041
914.453	10778
914.566	11006
914.68	10908
914.793	10778
914.906	10599
915.019	10645
915.132	10618
915.245	10615
915.358	10687
915.47	10698
915.583	10580
915.696	10698
915.809	10900
915.921	10774
916.034	10634
916.146	10649
916.259	10645
916.371	10664
916.483	10683
916.595	10588
916.708	10500
916.82	10603
916.932	10653
917.044	10523
917.156	10523
917.268	10382
917.38	10497
917.491	10451
917.603	10455
917.715	10508
917.826	10538
917.938	10546
918.049	10272
918.161	10485
918.272	10596
918.384	10546
918.495	10470
918.606	10424
918.717	10337
918.828	10360
918.939	10417
919.05	10280
919.161	10341
919.272	10219
919.383	10211
919.494	10451
919.604	10580
919.715	10379
919.826	10299
919.936	10341
920.047	10432
920.157	10390
920.267	10542
920.378	10367
920.488	10390
920.598	10558
920.708	10744
920.818	10573
920.928	10584
921.038	10748
921.148	10618
921.258	10382
921.368	10375
921.477	10215
921.587	10253
921.697	10082
921.806	10215
921.916	10135
922.025	9956
922.134	9903
922.244	9934
922.353	9968
922.462	9850
922.571	9656
922.68	9663
922.789	9610
922.898	9618
923.007	9591
923.116	9568
923.224	9595
923.333	9584
923.442	9523
923.55	9466
923.659	9557
923.767	9610
923.876	9507
923.984	9572
924.092	9397
924.201	9462
924.309	9500
924.417	9466
924.525	9454
924.633	9477
924.741	10390
924.849	9226
924.956	9435
925.064	9283
925.172	9104
925.279	9237
925.387	9249
925.494	9332
925.602	9401
925.709	9363
925.816	9218
925.924	9275
926.031	9424
926.138	9272
926.245	9287
926.352	9188
926.459	9378
926.566	9420
926.673	9249
926.779	9127
926.886	9138
926.993	9001
927.099	8998
927.206	8998
927.312	8842
927.419	9024
927.525	8963
927.631	9036
927.737	8956
927.843	8895
927.95	8697
928.056	8891
928.162	8921
928.267	8944
928.373	9496
928.479	8948
928.585	8686
928.69	8800
928.796	8849
928.901	8731
929.007	8617
929.112	8762
929.218	8735
929.323	8716
929.428	8697
929.533	8762
929.638	8648
929.743	8648
929.848	8727
929.953	8686
930.058	8560
930.163	8431
930.267	8442
930.372	8644
930.477	8351
930.581	8720
930.685	8503
930.79	8381
930.894	8419
930.998	8389
931.103	8564
931.207	8244
931.311	8183
931.415	8069
931.519	7898
931.623	7909
