Data from test_V78500241_2404.txt Node
Date: Fri Mar 25 14:50:27 CST 2022
User: usil
Spectrometer: V785-0024
Trigger mode: 0
Integration Time (sec): 4.000000E-1
Scans to average: 1
Nonlinearity correction enabled: false
Boxcar width: 0
Storing dark spectrum: false
XAxis mode: Wavelengths
Number of Pixels in Spectrum: 1024
>>>>>Begin Spectral Data<<<<<
801.071	22169
801.214	22063
801.356	21865
801.499	21675
801.641	21523
801.783	21405
801.926	21595
802.068	21477
802.211	21511
802.353	21291
802.496	21123
802.638	21066
802.78	20925
802.923	20880
803.065	20792
803.208	20857
803.35	20861
803.492	20834
803.635	20883
803.777	20902
803.919	20864
804.061	21176
804.204	20849
804.346	20674
804.488	20689
804.63	20864
804.773	20602
804.915	20785
805.057	20735
805.199	20834
805.341	20758
805.483	20845
805.626	20731
805.768	20648
805.91	20796
806.052	20705
806.194	20697
806.336	20918
806.478	20705
806.62	20739
806.762	20708
806.904	20998
807.046	21131
807.188	21089
807.33	21081
807.472	21157
807.614	20979
807.756	20902
807.898	20910
808.04	20777
808.182	20682
808.324	20815
808.465	20868
808.607	21066
808.749	21203
808.891	21264
809.033	21389
809.174	21211
809.316	21184
809.458	21154
809.6	21173
809.741	21150
809.883	21207
810.025	21268
810.166	21321
810.308	21176
810.45	21180
810.591	21116
810.733	21051
810.875	21089
811.016	20880
811.158	20769
811.299	20921
811.441	21142
811.582	21051
811.724	20902
811.865	20887
812.007	20872
812.148	20933
812.29	20941
812.431	21028
812.573	21207
812.714	21222
812.855	21306
812.997	21420
813.138	21610
813.279	21553
813.421	21408
813.562	21382
813.703	21207
813.845	21047
813.986	20944
814.127	20613
814.268	20488
814.41	20507
814.551	20473
814.692	20533
814.833	20400
814.974	20389
815.115	20396
815.256	20324
815.397	20214
815.539	20377
815.68	20100
815.821	20115
815.962	20157
816.103	20172
816.244	20005
816.385	19883
816.526	19959
816.666	19826
816.807	19563
816.948	19700
817.089	19719
817.23	19582
817.371	19552
817.512	19594
817.653	19567
817.793	19441
817.934	19518
818.075	19552
818.216	19548
818.356	19521
818.497	19434
818.638	19202
818.778	19244
818.919	19179
819.06	19297
819.2	19407
819.341	19373
819.481	19441
819.622	19537
819.762	19731
819.903	19666
820.043	19635
820.184	19540
820.324	19487
820.465	19655
820.605	19468
820.746	19445
820.886	19392
821.026	19480
821.167	19483
821.307	19582
821.447	19449
821.588	19415
821.728	19122
821.868	19012
822.008	18973
822.149	19004
822.289	18981
822.429	18570
822.569	18639
822.709	18681
822.849	18464
822.99	18445
823.13	18403
823.27	18346
823.41	18300
823.55	18182
823.69	18243
823.83	18311
823.97	18190
824.11	18019
824.25	17961
824.389	17980
824.529	18110
824.669	18057
824.809	18136
824.949	18049
825.089	18152
825.228	18015
825.368	17859
825.508	17828
825.648	17878
825.787	17912
825.927	17927
826.067	17733
826.206	17832
826.346	17874
826.485	17923
826.625	17828
826.765	17912
826.904	17843
827.044	17714
827.183	17585
827.323	17524
827.462	17649
827.601	17547
827.741	17539
827.88	17501
828.02	17493
828.159	17474
828.298	17497
828.437	17615
828.577	17497
828.716	17707
828.855	17471
828.994	17398
829.134	17307
829.273	17337
829.412	17204
829.551	17162
829.69	17288
829.829	17337
829.968	17376
830.107	17322
830.246	17421
830.385	17250
830.524	17299
830.663	17109
830.802	17052
830.941	16908
831.08	16847
831.219	17022
831.357	16965
831.496	17170
831.635	16889
831.774	16809
831.913	16725
832.051	16702
832.19	16729
832.329	16755
832.467	16569
832.606	16500
832.744	16493
832.883	16489
833.022	16497
833.16	16599
833.299	16649
833.437	16580
833.576	16698
833.714	16573
833.852	16626
833.991	16721
834.129	16656
834.267	16713
834.406	16641
834.544	16599
834.682	16755
834.821	16615
834.959	16790
835.097	16569
835.235	16698
835.373	16618
835.511	16691
835.65	16626
835.788	16485
835.926	16462
836.064	16356
836.202	16402
836.34	16607
836.478	16664
836.615	16546
836.753	16523
836.891	16592
837.029	16649
837.167	16607
837.305	16508
837.443	16516
837.58	16314
837.718	16417
837.856	16386
837.993	16272
838.131	16341
838.269	16242
838.406	16215
838.544	16306
838.681	16112
838.819	16021
838.956	15949
839.094	15930
839.231	15880
839.369	16059
839.506	16341
839.643	16154
839.781	15937
839.918	15873
840.055	15972
840.193	15956
840.33	15911
840.467	15968
840.604	15941
840.742	16059
840.879	15781
841.016	15838
841.153	15915
841.29	16002
841.427	15865
841.564	16010
841.701	15918
841.838	15808
841.975	15808
842.112	15907
842.249	15739
842.385	15724
842.522	15907
842.659	15743
842.796	15660
842.933	15709
843.069	15682
843.206	15644
843.343	15823
843.479	15789
843.616	15675
843.752	15473
843.889	15530
844.025	15545
844.162	15462
844.298	15614
844.435	15435
844.571	15492
844.708	15564
844.844	15572
844.98	15610
845.117	15488
845.253	15420
845.389	15454
845.525	15462
845.661	15397
845.798	15313
845.934	15302
846.07	15230
846.206	15317
846.342	15306
846.478	15302
846.614	15154
846.75	15043
846.886	14948
847.022	15150
847.158	15108
847.294	15051
847.429	15131
847.565	14975
847.701	15279
847.837	14758
847.972	14804
848.108	14933
848.244	14895
848.379	14765
848.515	14552
848.65	14617
848.786	14598
848.921	14655
849.057	14830
849.192	14655
849.328	14731
849.463	14697
849.598	14617
849.734	14511
849.869	14492
850.004	14427
850.14	14427
850.275	14480
850.41	14434
850.545	14374
850.68	14366
850.815	14450
850.95	14385
851.085	14530
851.22	14518
851.355	14454
851.49	14419
851.625	14370
851.76	14320
851.895	14309
852.03	14301
852.165	14381
852.299	14530
852.434	14484
852.569	14522
852.703	14400
852.838	14541
852.973	14587
853.107	14549
853.242	14450
853.376	14305
853.511	14214
853.645	14248
853.78	14278
853.914	14317
854.048	14347
854.183	14309
854.317	14328
854.451	14396
854.585	14286
854.72	14309
854.854	14332
854.988	14119
855.122	14259
855.256	14119
855.39	14206
855.524	14248
855.658	14415
855.792	14298
855.926	14298
856.06	14355
856.194	14473
856.327	14256
856.461	14153
856.595	14275
856.729	14195
856.862	14423
856.996	14362
857.13	14313
857.263	14374
857.397	14396
857.53	14313
857.664	14301
857.797	14404
857.931	14328
858.064	14374
858.197	14408
858.331	14233
858.464	14313
858.597	14248
858.731	14301
858.864	14252
858.997	14225
859.13	14324
859.263	14237
859.396	14389
859.529	14374
859.662	14244
859.795	14248
859.928	14214
860.061	14473
860.194	14473
860.327	14278
860.46	14313
860.592	14313
860.725	14454
860.858	14343
860.99	14305
861.123	14199
861.256	14324
861.388	14301
861.521	15005
861.653	14221
861.786	14119
861.918	14176
862.05	14168
862.183	14332
862.315	14317
862.447	14259
862.58	14282
862.712	14062
862.844	14065
862.976	14168
863.108	14043
863.24	14408
863.372	14058
863.504	14069
863.636	14005
863.768	14100
863.9	14100
864.032	13967
864.164	14153
864.296	14100
864.428	14244
864.559	14111
864.691	14210
864.823	14119
864.954	14115
865.086	14123
865.217	13978
865.349	14008
865.48	14046
865.612	14069
865.743	14191
865.875	14103
866.006	13970
866.137	14054
866.269	14084
866.4	14027
866.531	14039
866.662	13986
866.793	13955
866.924	14016
867.055	14031
867.186	14058
867.317	13955
867.448	13947
867.579	14077
867.71	14035
867.841	13925
867.972	14050
868.103	13967
868.233	14043
868.364	14111
868.495	14123
868.625	14362
868.756	14408
868.886	14244
869.017	14309
869.147	14412
869.278	14419
869.408	14286
869.539	14305
869.669	14385
869.799	14286
869.929	14412
870.06	14336
870.19	14465
870.32	14568
870.45	14606
870.58	14701
870.71	14868
870.84	14731
870.97	14651
871.1	14674
871.23	14861
871.36	14899
871.489	14765
871.619	14811
871.749	14925
871.879	14979
872.008	15055
872.138	14895
872.267	14830
872.397	14849
872.526	14765
872.656	14651
872.785	14807
872.915	14895
873.044	14998
873.173	14929
873.303	14998
873.432	15005
873.561	14998
873.69	14899
873.819	14994
873.948	15058
874.077	14941
874.206	14876
874.335	15081
874.464	15131
874.593	15260
874.722	15176
874.851	15325
874.979	15325
875.108	15294
875.237	15275
875.365	15256
875.494	15188
875.623	15279
875.751	15222
875.88	15397
876.008	15378
876.136	15492
876.265	15606
876.393	15770
876.521	15797
876.65	15679
876.778	15720
876.906	15564
877.034	15648
877.162	15694
877.29	15587
877.418	15675
877.546	15652
877.674	15660
877.802	15610
877.93	15686
878.058	15591
878.185	15523
878.313	15663
878.441	15625
878.568	15507
878.696	15637
878.824	15603
878.951	15736
879.079	15789
879.206	15956
879.333	15747
879.461	15648
879.588	15842
879.715	15854
879.842	15975
879.97	15720
880.097	15542
880.224	15511
880.351	15439
880.478	15443
880.605	15496
880.732	15515
880.859	15743
880.986	15580
881.112	15568
881.239	15450
881.366	15275
881.493	15192
881.619	15119
881.746	15256
881.872	15218
881.999	15176
882.125	15036
882.252	15237
882.378	15211
882.505	15317
882.631	15119
882.757	14990
882.883	15020
883.01	15039
883.136	14895
883.262	14853
883.388	14876
883.514	14990
883.64	15116
883.766	14986
883.892	14731
884.018	14811
884.143	14868
884.269	15032
884.395	14773
884.52	14773
884.646	14724
884.772	14575
884.897	14617
885.023	14716
885.148	14781
885.274	14765
885.399	14777
885.524	14686
885.65	14689
885.775	14663
885.9	14708
886.025	14739
886.15	14743
886.275	14625
886.4	14575
886.525	14674
886.65	14701
886.775	14541
886.9	14872
887.025	14929
887.149	14625
887.274	14522
887.399	14518
887.523	14457
887.648	14484
887.773	14454
887.897	14575
888.021	14590
888.146	14480
888.27	14587
888.395	14667
888.519	14514
888.643	14621
888.767	14583
888.891	14476
889.015	14351
889.139	14473
889.263	14244
889.387	14503
889.511	14682
889.635	14541
889.759	14450
889.883	14290
890.006	14393
890.13	14533
890.254	14324
890.377	14332
890.501	14240
890.624	14183
890.748	14362
890.871	14172
890.995	14096
891.118	14111
891.241	14046
891.364	14054
891.488	14107
891.611	14191
891.734	14161
891.857	14092
891.98	14225
892.103	14225
892.226	14107
892.349	13993
892.471	13879
892.594	14054
892.717	14100
892.839	14031
892.962	14092
893.085	14096
893.207	14107
893.33	13928
893.452	13967
893.575	14225
893.697	14096
893.819	14199
893.941	14256
894.064	14221
894.186	14134
894.308	14027
894.43	14202
894.552	14267
894.674	14256
894.796	14065
894.918	14100
895.04	14138
895.161	14336
895.283	14396
895.405	14050
895.526	14206
895.648	14126
895.769	14237
895.891	14351
896.012	14336
896.134	14355
896.255	14286
896.376	14199
896.498	14256
896.619	14389
896.74	14214
896.861	14290
896.982	14621
897.103	14686
897.224	14659
897.345	14598
897.466	14404
897.587	14518
897.708	14667
897.828	14583
897.949	14434
898.07	14404
898.19	14564
898.311	14537
898.431	14575
898.552	14682
898.672	14705
898.792	14663
898.913	14651
899.033	14564
899.153	14393
899.273	14366
899.393	14423
899.513	14541
899.633	14423
899.753	14450
899.873	14442
899.993	14465
900.113	14423
900.232	14480
900.352	14408
900.472	14408
900.591	14305
900.711	14347
900.83	14267
900.95	14355
901.069	14381
901.189	14195
901.308	14020
901.427	13970
901.546	14050
901.665	13989
901.784	14050
901.904	13890
902.023	13822
902.141	13552
902.26	13590
902.379	13658
902.498	13590
902.617	13468
902.735	13597
902.854	13666
902.973	13567
903.091	13350
903.21	13301
903.328	13285
903.446	13247
903.565	13118
903.683	13156
903.801	13019
903.919	13110
904.038	13141
904.156	12913
904.274	13031
904.392	13015
904.51	12973
904.627	12920
904.745	12958
904.863	13072
904.981	12825
905.098	12662
905.216	12669
905.334	12589
905.451	12703
905.569	12547
905.686	12730
905.803	12566
905.921	12399
906.038	12646
906.155	12490
906.272	12384
906.389	12407
906.506	12194
906.623	12254
906.74	12247
906.857	12076
906.974	12175
907.091	12235
907.208	12384
907.324	12285
907.441	12133
907.557	12057
907.674	12045
907.79	11954
907.907	12076
908.023	11996
908.139	11992
908.256	11977
908.372	11927
908.488	11878
908.604	11710
908.72	11771
908.836	11813
908.952	11695
909.068	11771
909.184	11855
909.3	11756
909.415	11794
909.531	11668
909.647	11478
909.762	11463
909.878	11490
909.993	11558
910.108	11520
910.224	11501
910.339	11516
910.454	11398
910.57	11387
910.685	11246
910.8	11649
910.915	11547
911.03	11379
911.145	11239
911.259	11181
911.374	11197
911.489	11067
911.604	11094
911.718	10953
911.833	10946
911.947	10885
912.062	10763
912.176	10946
912.291	11041
912.405	10965
912.519	11212
912.633	11181
912.748	11056
912.862	10953
912.976	10862
913.09	10710
913.204	10892
913.318	10866
913.431	10995
913.545	10854
913.659	10908
913.772	10885
913.886	10668
914	10698
914.113	10809
914.226	10877
914.34	10782
914.453	10599
914.566	10892
914.68	10668
914.793	10683
914.906	10497
915.019	10462
915.132	10333
915.245	10474
915.358	10478
915.47	10424
915.583	10470
915.696	10550
915.809	10611
915.921	10497
916.034	10432
916.146	10485
916.259	10455
916.371	10558
916.483	10497
916.595	10295
916.708	10451
916.82	10402
916.932	10432
917.044	10417
917.156	10413
917.268	10257
917.38	10268
917.491	10295
917.603	10375
917.715	10375
917.826	10363
917.938	10261
918.049	10249
918.161	10287
918.272	10398
918.384	10405
918.495	10223
918.606	10242
918.717	10139
918.828	10246
918.939	10177
919.05	10086
919.161	10169
919.272	10032
919.383	9991
919.494	10230
919.604	10318
919.715	10207
919.826	10166
919.936	10177
920.047	10299
920.157	10147
920.267	10375
920.378	10303
920.488	10219
920.598	10299
920.708	10656
920.818	10409
920.928	10413
921.038	10565
921.148	10554
921.258	10219
921.368	10181
921.477	10010
921.587	10048
921.697	9983
921.806	10120
921.916	9945
922.025	9759
922.134	9793
922.244	9713
922.353	9766
922.462	9755
922.571	9584
922.68	9511
922.789	9428
922.898	9485
923.007	9363
923.116	9519
923.224	9405
923.333	9507
923.442	9428
923.55	9359
923.659	9370
923.767	9382
923.876	9233
923.984	9428
924.092	9245
924.201	9340
924.309	9298
924.417	9344
924.525	9241
924.633	9306
924.741	10044
924.849	9066
924.956	9256
925.064	9112
925.172	9039
925.279	9009
925.387	9169
925.494	9116
925.602	9176
925.709	9241
925.816	9013
925.924	9093
926.031	9146
926.138	9066
926.245	9157
926.352	9146
926.459	9138
926.566	9169
926.673	9104
926.779	8971
926.886	8891
926.993	8845
927.099	8830
927.206	8823
927.312	8796
927.419	8902
927.525	8910
927.631	8956
927.737	8712
927.843	8697
927.95	8613
928.056	8746
928.162	8781
928.267	8800
928.373	9431
928.479	8861
928.585	8564
928.69	8712
928.796	8758
928.901	8602
929.007	8423
929.112	8659
929.218	8610
929.323	8537
929.428	8507
929.533	8651
929.638	8499
929.743	8545
929.848	8537
929.953	8590
930.058	8431
930.163	8290
930.267	8389
930.372	8366
930.477	8240
930.581	8587
930.685	8343
930.79	8267
930.894	8294
930.998	8187
931.103	8385
931.207	8050
931.311	7978
931.415	7883
931.519	7799
931.623	7700
