Data from test_V78500241_86.txt Node
Date: Fri Mar 25 14:34:19 CST 2022
User: usil
Spectrometer: V785-0024
Trigger mode: 0
Integration Time (sec): 4.000000E-1
Scans to average: 1
Nonlinearity correction enabled: false
Boxcar width: 0
Storing dark spectrum: false
XAxis mode: Wavelengths
Number of Pixels in Spectrum: 1024
>>>>>Begin Spectral Data<<<<<
801.071	28820
801.214	28637
801.356	28607
801.499	28542
801.641	28207
801.783	28322
801.926	28329
802.068	28268
802.211	28097
802.353	28078
802.496	28021
802.638	27861
802.78	28025
802.923	27778
803.065	27781
803.208	27701
803.35	27857
803.492	27964
803.635	27835
803.777	27720
803.919	27960
804.061	28211
804.204	27861
804.346	27781
804.488	27686
804.63	27842
804.773	27705
804.915	27884
805.057	27922
805.199	27876
805.341	27941
805.483	27987
805.626	27880
805.768	27880
805.91	28013
806.052	27926
806.194	27975
806.336	28276
806.478	27865
806.62	27987
806.762	28147
806.904	28143
807.046	28382
807.188	28272
807.33	28352
807.472	28344
807.614	28284
807.756	28371
807.898	28116
808.04	28036
808.182	27911
808.324	28101
808.465	28185
808.607	28344
808.749	28398
808.891	28512
809.033	28554
809.174	28512
809.316	28481
809.458	28546
809.6	28478
809.741	28550
809.883	28584
810.025	28767
810.166	28786
810.308	28641
810.45	28622
810.591	28607
810.733	28421
810.875	28371
811.016	28356
811.158	28295
811.299	28348
811.441	28363
811.582	28508
811.724	28303
811.865	28352
812.007	28329
812.148	28287
812.29	28367
812.431	28489
812.573	28687
812.714	28820
812.855	28752
812.997	28904
813.138	29029
813.279	28938
813.421	28968
813.562	28740
813.703	28710
813.845	28432
813.986	28295
814.127	28295
814.268	27991
814.41	27945
814.551	27964
814.692	28025
814.833	27778
814.974	27831
815.115	27873
815.256	27865
815.397	27793
815.539	27778
815.68	27701
815.821	27656
815.962	27580
816.103	27637
816.244	27500
816.385	27458
816.526	27450
816.666	27173
816.807	27146
816.948	27001
817.089	27237
817.23	27032
817.371	27089
817.512	27093
817.653	27020
817.793	26960
817.934	27017
818.075	26956
818.216	27081
818.356	27036
818.497	26823
818.638	26590
818.778	26777
818.919	26716
819.06	26758
819.2	26960
819.341	26971
819.481	26864
819.622	27135
819.762	27268
819.903	27100
820.043	26998
820.184	27131
820.324	27112
820.465	27074
820.605	27043
820.746	27001
820.886	26891
821.026	26937
821.167	26899
821.307	26937
821.447	26887
821.588	26842
821.728	26621
821.868	26514
822.008	26362
822.149	26362
822.289	26450
822.429	25970
822.569	26005
822.709	25890
822.849	25902
822.99	25841
823.13	25715
823.27	25765
823.41	25643
823.55	25510
823.69	25499
823.83	25586
823.97	25575
824.11	25358
824.25	25247
824.389	25274
824.529	25457
824.669	25369
824.809	25472
824.949	25266
825.089	25464
825.228	25373
825.368	25031
825.508	25187
825.648	25190
825.787	25213
825.927	25114
826.067	25091
826.206	25255
826.346	25194
826.485	25202
826.625	25225
826.765	25175
826.904	25141
827.044	24966
827.183	24947
827.323	24833
827.462	24996
827.601	24825
827.741	24726
827.88	24802
828.02	24734
828.159	24734
828.298	24821
828.437	24848
828.577	24703
828.716	24837
828.855	24863
828.994	24467
829.134	24525
829.273	24559
829.412	24536
829.551	24407
829.69	24525
829.829	24513
829.968	24505
830.107	24578
830.246	24505
830.385	24486
830.524	24330
830.663	24247
830.802	24030
830.941	24053
831.08	24106
831.219	24190
831.357	24117
831.496	24171
831.635	24057
831.774	23805
831.913	23908
832.051	23687
832.19	23805
832.329	23843
832.467	23756
832.606	23646
832.744	23691
832.883	23642
833.022	23592
833.16	23592
833.299	23733
833.437	23642
833.576	23752
833.714	23722
833.852	23767
833.991	23665
834.129	23638
834.267	23691
834.406	23619
834.544	23619
834.682	23668
834.821	23512
834.959	23794
835.097	23577
835.235	23691
835.373	23543
835.511	23474
835.65	23402
835.788	23459
835.926	23311
836.064	23330
836.202	23170
836.34	23436
836.478	23474
836.615	23330
836.753	23395
836.891	23497
837.029	23501
837.167	23330
837.305	23417
837.443	23265
837.58	23322
837.718	23223
837.856	23368
837.993	23315
838.131	23185
838.269	23102
838.406	23227
838.544	23083
838.681	22980
838.819	22839
838.956	22710
839.094	22752
839.231	22854
839.369	22881
839.506	23166
839.643	22934
839.781	22664
839.918	22645
840.055	22759
840.193	22653
840.33	22599
840.467	22611
840.604	22634
840.742	22904
840.879	22455
841.016	22538
841.153	22519
841.29	22786
841.427	22432
841.564	22538
841.701	22584
841.838	22497
841.975	22424
842.112	22500
842.249	22390
842.385	22181
842.522	22481
842.659	22466
842.796	22238
842.933	22253
843.069	22303
843.206	22265
843.343	22360
843.479	22268
843.616	22249
843.752	22025
843.889	22074
844.025	22276
844.162	21991
844.298	22097
844.435	22010
844.571	21930
844.708	22048
844.844	21983
844.98	22143
845.117	22147
845.253	22002
845.389	21861
845.525	21911
845.661	21823
845.798	21759
845.934	21724
846.07	21671
846.206	21743
846.342	21857
846.478	21644
846.614	21488
846.75	21462
846.886	21374
847.022	21534
847.158	21542
847.294	21488
847.429	21572
847.565	21329
847.701	21606
847.837	21119
847.972	21268
848.108	21310
848.244	21157
848.379	20975
848.515	20986
848.65	21013
848.786	20956
848.921	20963
849.057	20986
849.192	21089
849.328	20967
849.463	21058
849.598	20948
849.734	20788
849.869	20895
850.004	20792
850.14	20765
850.275	20792
850.41	20579
850.545	20724
850.68	20705
850.815	20667
850.95	20697
851.085	20849
851.22	20807
851.355	20655
851.49	20640
851.625	20648
851.76	20621
851.895	20590
852.03	20457
852.165	20686
852.299	20693
852.434	20819
852.569	20617
852.703	20777
852.838	20746
852.973	20686
853.107	20849
853.242	20552
853.376	20556
853.511	20328
853.645	20374
853.78	20712
853.914	20457
854.048	20522
854.183	20492
854.317	20511
854.451	20613
854.585	20476
854.72	20480
854.854	20568
854.988	20339
855.122	20560
855.256	20415
855.39	20514
855.524	20473
855.658	20598
855.792	20514
855.926	20404
856.06	20377
856.194	20579
856.327	20476
856.461	20431
856.595	20374
856.729	20450
856.862	20514
856.996	20457
857.13	20454
857.263	20632
857.397	20518
857.53	20434
857.664	20484
857.797	20495
857.931	20514
858.064	20541
858.197	20530
858.331	20301
858.464	20355
858.597	20256
858.731	20362
858.864	20355
858.997	20301
859.13	20317
859.263	20404
859.396	20530
859.529	20431
859.662	20301
859.795	20370
859.928	20442
860.061	20537
860.194	20560
860.327	20396
860.46	20347
860.592	20362
860.725	20495
860.858	20530
860.99	20347
861.123	20282
861.256	20389
861.388	20522
861.521	21085
861.653	20290
861.786	20317
861.918	20275
862.05	20240
862.183	20427
862.315	20446
862.447	20587
862.58	20419
862.712	20073
862.844	20172
862.976	20298
863.108	20008
863.24	20518
863.372	20005
863.504	20024
863.636	20111
863.768	20191
863.9	20054
864.032	19989
864.164	20062
864.296	20054
864.428	20119
864.559	20149
864.691	20176
864.823	20020
864.954	20024
865.086	20012
865.217	19970
865.349	19970
865.48	20043
865.612	19875
865.743	20039
865.875	20043
866.006	19959
866.137	19974
866.269	19932
866.4	20001
866.531	19833
866.662	19909
866.793	19921
866.924	20043
867.055	19894
867.186	19868
867.317	19795
867.448	19947
867.579	19837
867.71	19830
867.841	19909
867.972	19936
868.103	20039
868.233	19925
868.364	20020
868.495	20035
868.625	20130
868.756	20210
868.886	19909
869.017	20107
869.147	20256
869.278	20229
869.408	20221
869.539	20096
869.669	20187
869.799	20298
869.929	20263
870.06	20317
870.19	20518
870.32	20454
870.45	20366
870.58	20499
870.71	20541
870.84	20640
870.97	20450
871.1	20613
871.23	20686
871.36	20648
871.489	20674
871.619	20701
871.749	20674
871.879	20720
872.008	20883
872.138	20746
872.267	20743
872.397	20686
872.526	20606
872.656	20579
872.785	20526
872.915	20720
873.044	20800
873.173	20689
873.303	20807
873.432	20716
873.561	20937
873.69	20697
873.819	20739
873.948	20872
874.077	20785
874.206	20705
874.335	20769
874.464	20891
874.593	21024
874.722	20925
874.851	21058
874.979	21036
875.108	21058
875.237	20956
875.365	20853
875.494	21024
875.623	21066
875.751	20941
875.88	20960
876.008	21131
876.136	21146
876.265	21485
876.393	21545
876.521	21557
876.65	21538
876.778	21321
876.906	21298
877.034	21325
877.162	21378
877.29	21332
877.418	21382
877.546	21435
877.674	21359
877.802	21321
877.93	21447
878.058	21237
878.185	21245
878.313	21355
878.441	21382
878.568	21192
878.696	21332
878.824	21313
878.951	21393
879.079	21625
879.206	21572
879.333	21401
879.461	21313
879.588	21412
879.715	21603
879.842	21701
879.97	21454
880.097	21302
880.224	21249
880.351	21272
880.478	21154
880.605	21214
880.732	21165
880.859	21538
880.986	21256
881.112	21279
881.239	21131
881.366	20971
881.493	20864
881.619	20891
881.746	20765
881.872	20727
881.999	20686
882.125	20625
882.252	20811
882.378	20724
882.505	20842
882.631	20640
882.757	20575
882.883	20644
883.01	20621
883.136	20575
883.262	20412
883.388	20305
883.514	20526
883.64	20651
883.766	20377
883.892	20317
884.018	20320
884.143	20431
884.269	20560
884.395	20358
884.52	20122
884.646	20176
884.772	20088
884.897	20031
885.023	20233
885.148	20286
885.274	20278
885.399	20214
885.524	20210
885.65	20058
885.775	20119
885.9	20138
886.025	20237
886.15	20267
886.275	20115
886.4	19909
886.525	20100
886.65	20027
886.775	19993
886.9	20244
887.025	20301
887.149	20130
887.274	19925
887.399	19894
887.523	19970
887.648	19731
887.773	19883
887.897	19917
888.021	19887
888.146	19784
888.27	20001
888.395	19959
888.519	19947
888.643	20031
888.767	19955
888.891	19818
889.015	19723
889.139	19658
889.263	19597
889.387	19837
889.511	19879
889.635	19742
889.759	19624
889.883	19677
890.006	19658
890.13	19719
890.254	19601
890.377	19544
890.501	19377
890.624	19476
890.748	19601
890.871	19312
890.995	19316
891.118	19198
891.241	19324
891.364	19183
891.488	19388
891.611	19244
891.734	19255
891.857	19358
891.98	19259
892.103	19422
892.226	19346
892.349	19373
892.471	19080
892.594	19164
892.717	19266
892.839	19187
892.962	19183
893.085	19263
893.207	19209
893.33	19061
893.452	19175
893.575	19137
893.697	19274
893.819	19396
893.941	19354
894.064	19343
894.186	19175
894.308	19110
894.43	19266
894.552	19381
894.674	19247
894.796	19107
894.918	19168
895.04	19225
895.161	19221
895.283	19247
895.405	19076
895.526	19274
895.648	19034
895.769	19316
895.891	19270
896.012	19320
896.134	19206
896.255	19316
896.376	19198
896.498	19266
896.619	19350
896.74	19232
896.861	19369
896.982	19647
897.103	19502
897.224	19506
897.345	19578
897.466	19537
897.587	19426
897.708	19632
897.828	19518
897.949	19400
898.07	19400
898.19	19377
898.311	19483
898.431	19415
898.552	19464
898.672	19502
898.792	19499
898.913	19521
899.033	19183
899.153	19206
899.273	19175
899.393	19236
899.513	19316
899.633	19133
899.753	19308
899.873	19202
899.993	19213
900.113	19141
900.232	19266
900.352	19206
900.472	19027
900.591	19137
900.711	19091
900.83	19023
900.95	19065
901.069	19187
901.189	18951
901.308	18734
901.427	18650
901.546	18684
901.665	18711
901.784	18589
901.904	18585
902.023	18479
902.141	18315
902.26	18235
902.379	18201
902.498	18076
902.617	18110
902.735	18292
902.854	18076
902.973	17980
903.091	17741
903.21	17783
903.328	17699
903.446	17642
903.565	17649
903.683	17638
903.801	17501
903.919	17512
904.038	17570
904.156	17364
904.274	17512
904.392	17471
904.51	17200
904.627	17356
904.745	17353
904.863	17383
904.981	17121
905.098	17014
905.216	17117
905.334	17071
905.451	17094
905.569	16892
905.686	17006
905.803	16923
905.921	16843
906.038	16934
906.155	16854
906.272	16706
906.389	16824
906.506	16573
906.623	16603
906.74	16428
906.857	16352
906.974	16398
907.091	16641
907.208	16702
907.324	16481
907.441	16398
907.557	16230
907.674	16249
907.79	16116
907.907	16291
908.023	16253
908.139	16230
908.256	16128
908.372	16063
908.488	15994
908.604	15945
908.72	15835
908.836	15922
908.952	15831
909.068	15846
909.184	15960
909.3	15842
909.415	15903
909.531	15956
909.647	15717
909.762	15500
909.878	15504
909.993	15538
910.108	15481
910.224	15485
910.339	15553
910.454	15435
910.57	15435
910.685	15260
910.8	15542
910.915	15428
911.03	15447
911.145	15279
911.259	15218
911.374	15089
911.489	15184
911.604	14990
911.718	14857
911.833	15055
911.947	14807
912.062	14682
912.176	14910
912.291	14845
912.405	14887
912.519	15085
912.633	15058
912.748	14902
912.862	14891
912.976	14788
913.09	14651
913.204	14651
913.318	14804
913.431	14876
913.545	14735
913.659	14891
913.772	14800
913.886	14598
914	14530
914.113	14571
914.226	14727
914.34	14613
914.453	14427
914.566	14518
914.68	14385
914.793	14457
914.906	14320
915.019	14126
915.132	14096
915.245	14142
915.358	14248
915.47	14138
915.583	14180
915.696	14275
915.809	14324
915.921	14336
916.034	14218
916.146	13993
916.259	14111
916.371	14153
916.483	14161
916.595	13902
916.708	14043
916.82	13936
916.932	13997
917.044	13947
917.156	13978
917.268	13830
917.38	13898
917.491	13814
917.603	13837
917.715	13898
917.826	13875
917.938	13723
918.049	13723
918.161	13868
918.272	13917
918.384	13974
918.495	13818
918.606	13670
918.717	13586
918.828	13700
918.939	13712
919.05	13605
919.161	13605
919.272	13476
919.383	13422
919.494	13658
919.604	13772
919.715	13620
919.826	13491
919.936	13514
920.047	13681
920.157	13537
920.267	13799
920.378	13548
920.488	13499
920.598	13765
920.708	13788
920.818	13753
920.928	13655
921.038	13909
921.148	13685
921.258	13556
921.368	13419
921.477	13301
921.587	13327
921.697	13194
921.806	13278
921.916	13091
922.025	13012
922.134	13046
922.244	12878
922.353	12928
922.462	12757
922.571	12791
922.68	12719
922.789	12631
922.898	12703
923.007	12456
923.116	12616
923.224	12692
923.333	12570
923.442	12471
923.55	12391
923.659	12517
923.767	12566
923.876	12410
923.984	12479
924.092	12395
924.201	12380
924.309	12422
924.417	12388
924.525	12281
924.633	12308
924.741	13206
924.849	12148
924.956	12224
925.064	12182
925.172	11980
925.279	12155
925.387	12125
925.494	12053
925.602	12213
925.709	12091
925.816	12011
925.924	12049
926.031	12155
926.138	12053
926.245	12072
926.352	12011
926.459	12045
926.566	12057
926.673	11996
926.779	11882
926.886	11824
926.993	11676
927.099	11737
927.206	11611
927.312	11676
927.419	11688
927.525	11684
927.631	11695
927.737	11585
927.843	11558
927.95	11398
928.056	11459
928.162	11516
928.267	11589
928.373	12087
928.479	11558
928.585	11318
928.69	11509
928.796	11554
928.901	11398
929.007	11231
929.112	11463
929.218	11311
929.323	11242
929.428	11193
929.533	11337
929.638	11223
929.743	11185
929.848	11220
929.953	11220
930.058	11079
930.163	10946
930.267	10976
930.372	11014
930.477	10885
930.581	11189
930.685	11041
930.79	10771
930.894	10850
930.998	10801
931.103	10946
931.207	10615
931.311	10500
931.415	10398
931.519	10238
931.623	10253
