Data from test_V78500241_2551.txt Node
Date: Fri Mar 25 14:51:28 CST 2022
User: usil
Spectrometer: V785-0024
Trigger mode: 0
Integration Time (sec): 4.000000E-1
Scans to average: 1
Nonlinearity correction enabled: false
Boxcar width: 0
Storing dark spectrum: false
XAxis mode: Wavelengths
Number of Pixels in Spectrum: 1024
>>>>>Begin Spectral Data<<<<<
801.071	22059
801.214	22025
801.356	21682
801.499	21808
801.641	21367
801.783	21336
801.926	21435
802.068	21268
802.211	21260
802.353	21188
802.496	20990
802.638	20933
802.78	20769
802.923	20910
803.065	20716
803.208	20724
803.35	20697
803.492	20849
803.635	20838
803.777	20739
803.919	20842
804.061	21100
804.204	20807
804.346	20693
804.488	20651
804.63	20693
804.773	20632
804.915	20617
805.057	20689
805.199	20708
805.341	20693
805.483	20758
805.626	20727
805.768	20594
805.91	20552
806.052	20617
806.194	20526
806.336	20754
806.478	20556
806.62	20522
806.762	20625
806.904	20834
807.046	21058
807.188	20994
807.33	21058
807.472	21055
807.614	20834
807.756	20861
807.898	20697
808.04	20739
808.182	20777
808.324	20674
808.465	20693
808.607	20910
808.749	20963
808.891	21127
809.033	21127
809.174	21024
809.316	20990
809.458	20952
809.6	20834
809.741	21017
809.883	21116
810.025	21081
810.166	21096
810.308	21051
810.45	21123
810.591	20986
810.733	20758
810.875	20899
811.016	20686
811.158	20667
811.299	20853
811.441	20944
811.582	20895
811.724	20845
811.865	20731
812.007	20686
812.148	20811
812.29	20815
812.431	20960
812.573	21093
812.714	21237
812.855	21408
812.997	21367
813.138	21622
813.279	21393
813.421	21298
813.562	21112
813.703	21066
813.845	20998
813.986	20602
814.127	20571
814.268	20332
814.41	20358
814.551	20362
814.692	20355
814.833	20244
814.974	20389
815.115	20454
815.256	20103
815.397	20164
815.539	20130
815.68	20039
815.821	19928
815.962	20065
816.103	19944
816.244	19947
816.385	19772
816.526	19719
816.666	19689
816.807	19441
816.948	19533
817.089	19506
817.23	19453
817.371	19556
817.512	19502
817.653	19365
817.793	19274
817.934	19529
818.075	19419
818.216	19411
818.356	19293
818.497	19362
818.638	19141
818.778	19129
818.919	19080
819.06	19251
819.2	19304
819.341	19346
819.481	19301
819.622	19491
819.762	19689
819.903	19525
820.043	19434
820.184	19354
820.324	19495
820.465	19514
820.605	19400
820.746	19293
820.886	19209
821.026	19445
821.167	19377
821.307	19552
821.447	19426
821.588	19324
821.728	19091
821.868	19095
822.008	18894
822.149	18840
822.289	18894
822.429	18620
822.569	18608
822.709	18612
822.849	18273
822.99	18384
823.13	18254
823.27	18277
823.41	18114
823.55	18117
823.69	18247
823.83	18182
823.97	18220
824.11	18022
824.25	17931
824.389	17866
824.529	17908
824.669	17927
824.809	17961
824.949	18182
825.089	18034
825.228	17866
825.368	17783
825.508	17729
825.648	17771
825.787	17771
825.927	17646
826.067	17691
826.206	17577
826.346	17695
826.485	17786
826.625	17699
826.765	17832
826.904	17794
827.044	17585
827.183	17452
827.323	17505
827.462	17551
827.601	17433
827.741	17395
827.88	17524
828.02	17387
828.159	17463
828.298	17512
828.437	17402
828.577	17414
828.716	17535
828.855	17410
828.994	17273
829.134	17204
829.273	17162
829.412	17124
829.551	17124
829.69	17140
829.829	17178
829.968	17330
830.107	17227
830.246	17269
830.385	17147
830.524	17090
830.663	17037
830.802	16892
830.941	16850
831.08	16812
831.219	16797
831.357	16828
831.496	17067
831.635	16835
831.774	16649
831.913	16710
832.051	16660
832.19	16573
832.329	16660
832.467	16497
832.606	16390
832.744	16421
832.883	16535
833.022	16512
833.16	16558
833.299	16519
833.437	16531
833.576	16588
833.714	16607
833.852	16630
833.991	16497
834.129	16736
834.267	16607
834.406	16561
834.544	16535
834.682	16577
834.821	16569
834.959	16740
835.097	16542
835.235	16573
835.373	16569
835.511	16596
835.65	16535
835.788	16455
835.926	16261
836.064	16253
836.202	16394
836.34	16481
836.478	16546
836.615	16459
836.753	16344
836.891	16573
837.029	16504
837.167	16432
837.305	16478
837.443	16394
837.58	16310
837.718	16428
837.856	16318
837.993	16360
838.131	16382
838.269	16360
838.406	16257
838.544	16196
838.681	15994
838.819	15987
838.956	15930
839.094	15934
839.231	15998
839.369	15953
839.506	16314
839.643	16234
839.781	15949
839.918	15884
840.055	15888
840.193	15930
840.33	15857
840.467	15903
840.604	15831
840.742	16150
840.879	15720
841.016	15876
841.153	15747
841.29	15994
841.427	15873
841.564	15949
841.701	15934
841.838	15770
841.975	15838
842.112	15812
842.249	15629
842.385	15656
842.522	15835
842.659	15698
842.796	15633
842.933	15694
843.069	15507
843.206	15629
843.343	15724
843.479	15743
843.616	15629
843.752	15500
843.889	15477
844.025	15496
844.162	15401
844.298	15485
844.435	15485
844.571	15477
844.708	15431
844.844	15709
844.98	15572
845.117	15644
845.253	15340
845.389	15332
845.525	15492
845.661	15329
845.798	15298
845.934	15260
846.07	15195
846.206	15237
846.342	15405
846.478	15169
846.614	15127
846.75	14963
846.886	15020
847.022	15142
847.158	15001
847.294	15051
847.429	15066
847.565	14948
847.701	15283
847.837	14811
847.972	14769
848.108	14773
848.244	14868
848.379	14594
848.515	14705
848.65	14625
848.786	14556
848.921	14682
849.057	14731
849.192	14750
849.328	14644
849.463	14659
849.598	14549
849.734	14526
849.869	14568
850.004	14423
850.14	14370
850.275	14396
850.41	14374
850.545	14271
850.68	14275
850.815	14396
850.95	14362
851.085	14560
851.22	14465
851.355	14320
851.49	14431
851.625	14336
851.76	14389
851.895	14267
852.03	14206
852.165	14343
852.299	14381
852.434	14412
852.569	14442
852.703	14336
852.838	14518
852.973	14511
853.107	14476
853.242	14347
853.376	14252
853.511	14183
853.645	14134
853.78	14343
853.914	14275
854.048	14244
854.183	14191
854.317	14286
854.451	14473
854.585	14305
854.72	14305
854.854	14336
854.988	14142
855.122	14199
855.256	14161
855.39	14199
855.524	14358
855.658	14267
855.792	14366
855.926	14431
856.06	14377
856.194	14358
856.327	14286
856.461	14233
856.595	14183
856.729	14218
856.862	14336
856.996	14290
857.13	14309
857.263	14396
857.397	14351
857.53	14298
857.664	14275
857.797	14370
857.931	14298
858.064	14195
858.197	14332
858.331	14191
858.464	14252
858.597	14130
858.731	14256
858.864	14244
858.997	14240
859.13	14298
859.263	14225
859.396	14317
859.529	14183
859.662	14183
859.795	14191
859.928	14347
860.061	14450
860.194	14454
860.327	14221
860.46	14301
860.592	14389
860.725	14362
860.858	14389
860.99	14267
861.123	14248
861.256	14221
861.388	14218
861.521	14891
861.653	14153
861.786	14077
861.918	14107
862.05	14153
862.183	14206
862.315	14210
862.447	14301
862.58	14183
862.712	14024
862.844	13970
862.976	14161
863.108	14088
863.24	14518
863.372	13967
863.504	14161
863.636	13947
863.768	14096
863.9	13989
864.032	14020
864.164	13989
864.296	14024
864.428	14206
864.559	14077
864.691	14161
864.823	14031
864.954	14157
865.086	13989
865.217	14020
865.349	13944
865.48	13955
865.612	14088
865.743	14195
865.875	14008
866.006	14020
866.137	13970
866.269	14043
866.4	14001
866.531	14016
866.662	13894
866.793	13959
866.924	14027
867.055	14035
867.186	14119
867.317	13925
867.448	13928
867.579	14005
867.71	13814
867.841	13947
867.972	14005
868.103	13963
868.233	14027
868.364	14081
868.495	13970
868.625	14298
868.756	14301
868.886	14092
869.017	14309
869.147	14347
869.278	14355
869.408	14301
869.539	14275
869.669	14298
869.799	14305
869.929	14358
870.06	14362
870.19	14564
870.32	14526
870.45	14617
870.58	14659
870.71	14720
870.84	14815
870.97	14701
871.1	14701
871.23	14918
871.36	14891
871.489	14644
871.619	14781
871.749	14788
871.879	14895
872.008	15013
872.138	14853
872.267	14826
872.397	14868
872.526	14670
872.656	14785
872.785	14765
872.915	14864
873.044	14994
873.173	14971
873.303	14994
873.432	15017
873.561	15028
873.69	14838
873.819	14868
873.948	15005
874.077	14952
874.206	14891
874.335	14998
874.464	14956
874.593	15298
874.722	15138
874.851	15199
874.979	15233
875.108	15241
875.237	15214
875.365	15226
875.494	15218
875.623	15310
875.751	15226
875.88	15256
876.008	15393
876.136	15420
876.265	15610
876.393	15846
876.521	15793
876.65	15656
876.778	15778
876.906	15648
877.034	15515
877.162	15705
877.29	15591
877.418	15633
877.546	15595
877.674	15751
877.802	15656
877.93	15660
878.058	15614
878.185	15481
878.313	15648
878.441	15606
878.568	15439
878.696	15542
878.824	15610
878.951	15774
879.079	15876
879.206	15934
879.333	15831
879.461	15698
879.588	15797
879.715	15915
879.842	15838
879.97	15724
880.097	15477
880.224	15515
880.351	15542
880.478	15447
880.605	15370
880.732	15492
880.859	15698
880.986	15572
881.112	15519
881.239	15447
881.366	15329
881.493	15260
881.619	15138
881.746	15199
881.872	15157
881.999	15157
882.125	15074
882.252	15260
882.378	15184
882.505	15256
882.631	15039
882.757	14861
882.883	15184
883.01	14998
883.136	14861
883.262	14769
883.388	14815
883.514	14918
883.64	14960
883.766	15005
883.892	14880
884.018	14777
884.143	14979
884.269	15055
884.395	14727
884.52	14613
884.646	14724
884.772	14674
884.897	14629
885.023	14746
885.148	14758
885.274	14845
885.399	14781
885.524	14716
885.65	14735
885.775	14689
885.9	14651
886.025	14796
886.15	14731
886.275	14724
886.4	14697
886.525	14606
886.65	14610
886.775	14674
886.9	14868
887.025	14914
887.149	14701
887.274	14488
887.399	14450
887.523	14499
887.648	14484
887.773	14351
887.897	14541
888.021	14549
888.146	14533
888.27	14549
888.395	14682
888.519	14606
888.643	14514
888.767	14590
888.891	14415
889.015	14370
889.139	14476
889.263	14343
889.387	14579
889.511	14575
889.635	14522
889.759	14358
889.883	14389
890.006	14431
890.13	14446
890.254	14256
890.377	14244
890.501	14214
890.624	14157
890.748	14267
890.871	14130
890.995	13970
891.118	13986
891.241	13993
891.364	14157
891.488	14195
891.611	14073
891.734	14073
891.857	14183
891.98	14020
892.103	14088
892.226	14210
892.349	14065
892.471	13993
892.594	14001
892.717	14100
892.839	14012
892.962	14092
893.085	14199
893.207	14024
893.33	13932
893.452	14065
893.575	14111
893.697	14058
893.819	14278
893.941	14286
894.064	14263
894.186	14084
894.308	13982
894.43	14233
894.552	14336
894.674	14324
894.796	14134
894.918	14103
895.04	14043
895.161	14183
895.283	14252
895.405	14149
895.526	14176
895.648	14157
895.769	14195
895.891	14301
896.012	14328
896.134	14305
896.255	14180
896.376	14195
896.498	14298
896.619	14313
896.74	14161
896.861	14298
896.982	14667
897.103	14785
897.224	14552
897.345	14526
897.466	14434
897.587	14499
897.708	14644
897.828	14606
897.949	14541
898.07	14434
898.19	14465
898.311	14727
898.431	14476
898.552	14693
898.672	14583
898.792	14727
898.913	14545
899.033	14583
899.153	14484
899.273	14294
899.393	14495
899.513	14385
899.633	14476
899.753	14370
899.873	14381
899.993	14495
900.113	14393
900.232	14412
900.352	14446
900.472	14298
900.591	14195
900.711	14343
900.83	14206
900.95	14317
901.069	14400
901.189	14252
901.308	14077
901.427	13928
901.546	13944
901.665	13936
901.784	14119
901.904	13947
902.023	13723
902.141	13643
902.26	13552
902.379	13662
902.498	13529
902.617	13586
902.735	13552
902.854	13544
902.973	13457
903.091	13251
903.21	13228
903.328	13369
903.446	13152
903.565	13122
903.683	13164
903.801	13076
903.919	13247
904.038	13183
904.156	12871
904.274	13000
904.392	12905
904.51	13008
904.627	12954
904.745	12973
904.863	13000
904.981	12783
905.098	12700
905.216	12635
905.334	12692
905.451	12616
905.569	12627
905.686	12604
905.803	12665
905.921	12509
906.038	12437
906.155	12418
906.272	12445
906.389	12388
906.506	12270
906.623	12258
906.74	12171
906.857	12155
906.974	12087
907.091	12369
907.208	12399
907.324	12338
907.441	12068
907.557	11912
907.674	12034
907.79	11912
907.907	11882
908.023	11973
908.139	12030
908.256	11855
908.372	11965
908.488	11923
908.604	11752
908.72	11737
908.836	11726
908.952	11726
909.068	11764
909.184	11859
909.3	11775
909.415	11794
909.531	11710
909.647	11520
909.762	11463
909.878	11524
909.993	11520
910.108	11505
910.224	11474
910.339	11493
910.454	11391
910.57	11345
910.685	11242
910.8	11627
910.915	11497
911.03	11376
911.145	11258
911.259	11235
911.374	11235
911.489	11098
911.604	11052
911.718	10908
911.833	10927
911.947	10835
912.062	10805
912.176	10828
912.291	10972
912.405	10949
912.519	11140
912.633	11128
912.748	11071
912.862	11048
912.976	10786
913.09	10733
913.204	10854
913.318	10824
913.431	10961
913.545	10904
913.659	10976
913.772	10824
913.886	10759
914	10706
914.113	10809
914.226	10847
914.34	10725
914.453	10626
914.566	10805
914.68	10679
914.793	10634
914.906	10580
915.019	10428
915.132	10459
915.245	10527
915.358	10470
915.47	10440
915.583	10462
915.696	10504
915.809	10603
915.921	10592
916.034	10455
916.146	10466
916.259	10379
916.371	10504
916.483	10474
916.595	10356
916.708	10474
916.82	10402
916.932	10413
917.044	10405
917.156	10329
917.268	10253
917.38	10379
917.491	10227
917.603	10314
917.715	10390
917.826	10417
917.938	10284
918.049	10166
918.161	10318
918.272	10443
918.384	10398
918.495	10363
918.606	10234
918.717	10051
918.828	10135
918.939	10150
919.05	10105
919.161	10158
919.272	9972
919.383	10112
919.494	10291
919.604	10424
919.715	10116
919.826	10090
919.936	10162
920.047	10211
920.157	10207
920.267	10363
920.378	10246
920.488	10192
920.598	10428
920.708	10538
920.818	10371
920.928	10386
921.038	10546
921.148	10493
921.258	10188
921.368	10284
921.477	10055
921.587	10055
921.697	9987
921.806	10097
921.916	9934
922.025	9774
922.134	9701
922.244	9732
922.353	9759
922.462	9568
922.571	9591
922.68	9393
922.789	9408
922.898	9462
923.007	9367
923.116	9496
923.224	9416
923.333	9515
923.442	9408
923.55	9329
923.659	9332
923.767	9374
923.876	9317
923.984	9435
924.092	9157
924.201	9310
924.309	9272
924.417	9336
924.525	9340
924.633	9291
924.741	10074
924.849	9097
924.956	9249
925.064	9116
925.172	9001
925.279	9055
925.387	9146
925.494	9066
925.602	9214
925.709	9203
925.816	9047
925.924	9154
926.031	9226
926.138	9169
926.245	9184
926.352	9009
926.459	9081
926.566	9218
926.673	9001
926.779	9020
926.886	8921
926.993	8823
927.099	8864
927.206	8762
927.312	8796
927.419	8929
927.525	8773
927.631	8800
927.737	8727
927.843	8674
927.95	8552
928.056	8743
928.162	8686
928.267	8773
928.373	9336
928.479	8785
928.585	8579
928.69	8716
928.796	8800
928.901	8598
929.007	8469
929.112	8606
929.218	8625
929.323	8461
929.428	8514
929.533	8644
929.638	8499
929.743	8545
929.848	8590
929.953	8484
930.058	8404
930.163	8248
930.267	8332
930.372	8473
930.477	8263
930.581	8511
930.685	8374
930.79	8259
930.894	8317
930.998	8195
931.103	8412
931.207	8012
931.311	8005
931.415	7921
931.519	7772
931.623	7772
