Data from test_V78500241_866.txt Node
Date: Fri Mar 25 14:39:44 CST 2022
User: usil
Spectrometer: V785-0024
Trigger mode: 0
Integration Time (sec): 4.000000E-1
Scans to average: 1
Nonlinearity correction enabled: false
Boxcar width: 0
Storing dark spectrum: false
XAxis mode: Wavelengths
Number of Pixels in Spectrum: 1024
>>>>>Begin Spectral Data<<<<<
801.071	25700
801.214	25597
801.356	25365
801.499	25255
801.641	25126
801.783	25095
801.926	25122
802.068	25008
802.211	24905
802.353	24795
802.496	24544
802.638	24654
802.78	24551
802.923	24536
803.065	24380
803.208	24334
803.35	24528
803.492	24486
803.635	24593
803.777	24353
803.919	24593
804.061	24943
804.204	24578
804.346	24536
804.488	24410
804.63	24479
804.773	24403
804.915	24559
805.057	24696
805.199	24627
805.341	24532
805.483	24711
805.626	24749
805.768	24589
805.91	24726
806.052	24829
806.194	24798
806.336	25183
806.478	25145
806.62	25019
806.762	25278
806.904	25559
807.046	25731
807.188	25788
807.33	26069
807.472	26453
807.614	26556
807.756	26937
807.898	27462
808.04	28017
808.182	28843
808.324	29999
808.465	31198
808.607	32598
808.749	33869
808.891	34729
809.033	34637
809.174	33930
809.316	32617
809.458	31164
809.6	29882
809.741	28664
809.883	27937
810.025	27329
810.166	27081
810.308	26533
810.45	26271
810.591	26103
810.733	25776
810.875	25533
811.016	25392
811.158	25183
811.299	25320
811.441	25354
811.582	25247
811.724	25038
811.865	24897
812.007	24951
812.148	25038
812.29	25008
812.431	25122
812.573	25263
812.714	25339
812.855	25457
812.997	25468
813.138	25556
813.279	25445
813.421	25316
813.562	25316
813.703	25187
813.845	24852
813.986	24658
814.127	24418
814.268	24327
814.41	24300
814.551	24220
814.692	24361
814.833	24144
814.974	24209
815.115	24163
815.256	24022
815.397	24095
815.539	23946
815.68	24011
815.821	23954
815.962	23950
816.103	23813
816.244	23665
816.385	23634
816.526	23581
816.666	23376
816.807	23318
816.948	23349
817.089	23341
817.23	23315
817.371	23212
817.512	23288
817.653	23208
817.793	23220
817.934	23231
818.075	23303
818.216	23258
818.356	23052
818.497	23033
818.638	22911
818.778	22942
818.919	22908
819.06	22889
819.2	23006
819.341	23121
819.481	23090
819.622	23155
819.762	23307
819.903	23254
820.043	23121
820.184	23223
820.324	23113
820.465	23094
820.605	23102
820.746	23010
820.886	22946
821.026	23003
821.167	23006
821.307	22991
821.447	22984
821.588	22862
821.728	22854
821.868	22664
822.008	22394
822.149	22417
822.289	22280
822.429	22029
822.569	22059
822.709	22044
822.849	21884
822.99	21743
823.13	21804
823.27	21774
823.41	21766
823.55	21660
823.69	21713
823.83	21831
823.97	21660
824.11	21515
824.25	21435
824.389	21443
824.529	21473
824.669	21389
824.809	21576
824.949	21587
825.089	21549
825.228	21458
825.368	21287
825.508	21237
825.648	21287
825.787	21306
825.927	21408
826.067	21241
826.206	21203
826.346	21241
826.485	21230
826.625	21173
826.765	21329
826.904	21150
827.044	21184
827.183	20918
827.323	20762
827.462	20921
827.601	20868
827.741	20716
827.88	20921
828.02	20602
828.159	20933
828.298	20788
828.437	20880
828.577	20785
828.716	20933
828.855	20853
828.994	20674
829.134	20606
829.273	20758
829.412	20564
829.551	20564
829.69	20621
829.829	20552
829.968	20609
830.107	20530
830.246	20457
830.385	20484
830.524	20461
830.663	20313
830.802	20275
830.941	20221
831.08	20122
831.219	20176
831.357	20176
831.496	20336
831.635	20134
831.774	20092
831.913	20111
832.051	19921
832.19	19970
832.329	20046
832.467	19913
832.606	19704
832.744	19917
832.883	19894
833.022	19974
833.16	19868
833.299	19989
833.437	19978
833.576	20168
833.714	20191
833.852	20408
833.991	20351
834.129	20351
834.267	20465
834.406	20301
834.544	20377
834.682	20290
834.821	20210
834.959	20191
835.097	20069
835.235	20100
835.373	19944
835.511	20039
835.65	19883
835.788	19693
835.926	19753
836.064	19514
836.202	19708
836.34	19715
836.478	19852
836.615	19681
836.753	19712
836.891	19693
837.029	19750
837.167	19696
837.305	19594
837.443	19506
837.58	19460
837.718	19533
837.856	19426
837.993	19411
838.131	19586
838.269	19343
838.406	19377
838.544	19316
838.681	19232
838.819	19053
838.956	19000
839.094	19012
839.231	18996
839.369	19110
839.506	19377
839.643	19137
839.781	19004
839.918	18901
840.055	18916
840.193	19004
840.33	18890
840.467	19004
840.604	18920
840.742	19156
840.879	18791
841.016	18798
841.153	18848
841.29	19084
841.427	18928
841.564	18859
841.701	18973
841.838	18837
841.975	18913
842.112	18787
842.249	18768
842.385	18658
842.522	18958
842.659	18669
842.796	18639
842.933	18658
843.069	18722
843.206	18700
843.343	18825
843.479	18783
843.616	18802
843.752	18471
843.889	18608
844.025	18776
844.162	18585
844.298	18696
844.435	18764
844.571	18817
844.708	18894
844.844	19122
844.98	19270
845.117	19441
845.253	19791
845.389	20374
845.525	21720
845.661	23935
845.798	26823
845.934	28965
846.07	29988
846.206	29566
846.342	27953
846.478	25251
846.614	22481
846.75	20807
846.886	19845
847.022	19301
847.158	18817
847.294	18426
847.429	18372
847.565	18292
847.701	18490
847.837	17901
847.972	17771
848.108	17897
848.244	17866
848.379	17687
848.515	17554
848.65	17581
848.786	17562
848.921	17573
849.057	17756
849.192	17684
849.328	17539
849.463	17505
849.598	17452
849.734	17463
849.869	17368
850.004	17337
850.14	17318
850.275	17391
850.41	17288
850.545	17220
850.68	17303
850.815	17368
850.95	17269
851.085	17459
851.22	17429
851.355	17315
851.49	17410
851.625	17246
851.76	17231
851.895	17261
852.03	17193
852.165	17280
852.299	17311
852.434	17398
852.569	17372
852.703	17296
852.838	17395
852.973	17448
853.107	17463
853.242	17330
853.376	17364
853.511	17200
853.645	17216
853.78	17364
853.914	17284
854.048	17318
854.183	17372
854.317	17353
854.451	17478
854.585	17395
854.72	17246
854.854	17322
854.988	17204
855.122	17330
855.256	17037
855.39	17227
855.524	17216
855.658	17231
855.792	17254
855.926	17204
856.06	17258
856.194	17315
856.327	17181
856.461	17140
856.595	17121
856.729	17162
856.862	17277
856.996	17124
857.13	17121
857.263	17242
857.397	17303
857.53	17193
857.664	17330
857.797	17307
857.931	17261
858.064	17128
858.197	17208
858.331	17166
858.464	17045
858.597	16869
858.731	17128
858.864	17064
858.997	17124
859.13	17105
859.263	17121
859.396	17071
859.529	17022
859.662	17079
859.795	16984
859.928	16930
860.061	17170
860.194	17273
860.327	17048
860.46	16927
860.592	17174
860.725	17151
860.858	17200
860.99	17121
861.123	16976
861.256	17060
861.388	17052
861.521	17737
861.653	16980
861.786	16915
861.918	16949
862.05	17064
862.183	16889
862.315	17052
862.447	17121
862.58	16984
862.712	16824
862.844	16691
862.976	16839
863.108	16831
863.24	17162
863.372	16664
863.504	16725
863.636	16752
863.768	16858
863.9	16782
864.032	16679
864.164	16588
864.296	16793
864.428	16801
864.559	16820
864.691	16771
864.823	16778
864.954	16820
865.086	16774
865.217	16675
865.349	16687
865.48	16725
865.612	16759
865.743	16858
865.875	16698
866.006	16626
866.137	16729
866.269	16710
866.4	16675
866.531	16698
866.662	16694
866.793	16660
866.924	16645
867.055	16721
867.186	16683
867.317	16630
867.448	16573
867.579	16664
867.71	16538
867.841	16554
867.972	16733
868.103	16694
868.233	16790
868.364	16713
868.495	16790
868.625	16858
868.756	17128
868.886	16805
869.017	16938
869.147	17045
869.278	17117
869.408	16866
869.539	16938
869.669	17060
869.799	16987
869.929	17075
870.06	17079
870.19	17296
870.32	17258
870.45	17284
870.58	17402
870.71	17452
870.84	17455
870.97	17345
871.1	17364
871.23	17551
871.36	17509
871.489	17608
871.619	17497
871.749	17516
871.879	17482
872.008	17684
872.138	17573
872.267	17604
872.397	17459
872.526	17528
872.656	17425
872.785	17486
872.915	17653
873.044	17790
873.173	17551
873.303	17710
873.432	17695
873.561	17786
873.69	17611
873.819	17653
873.948	17847
874.077	17794
874.206	17691
874.335	17783
874.464	17901
874.593	18045
874.722	18019
874.851	18167
874.979	18102
875.108	18224
875.237	18003
875.365	18060
875.494	18064
875.623	18129
875.751	18136
875.88	18235
876.008	18254
876.136	18319
876.265	18604
876.393	18909
876.521	18779
876.65	18798
876.778	18745
876.906	18661
877.034	18703
877.162	18802
877.29	18745
877.418	18856
877.546	18962
877.674	18962
877.802	18951
877.93	19046
878.058	19072
878.185	19076
878.313	19320
878.441	19506
878.568	19388
878.696	19708
878.824	20210
878.951	20648
879.079	21405
879.206	22234
879.333	23048
879.461	23745
879.588	24243
879.715	24292
879.842	23901
879.97	23075
880.097	22078
880.224	21310
880.351	20941
880.478	20442
880.605	20221
880.732	20065
880.859	20161
880.986	19868
881.112	19871
881.239	19715
881.366	19575
881.493	19556
881.619	19453
881.746	19419
881.872	19388
881.999	19472
882.125	19434
882.252	19556
882.378	19590
882.505	19742
882.631	19521
882.757	19343
882.883	19548
883.01	19365
883.136	19324
883.262	19274
883.388	19194
883.514	19346
883.64	19358
883.766	19320
883.892	19088
884.018	19228
884.143	19278
884.269	19350
884.395	19057
884.52	18966
884.646	19156
884.772	19103
884.897	19004
885.023	19027
885.148	19103
885.274	19141
885.399	19168
885.524	18833
885.65	18905
885.775	18890
885.9	18825
886.025	18954
886.15	18642
886.275	18589
886.4	18528
886.525	18471
886.65	18429
886.775	18262
886.9	18414
887.025	18589
887.149	18270
887.274	18026
887.399	18015
887.523	17996
887.648	17912
887.773	17889
887.897	17942
888.021	17958
888.146	17779
888.27	17920
888.395	17802
888.519	17828
888.643	17726
888.767	17752
888.891	17524
889.015	17638
889.139	17562
889.263	17474
889.387	17573
889.511	17703
889.635	17630
889.759	17505
889.883	17455
890.006	17402
890.13	17581
890.254	17345
890.377	17398
890.501	17231
890.624	17204
890.748	17166
890.871	17064
890.995	17075
891.118	17022
891.241	17025
891.364	17105
891.488	17151
891.611	16885
891.734	17041
891.857	16900
891.98	16904
892.103	16873
892.226	16877
892.349	16835
892.471	16660
892.594	16831
892.717	16782
892.839	16767
892.962	16862
893.085	16831
893.207	16797
893.33	16637
893.452	16653
893.575	16778
893.697	16744
893.819	16820
893.941	16862
894.064	16767
894.186	16645
894.308	16694
894.43	16767
894.552	16873
894.674	16767
894.796	16603
894.918	16683
895.04	16645
895.161	16713
895.283	16668
895.405	16573
895.526	16668
895.648	16740
895.769	16641
895.891	16713
896.012	16744
896.134	16725
896.255	16790
896.376	16668
896.498	16675
896.619	16759
896.74	16710
896.861	16790
896.982	16984
897.103	17159
897.224	17010
897.345	16866
897.466	16824
897.587	16877
897.708	17109
897.828	16908
897.949	16896
898.07	16778
898.19	16850
898.311	17018
898.431	16942
898.552	16938
898.672	16946
898.792	17025
898.913	16995
899.033	16877
899.153	16900
899.273	16725
899.393	16702
899.513	16869
899.633	16733
899.753	16862
899.873	16759
899.993	16843
900.113	16721
900.232	16847
900.352	16748
900.472	16687
900.591	16565
900.711	16713
900.83	16588
900.95	16759
901.069	16660
901.189	16622
901.308	16375
901.427	16211
901.546	16249
901.665	16211
901.784	16272
901.904	16093
902.023	15884
902.141	15854
902.26	15770
902.379	15846
902.498	15797
902.617	15629
902.735	15838
902.854	15705
902.973	15701
903.091	15458
903.21	15401
903.328	15500
903.446	15306
903.565	15245
903.683	15176
903.801	15131
903.919	15188
904.038	15100
904.156	14956
904.274	15135
904.392	15062
904.51	14921
904.627	14944
904.745	14998
904.863	15066
904.981	14807
905.098	14663
905.216	14682
905.334	14667
905.451	14701
905.569	14644
905.686	14785
905.803	14632
905.921	14415
906.038	14575
906.155	14545
906.272	14286
906.389	14305
906.506	14180
906.623	14176
906.74	14161
906.857	14043
906.974	14035
907.091	14248
907.208	14313
907.324	14252
907.441	14039
907.557	13940
907.674	13944
907.79	13811
907.907	13864
908.023	13963
908.139	14008
908.256	13822
908.372	13826
908.488	13681
908.604	13738
908.72	13616
908.836	13521
908.952	13552
909.068	13696
909.184	13776
909.3	13666
909.415	13662
909.531	13624
909.647	13388
909.762	13419
909.878	13400
909.993	13419
910.108	13457
910.224	13358
910.339	13460
910.454	13164
910.57	13149
910.685	13160
910.8	13362
910.915	13282
911.03	13175
911.145	13065
911.259	13012
911.374	12935
911.489	12985
911.604	12890
911.718	12791
911.833	12772
911.947	12608
912.062	12593
912.176	12722
912.291	12779
912.405	12764
912.519	12856
912.633	12977
912.748	12753
912.862	12760
912.976	12563
913.09	12452
913.204	12517
913.318	12646
913.431	12658
913.545	12658
913.659	12730
913.772	12597
913.886	12410
914	12395
914.113	12532
914.226	12547
914.34	12486
914.453	12289
914.566	12471
914.68	12391
914.793	12346
914.906	12175
915.019	12186
915.132	12110
915.245	12091
915.358	12129
915.47	12239
915.583	12175
915.696	12330
915.809	12262
915.921	12262
916.034	12087
916.146	12125
916.259	12171
916.371	12228
916.483	12171
916.595	12011
916.708	12178
916.82	12125
916.932	12110
917.044	12072
917.156	11996
917.268	11908
917.38	11954
917.491	11859
917.603	11954
917.715	11965
917.826	12114
917.938	11851
918.049	11813
918.161	11939
918.272	12072
918.384	11961
918.495	11878
918.606	11775
918.717	11691
918.828	11882
918.939	11798
919.05	11672
919.161	11748
919.272	11665
919.383	11596
919.494	11802
919.604	11916
919.715	11783
919.826	11684
919.936	11672
920.047	11859
920.157	11726
920.267	11916
920.378	11828
920.488	11714
920.598	11885
920.708	11984
920.818	11961
920.928	11920
921.038	12133
921.148	12034
921.258	11726
921.368	11630
921.477	11512
921.587	11615
921.697	11387
921.806	11566
921.916	11528
922.025	11284
922.134	11216
922.244	11166
922.353	11265
922.462	11029
922.571	11128
922.68	10968
922.789	10839
922.898	10858
923.007	10816
923.116	10854
923.224	10885
923.333	10881
923.442	10919
923.55	10725
923.659	10710
923.767	10755
923.876	10660
923.984	10824
924.092	10710
924.201	10729
924.309	10752
924.417	10675
924.525	10675
924.633	10729
924.741	11459
924.849	10409
924.956	10603
925.064	10535
925.172	10314
925.279	10413
925.387	10474
925.494	10466
925.602	10569
925.709	10504
925.816	10386
925.924	10398
926.031	10478
926.138	10451
926.245	10489
926.352	10386
926.459	10512
926.566	10504
926.673	10314
926.779	10246
926.886	10188
926.993	10169
927.099	10116
927.206	10051
927.312	10116
927.419	10181
927.525	10124
927.631	10204
927.737	9983
927.843	9934
927.95	9835
928.056	10040
928.162	9994
928.267	9983
928.373	10656
928.479	10044
928.585	9842
928.69	10032
928.796	9998
928.901	9911
929.007	9800
929.112	9880
929.218	9823
929.323	9778
929.428	9880
929.533	9937
929.638	9698
929.743	9812
929.848	9835
929.953	9789
930.058	9709
930.163	9526
930.267	9500
930.372	9675
930.477	9545
930.581	9686
930.685	9622
930.79	9447
930.894	9431
930.998	9412
931.103	9538
931.207	9253
931.311	9138
931.415	9142
931.519	8918
931.623	8902
