Data from test_V78500241_2648.txt Node
Date: Fri Mar 25 14:52:09 CST 2022
User: usil
Spectrometer: V785-0024
Trigger mode: 0
Integration Time (sec): 4.000000E-1
Scans to average: 1
Nonlinearity correction enabled: false
Boxcar width: 0
Storing dark spectrum: false
XAxis mode: Wavelengths
Number of Pixels in Spectrum: 1024
>>>>>Begin Spectral Data<<<<<
801.071	22036
801.214	21819
801.356	21564
801.499	21641
801.641	21370
801.783	21386
801.926	21378
802.068	21405
802.211	21211
802.353	21070
802.496	20891
802.638	20872
802.78	20834
802.923	20712
803.065	20629
803.208	20727
803.35	20735
803.492	20834
803.635	20811
803.777	20629
803.919	20773
804.061	20982
804.204	20716
804.346	20663
804.488	20541
804.63	20617
804.773	20552
804.915	20583
805.057	20655
805.199	20613
805.341	20552
805.483	20781
805.626	20674
805.768	20632
805.91	20564
806.052	20560
806.194	20507
806.336	20514
806.478	20667
806.62	20632
806.762	20731
806.904	20754
807.046	21051
807.188	20880
807.33	20910
807.472	21013
807.614	20754
807.756	20762
807.898	20606
808.04	20693
808.182	20632
808.324	20735
808.465	20583
808.607	20845
808.749	21013
808.891	20963
809.033	21028
809.174	20933
809.316	20807
809.458	20868
809.6	20956
809.741	20845
809.883	21036
810.025	21074
810.166	21165
810.308	21150
810.45	21036
810.591	20925
810.733	20792
810.875	20629
811.016	20575
811.158	20564
811.299	20872
811.441	20739
811.582	20807
811.724	20686
811.865	20705
812.007	20689
812.148	20632
812.29	20804
812.431	20883
812.573	20956
812.714	21173
812.855	21180
812.997	21363
813.138	21389
813.279	21325
813.421	21146
813.562	21032
813.703	21055
813.845	20902
813.986	20602
814.127	20358
814.268	20366
814.41	20339
814.551	20267
814.692	20351
814.833	20294
814.974	20221
815.115	20195
815.256	20153
815.397	20111
815.539	20100
815.68	19986
815.821	19986
815.962	20065
816.103	19849
816.244	19898
816.385	19780
816.526	19647
816.666	19537
816.807	19362
816.948	19445
817.089	19510
817.23	19514
817.371	19453
817.512	19400
817.653	19362
817.793	19331
817.934	19388
818.075	19407
818.216	19373
818.356	19270
818.497	19114
818.638	19187
818.778	19023
818.919	19046
819.06	19133
819.2	19194
819.341	19335
819.481	19285
819.622	19472
819.762	19559
819.903	19453
820.043	19453
820.184	19343
820.324	19460
820.465	19388
820.605	19445
820.746	19346
820.886	19285
821.026	19335
821.167	19308
821.307	19354
821.447	19324
821.588	19202
821.728	19171
821.868	19088
822.008	18810
822.149	18856
822.289	18924
822.429	18540
822.569	18456
822.709	18334
822.849	18281
822.99	18296
823.13	18235
823.27	18296
823.41	18163
823.55	18003
823.69	18117
823.83	18064
823.97	17969
824.11	17859
824.25	17821
824.389	17984
824.529	17980
824.669	17828
824.809	17939
824.949	17988
825.089	17897
825.228	17912
825.368	17703
825.508	17619
825.648	17680
825.787	17665
825.927	17771
826.067	17665
826.206	17665
826.346	17600
826.485	17748
826.625	17600
826.765	17714
826.904	17699
827.044	17463
827.183	17376
827.323	17258
827.462	17376
827.601	17410
827.741	17318
827.88	17345
828.02	17288
828.159	17353
828.298	17337
828.437	17387
828.577	17383
828.716	17459
828.855	17303
828.994	17052
829.134	17181
829.273	17048
829.412	17022
829.551	17014
829.69	17136
829.829	17109
829.968	17197
830.107	17231
830.246	17166
830.385	17010
830.524	17109
830.663	16961
830.802	16793
830.941	16713
831.08	16664
831.219	16839
831.357	16797
831.496	16911
831.635	16805
831.774	16603
831.913	16577
832.051	16424
832.19	16542
832.329	16451
832.467	16470
832.606	16398
832.744	16421
832.883	16390
833.022	16485
833.16	16466
833.299	16447
833.437	16474
833.576	16424
833.714	16409
833.852	16459
833.991	16618
834.129	16611
834.267	16497
834.406	16470
834.544	16428
834.682	16592
834.821	16386
834.959	16626
835.097	16356
835.235	16626
835.373	16523
835.511	16599
835.65	16341
835.788	16371
835.926	16253
836.064	16147
836.202	16291
836.34	16375
836.478	16466
836.615	16386
836.753	16470
836.891	16512
837.029	16447
837.167	16462
837.305	16344
837.443	16306
837.58	16185
837.718	16344
837.856	16352
837.993	16207
838.131	16352
838.269	16204
838.406	16295
838.544	16067
838.681	15926
838.819	15918
838.956	15800
839.094	15747
839.231	15869
839.369	15972
839.506	16139
839.643	16029
839.781	15956
839.918	15736
840.055	15880
840.193	15827
840.33	15747
840.467	15747
840.604	15865
840.742	16109
840.879	15625
841.016	15717
841.153	15770
841.29	15922
841.427	15884
841.564	15842
841.701	15895
841.838	15774
841.975	15781
842.112	15682
842.249	15610
842.385	15549
842.522	15819
842.659	15618
842.796	15614
842.933	15595
843.069	15576
843.206	15610
843.343	15652
843.479	15599
843.616	15701
843.752	15302
843.889	15336
844.025	15542
844.162	15325
844.298	15591
844.435	15405
844.571	15412
844.708	15424
844.844	15553
844.98	15557
845.117	15450
845.253	15496
845.389	15416
845.525	15340
845.661	15268
845.798	15146
845.934	15252
846.07	15214
846.206	15306
846.342	15313
846.478	15161
846.614	14952
846.75	15005
846.886	15005
847.022	15077
847.158	14918
847.294	15043
847.429	14960
847.565	14963
847.701	15192
847.837	14689
847.972	14705
848.108	14849
848.244	14746
848.379	14655
848.515	14587
848.65	14514
848.786	14663
848.921	14602
849.057	14579
849.192	14731
849.328	14644
849.463	14667
849.598	14457
849.734	14480
849.869	14419
850.004	14336
850.14	14393
850.275	14355
850.41	14271
850.545	14218
850.68	14381
850.815	14446
850.95	14332
851.085	14511
851.22	14457
851.355	14434
851.49	14267
851.625	14404
851.76	14351
851.895	14294
852.03	14225
852.165	14324
852.299	14317
852.434	14366
852.569	14408
852.703	14396
852.838	14492
852.973	14476
853.107	14499
853.242	14362
853.376	14313
853.511	14145
853.645	14202
853.78	14313
853.914	14225
854.048	14218
854.183	14153
854.317	14240
854.451	14206
854.585	14233
854.72	14088
854.854	14336
854.988	14134
855.122	14218
855.256	14138
855.39	14206
855.524	14233
855.658	14275
855.792	14221
855.926	14294
856.06	14313
856.194	14347
856.327	14286
856.461	14180
856.595	14069
856.729	14221
856.862	14313
856.996	14267
857.13	14286
857.263	14385
857.397	14263
857.53	14142
857.664	14271
857.797	14317
857.931	14317
858.064	14294
858.197	14320
858.331	14187
858.464	14115
858.597	14100
858.731	14176
858.864	14225
858.997	14187
859.13	14225
859.263	14149
859.396	14313
859.529	14157
859.662	14081
859.795	14191
859.928	14309
860.061	14400
860.194	14370
860.327	14225
860.46	14282
860.592	14305
860.725	14313
860.858	14267
860.99	14145
861.123	14157
861.256	14050
861.388	14336
861.521	14819
861.653	14103
861.786	14035
861.918	14157
862.05	14172
862.183	14126
862.315	14259
862.447	14248
862.58	14229
862.712	13963
862.844	13967
862.976	14062
863.108	14039
863.24	14473
863.372	13822
863.504	14027
863.636	14046
863.768	14126
863.9	14027
864.032	13986
864.164	13913
864.296	14039
864.428	14130
864.559	14142
864.691	14031
864.823	14111
864.954	14062
865.086	13993
865.217	13936
865.349	13925
865.48	14005
865.612	14050
865.743	14183
865.875	13936
866.006	13917
866.137	14054
866.269	13967
866.4	14046
866.531	13978
866.662	13909
866.793	13967
866.924	13951
867.055	13997
867.186	13947
867.317	13906
867.448	13932
867.579	13894
867.71	13879
867.841	13982
867.972	13993
868.103	13932
868.233	13879
868.364	14043
868.495	14039
868.625	14244
868.756	14301
868.886	14210
869.017	14199
869.147	14324
869.278	14252
869.408	14206
869.539	14259
869.669	14374
869.799	14183
869.929	14324
870.06	14343
870.19	14583
870.32	14560
870.45	14636
870.58	14670
870.71	14807
870.84	14762
870.97	14590
871.1	14552
871.23	14777
871.36	14849
871.489	14727
871.619	14777
871.749	14804
871.879	14838
872.008	15043
872.138	14849
872.267	14796
872.397	14830
872.526	14621
872.656	14575
872.785	14598
872.915	14868
873.044	15013
873.173	14921
873.303	14975
873.432	14902
873.561	14895
873.69	14906
873.819	14861
873.948	14975
874.077	14994
874.206	14834
874.335	14872
874.464	14994
874.593	15112
874.722	15161
874.851	15195
874.979	15222
875.108	15256
875.237	15222
875.365	15207
875.494	15203
875.623	15154
875.751	15199
875.88	15279
876.008	15329
876.136	15370
876.265	15641
876.393	15736
876.521	15747
876.65	15667
876.778	15686
876.906	15534
877.034	15591
877.162	15580
877.29	15568
877.418	15660
877.546	15587
877.674	15584
877.802	15637
877.93	15637
878.058	15644
878.185	15488
878.313	15671
878.441	15652
878.568	15485
878.696	15568
878.824	15614
878.951	15660
879.079	15819
879.206	15918
879.333	15899
879.461	15610
879.588	15690
879.715	15816
879.842	15816
879.97	15720
880.097	15416
880.224	15477
880.351	15504
880.478	15507
880.605	15370
880.732	15370
880.859	15557
880.986	15500
881.112	15477
881.239	15389
881.366	15317
881.493	15207
881.619	15173
881.746	15161
881.872	15093
881.999	15207
882.125	15089
882.252	15207
882.378	15161
882.505	15256
882.631	15089
882.757	14834
882.883	14880
883.01	14937
883.136	14906
883.262	14781
883.388	14804
883.514	14994
883.64	15009
883.766	14963
883.892	14743
884.018	14941
884.143	15001
884.269	15043
884.395	14621
884.52	14625
884.646	14697
884.772	14549
884.897	14617
885.023	14739
885.148	14746
885.274	14895
885.399	14739
885.524	14663
885.65	14663
885.775	14750
885.9	14731
886.025	14769
886.15	14689
886.275	14552
886.4	14571
886.525	14621
886.65	14492
886.775	14602
886.9	14800
887.025	14872
887.149	14689
887.274	14564
887.399	14423
887.523	14404
887.648	14427
887.773	14396
887.897	14450
888.021	14564
888.146	14533
888.27	14568
888.395	14575
888.519	14514
888.643	14461
888.767	14552
888.891	14408
889.015	14275
889.139	14355
889.263	14370
889.387	14511
889.511	14518
889.635	14476
889.759	14324
889.883	14343
890.006	14275
890.13	14457
890.254	14275
890.377	14301
890.501	14103
890.624	14126
890.748	14237
890.871	14225
890.995	13909
891.118	13993
891.241	13997
891.364	14107
891.488	14206
891.611	13989
891.734	14043
891.857	14027
891.98	14050
892.103	14027
892.226	14012
892.349	13864
892.471	13913
892.594	14077
892.717	14088
892.839	14024
892.962	14054
893.085	14149
893.207	14050
893.33	13936
893.452	13974
893.575	14149
893.697	14027
893.819	14164
893.941	14309
894.064	14138
894.186	13978
894.308	14046
894.43	14195
894.552	14244
894.674	14134
894.796	13917
894.918	14145
895.04	14062
895.161	14126
895.283	14180
895.405	14050
895.526	14084
895.648	14214
895.769	14225
895.891	14195
896.012	14263
896.134	14309
896.255	14172
896.376	14157
896.498	14168
896.619	14313
896.74	14267
896.861	14229
896.982	14621
897.103	14743
897.224	14526
897.345	14545
897.466	14415
897.587	14465
897.708	14560
897.828	14480
897.949	14492
898.07	14328
898.19	14400
898.311	14568
898.431	14541
898.552	14583
898.672	14625
898.792	14648
898.913	14697
899.033	14518
899.153	14393
899.273	14389
899.393	14419
899.513	14423
899.633	14473
899.753	14374
899.873	14374
899.993	14389
900.113	14328
900.232	14393
900.352	14427
900.472	14339
900.591	14145
900.711	14214
900.83	14164
900.95	14324
901.069	14358
901.189	14229
901.308	14031
901.427	13944
901.546	13879
901.665	13925
901.784	14039
901.904	13799
902.023	13753
902.141	13628
902.26	13567
902.379	13594
902.498	13586
902.617	13499
902.735	13567
902.854	13571
902.973	13487
903.091	13194
903.21	13263
903.328	13289
903.446	13274
903.565	13088
903.683	13198
903.801	12981
903.919	13122
904.038	13145
904.156	12939
904.274	12947
904.392	12890
904.51	12871
904.627	12947
904.745	13015
904.863	13076
904.981	12760
905.098	12597
905.216	12616
905.334	12684
905.451	12715
905.569	12608
905.686	12700
905.803	12589
905.921	12532
906.038	12597
906.155	12445
906.272	12361
906.389	12369
906.506	12152
906.623	12289
906.74	12243
906.857	12167
906.974	12129
907.091	12308
907.208	12384
907.324	12182
907.441	12190
907.557	12083
907.674	12030
907.79	11958
907.907	11984
908.023	12007
908.139	11927
908.256	11950
908.372	11908
908.488	11824
908.604	11878
908.72	11680
908.836	11680
908.952	11756
909.068	11779
909.184	11836
909.3	11756
909.415	11824
909.531	11821
909.647	11589
909.762	11566
909.878	11444
909.993	11528
910.108	11493
910.224	11524
910.339	11562
910.454	11421
910.57	11410
910.685	11322
910.8	11608
910.915	11516
911.03	11417
911.145	11220
911.259	11265
911.374	11235
911.489	11140
911.604	11136
911.718	10987
911.833	10984
911.947	10900
912.062	10877
912.176	10987
912.291	10961
912.405	10999
912.519	11242
912.633	11216
912.748	11006
912.862	11052
912.976	10885
913.09	10831
913.204	10869
913.318	10854
913.431	10854
913.545	10923
913.659	10915
913.772	10873
913.886	10771
914	10740
914.113	10782
914.226	10900
914.34	10793
914.453	10694
914.566	10835
914.68	10656
914.793	10675
914.906	10519
915.019	10447
915.132	10409
915.245	10485
915.358	10440
915.47	10436
915.583	10523
915.696	10535
915.809	10584
915.921	10653
916.034	10516
916.146	10436
916.259	10440
916.371	10558
916.483	10535
916.595	10478
916.708	10390
916.82	10478
916.932	10382
917.044	10363
917.156	10428
917.268	10325
917.38	10280
917.491	10268
917.603	10371
917.715	10432
917.826	10417
917.938	10337
918.049	10207
918.161	10394
918.272	10436
918.384	10421
918.495	10337
918.606	10230
918.717	10112
918.828	10211
918.939	10322
919.05	10128
919.161	10166
919.272	9949
919.383	10059
919.494	10207
919.604	10409
919.715	10234
919.826	10139
919.936	10219
920.047	10337
920.157	10185
920.267	10436
920.378	10253
920.488	10253
920.598	10432
920.708	10580
920.818	10386
920.928	10443
921.038	10558
921.148	10565
921.258	10249
921.368	10162
921.477	10135
921.587	10105
921.697	9964
921.806	10067
921.916	9987
922.025	9835
922.134	9808
922.244	9728
922.353	9781
922.462	9663
922.571	9644
922.68	9447
922.789	9469
922.898	9496
923.007	9405
923.116	9519
923.224	9424
923.333	9397
923.442	9340
923.55	9317
923.659	9428
923.767	9447
923.876	9260
923.984	9344
924.092	9283
924.201	9336
924.309	9332
924.417	9332
924.525	9287
924.633	9351
924.741	10105
924.849	9108
924.956	9249
925.064	9104
925.172	9039
925.279	9123
925.387	9119
925.494	9123
925.602	9291
925.709	9180
925.816	9112
925.924	9165
926.031	9192
926.138	9100
926.245	9138
926.352	9116
926.459	9199
926.566	9192
926.673	9085
926.779	8967
926.886	9013
926.993	8842
927.099	8815
927.206	8792
927.312	8777
927.419	8891
927.525	8766
927.631	8918
927.737	8731
927.843	8754
927.95	8610
928.056	8708
928.162	8655
928.267	8864
928.373	9363
928.479	8838
928.585	8579
928.69	8727
928.796	8792
928.901	8644
929.007	8495
929.112	8598
929.218	8610
929.323	8583
929.428	8560
929.533	8746
929.638	8469
929.743	8514
929.848	8556
929.953	8484
930.058	8469
930.163	8305
930.267	8362
930.372	8473
930.477	8298
930.581	8610
930.685	8393
930.79	8256
930.894	8301
930.998	8309
931.103	8427
931.207	8077
931.311	8005
931.415	7963
931.519	7769
931.623	7734
