Data from test_V78500241_1311.txt Node
Date: Fri Mar 25 14:42:50 CST 2022
User: usil
Spectrometer: V785-0024
Trigger mode: 0
Integration Time (sec): 4.000000E-1
Scans to average: 1
Nonlinearity correction enabled: false
Boxcar width: 0
Storing dark spectrum: false
XAxis mode: Wavelengths
Number of Pixels in Spectrum: 1024
>>>>>Begin Spectral Data<<<<<
801.071	22329
801.214	22322
801.356	21994
801.499	21987
801.641	21793
801.783	21713
801.926	21728
802.068	21671
802.211	21618
802.353	21485
802.496	21298
802.638	21192
802.78	21252
802.923	21127
803.065	20967
803.208	20963
803.35	20979
803.492	21169
803.635	21211
803.777	21085
803.919	21256
804.061	21408
804.204	21146
804.346	20975
804.488	20952
804.63	21017
804.773	20990
804.915	21077
805.057	21131
805.199	20944
805.341	21047
805.483	21017
805.626	21070
805.768	20971
805.91	21028
806.052	21055
806.194	20883
806.336	21108
806.478	20986
806.62	20944
806.762	21142
806.904	21268
807.046	21397
807.188	21321
807.33	21382
807.472	21405
807.614	21264
807.756	21272
807.898	21222
808.04	21066
808.182	21184
808.324	21180
808.465	21351
808.607	21485
808.749	21553
808.891	21717
809.033	21690
809.174	21709
809.316	21538
809.458	21488
809.6	21526
809.741	21526
809.883	21530
810.025	21606
810.166	21633
810.308	21557
810.45	21538
810.591	21443
810.733	21348
810.875	21287
811.016	21230
811.158	21188
811.299	21287
811.441	21359
811.582	21405
811.724	21264
811.865	21058
812.007	21093
812.148	21310
812.29	21192
812.431	21386
812.573	21545
812.714	21599
812.855	21633
812.997	21701
813.138	21804
813.279	21743
813.421	21675
813.562	21568
813.703	21477
813.845	21439
813.986	21089
814.127	20986
814.268	20739
814.41	20842
814.551	20792
814.692	20819
814.833	20727
814.974	20636
815.115	20762
815.256	20579
815.397	20651
815.539	20636
815.68	20511
815.821	20476
815.962	20636
816.103	20514
816.244	20374
816.385	20248
816.526	20210
816.666	20077
816.807	20001
816.948	19921
817.089	19989
817.23	19989
817.371	19963
817.512	19826
817.653	19852
817.793	19826
817.934	19906
818.075	19860
818.216	19936
818.356	19833
818.497	19677
818.638	19594
818.778	19670
818.919	19571
819.06	19639
819.2	19799
819.341	19784
819.481	19769
819.622	19883
819.762	20016
819.903	19970
820.043	19936
820.184	19909
820.324	19879
820.465	19932
820.605	19955
820.746	19909
820.886	19700
821.026	19868
821.167	19837
821.307	19909
821.447	19811
821.588	19632
821.728	19613
821.868	19449
822.008	19221
822.149	19240
822.289	19190
822.429	19046
822.569	18981
822.709	18909
822.849	18810
822.99	18810
823.13	18753
823.27	18745
823.41	18547
823.55	18456
823.69	18631
823.83	18612
823.97	18399
824.11	18308
824.25	18254
824.389	18350
824.529	18433
824.669	18399
824.809	18433
824.949	18433
825.089	18448
825.228	18517
825.368	18201
825.508	18152
825.648	18155
825.787	18060
825.927	18235
826.067	18076
826.206	18064
826.346	18213
826.485	18273
826.625	18030
826.765	18254
826.904	18129
827.044	17802
827.183	17847
827.323	17794
827.462	17916
827.601	17851
827.741	17821
827.88	17870
828.02	17672
828.159	17771
828.298	17836
828.437	17813
828.577	17836
828.716	17927
828.855	17813
828.994	17619
829.134	17570
829.273	17634
829.412	17653
829.551	17528
829.69	17592
829.829	17684
829.968	17627
830.107	17703
830.246	17657
830.385	17634
830.524	17455
830.663	17349
830.802	17299
830.941	17109
831.08	17143
831.219	17246
831.357	17204
831.496	17440
831.635	17208
831.774	17060
831.913	17071
832.051	17006
832.19	16854
832.329	17109
832.467	17025
832.606	16968
832.744	16896
832.883	16919
833.022	16957
833.16	16961
833.299	17006
833.437	16911
833.576	16869
833.714	16908
833.852	16984
833.991	17010
834.129	17006
834.267	17033
834.406	16915
834.544	17037
834.682	16934
834.821	16904
834.959	17185
835.097	16911
835.235	17060
835.373	16904
835.511	17075
835.65	16786
835.788	16889
835.926	16740
836.064	16672
836.202	16733
836.34	16744
836.478	16991
836.615	16896
836.753	16835
836.891	16866
837.029	16900
837.167	16881
837.305	16729
837.443	16744
837.58	16752
837.718	16858
837.856	16755
837.993	16752
838.131	16664
838.269	16672
838.406	16740
838.544	16577
838.681	16371
838.819	16405
838.956	16257
839.094	16238
839.231	16402
839.369	16470
839.506	16588
839.643	16531
839.781	16147
839.918	16246
840.055	16246
840.193	16325
840.33	16318
840.467	16242
840.604	16379
840.742	16485
840.879	16139
841.016	16207
841.153	16177
841.29	16337
841.427	16341
841.564	16261
841.701	16382
841.838	16188
841.975	16143
842.112	16204
842.249	16097
842.385	15994
842.522	16150
842.659	16032
842.796	15991
842.933	16048
843.069	15911
843.206	15937
843.343	16090
843.479	16086
843.616	16162
843.752	15895
843.889	15831
844.025	15994
844.162	15842
844.298	15899
844.435	15892
844.571	15816
844.708	15915
844.844	15987
844.98	16006
845.117	15884
845.253	15846
845.389	15793
845.525	15816
845.661	15922
845.798	15701
845.934	15968
846.07	15804
846.206	15964
846.342	16006
846.478	15766
846.614	15530
846.75	15561
846.886	15481
847.022	15485
847.158	15382
847.294	15420
847.429	15397
847.565	15382
847.701	15701
847.837	15165
847.972	15142
848.108	15264
848.244	15218
848.379	15051
848.515	14952
848.65	14948
848.786	14963
848.921	15055
849.057	15097
849.192	15135
849.328	15074
849.463	15009
849.598	14975
849.734	14910
849.869	14796
850.004	14788
850.14	14830
850.275	14819
850.41	14644
850.545	14750
850.68	14720
850.815	14796
850.95	14743
851.085	14899
851.22	14792
851.355	14724
851.49	14716
851.625	14705
851.76	14800
851.895	14682
852.03	14667
852.165	14686
852.299	14800
852.434	14933
852.569	14697
852.703	14853
852.838	14906
852.973	14982
853.107	14910
853.242	14720
853.376	14587
853.511	14617
853.645	14606
853.78	14731
853.914	14644
854.048	14518
854.183	14598
854.317	14674
854.451	14735
854.585	14587
854.72	14556
854.854	14758
854.988	14590
855.122	14560
855.256	14404
855.39	14613
855.524	14693
855.658	14712
855.792	14663
855.926	14705
856.06	14682
856.194	14701
856.327	14571
856.461	14606
856.595	14568
856.729	14686
856.862	14735
856.996	14621
857.13	14686
857.263	14811
857.397	14785
857.53	14606
857.664	14731
857.797	14648
857.931	14769
858.064	14606
858.197	14773
858.331	14651
858.464	14537
858.597	14625
858.731	14625
858.864	14617
858.997	14674
859.13	14621
859.263	14724
859.396	14769
859.529	14537
859.662	14598
859.795	14530
859.928	14610
860.061	14689
860.194	14765
860.327	14659
860.46	14590
860.592	14735
860.725	14762
860.858	14750
860.99	14613
861.123	14552
861.256	14648
861.388	14697
861.521	15412
861.653	14606
861.786	14457
861.918	14533
862.05	14621
862.183	14571
862.315	14579
862.447	14716
862.58	14545
862.712	14385
862.844	14427
862.976	14484
863.108	14545
863.24	14887
863.372	14366
863.504	14423
863.636	14332
863.768	14381
863.9	14355
864.032	14305
864.164	14400
864.296	14427
864.428	14507
864.559	14594
864.691	14537
864.823	14396
864.954	14415
865.086	14564
865.217	14305
865.349	14275
865.48	14396
865.612	14381
865.743	14575
865.875	14339
866.006	14465
866.137	14400
866.269	14339
866.4	14377
866.531	14336
866.662	14298
866.793	14275
866.924	14370
867.055	14434
867.186	14328
867.317	14404
867.448	14339
867.579	14298
867.71	14221
867.841	14362
867.972	14374
868.103	14324
868.233	14442
868.364	14431
868.495	14374
868.625	14571
868.756	14659
868.886	14556
869.017	14511
869.147	14644
869.278	14819
869.408	14613
869.539	14587
869.669	14636
869.799	14571
869.929	14830
870.06	14754
870.19	14937
870.32	14891
870.45	14963
870.58	15085
870.71	15192
870.84	15180
870.97	15100
871.1	15043
871.23	15207
871.36	15340
871.489	15127
871.619	15127
871.749	15218
871.879	15245
872.008	15256
872.138	15291
872.267	15325
872.397	15116
872.526	15077
872.656	15081
872.785	15032
872.915	15230
873.044	15393
873.173	15192
873.303	15321
873.432	15310
873.561	15325
873.69	15256
873.819	15275
873.948	15351
874.077	15252
874.206	15192
874.335	15260
874.464	15416
874.593	15511
874.722	15469
874.851	15538
874.979	15656
875.108	15641
875.237	15595
875.365	15492
875.494	15469
875.623	15679
875.751	15614
875.88	15739
876.008	15724
876.136	15789
876.265	15956
876.393	16147
876.521	16147
876.65	16017
876.778	16040
876.906	15930
877.034	15926
877.162	15983
877.29	15899
877.418	16112
877.546	15964
877.674	15960
877.802	16040
877.93	15983
878.058	15949
878.185	15854
878.313	15945
878.441	15884
878.568	15857
878.696	15975
878.824	16074
878.951	16158
879.079	16181
879.206	16386
879.333	16276
879.461	16215
879.588	16188
879.715	16287
879.842	16375
879.97	16109
880.097	15918
880.224	15926
880.351	15903
880.478	15968
880.605	15880
880.732	15759
880.859	16040
880.986	15865
881.112	16048
881.239	15846
881.366	15720
881.493	15595
881.619	15572
881.746	15652
881.872	15534
881.999	15561
882.125	15500
882.252	15580
882.378	15492
882.505	15781
882.631	15504
882.757	15336
882.883	15321
883.01	15359
883.136	15218
883.262	15199
883.388	15184
883.514	15321
883.64	15545
883.766	15226
883.892	15165
884.018	15203
884.143	15420
884.269	15428
884.395	15146
884.52	14948
884.646	15131
884.772	14929
884.897	14963
885.023	15150
885.148	15085
885.274	15279
885.399	15230
885.524	15097
885.65	15039
885.775	15085
885.9	14941
886.025	15203
886.15	15062
886.275	15100
886.4	14986
886.525	15032
886.65	14929
886.775	15062
886.9	15146
887.025	15230
887.149	15062
887.274	14857
887.399	14815
887.523	14807
887.648	14838
887.773	14750
887.897	14971
888.021	14982
888.146	14823
888.27	14929
888.395	15051
888.519	14933
888.643	14906
888.767	14921
888.891	14853
889.015	14651
889.139	14746
889.263	14655
889.387	14800
889.511	14914
889.635	14857
889.759	14663
889.883	14765
890.006	14773
890.13	14769
890.254	14621
890.377	14644
890.501	14438
890.624	14374
890.748	14606
890.871	14514
890.995	14339
891.118	14275
891.241	14488
891.364	14393
891.488	14552
891.611	14431
891.734	14465
891.857	14457
891.98	14438
892.103	14473
892.226	14488
892.349	14495
892.471	14225
892.594	14412
892.717	14438
892.839	14324
892.962	14347
893.085	14541
893.207	14404
893.33	14301
893.452	14370
893.575	14415
893.697	14370
893.819	14587
893.941	14473
894.064	14587
894.186	14366
894.308	14324
894.43	14541
894.552	14629
894.674	14492
894.796	14381
894.918	14434
895.04	14461
895.161	14568
895.283	14537
895.405	14389
895.526	14533
895.648	14476
895.769	14514
895.891	14594
896.012	14644
896.134	14575
896.255	14617
896.376	14526
896.498	14613
896.619	14621
896.74	14499
896.861	14594
896.982	14883
897.103	15112
897.224	14891
897.345	14849
897.466	14724
897.587	14857
897.708	14963
897.828	14880
897.949	14743
898.07	14720
898.19	14781
898.311	14929
898.431	14834
898.552	14937
898.672	14937
898.792	15005
898.913	15036
899.033	14735
899.153	14815
899.273	14735
899.393	14651
899.513	14674
899.633	14693
899.753	14640
899.873	14651
899.993	14792
900.113	14716
900.232	14800
900.352	14708
900.472	14674
900.591	14625
900.711	14670
900.83	14644
900.95	14678
901.069	14739
901.189	14522
901.308	14301
901.427	14218
901.546	14336
901.665	14358
901.784	14278
901.904	14081
902.023	14180
902.141	13993
902.26	13803
902.379	13940
902.498	13837
902.617	13776
902.735	13852
902.854	13852
902.973	13761
903.091	13556
903.21	13578
903.328	13594
903.446	13525
903.565	13491
903.683	13426
903.801	13251
903.919	13346
904.038	13407
904.156	13190
904.274	13324
904.392	13168
904.51	13221
904.627	13206
904.745	13304
904.863	13217
904.981	13023
905.098	12897
905.216	12848
905.334	12935
905.451	12939
905.569	12897
905.686	12958
905.803	12989
905.921	12802
906.038	12852
906.155	12764
906.272	12620
906.389	12696
906.506	12486
906.623	12471
906.74	12395
906.857	12498
906.974	12502
907.091	12601
907.208	12555
907.324	12521
907.441	12410
907.557	12167
907.674	12285
907.79	12140
907.907	12270
908.023	12289
908.139	12178
908.256	12228
908.372	12083
908.488	12171
908.604	12041
908.72	11969
908.836	11999
908.952	11935
909.068	11935
909.184	12060
909.3	12038
909.415	12076
909.531	11931
909.647	11737
909.762	11824
909.878	11805
909.993	11813
910.108	11672
910.224	11775
910.339	11760
910.454	11695
910.57	11554
910.685	11524
910.8	11828
910.915	11771
911.03	11585
911.145	11501
911.259	11440
911.374	11433
911.489	11311
911.604	11395
911.718	11231
911.833	11193
911.947	11162
912.062	11083
912.176	11265
912.291	11235
912.405	11212
912.519	11395
912.633	11448
912.748	11220
912.862	11220
912.976	11102
913.09	10938
913.204	11071
913.318	11109
913.431	11143
913.545	11128
913.659	11193
913.772	11162
913.886	10995
914	10896
914.113	11003
914.226	11094
914.34	11014
914.453	10854
914.566	10999
914.68	10946
914.793	10858
914.906	10710
915.019	10740
915.132	10618
915.245	10687
915.358	10828
915.47	10714
915.583	10717
915.696	10740
915.809	10843
915.921	10873
916.034	10656
916.146	10698
916.259	10607
916.371	10771
916.483	10717
916.595	10622
916.708	10630
916.82	10672
916.932	10611
917.044	10683
917.156	10531
917.268	10455
917.38	10497
917.491	10580
917.603	10546
917.715	10668
917.826	10592
917.938	10580
918.049	10432
918.161	10462
918.272	10706
918.384	10618
918.495	10550
918.606	10375
918.717	10390
918.828	10371
918.939	10470
919.05	10322
919.161	10398
919.272	10234
919.383	10181
919.494	10462
919.604	10656
919.715	10478
919.826	10398
919.936	10447
920.047	10523
920.157	10470
920.267	10618
920.378	10451
920.488	10424
920.598	10634
920.708	10736
920.818	10603
920.928	10592
921.038	10748
921.148	10797
921.258	10493
921.368	10478
921.477	10295
921.587	10344
921.697	10280
921.806	10325
921.916	10223
922.025	10101
922.134	10029
922.244	9968
922.353	10032
922.462	9926
922.571	9808
922.68	9732
922.789	9705
922.898	9740
923.007	9656
923.116	9732
923.224	9747
923.333	9656
923.442	9507
923.55	9568
923.659	9580
923.767	9740
923.876	9496
923.984	9698
924.092	9511
924.201	9526
924.309	9538
924.417	9610
924.525	9526
924.633	9557
924.741	10443
924.849	9389
924.956	9492
925.064	9408
925.172	9256
925.279	9306
925.387	9412
925.494	9340
925.602	9519
925.709	9469
925.816	9256
925.924	9344
926.031	9408
926.138	9351
926.245	9363
926.352	9222
926.459	9386
926.566	9408
926.673	9298
926.779	9253
926.886	9184
926.993	9005
927.099	9020
927.206	8998
927.312	8937
927.419	9062
927.525	9066
927.631	9150
927.737	9001
927.843	8899
927.95	8807
928.056	8902
928.162	8944
928.267	8891
928.373	9603
928.479	9017
928.585	8815
928.69	8921
928.796	8956
928.901	8887
929.007	8712
929.112	8948
929.218	8838
929.323	8750
929.428	8708
929.533	8910
929.638	8689
929.743	8731
929.848	8807
929.953	8689
930.058	8674
930.163	8514
930.267	8549
930.372	8670
930.477	8530
930.581	8731
930.685	8564
930.79	8400
930.894	8514
930.998	8457
931.103	8644
931.207	8332
931.311	8199
931.415	8096
931.519	7936
931.623	7978
