Data from test_V78500241_3689.txt Node
Date: Fri Mar 25 14:59:24 CST 2022
User: usil
Spectrometer: V785-0024
Trigger mode: 0
Integration Time (sec): 4.000000E-1
Scans to average: 1
Nonlinearity correction enabled: false
Boxcar width: 0
Storing dark spectrum: false
XAxis mode: Wavelengths
Number of Pixels in Spectrum: 1024
>>>>>Begin Spectral Data<<<<<
801.071	21884
801.214	21766
801.356	21542
801.499	21496
801.641	21230
801.783	21245
801.926	21386
802.068	21154
802.211	21146
802.353	21020
802.496	20872
802.638	20678
802.78	20655
802.923	20648
803.065	20644
803.208	20556
803.35	20697
803.492	20864
803.635	20724
803.777	20568
803.919	20655
804.061	20826
804.204	20670
804.346	20545
804.488	20393
804.63	20587
804.773	20408
804.915	20549
805.057	20549
805.199	20518
805.341	20545
805.483	20674
805.626	20564
805.768	20495
805.91	20461
806.052	20545
806.194	20389
806.336	20556
806.478	20545
806.62	20385
806.762	20533
806.904	20754
807.046	20933
807.188	20788
807.33	20720
807.472	20838
807.614	20648
807.756	20712
807.898	20663
808.04	20556
808.182	20571
808.324	20450
808.465	20636
808.607	20746
808.749	20842
808.891	20906
809.033	21017
809.174	20906
809.316	20788
809.458	20777
809.6	20739
809.741	20838
809.883	20845
810.025	20967
810.166	21051
810.308	20967
810.45	20929
810.591	20937
810.733	20579
810.875	20613
811.016	20488
811.158	20442
811.299	20583
811.441	20785
811.582	20727
811.724	20655
811.865	20575
812.007	20705
812.148	20606
812.29	20670
812.431	20750
812.573	20914
812.714	20975
812.855	21222
812.997	21108
813.138	21306
813.279	21249
813.421	21081
813.562	21051
813.703	20777
813.845	20800
813.986	20488
814.127	20339
814.268	20172
814.41	20001
814.551	20252
814.692	20298
814.833	20191
814.974	20020
815.115	20103
815.256	20020
815.397	19967
815.539	20016
815.68	19944
815.821	19803
815.962	19913
816.103	19780
816.244	19746
816.385	19681
816.526	19624
816.666	19430
816.807	19388
816.948	19350
817.089	19373
817.23	19293
817.371	19236
817.512	19244
817.653	19228
817.793	19133
817.934	19365
818.075	19297
818.216	19244
818.356	19160
818.497	19050
818.638	18920
818.778	19034
818.919	19019
819.06	18859
819.2	19129
819.341	19198
819.481	19148
819.622	19320
819.762	19521
819.903	19354
820.043	19312
820.184	19388
820.324	19339
820.465	19274
820.605	19282
820.746	19133
820.886	19004
821.026	19285
821.167	19091
821.307	19244
821.447	19179
821.588	19137
821.728	19004
821.868	18844
822.008	18757
822.149	18757
822.289	18692
822.429	18464
822.569	18311
822.709	18388
822.849	18072
822.99	18159
823.13	18163
823.27	18235
823.41	17977
823.55	17885
823.69	18038
823.83	18053
823.97	17965
824.11	17798
824.25	17695
824.389	17691
824.529	17882
824.669	17699
824.809	17813
824.949	17756
825.089	17912
825.228	17672
825.368	17585
825.508	17547
825.648	17623
825.787	17455
825.927	17501
826.067	17482
826.206	17497
826.346	17623
826.485	17444
826.625	17566
826.765	17649
826.904	17589
827.044	17372
827.183	17356
827.323	17258
827.462	17334
827.601	17223
827.741	17155
827.88	17318
828.02	17109
828.159	17239
828.298	17181
828.437	17463
828.577	17147
828.716	17315
828.855	17147
828.994	16908
829.134	16934
829.273	17098
829.412	16968
829.551	17025
829.69	16987
829.829	17033
829.968	17064
830.107	17064
830.246	16949
830.385	16942
830.524	16824
830.663	16748
830.802	16717
830.941	16561
831.08	16660
831.219	16713
831.357	16668
831.496	16869
831.635	16675
831.774	16478
831.913	16440
832.051	16443
832.19	16402
832.329	16500
832.467	16280
832.606	16344
832.744	16261
832.883	16333
833.022	16306
833.16	16325
833.299	16363
833.437	16310
833.576	16409
833.714	16356
833.852	16367
833.991	16436
834.129	16470
834.267	16417
834.406	16291
834.544	16489
834.682	16402
834.821	16295
834.959	16531
835.097	16246
835.235	16398
835.373	16451
835.511	16371
835.65	16211
835.788	16272
835.926	16120
836.064	16036
836.202	16173
836.34	16322
836.478	16451
836.615	16291
836.753	16352
836.891	16337
837.029	16337
837.167	16200
837.305	16234
837.443	16253
837.58	16074
837.718	16276
837.856	16230
837.993	16147
838.131	16143
838.269	16059
838.406	16124
838.544	16002
838.681	15808
838.819	15899
838.956	15743
839.094	15778
839.231	15766
839.369	15941
839.506	16173
839.643	16002
839.781	15690
839.918	15641
840.055	15671
840.193	15747
840.33	15720
840.467	15732
840.604	15808
840.742	16036
840.879	15534
841.016	15625
841.153	15698
841.29	15770
841.427	15816
841.564	15797
841.701	15759
841.838	15641
841.975	15614
842.112	15660
842.249	15526
842.385	15504
842.522	15789
842.659	15572
842.796	15507
842.933	15534
843.069	15553
843.206	15557
843.343	15606
843.479	15515
843.616	15572
843.752	15374
843.889	15332
844.025	15401
844.162	15367
844.298	15496
844.435	15405
844.571	15283
844.708	15378
844.844	15507
844.98	15435
845.117	15469
845.253	15317
845.389	15252
845.525	15264
845.661	15264
845.798	15173
845.934	15199
846.07	15127
846.206	15226
846.342	15165
846.478	15142
846.614	14910
846.75	14868
846.886	14853
847.022	14906
847.158	14872
847.294	14902
847.429	14929
847.565	14895
847.701	15119
847.837	14697
847.972	14621
848.108	14708
848.244	14762
848.379	14511
848.515	14507
848.65	14533
848.786	14526
848.921	14476
849.057	14556
849.192	14594
849.328	14438
849.463	14442
849.598	14514
849.734	14400
849.869	14336
850.004	14275
850.14	14271
850.275	14320
850.41	14263
850.545	14183
850.68	14168
850.815	14237
850.95	14218
851.085	14522
851.22	14271
851.355	14221
851.49	14237
851.625	14161
851.76	14168
851.895	14214
852.03	14103
852.165	14123
852.299	14347
852.434	14381
852.569	14317
852.703	14248
852.838	14320
852.973	14336
853.107	14412
853.242	14199
853.376	14126
853.511	14035
853.645	14111
853.78	14328
853.914	14225
854.048	14176
854.183	14062
854.317	14145
854.451	14267
854.585	14123
854.72	14088
854.854	14305
854.988	14020
855.122	14111
855.256	14107
855.39	14107
855.524	14164
855.658	14138
855.792	14088
855.926	14259
856.06	14153
856.194	14244
856.327	14153
856.461	14069
856.595	14065
856.729	14161
856.862	14233
856.996	14153
857.13	14221
857.263	14187
857.397	14225
857.53	14134
857.664	14248
857.797	14191
857.931	14229
858.064	14218
858.197	14183
858.331	14225
858.464	14157
858.597	14069
858.731	14092
858.864	14183
858.997	14065
859.13	14199
859.263	14195
859.396	14187
859.529	14050
859.662	14065
859.795	14123
859.928	14161
860.061	14309
860.194	14244
860.327	14191
860.46	14119
860.592	14225
860.725	14263
860.858	14267
860.99	14191
861.123	13944
861.256	14046
861.388	14191
861.521	14834
861.653	14058
861.786	13959
861.918	13967
862.05	14073
862.183	14092
862.315	14046
862.447	14138
862.58	14050
862.712	13947
862.844	13925
862.976	13974
863.108	13993
863.24	14431
863.372	13826
863.504	13959
863.636	13879
863.768	13970
863.9	13913
864.032	13849
864.164	13849
864.296	13955
864.428	14005
864.559	13997
864.691	14065
864.823	13921
864.954	14012
865.086	13887
865.217	13841
865.349	13906
865.48	13917
865.612	13970
865.743	14024
865.875	13921
866.006	13917
866.137	13917
866.269	13936
866.4	13871
866.531	13921
866.662	13807
866.793	13811
866.924	13864
867.055	13947
867.186	13826
867.317	13814
867.448	13757
867.579	13799
867.71	13856
867.841	13799
867.972	13974
868.103	14043
868.233	13906
868.364	13894
868.495	13944
868.625	14202
868.756	14256
868.886	14107
869.017	13993
869.147	14233
869.278	14290
869.408	14157
869.539	14172
869.669	14168
869.799	14168
869.929	14237
870.06	14256
870.19	14480
870.32	14446
870.45	14446
870.58	14526
870.71	14697
870.84	14701
870.97	14537
871.1	14590
871.23	14746
871.36	14800
871.489	14575
871.619	14781
871.749	14804
871.879	14788
872.008	14891
872.138	14750
872.267	14720
872.397	14712
872.526	14568
872.656	14587
872.785	14575
872.915	14910
873.044	14918
873.173	14739
873.303	14830
873.432	14781
873.561	14895
873.69	14735
873.819	14792
873.948	14914
874.077	14724
874.206	14804
874.335	14788
874.464	14982
874.593	15154
874.722	15108
874.851	15097
874.979	15135
875.108	15123
875.237	14986
875.365	14982
875.494	15055
875.623	15226
875.751	15226
875.88	15176
876.008	15211
876.136	15374
876.265	15652
876.393	15724
876.521	15568
876.65	15686
876.778	15618
876.906	15504
877.034	15473
877.162	15584
877.29	15572
877.418	15637
877.546	15561
877.674	15534
877.802	15420
877.93	15538
878.058	15462
878.185	15424
878.313	15526
878.441	15568
878.568	15272
878.696	15610
878.824	15591
878.951	15584
879.079	15778
879.206	15869
879.333	15755
879.461	15584
879.588	15644
879.715	15770
879.842	15899
879.97	15614
880.097	15378
880.224	15374
880.351	15534
880.478	15348
880.605	15359
880.732	15359
880.859	15599
880.986	15401
881.112	15450
881.239	15260
881.366	15192
881.493	15089
881.619	15039
881.746	15097
881.872	15085
881.999	15043
882.125	14925
882.252	15024
882.378	15066
882.505	15180
882.631	15017
882.757	14883
882.883	14876
883.01	14899
883.136	14788
883.262	14686
883.388	14701
883.514	14796
883.64	14933
883.766	14792
883.892	14743
884.018	14788
884.143	14781
884.269	14853
884.395	14621
884.52	14480
884.646	14560
884.772	14545
884.897	14575
885.023	14587
885.148	14606
885.274	14712
885.399	14743
885.524	14560
885.65	14564
885.775	14651
885.9	14545
886.025	14712
886.15	14629
886.275	14549
886.4	14473
886.525	14571
886.65	14446
886.775	14537
886.9	14762
887.025	14769
887.149	14507
887.274	14362
887.399	14332
887.523	14301
887.648	14400
887.773	14237
887.897	14541
888.021	14461
888.146	14339
888.27	14488
888.395	14419
888.519	14526
888.643	14514
888.767	14461
888.891	14351
889.015	14244
889.139	14339
889.263	14206
889.387	14377
889.511	14438
889.635	14465
889.759	14278
889.883	14282
890.006	14244
890.13	14370
890.254	14126
890.377	14206
890.501	14191
890.624	14065
890.748	14103
890.871	13959
890.995	13868
891.118	13868
891.241	13959
891.364	13879
891.488	14020
891.611	14016
891.734	14054
891.857	14111
891.98	13978
892.103	14100
892.226	14046
892.349	13944
892.471	13860
892.594	13940
892.717	13959
892.839	14024
892.962	13947
893.085	14020
893.207	13928
893.33	13803
893.452	13856
893.575	13963
893.697	13944
893.819	14199
893.941	14168
894.064	14191
894.186	13917
894.308	13917
894.43	14103
894.552	14126
894.674	14142
894.796	13967
894.918	13925
895.04	13909
895.161	14103
895.283	14077
895.405	13989
895.526	14005
895.648	14077
895.769	14103
895.891	14130
896.012	14244
896.134	14195
896.255	14081
896.376	14096
896.498	14138
896.619	14210
896.74	14119
896.861	14149
896.982	14522
897.103	14693
897.224	14427
897.345	14415
897.466	14328
897.587	14396
897.708	14450
897.828	14480
897.949	14488
898.07	14267
898.19	14313
898.311	14507
898.431	14362
898.552	14526
898.672	14549
898.792	14651
898.913	14575
899.033	14438
899.153	14385
899.273	14286
899.393	14419
899.513	14320
899.633	14271
899.753	14358
899.873	14309
899.993	14446
900.113	14229
900.232	14404
900.352	14336
900.472	14240
900.591	14183
900.711	14183
900.83	14164
900.95	14301
901.069	14301
901.189	14176
901.308	13959
901.427	13864
901.546	13906
901.665	13909
901.784	13986
901.904	13818
902.023	13727
902.141	13548
902.26	13472
902.379	13460
902.498	13525
902.617	13506
902.735	13521
902.854	13407
902.973	13373
903.091	13183
903.21	13110
903.328	13244
903.446	13141
903.565	13000
903.683	13095
903.801	13008
903.919	13057
904.038	13000
904.156	12882
904.274	12924
904.392	12791
904.51	12875
904.627	12871
904.745	12977
904.863	12916
904.981	12696
905.098	12532
905.216	12517
905.334	12509
905.451	12532
905.569	12471
905.686	12540
905.803	12528
905.921	12414
906.038	12445
906.155	12304
906.272	12254
906.389	12171
906.506	12144
906.623	11992
906.74	12102
906.857	12060
906.974	12030
907.091	12171
907.208	12251
907.324	12224
907.441	12072
907.557	11984
907.674	11836
907.79	11794
907.907	11912
908.023	11824
908.139	11885
908.256	11874
908.372	11859
908.488	11851
908.604	11676
908.72	11562
908.836	11623
908.952	11608
909.068	11699
909.184	11710
909.3	11642
909.415	11745
909.531	11638
909.647	11467
909.762	11448
909.878	11402
909.993	11410
910.108	11353
910.224	11360
910.339	11414
910.454	11299
910.57	11353
910.685	11170
910.8	11532
910.915	11383
911.03	11227
911.145	11128
911.259	11025
911.374	11151
911.489	11155
911.604	10995
911.718	10839
911.833	10927
911.947	10809
912.062	10774
912.176	10896
912.291	10908
912.405	10809
912.519	11105
912.633	11098
912.748	10927
912.862	10972
912.976	10759
913.09	10660
913.204	10831
913.318	10767
913.431	10843
913.545	10858
913.659	10938
913.772	10824
913.886	10660
914	10752
914.113	10790
914.226	10748
914.34	10698
914.453	10527
914.566	10710
914.68	10573
914.793	10706
914.906	10409
915.019	10379
915.132	10405
915.245	10424
915.358	10432
915.47	10413
915.583	10519
915.696	10447
915.809	10637
915.921	10580
916.034	10421
916.146	10291
916.259	10344
916.371	10523
916.483	10497
916.595	10440
916.708	10382
916.82	10436
916.932	10390
917.044	10337
917.156	10352
917.268	10249
917.38	10272
917.491	10249
917.603	10280
917.715	10390
917.826	10375
917.938	10276
918.049	10204
918.161	10272
918.272	10363
918.384	10436
918.495	10280
918.606	10192
918.717	10116
918.828	10196
918.939	10215
919.05	10055
919.161	10078
919.272	9884
919.383	9941
919.494	10234
919.604	10428
919.715	10154
919.826	10128
919.936	10147
920.047	10261
920.157	10147
920.267	10344
920.378	10261
920.488	10147
920.598	10303
920.708	10527
920.818	10333
920.928	10398
921.038	10554
921.148	10455
921.258	10223
921.368	10093
921.477	10044
921.587	9994
921.697	9827
921.806	9987
921.916	9941
922.025	9766
922.134	9781
922.244	9667
922.353	9720
922.462	9599
922.571	9568
922.68	9401
922.789	9374
922.898	9405
923.007	9450
923.116	9435
923.224	9447
923.333	9340
923.442	9313
923.55	9268
923.659	9332
923.767	9363
923.876	9245
923.984	9401
924.092	9199
924.201	9306
924.309	9253
924.417	9279
924.525	9268
924.633	9211
924.741	9972
924.849	9043
924.956	9245
925.064	9077
925.172	9028
925.279	9009
925.387	9112
925.494	9097
925.602	9165
925.709	9154
925.816	8986
925.924	9047
926.031	9119
926.138	9089
926.245	9138
926.352	9028
926.459	9176
926.566	9195
926.673	9058
926.779	8929
926.886	8914
926.993	8807
927.099	8796
927.206	8785
927.312	8701
927.419	8849
927.525	8769
927.631	8906
927.737	8701
927.843	8746
927.95	8571
928.056	8659
928.162	8712
928.267	8853
928.373	9279
928.479	8823
928.585	8552
928.69	8743
928.796	8727
928.901	8522
929.007	8446
929.112	8590
929.218	8522
929.323	8511
929.428	8518
929.533	8651
929.638	8408
929.743	8415
929.848	8537
929.953	8484
930.058	8461
930.163	8263
930.267	8309
930.372	8385
930.477	8225
930.581	8507
930.685	8343
930.79	8240
930.894	8267
930.998	8202
931.103	8374
931.207	8001
931.311	7883
931.415	7974
931.519	7731
931.623	7693
