Data from test_V78500241_1945.txt Node
Date: Fri Mar 25 14:47:15 CST 2022
User: usil
Spectrometer: V785-0024
Trigger mode: 0
Integration Time (sec): 4.000000E-1
Scans to average: 1
Nonlinearity correction enabled: false
Boxcar width: 0
Storing dark spectrum: false
XAxis mode: Wavelengths
Number of Pixels in Spectrum: 1024
>>>>>Begin Spectral Data<<<<<
801.071	22078
801.214	22006
801.356	21694
801.499	21599
801.641	21587
801.783	21450
801.926	21469
802.068	21504
802.211	21382
802.353	21264
802.496	21020
802.638	20975
802.78	20826
802.923	20804
803.065	20769
803.208	20746
803.35	20880
803.492	20804
803.635	20857
803.777	20834
803.919	20861
804.061	21192
804.204	20921
804.346	20678
804.488	20682
804.63	20807
804.773	20705
804.915	20712
805.057	20663
805.199	20686
805.341	20735
805.483	20853
805.626	20800
805.768	20762
805.91	20693
806.052	20560
806.194	20568
806.336	20849
806.478	20727
806.62	20678
806.762	20678
806.904	20876
807.046	21214
807.188	20971
807.33	20948
807.472	21100
807.614	20842
807.756	21005
807.898	20819
808.04	20750
808.182	20800
808.324	20872
808.465	20781
808.607	20982
808.749	21089
808.891	21233
809.033	21180
809.174	21135
809.316	21081
809.458	21055
809.6	21100
809.741	21108
809.883	21203
810.025	21374
810.166	21260
810.308	21150
810.45	21199
810.591	21074
810.733	20960
810.875	20899
811.016	20777
811.158	20731
811.299	20720
811.441	20960
811.582	20906
811.724	20853
811.865	20746
812.007	20853
812.148	20811
812.29	20937
812.431	21093
812.573	21192
812.714	21355
812.855	21374
812.997	21416
813.138	21367
813.279	21416
813.421	21428
813.562	21245
813.703	21062
813.845	20849
813.986	20773
814.127	20533
814.268	20480
814.41	20427
814.551	20358
814.692	20393
814.833	20320
814.974	20328
815.115	20339
815.256	20248
815.397	20168
815.539	20206
815.68	20088
815.821	20016
815.962	20168
816.103	20008
816.244	19902
816.385	19909
816.526	19784
816.666	19689
816.807	19620
816.948	19639
817.089	19704
817.23	19685
817.371	19445
817.512	19457
817.653	19506
817.793	19460
817.934	19590
818.075	19620
818.216	19620
818.356	19578
818.497	19365
818.638	19145
818.778	19141
818.919	19179
819.06	19232
819.2	19339
819.341	19430
819.481	19369
819.622	19655
819.762	19750
819.903	19651
820.043	19540
820.184	19624
820.324	19506
820.465	19700
820.605	19563
820.746	19400
820.886	19278
821.026	19449
821.167	19483
821.307	19567
821.447	19441
821.588	19426
821.728	19240
821.868	19080
822.008	18928
822.149	18966
822.289	18848
822.429	18707
822.569	18585
822.709	18627
822.849	18380
822.99	18353
823.13	18388
823.27	18243
823.41	18327
823.55	18186
823.69	18152
823.83	18292
823.97	18155
824.11	17965
824.25	17969
824.389	17996
824.529	18068
824.669	17958
824.809	18015
824.949	18110
825.089	18034
825.228	18019
825.368	17775
825.508	17699
825.648	17824
825.787	17703
825.927	17893
826.067	17779
826.206	17710
826.346	17786
826.485	17786
826.625	17767
826.765	17840
826.904	17752
827.044	17482
827.183	17512
827.323	17421
827.462	17570
827.601	17429
827.741	17414
827.88	17482
828.02	17417
828.159	17528
828.298	17372
828.437	17623
828.577	17471
828.716	17672
828.855	17455
828.994	17296
829.134	17246
829.273	17231
829.412	17242
829.551	17254
829.69	17189
829.829	17254
829.968	17383
830.107	17242
830.246	17315
830.385	17258
830.524	17197
830.663	17109
830.802	16927
830.941	16904
831.08	16869
831.219	16942
831.357	16976
831.496	17121
831.635	16908
831.774	16843
831.913	16736
832.051	16748
832.19	16672
832.329	16702
832.467	16577
832.606	16466
832.744	16626
832.883	16573
833.022	16599
833.16	16622
833.299	16584
833.437	16599
833.576	16710
833.714	16618
833.852	16637
833.991	16725
834.129	16774
834.267	16679
834.406	16702
834.544	16698
834.682	16713
834.821	16675
834.959	16828
835.097	16573
835.235	16710
835.373	16698
835.511	16698
835.65	16493
835.788	16421
835.926	16371
836.064	16398
836.202	16459
836.34	16542
836.478	16687
836.615	16417
836.753	16603
836.891	16584
837.029	16626
837.167	16546
837.305	16504
837.443	16432
837.58	16318
837.718	16466
837.856	16466
837.993	16432
838.131	16398
838.269	16421
838.406	16436
838.544	16291
838.681	16131
838.819	16166
838.956	15994
839.094	15979
839.231	15953
839.369	16169
839.506	16386
839.643	16265
839.781	15975
839.918	16002
840.055	16013
840.193	15987
840.33	15915
840.467	15953
840.604	15991
840.742	16246
840.879	15838
841.016	15869
841.153	15816
841.29	16074
841.427	16010
841.564	15922
841.701	15972
841.838	15983
841.975	15857
842.112	16002
842.249	15812
842.385	15751
842.522	16032
842.659	15774
842.796	15747
842.933	15831
843.069	15774
843.206	15739
843.343	15857
843.479	15781
843.616	15812
843.752	15538
843.889	15496
844.025	15751
844.162	15530
844.298	15549
844.435	15530
844.571	15477
844.708	15603
844.844	15698
844.98	15644
845.117	15694
845.253	15443
845.389	15481
845.525	15397
845.661	15466
845.798	15294
845.934	15408
846.07	15317
846.206	15443
846.342	15462
846.478	15405
846.614	15104
846.75	15116
846.886	15138
847.022	15211
847.158	15085
847.294	15108
847.429	15169
847.565	15028
847.701	15287
847.837	14918
847.972	14785
848.108	14979
848.244	14842
848.379	14788
848.515	14716
848.65	14720
848.786	14743
848.921	14739
849.057	14857
849.192	14902
849.328	14773
849.463	14857
849.598	14663
849.734	14701
849.869	14511
850.004	14537
850.14	14545
850.275	14469
850.41	14473
850.545	14454
850.68	14438
850.815	14492
850.95	14564
851.085	14663
851.22	14583
851.355	14507
851.49	14442
851.625	14374
851.76	14530
851.895	14317
852.03	14442
852.165	14404
852.299	14499
852.434	14511
852.569	14469
852.703	14518
852.838	14606
852.973	14556
853.107	14705
853.242	14465
853.376	14362
853.511	14191
853.645	14301
853.78	14495
853.914	14400
854.048	14385
854.183	14370
854.317	14332
854.451	14533
854.585	14343
854.72	14233
854.854	14381
854.988	14286
855.122	14298
855.256	14161
855.39	14248
855.524	14389
855.658	14495
855.792	14389
855.926	14313
856.06	14431
856.194	14457
856.327	14438
856.461	14317
856.595	14233
856.729	14381
856.862	14518
856.996	14381
857.13	14473
857.263	14446
857.397	14427
857.53	14374
857.664	14389
857.797	14431
857.931	14457
858.064	14301
858.197	14412
858.331	14355
858.464	14320
858.597	14199
858.731	14343
858.864	14362
858.997	14290
859.13	14389
859.263	14389
859.396	14499
859.529	14298
859.662	14351
859.795	14309
859.928	14339
860.061	14518
860.194	14427
860.327	14358
860.46	14366
860.592	14442
860.725	14564
860.858	14450
860.99	14332
861.123	14324
861.256	14317
861.388	14286
861.521	15070
861.653	14328
861.786	14221
861.918	14275
862.05	14259
862.183	14347
862.315	14404
862.447	14400
862.58	14248
862.712	14180
862.844	14180
862.976	14206
863.108	14161
863.24	14446
863.372	14035
863.504	14153
863.636	14130
863.768	14119
863.9	14058
864.032	14107
864.164	14103
864.296	14256
864.428	14263
864.559	14244
864.691	14229
864.823	14145
864.954	14221
865.086	14229
865.217	14210
865.349	14088
865.48	14096
865.612	14145
865.743	14271
865.875	14115
866.006	14058
866.137	14096
866.269	14111
866.4	14054
866.531	14164
866.662	14035
866.793	14046
866.924	14103
867.055	14115
867.186	14172
867.317	14088
867.448	14043
867.579	13993
867.71	14001
867.841	13936
867.972	14168
868.103	14027
868.233	14062
868.364	14073
868.495	14168
868.625	14282
868.756	14442
868.886	14240
869.017	14358
869.147	14469
869.278	14484
869.408	14366
869.539	14461
869.669	14404
869.799	14412
869.929	14511
870.06	14495
870.19	14663
870.32	14655
870.45	14552
870.58	14727
870.71	14948
870.84	14826
870.97	14735
871.1	14705
871.23	14914
871.36	14979
871.489	14952
871.619	14944
871.749	15017
871.879	15017
872.008	15138
872.138	14834
872.267	14994
872.397	14864
872.526	14758
872.656	14796
872.785	14880
872.915	15039
873.044	15085
873.173	14944
873.303	15028
873.432	15089
873.561	15116
873.69	15028
873.819	15009
873.948	15146
874.077	15036
874.206	14990
874.335	15074
874.464	15161
874.593	15260
874.722	15214
874.851	15386
874.979	15344
875.108	15340
875.237	15272
875.365	15348
875.494	15359
875.623	15374
875.751	15313
875.88	15283
876.008	15454
876.136	15462
876.265	15774
876.393	15987
876.521	15781
876.65	15739
876.778	15766
876.906	15641
877.034	15713
877.162	15705
877.29	15660
877.418	15720
877.546	15770
877.674	15736
877.802	15751
877.93	15644
878.058	15675
878.185	15690
878.313	15698
878.441	15774
878.568	15603
878.696	15679
878.824	15747
878.951	15797
879.079	15861
879.206	16044
879.333	15941
879.461	15705
879.588	15915
879.715	15937
879.842	16040
879.97	15903
880.097	15633
880.224	15492
880.351	15557
880.478	15564
880.605	15538
880.732	15466
880.859	15797
880.986	15557
881.112	15591
881.239	15492
881.366	15386
881.493	15313
881.619	15135
881.746	15237
881.872	15214
881.999	15180
882.125	15195
882.252	15348
882.378	15291
882.505	15397
882.631	15241
882.757	15055
882.883	15116
883.01	15051
883.136	15043
883.262	15032
883.388	14853
883.514	15085
883.64	15123
883.766	14998
883.892	14918
884.018	14887
884.143	15100
884.269	15051
884.395	14785
884.52	14838
884.646	14788
884.772	14621
884.897	14625
885.023	14743
885.148	14914
885.274	14948
885.399	14845
885.524	14754
885.65	14815
885.775	14724
885.9	14735
886.025	14819
886.15	14864
886.275	14724
886.4	14610
886.525	14598
886.65	14739
886.775	14610
886.9	14819
887.025	14967
887.149	14845
887.274	14594
887.399	14552
887.523	14613
887.648	14514
887.773	14423
887.897	14701
888.021	14724
888.146	14495
888.27	14670
888.395	14689
888.519	14621
888.643	14617
888.767	14674
888.891	14492
889.015	14404
889.139	14476
889.263	14404
889.387	14617
889.511	14636
889.635	14564
889.759	14446
889.883	14492
890.006	14484
890.13	14636
890.254	14507
890.377	14336
890.501	14278
890.624	14168
890.748	14366
890.871	14111
890.995	14180
891.118	14088
891.241	14149
891.364	14153
891.488	14248
891.611	14206
891.734	14237
891.857	14149
891.98	14157
892.103	14176
892.226	14180
892.349	14157
892.471	14126
892.594	14161
892.717	14172
892.839	14142
892.962	14180
893.085	14210
893.207	14119
893.33	14107
893.452	14096
893.575	14161
893.697	14119
893.819	14286
893.941	14381
894.064	14317
894.186	14172
894.308	14180
894.43	14191
894.552	14305
894.674	14252
894.796	14134
894.918	14206
895.04	14164
895.161	14351
895.283	14259
895.405	14142
895.526	14172
895.648	14244
895.769	14221
895.891	14263
896.012	14377
896.134	14317
896.255	14339
896.376	14332
896.498	14275
896.619	14381
896.74	14263
896.861	14324
896.982	14625
897.103	14720
897.224	14648
897.345	14667
897.466	14495
897.587	14526
897.708	14712
897.828	14724
897.949	14579
898.07	14560
898.19	14598
898.311	14739
898.431	14621
898.552	14613
898.672	14686
898.792	14716
898.913	14674
899.033	14590
899.153	14507
899.273	14396
899.393	14427
899.513	14507
899.633	14454
899.753	14575
899.873	14518
899.993	14575
900.113	14503
900.232	14488
900.352	14495
900.472	14450
900.591	14339
900.711	14400
900.83	14294
900.95	14473
901.069	14446
901.189	14248
901.308	14145
901.427	13963
901.546	13993
901.665	14103
901.784	14111
901.904	13955
902.023	13875
902.141	13647
902.26	13594
902.379	13643
902.498	13681
902.617	13628
902.735	13632
902.854	13658
902.973	13582
903.091	13358
903.21	13324
903.328	13335
903.446	13274
903.565	13107
903.683	13289
903.801	13031
903.919	13164
904.038	13141
904.156	12970
904.274	13099
904.392	13012
904.51	12977
904.627	12970
904.745	13095
904.863	13038
904.981	12806
905.098	12654
905.216	12665
905.334	12646
905.451	12692
905.569	12730
905.686	12776
905.803	12753
905.921	12486
906.038	12642
906.155	12517
906.272	12471
906.389	12418
906.506	12289
906.623	12296
906.74	12308
906.857	12175
906.974	12171
907.091	12334
907.208	12509
907.324	12384
907.441	12197
907.557	12076
907.674	12140
907.79	11984
907.907	12011
908.023	12030
908.139	12034
908.256	11980
908.372	11961
908.488	11901
908.604	11851
908.72	11878
908.836	11775
908.952	11859
909.068	11760
909.184	11916
909.3	11794
909.415	11828
909.531	11813
909.647	11570
909.762	11558
909.878	11554
909.993	11623
910.108	11566
910.224	11570
910.339	11600
910.454	11452
910.57	11436
910.685	11410
910.8	11535
910.915	11638
911.03	11474
911.145	11322
911.259	11208
911.374	11227
911.489	11189
911.604	11170
911.718	11033
911.833	11098
911.947	10896
912.062	10889
912.176	11041
912.291	11064
912.405	11037
912.519	11227
912.633	11235
912.748	11060
912.862	11105
912.976	10942
913.09	10835
913.204	10938
913.318	11025
913.431	11048
913.545	11041
913.659	11006
913.772	10949
913.886	10812
914	10725
914.113	10866
914.226	10877
914.34	10904
914.453	10752
914.566	10786
914.68	10744
914.793	10626
914.906	10493
915.019	10508
915.132	10470
915.245	10523
915.358	10584
915.47	10546
915.583	10573
915.696	10580
915.809	10618
915.921	10710
916.034	10542
916.146	10489
916.259	10428
916.371	10599
916.483	10462
916.595	10451
916.708	10402
916.82	10508
916.932	10466
917.044	10379
917.156	10436
917.268	10375
917.38	10344
917.491	10360
917.603	10360
917.715	10504
917.826	10455
917.938	10306
918.049	10257
918.161	10390
918.272	10481
918.384	10432
918.495	10333
918.606	10242
918.717	10120
918.828	10272
918.939	10215
919.05	10078
919.161	10188
919.272	9994
919.383	10131
919.494	10268
919.604	10455
919.715	10253
919.826	10185
919.936	10234
920.047	10291
920.157	10261
920.267	10405
920.378	10284
920.488	10276
920.598	10394
920.708	10554
920.818	10367
920.928	10440
921.038	10607
921.148	10561
921.258	10295
921.368	10234
921.477	10101
921.587	10078
921.697	9907
921.806	10143
921.916	10002
922.025	9846
922.134	9785
922.244	9747
922.353	9766
922.462	9663
922.571	9603
922.68	9431
922.789	9454
922.898	9488
923.007	9439
923.116	9496
923.224	9443
923.333	9431
923.442	9408
923.55	9370
923.659	9443
923.767	9420
923.876	9348
923.984	9454
924.092	9230
924.201	9313
924.309	9348
924.417	9329
924.525	9302
924.633	9367
924.741	10310
924.849	9100
924.956	9325
925.064	9150
925.172	9051
925.279	9055
925.387	9100
925.494	9176
925.602	9268
925.709	9222
925.816	9119
925.924	9127
926.031	9161
926.138	9165
926.245	9119
926.352	9020
926.459	9264
926.566	9226
926.673	9146
926.779	9039
926.886	9017
926.993	8895
927.099	8868
927.206	8830
927.312	8800
927.419	8880
927.525	8880
927.631	8937
927.737	8773
927.843	8762
927.95	8606
928.056	8773
928.162	8769
928.267	8845
928.373	9393
928.479	8762
928.585	8613
928.69	8697
928.796	8811
928.901	8701
929.007	8575
929.112	8773
929.218	8667
929.323	8590
929.428	8526
929.533	8743
929.638	8473
929.743	8571
929.848	8598
929.953	8541
930.058	8469
930.163	8294
930.267	8370
930.372	8541
930.477	8347
930.581	8560
930.685	8423
930.79	8252
930.894	8355
930.998	8252
931.103	8431
931.207	8088
931.311	8024
931.415	7993
931.519	7818
931.623	7814
