Data from test_V78500241_667.txt Node
Date: Fri Mar 25 14:38:21 CST 2022
User: usil
Spectrometer: V785-0024
Trigger mode: 0
Integration Time (sec): 4.000000E-1
Scans to average: 1
Nonlinearity correction enabled: false
Boxcar width: 0
Storing dark spectrum: false
XAxis mode: Wavelengths
Number of Pixels in Spectrum: 1024
>>>>>Begin Spectral Data<<<<<
801.071	28128
801.214	28082
801.356	27724
801.499	27739
801.641	27591
801.783	27587
801.926	27523
802.068	27435
802.211	27291
802.353	27260
802.496	27089
802.638	26921
802.78	27043
802.923	27028
803.065	26940
803.208	27009
803.35	26994
803.492	27207
803.635	27199
803.777	26960
803.919	27070
804.061	27549
804.204	27176
804.346	27138
804.488	27268
804.63	27363
804.773	27195
804.915	27462
805.057	27595
805.199	27568
805.341	27568
805.483	27816
805.626	27800
805.768	27797
805.91	27835
806.052	28025
806.194	28070
806.336	28546
806.478	28405
806.62	28550
806.762	28949
806.904	29448
807.046	29946
807.188	30110
807.33	30559
807.472	31137
807.614	31639
807.756	32621
807.898	33781
808.04	35124
808.182	37160
808.324	39629
808.465	42559
808.607	45717
808.749	48342
808.891	50252
809.033	50457
809.174	48772
809.316	45838
809.458	42719
809.6	39325
809.741	36616
809.883	34580
810.025	33169
810.166	32100
810.308	31263
810.45	30528
810.591	30136
810.733	29562
810.875	29334
811.016	29109
811.158	28698
811.299	28767
811.441	28656
811.582	28580
811.724	28223
811.865	28048
812.007	28067
812.148	27968
812.29	28025
812.431	27983
812.573	28181
812.714	28059
812.855	28249
812.997	28158
813.138	28356
813.279	28051
813.421	28029
813.562	27968
813.703	27679
813.845	27587
813.986	27192
814.127	26914
814.268	26918
814.41	26815
814.551	26804
814.692	26906
814.833	26804
814.974	26773
815.115	26682
815.256	26514
815.397	26655
815.539	26423
815.68	26427
815.821	26355
815.962	26256
816.103	26320
816.244	26073
816.385	25940
816.526	26069
816.666	25742
816.807	25575
816.948	25624
817.089	25811
817.23	25639
817.371	25818
817.512	25605
817.653	25575
817.793	25613
817.934	25571
818.075	25601
818.216	25487
818.356	25590
818.497	25388
818.638	25247
818.778	25187
818.919	25285
819.06	25297
819.2	25297
819.341	25495
819.481	25567
819.622	25681
819.762	25769
819.903	25620
820.043	25582
820.184	25426
820.324	25441
820.465	25567
820.605	25460
820.746	25430
820.886	25202
821.026	25346
821.167	25289
821.307	25415
821.447	25270
821.588	25179
821.728	24951
821.868	24817
822.008	24745
822.149	24505
822.289	24642
822.429	24353
822.569	24247
822.709	24190
822.849	24060
822.99	24178
823.13	23980
823.27	23882
823.41	23813
823.55	23714
823.69	23885
823.83	23992
823.97	23794
824.11	23600
824.25	23657
824.389	23680
824.529	23729
824.669	23543
824.809	23805
824.949	23703
825.089	23695
825.228	23783
825.368	23486
825.508	23482
825.648	23353
825.787	23516
825.927	23497
826.067	23414
826.206	23318
826.346	23448
826.485	23524
826.625	23459
826.765	23585
826.904	23395
827.044	23239
827.183	23246
827.323	23029
827.462	23064
827.601	23155
827.741	23064
827.88	22991
828.02	22919
828.159	22885
828.298	23018
828.437	23105
828.577	22987
828.716	23136
828.855	22934
828.994	22866
829.134	22869
829.273	22831
829.412	22763
829.551	22668
829.69	22706
829.829	22763
829.968	22698
830.107	22790
830.246	22824
830.385	22691
830.524	22759
830.663	22569
830.802	22512
830.941	22379
831.08	22337
831.219	22489
831.357	22531
831.496	22504
831.635	22371
831.774	22344
831.913	22276
832.051	22200
832.19	22276
832.329	22333
832.467	22147
832.606	22120
832.744	22272
832.883	22291
833.022	22299
833.16	22371
833.299	22634
833.437	22615
833.576	22820
833.714	22961
833.852	23098
833.991	23197
834.129	23265
834.267	23364
834.406	23109
834.544	23208
834.682	23056
834.821	22790
834.959	22927
835.097	22713
835.235	22599
835.373	22462
835.511	22478
835.65	22261
835.788	22029
835.926	21880
836.064	21915
836.202	21869
836.34	21975
836.478	22055
836.615	21861
836.753	21831
836.891	21880
837.029	21838
837.167	21884
837.305	21812
837.443	21701
837.58	21572
837.718	21709
837.856	21789
837.993	21538
838.131	21644
838.269	21515
838.406	21580
838.544	21447
838.681	21321
838.819	21393
838.956	21131
839.094	21093
839.231	21199
839.369	21302
839.506	21431
839.643	21313
839.781	21036
839.918	21066
840.055	21001
840.193	21093
840.33	21066
840.467	21013
840.604	20910
840.742	21283
840.879	20914
841.016	21058
841.153	21024
841.29	21184
841.427	21001
841.564	21119
841.701	21093
841.838	20899
841.975	20853
842.112	20960
842.249	20815
842.385	20842
842.522	21001
842.659	21047
842.796	20754
842.933	20891
843.069	20845
843.206	20800
843.343	21009
843.479	21058
843.616	20998
843.752	20796
843.889	20853
844.025	21058
844.162	20967
844.298	21176
844.435	21279
844.571	21298
844.708	21656
844.844	22105
844.98	22535
845.117	23143
845.253	24057
845.389	25875
845.525	29398
845.661	35075
845.798	41775
845.934	46668
846.07	48528
846.206	47079
846.342	42460
846.478	35813
846.614	30247
846.75	26450
846.886	24254
847.022	22946
847.158	22025
847.294	21420
847.429	21096
847.565	20941
847.701	20906
847.837	20389
847.972	20206
848.108	20286
848.244	20164
848.379	19974
848.515	19860
848.65	19833
848.786	19875
848.921	19875
849.057	19875
849.192	19799
849.328	19807
849.463	19738
849.598	19723
849.734	19628
849.869	19613
850.004	19441
850.14	19445
850.275	19400
850.41	19407
850.545	19388
850.68	19426
850.815	19441
850.95	19403
851.085	19639
851.22	19472
851.355	19430
851.49	19396
851.625	19358
851.76	19343
851.895	19293
852.03	19297
852.165	19476
852.299	19491
852.434	19518
852.569	19582
852.703	19537
852.838	19537
852.973	19799
853.107	19594
853.242	19460
853.376	19365
853.511	19430
853.645	19441
853.78	19757
853.914	19506
854.048	19715
854.183	19556
854.317	19597
854.451	19818
854.585	19594
854.72	19590
854.854	19651
854.988	19525
855.122	19597
855.256	19430
855.39	19384
855.524	19464
855.658	19419
855.792	19240
855.926	19426
856.06	19358
856.194	19339
856.327	19194
856.461	19175
856.595	19255
856.729	19103
856.862	19316
856.996	19278
857.13	19206
857.263	19377
857.397	19202
857.53	19213
857.664	19259
857.797	19244
857.931	19209
858.064	19145
858.197	19156
858.331	19164
858.464	19015
858.597	19050
858.731	19034
858.864	19053
858.997	19019
859.13	19202
859.263	19080
859.396	19057
859.529	19145
859.662	18920
859.795	18977
859.928	19042
860.061	19168
860.194	19228
860.327	19038
860.46	19034
860.592	19099
860.725	19145
860.858	19118
860.99	18878
861.123	19012
861.256	18985
861.388	19000
861.521	19616
861.653	18856
861.786	18795
861.918	18783
862.05	18996
862.183	18901
862.315	19000
862.447	19069
862.58	18913
862.712	18932
862.844	18764
862.976	18768
863.108	18760
863.24	19065
863.372	18726
863.504	18597
863.636	18722
863.768	18677
863.9	18707
864.032	18475
864.164	18635
864.296	18681
864.428	18768
864.559	18757
864.691	18875
864.823	18726
864.954	18791
865.086	18585
865.217	18502
865.349	18490
865.48	18642
865.612	18646
865.743	18738
865.875	18684
866.006	18464
866.137	18646
866.269	18639
866.4	18521
866.531	18525
866.662	18452
866.793	18467
866.924	18551
867.055	18513
867.186	18563
867.317	18601
867.448	18521
867.579	18513
867.71	18429
867.841	18467
867.972	18574
868.103	18490
868.233	18589
868.364	18608
868.495	18696
868.625	18867
868.756	18989
868.886	18741
869.017	18692
869.147	18886
869.278	18928
869.408	18875
869.539	18920
869.669	18890
869.799	19042
869.929	18954
870.06	19019
870.19	19289
870.32	19209
870.45	19137
870.58	19244
870.71	19392
870.84	19339
870.97	19331
871.1	19274
871.23	19559
871.36	19381
871.489	19449
871.619	19472
871.749	19499
871.879	19609
872.008	19696
872.138	19472
872.267	19571
872.397	19552
872.526	19350
872.656	19483
872.785	19407
872.915	19575
873.044	19696
873.173	19719
873.303	19693
873.432	19689
873.561	19830
873.69	19898
873.819	19723
873.948	19906
874.077	19822
874.206	19795
874.335	19871
874.464	20039
874.593	20210
874.722	20237
874.851	20339
874.979	20324
875.108	20408
875.237	20233
875.365	20305
875.494	20469
875.623	20473
875.751	20434
875.88	20602
876.008	20731
876.136	20644
876.265	21036
876.393	21112
876.521	21317
876.65	21325
876.778	21283
876.906	21211
877.034	21412
877.162	21538
877.29	21450
877.418	21610
877.546	21622
877.674	21732
877.802	21831
877.93	21975
878.058	22059
878.185	22272
878.313	22656
878.441	23064
878.568	23170
878.696	23958
878.824	24654
878.951	25727
879.079	27226
879.206	29273
879.333	31297
879.461	32853
879.588	34086
879.715	33937
879.842	33165
879.97	31251
880.097	29303
880.224	27629
880.351	26507
880.478	25708
880.605	25050
880.732	24757
880.859	24635
880.986	24228
881.112	24178
881.239	23946
881.366	23882
881.493	23870
881.619	23737
881.746	23790
881.872	23726
881.999	23729
882.125	23752
882.252	24068
882.378	24022
882.505	24178
882.631	23794
882.757	23771
882.883	23817
883.01	23828
883.136	23863
883.262	23718
883.388	23703
883.514	23912
883.64	23748
883.766	23680
883.892	23471
884.018	23543
884.143	23729
884.269	23783
884.395	23471
884.52	23497
884.646	23478
884.772	23402
884.897	23509
885.023	23539
885.148	23326
885.274	23627
885.399	23448
885.524	23174
885.65	23277
885.775	23071
885.9	22908
886.025	22919
886.15	22611
886.275	22451
886.4	22284
886.525	22086
886.65	22063
886.775	21865
886.9	22006
887.025	22059
887.149	21686
887.274	21382
887.399	21165
887.523	21203
887.648	21013
887.773	20956
887.897	20982
888.021	20902
888.146	20895
888.27	20785
888.395	20804
888.519	20876
888.643	20651
888.767	20526
888.891	20412
889.015	20328
889.139	20408
889.263	20244
889.387	20355
889.511	20469
889.635	20286
889.759	20187
889.883	20065
890.006	20081
890.13	20126
890.254	19845
890.377	19925
890.501	19666
890.624	19632
890.748	19586
890.871	19628
890.995	19438
891.118	19346
891.241	19388
891.364	19392
891.488	19499
891.611	19209
891.734	19339
891.857	19316
891.98	19327
892.103	19407
892.226	19217
892.349	19152
892.471	19004
892.594	19118
892.717	19206
892.839	18958
892.962	19122
893.085	19065
893.207	18894
893.33	18829
893.452	18711
893.575	18928
893.697	18840
893.819	18920
893.941	19019
894.064	18840
894.186	18787
894.308	18635
894.43	18741
894.552	18768
894.674	18810
894.796	18585
894.918	18623
895.04	18517
895.161	18570
895.283	18593
895.405	18422
895.526	18551
895.648	18589
895.769	18578
895.891	18677
896.012	18578
896.134	18547
896.255	18509
896.376	18407
896.498	18384
896.619	18388
896.74	18574
896.861	18525
896.982	18825
897.103	18852
897.224	18673
897.345	18582
897.466	18646
897.587	18658
897.708	18787
897.828	18642
897.949	18540
898.07	18483
898.19	18547
898.311	18825
898.431	18665
898.552	18494
898.672	18787
898.792	18711
898.913	18673
899.033	18582
899.153	18441
899.273	18471
899.393	18391
899.513	18391
899.633	18342
899.753	18479
899.873	18346
899.993	18517
900.113	18365
900.232	18467
900.352	18319
900.472	18235
900.591	18133
900.711	18209
900.83	18171
900.95	18251
901.069	18201
901.189	18083
901.308	17920
901.427	17813
901.546	17783
901.665	17775
901.784	17802
901.904	17611
902.023	17532
902.141	17197
902.26	17315
902.379	17311
902.498	17273
902.617	17189
902.735	17197
902.854	17147
902.973	17105
903.091	16866
903.21	16934
903.328	16809
903.446	16729
903.565	16630
903.683	16713
903.801	16588
903.919	16554
904.038	16531
904.156	16390
904.274	16440
904.392	16253
904.51	16390
904.627	16291
904.745	16310
904.863	16344
904.981	16150
905.098	16017
905.216	15945
905.334	16109
905.451	15960
905.569	15911
905.686	16051
905.803	16006
905.921	15797
906.038	15888
906.155	15888
906.272	15656
906.389	15656
906.506	15572
906.623	15591
906.74	15416
906.857	15485
906.974	15435
907.091	15599
907.208	15641
907.324	15488
907.441	15435
907.557	15279
907.674	15176
907.79	15173
907.907	15184
908.023	15222
908.139	15116
908.256	15154
908.372	15112
908.488	15047
908.604	14975
908.72	14921
908.836	14925
908.952	14872
909.068	14960
909.184	15024
909.3	14880
909.415	14975
909.531	14963
909.647	14716
909.762	14632
909.878	14632
909.993	14648
910.108	14617
910.224	14606
910.339	14670
910.454	14507
910.57	14480
910.685	14385
910.8	14678
910.915	14602
911.03	14442
911.145	14381
911.259	14278
911.374	14370
911.489	14176
911.604	14138
911.718	13986
911.833	14050
911.947	13963
912.062	13849
912.176	14058
912.291	14031
912.405	13928
912.519	14142
912.633	14282
912.748	14005
912.862	13982
912.976	13902
913.09	13795
913.204	13845
913.318	14012
913.431	13875
913.545	13879
913.659	13936
913.772	13860
913.886	13727
914	13753
914.113	13807
914.226	13742
914.34	13830
914.453	13487
914.566	13746
914.68	13563
914.793	13502
914.906	13335
915.019	13457
915.132	13388
915.245	13369
915.358	13495
915.47	13441
915.583	13384
915.696	13445
915.809	13457
915.921	13457
916.034	13392
916.146	13346
916.259	13407
916.371	13449
916.483	13301
916.595	13339
916.708	13350
916.82	13381
916.932	13327
917.044	13339
917.156	13217
917.268	13232
917.38	13118
917.491	13107
917.603	13099
917.715	13217
917.826	13171
917.938	13152
918.049	13015
918.161	13042
918.272	13240
918.384	13156
918.495	13053
918.606	12897
918.717	12814
918.828	12859
918.939	12878
919.05	12825
919.161	12939
919.272	12688
919.383	12711
919.494	12882
919.604	13008
919.715	12852
919.826	12719
919.936	12703
920.047	12920
920.157	12791
920.267	13088
920.378	12837
920.488	12791
920.598	12989
920.708	13061
920.818	12966
920.928	12928
921.038	13175
921.148	13053
921.258	12848
921.368	12757
921.477	12631
921.587	12532
921.697	12494
921.806	12696
921.916	12384
922.025	12319
922.134	12247
922.244	12121
922.353	12266
922.462	12201
922.571	12045
922.68	11935
922.789	11847
922.898	11969
923.007	11874
923.116	11935
923.224	11901
923.333	11916
923.442	11764
923.55	11737
923.659	11794
923.767	11840
923.876	11710
923.984	11847
924.092	11680
924.201	11676
924.309	11638
924.417	11634
924.525	11646
924.633	11566
924.741	12544
924.849	11440
924.956	11592
925.064	11478
925.172	11307
925.279	11337
925.387	11482
925.494	11391
925.602	11524
925.709	11478
925.816	11376
925.924	11353
926.031	11448
926.138	11280
926.245	11444
926.352	11303
926.459	11322
926.566	11429
926.673	11261
926.779	11254
926.886	11197
926.993	11109
927.099	11056
927.206	11041
927.312	10968
927.419	11064
927.525	11029
927.631	11067
927.737	10999
927.843	10900
927.95	10831
928.056	10850
928.162	10961
928.267	10942
928.373	11368
928.479	10949
928.585	10774
928.69	10759
928.796	10869
928.901	10729
929.007	10672
929.112	10740
929.218	10714
929.323	10752
929.428	10679
929.533	10752
929.638	10542
929.743	10508
929.848	10698
929.953	10630
930.058	10588
930.163	10436
930.267	10382
930.372	10455
930.477	10325
930.581	10561
930.685	10402
930.79	10287
930.894	10310
930.998	10272
931.103	10398
931.207	10044
931.311	9953
931.415	9884
931.519	9717
931.623	9667
