Data from test_V78500241_3013.txt Node
Date: Fri Mar 25 14:54:41 CST 2022
User: usil
Spectrometer: V785-0024
Trigger mode: 0
Integration Time (sec): 4.000000E-1
Scans to average: 1
Nonlinearity correction enabled: false
Boxcar width: 0
Storing dark spectrum: false
XAxis mode: Wavelengths
Number of Pixels in Spectrum: 1024
>>>>>Begin Spectral Data<<<<<
801.071	22074
801.214	22051
801.356	21736
801.499	21675
801.641	21526
801.783	21492
801.926	21515
802.068	21405
802.211	21408
802.353	21165
802.496	21123
802.638	21039
802.78	20952
802.923	20883
803.065	20796
803.208	20708
803.35	20731
803.492	20906
803.635	20788
803.777	20716
803.919	20960
804.061	21211
804.204	20864
804.346	20678
804.488	20655
804.63	20712
804.773	20636
804.915	20758
805.057	20948
805.199	20621
805.341	20796
805.483	20838
805.626	20769
805.768	20659
805.91	20697
806.052	20815
806.194	20621
806.336	20941
806.478	20800
806.62	20701
806.762	20754
806.904	20956
807.046	21058
807.188	20975
807.33	20986
807.472	21169
807.614	20887
807.756	20941
807.898	20788
808.04	20739
808.182	20842
808.324	20777
808.465	20823
808.607	20979
808.749	21036
808.891	21268
809.033	21351
809.174	21142
809.316	21051
809.458	21131
809.6	21127
809.741	21195
809.883	21085
810.025	21241
810.166	21260
810.308	21237
810.45	21245
810.591	21135
810.733	20982
810.875	20914
811.016	20781
811.158	20590
811.299	20845
811.441	20887
811.582	21047
811.724	20937
811.865	20811
812.007	20800
812.148	20887
812.29	20819
812.431	20975
812.573	21252
812.714	21268
812.855	21351
812.997	21507
813.138	21549
813.279	21599
813.421	21462
813.562	21203
813.703	21176
813.845	20994
813.986	20701
814.127	20541
814.268	20492
814.41	20476
814.551	20419
814.692	20393
814.833	20427
814.974	20366
815.115	20339
815.256	20218
815.397	20355
815.539	20233
815.68	20126
815.821	20161
815.962	20164
816.103	20180
816.244	19917
816.385	19940
816.526	19868
816.666	19738
816.807	19563
816.948	19597
817.089	19655
817.23	19590
817.371	19575
817.512	19616
817.653	19499
817.793	19377
817.934	19491
818.075	19533
818.216	19521
818.356	19411
818.497	19407
818.638	19217
818.778	19339
818.919	19190
819.06	19320
819.2	19396
819.341	19354
819.481	19396
819.622	19556
819.762	19734
819.903	19708
820.043	19578
820.184	19449
820.324	19487
820.465	19666
820.605	19499
820.746	19480
820.886	19297
821.026	19388
821.167	19510
821.307	19430
821.447	19491
821.588	19297
821.728	19240
821.868	19122
822.008	18905
822.149	18840
822.289	18886
822.429	18574
822.569	18528
822.709	18650
822.849	18445
822.99	18357
823.13	18494
823.27	18262
823.41	18235
823.55	18110
823.69	18201
823.83	18194
823.97	18129
824.11	18053
824.25	17931
824.389	18045
824.529	18003
824.669	17927
824.809	18209
824.949	18114
825.089	17958
825.228	17954
825.368	17908
825.508	17764
825.648	17752
825.787	17927
825.927	17775
826.067	17676
826.206	17745
826.346	17817
826.485	17726
826.625	17703
826.765	17851
826.904	17756
827.044	17573
827.183	17562
827.323	17455
827.462	17402
827.601	17360
827.741	17398
827.88	17429
828.02	17254
828.159	17436
828.298	17398
828.437	17436
828.577	17303
828.716	17482
828.855	17299
828.994	17174
829.134	17181
829.273	17265
829.412	17071
829.551	17079
829.69	17166
829.829	17277
829.968	17220
830.107	17200
830.246	17284
830.385	17132
830.524	16965
830.663	16968
830.802	16927
830.941	16740
831.08	16710
831.219	16854
831.357	16843
831.496	16976
831.635	16793
831.774	16656
831.913	16653
832.051	16538
832.19	16538
832.329	16641
832.467	16485
832.606	16459
832.744	16386
832.883	16367
833.022	16485
833.16	16402
833.299	16645
833.437	16436
833.576	16531
833.714	16523
833.852	16599
833.991	16535
834.129	16588
834.267	16573
834.406	16569
834.544	16580
834.682	16462
834.821	16497
834.959	16759
835.097	16512
835.235	16546
835.373	16538
835.511	16504
835.65	16493
835.788	16417
835.926	16253
836.064	16192
836.202	16249
836.34	16375
836.478	16481
836.615	16363
836.753	16375
836.891	16432
837.029	16367
837.167	16344
837.305	16390
837.443	16234
837.58	16284
837.718	16360
837.856	16375
837.993	16276
838.131	16291
838.269	16272
838.406	16314
838.544	16166
838.681	16074
838.819	15937
838.956	15690
839.094	15770
839.231	15838
839.369	15994
839.506	16268
839.643	16158
839.781	15831
839.918	15892
840.055	15903
840.193	15785
840.33	15739
840.467	15736
840.604	15800
840.742	16086
840.879	15641
841.016	15660
841.153	15667
841.29	15934
841.427	15819
841.564	15945
841.701	15762
841.838	15854
841.975	15667
842.112	15800
842.249	15656
842.385	15614
842.522	15785
842.659	15603
842.796	15523
842.933	15633
843.069	15530
843.206	15580
843.343	15720
843.479	15500
843.616	15534
843.752	15359
843.889	15340
844.025	15469
844.162	15443
844.298	15477
844.435	15428
844.571	15283
844.708	15408
844.844	15530
844.98	15477
845.117	15557
845.253	15408
845.389	15226
845.525	15291
845.661	15279
845.798	15176
845.934	15287
846.07	15157
846.206	15252
846.342	15428
846.478	15085
846.614	14933
846.75	14952
846.886	14857
847.022	15093
847.158	14944
847.294	14941
847.429	15005
847.565	14883
847.701	15169
847.837	14765
847.972	14670
848.108	14785
848.244	14712
848.379	14678
848.515	14434
848.65	14469
848.786	14564
848.921	14526
849.057	14602
849.192	14621
849.328	14503
849.463	14629
849.598	14404
849.734	14484
849.869	14476
850.004	14396
850.14	14431
850.275	14301
850.41	14256
850.545	14317
850.68	14195
850.815	14275
850.95	14347
851.085	14476
851.22	14317
851.355	14317
851.49	14259
851.625	14290
851.76	14263
851.895	14237
852.03	14142
852.165	14301
852.299	14438
852.434	14412
852.569	14282
852.703	14347
852.838	14473
852.973	14396
853.107	14355
853.242	14259
853.376	14233
853.511	14077
853.645	14115
853.78	14347
853.914	14176
854.048	14214
854.183	14176
854.317	14187
854.451	14286
854.585	14183
854.72	14164
854.854	14336
854.988	14103
855.122	14214
855.256	14126
855.39	14153
855.524	14377
855.658	14229
855.792	14233
855.926	14237
856.06	14275
856.194	14400
856.327	14218
856.461	14084
856.595	14138
856.729	14172
856.862	14256
856.996	14244
857.13	14248
857.263	14313
857.397	14290
857.53	14210
857.664	14183
857.797	14271
857.931	14275
858.064	14240
858.197	14195
858.331	14176
858.464	14195
858.597	14077
858.731	14180
858.864	14172
858.997	14176
859.13	14172
859.263	14244
859.396	14267
859.529	14161
859.662	14134
859.795	14180
859.928	14206
860.061	14339
860.194	14358
860.327	14172
860.46	14115
860.592	14320
860.725	14294
860.858	14355
860.99	14195
861.123	14157
861.256	14046
861.388	14134
861.521	14899
861.653	14046
861.786	14024
861.918	14073
862.05	14130
862.183	14164
862.315	14180
862.447	14240
862.58	14088
862.712	13955
862.844	13902
862.976	14005
863.108	13932
863.24	14492
863.372	14039
863.504	13868
863.636	13906
863.768	13978
863.9	14012
864.032	13902
864.164	13814
864.296	14126
864.428	14035
864.559	14054
864.691	14176
864.823	13921
864.954	13978
865.086	14001
865.217	13932
865.349	13868
865.48	13955
865.612	13928
865.743	14035
865.875	13986
866.006	13959
866.137	13917
866.269	13879
866.4	13887
866.531	13883
866.662	13894
866.793	13936
866.924	14016
867.055	13967
867.186	13871
867.317	13852
867.448	13909
867.579	13852
867.71	13947
867.841	13852
867.972	14005
868.103	13997
868.233	14027
868.364	13944
868.495	14043
868.625	14210
868.756	14233
868.886	14088
869.017	14187
869.147	14263
869.278	14351
869.408	14084
869.539	14195
869.669	14278
869.799	14221
869.929	14400
870.06	14358
870.19	14488
870.32	14419
870.45	14541
870.58	14625
870.71	14720
870.84	14689
870.97	14537
871.1	14587
871.23	14826
871.36	14811
871.489	14644
871.619	14735
871.749	14800
871.879	14826
872.008	14895
872.138	14750
872.267	14823
872.397	14693
872.526	14602
872.656	14556
872.785	14625
872.915	14830
873.044	14861
873.173	14804
873.303	14880
873.432	14823
873.561	14960
873.69	14971
873.819	14887
873.948	14944
874.077	14902
874.206	14849
874.335	14861
874.464	14971
874.593	15081
874.722	15074
874.851	15211
874.979	15180
875.108	15203
875.237	15119
875.365	15032
875.494	15055
875.623	15218
875.751	15173
875.88	15291
876.008	15245
876.136	15435
876.265	15603
876.393	15686
876.521	15679
876.65	15644
876.778	15686
876.906	15534
877.034	15534
877.162	15618
877.29	15450
877.418	15545
877.546	15557
877.674	15618
877.802	15530
877.93	15534
878.058	15534
878.185	15450
878.313	15492
878.441	15564
878.568	15526
878.696	15435
878.824	15591
878.951	15641
879.079	15736
879.206	15808
879.333	15652
879.461	15709
879.588	15564
879.715	15732
879.842	15793
879.97	15526
880.097	15393
880.224	15249
880.351	15523
880.478	15424
880.605	15332
880.732	15443
880.859	15698
880.986	15523
881.112	15492
881.239	15287
881.366	15230
881.493	15169
881.619	15138
881.746	15043
881.872	15066
881.999	15043
882.125	14990
882.252	15104
882.378	15135
882.505	15123
882.631	14998
882.757	14956
882.883	14864
883.01	14876
883.136	14842
883.262	14746
883.388	14750
883.514	14823
883.64	14872
883.766	14880
883.892	14792
884.018	14823
884.143	14887
884.269	15009
884.395	14640
884.52	14590
884.646	14613
884.772	14507
884.897	14522
885.023	14568
885.148	14674
885.274	14724
885.399	14659
885.524	14667
885.65	14648
885.775	14625
885.9	14549
886.025	14788
886.15	14724
886.275	14621
886.4	14492
886.525	14556
886.65	14431
886.775	14526
886.9	14750
887.025	14823
887.149	14697
887.274	14461
887.399	14438
887.523	14336
887.648	14389
887.773	14298
887.897	14533
888.021	14549
888.146	14389
888.27	14549
888.395	14602
888.519	14431
888.643	14526
888.767	14507
888.891	14412
889.015	14164
889.139	14355
889.263	14309
889.387	14434
889.511	14507
889.635	14514
889.759	14320
889.883	14252
890.006	14324
890.13	14366
890.254	14244
890.377	14218
890.501	14084
890.624	13989
890.748	14107
890.871	13947
890.995	13974
891.118	13902
891.241	14031
891.364	13989
891.488	14039
891.611	14005
891.734	13932
891.857	14031
891.98	14126
892.103	14123
892.226	13970
892.349	13944
892.471	13970
892.594	14005
892.717	13959
892.839	14008
892.962	14088
893.085	14088
893.207	13902
893.33	13894
893.452	13940
893.575	14111
893.697	14058
893.819	14214
893.941	14259
894.064	14111
894.186	14008
894.308	13917
894.43	14058
894.552	14107
894.674	14191
894.796	14054
894.918	14130
895.04	14092
895.161	14199
895.283	14062
895.405	14077
895.526	14130
895.648	14145
895.769	14248
895.891	14240
896.012	14275
896.134	14244
896.255	14206
896.376	14214
896.498	14168
896.619	14225
896.74	14145
896.861	14259
896.982	14545
897.103	14701
897.224	14549
897.345	14545
897.466	14419
897.587	14465
897.708	14583
897.828	14438
897.949	14434
898.07	14298
898.19	14442
898.311	14587
898.431	14511
898.552	14594
898.672	14610
898.792	14701
898.913	14727
899.033	14484
899.153	14408
899.273	14278
899.393	14454
899.513	14480
899.633	14396
899.753	14438
899.873	14480
899.993	14400
900.113	14480
900.232	14400
900.352	14389
900.472	14396
900.591	14332
900.711	14271
900.83	14271
900.95	14393
901.069	14389
901.189	14187
901.308	13993
901.427	13974
901.546	13932
901.665	14012
901.784	13932
901.904	13841
902.023	13852
902.141	13605
902.26	13518
902.379	13594
902.498	13537
902.617	13487
902.735	13540
902.854	13567
902.973	13483
903.091	13285
903.21	13282
903.328	13251
903.446	13217
903.565	13133
903.683	13114
903.801	13065
903.919	13107
904.038	13099
904.156	13008
904.274	13053
904.392	13004
904.51	12878
904.627	12970
904.745	13046
904.863	12981
904.981	12783
905.098	12677
905.216	12604
905.334	12642
905.451	12620
905.569	12616
905.686	12604
905.803	12601
905.921	12403
906.038	12593
906.155	12414
906.272	12353
906.389	12372
906.506	12175
906.623	12228
906.74	12197
906.857	12106
906.974	12102
907.091	12289
907.208	12445
907.324	12243
907.441	12129
907.557	11977
907.674	11908
907.79	11927
907.907	11878
908.023	12026
908.139	11984
908.256	11920
908.372	11885
908.488	11817
908.604	11699
908.72	11726
908.836	11737
908.952	11649
909.068	11805
909.184	11832
909.3	11733
909.415	11726
909.531	11695
909.647	11570
909.762	11490
909.878	11440
909.993	11562
910.108	11463
910.224	11471
910.339	11516
910.454	11292
910.57	11387
910.685	11269
910.8	11562
910.915	11486
911.03	11360
911.145	11235
911.259	11155
911.374	11204
911.489	11060
911.604	11155
911.718	10957
911.833	10946
911.947	10839
912.062	10786
912.176	11064
912.291	10984
912.405	10896
912.519	11174
912.633	11189
912.748	11094
912.862	10881
912.976	10790
913.09	10717
913.204	10812
913.318	10763
913.431	10968
913.545	10938
913.659	10953
913.772	10877
913.886	10679
914	10622
914.113	10831
914.226	10877
914.34	10866
914.453	10634
914.566	10778
914.68	10710
914.793	10618
914.906	10512
915.019	10424
915.132	10356
915.245	10386
915.358	10554
915.47	10474
915.583	10443
915.696	10519
915.809	10550
915.921	10645
916.034	10447
916.146	10417
916.259	10382
916.371	10500
916.483	10500
916.595	10386
916.708	10474
916.82	10367
916.932	10440
917.044	10272
917.156	10341
917.268	10166
917.38	10280
917.491	10200
917.603	10230
917.715	10455
917.826	10352
917.938	10230
918.049	10192
918.161	10325
918.272	10497
918.384	10436
918.495	10261
918.606	10200
918.717	10078
918.828	10143
918.939	10211
919.05	10078
919.161	10169
919.272	9937
919.383	10021
919.494	10242
919.604	10466
919.715	10200
919.826	10059
919.936	10242
920.047	10242
920.157	10169
920.267	10390
920.378	10238
920.488	10154
920.598	10352
920.708	10489
920.818	10325
920.928	10341
921.038	10580
921.148	10462
921.258	10192
921.368	10166
921.477	10051
921.587	10017
921.697	9979
921.806	10112
921.916	9888
922.025	9804
922.134	9728
922.244	9679
922.353	9797
922.462	9644
922.571	9534
922.68	9454
922.789	9401
922.898	9416
923.007	9374
923.116	9462
923.224	9424
923.333	9416
923.442	9332
923.55	9302
923.659	9389
923.767	9412
923.876	9241
923.984	9416
924.092	9260
924.201	9351
924.309	9325
924.417	9291
924.525	9260
924.633	9329
924.741	10185
924.849	9123
924.956	9294
925.064	9104
925.172	9039
925.279	9093
925.387	9062
925.494	9135
925.602	9260
925.709	9169
925.816	9070
925.924	9028
926.031	9157
926.138	9055
926.245	9165
926.352	9100
926.459	9199
926.566	9195
926.673	9013
926.779	8986
926.886	8910
926.993	8895
927.099	8830
927.206	8807
927.312	8777
927.419	8868
927.525	8845
927.631	8834
927.737	8724
927.843	8686
927.95	8625
928.056	8655
928.162	8796
928.267	8773
928.373	9165
928.479	8796
928.585	8602
928.69	8674
928.796	8750
928.901	8682
929.007	8438
929.112	8610
929.218	8571
929.323	8461
929.428	8568
929.533	8655
929.638	8511
929.743	8514
929.848	8514
929.953	8579
930.058	8389
930.163	8355
930.267	8343
930.372	8473
930.477	8279
930.581	8518
930.685	8358
930.79	8218
930.894	8271
930.998	8229
931.103	8377
931.207	8100
931.311	8020
931.415	7898
931.519	7757
931.623	7704
