Data from test_V78500241_2772.txt Node
Date: Fri Mar 25 14:53:00 CST 2022
User: usil
Spectrometer: V785-0024
Trigger mode: 0
Integration Time (sec): 4.000000E-1
Scans to average: 1
Nonlinearity correction enabled: false
Boxcar width: 0
Storing dark spectrum: false
XAxis mode: Wavelengths
Number of Pixels in Spectrum: 1024
>>>>>Begin Spectral Data<<<<<
801.071	22101
801.214	22013
801.356	21694
801.499	21580
801.641	21405
801.783	21431
801.926	21428
802.068	21249
802.211	21252
802.353	21100
802.496	20952
802.638	20902
802.78	20899
802.923	20777
803.065	20693
803.208	20598
803.35	20777
803.492	20796
803.635	20807
803.777	20697
803.919	20724
804.061	21161
804.204	20842
804.346	20773
804.488	20640
804.63	20701
804.773	20495
804.915	20708
805.057	20708
805.199	20518
805.341	20781
805.483	20712
805.626	20731
805.768	20640
805.91	20701
806.052	20625
806.194	20571
806.336	20765
806.478	20549
806.62	20564
806.762	20693
806.904	20815
807.046	20982
807.188	20990
807.33	20982
807.472	20960
807.614	20853
807.756	20990
807.898	20720
808.04	20708
808.182	20758
808.324	20708
808.465	20678
808.607	20918
808.749	20986
808.891	21207
809.033	21252
809.174	21066
809.316	20914
809.458	21032
809.6	20986
809.741	20975
809.883	21055
810.025	21146
810.166	21157
810.308	21009
810.45	20944
810.591	21062
810.733	20819
810.875	20705
811.016	20781
811.158	20746
811.299	20773
811.441	20872
811.582	20872
811.724	20845
811.865	20743
812.007	20777
812.148	20826
812.29	20788
812.431	20921
812.573	21028
812.714	21203
812.855	21195
812.997	21222
813.138	21530
813.279	21466
813.421	21291
813.562	21298
813.703	20944
813.845	20925
813.986	20621
814.127	20556
814.268	20351
814.41	20309
814.551	20324
814.692	20419
814.833	20275
814.974	20317
815.115	20286
815.256	20172
815.397	20168
815.539	20088
815.68	20115
815.821	20027
815.962	20111
816.103	20058
816.244	19875
816.385	19852
816.526	19788
816.666	19525
816.807	19472
816.948	19605
817.089	19552
817.23	19525
817.371	19377
817.512	19430
817.653	19407
817.793	19377
817.934	19514
818.075	19457
818.216	19343
818.356	19415
818.497	19221
818.638	19072
818.778	19198
818.919	19175
819.06	19050
819.2	19129
819.341	19468
819.481	19350
819.622	19430
819.762	19575
819.903	19620
820.043	19472
820.184	19464
820.324	19400
820.465	19426
820.605	19422
820.746	19441
820.886	19350
821.026	19377
821.167	19346
821.307	19419
821.447	19324
821.588	19320
821.728	19187
821.868	18996
822.008	18852
822.149	18776
822.289	18890
822.429	18532
822.569	18509
822.709	18585
822.849	18342
822.99	18365
823.13	18277
823.27	18216
823.41	18194
823.55	18117
823.69	18197
823.83	18140
823.97	18034
824.11	17935
824.25	17855
824.389	17923
824.529	17958
824.669	17984
824.809	17961
824.949	17920
825.089	17999
825.228	17996
825.368	17752
825.508	17729
825.648	17630
825.787	17752
825.927	17752
826.067	17710
826.206	17665
826.346	17843
826.485	17672
826.625	17695
826.765	17779
826.904	17653
827.044	17448
827.183	17497
827.323	17402
827.462	17353
827.601	17383
827.741	17311
827.88	17463
828.02	17197
828.159	17356
828.298	17398
828.437	17436
828.577	17303
828.716	17512
828.855	17410
828.994	17220
829.134	17231
829.273	17261
829.412	17162
829.551	17060
829.69	17117
829.829	17048
829.968	17071
830.107	17189
830.246	17181
830.385	17006
830.524	16900
830.663	17010
830.802	16839
830.941	16748
831.08	16744
831.219	16790
831.357	16835
831.496	16961
831.635	16786
831.774	16645
831.913	16664
832.051	16622
832.19	16565
832.329	16611
832.467	16432
832.606	16348
832.744	16337
832.883	16443
833.022	16390
833.16	16421
833.299	16542
833.437	16428
833.576	16462
833.714	16459
833.852	16554
833.991	16436
834.129	16542
834.267	16485
834.406	16478
834.544	16546
834.682	16417
834.821	16535
834.959	16649
835.097	16535
835.235	16573
835.373	16577
835.511	16527
835.65	16428
835.788	16371
835.926	16211
836.064	16158
836.202	16261
836.34	16375
836.478	16451
836.615	16462
836.753	16352
836.891	16447
837.029	16535
837.167	16344
837.305	16230
837.443	16261
837.58	16257
837.718	16303
837.856	16325
837.993	16306
838.131	16310
838.269	16344
838.406	16143
838.544	16185
838.681	16032
838.819	16010
838.956	15865
839.094	15861
839.231	15918
839.369	15888
839.506	16265
839.643	16051
839.781	15876
839.918	15755
840.055	15880
840.193	15842
840.33	15831
840.467	15888
840.604	15854
840.742	16048
840.879	15747
841.016	15770
841.153	15686
841.29	15956
841.427	15804
841.564	15812
841.701	15823
841.838	15766
841.975	15743
842.112	15770
842.249	15595
842.385	15561
842.522	15800
842.659	15606
842.796	15587
842.933	15660
843.069	15519
843.206	15564
843.343	15660
843.479	15641
843.616	15633
843.752	15538
843.889	15416
844.025	15553
844.162	15435
844.298	15568
844.435	15310
844.571	15355
844.708	15496
844.844	15454
844.98	15603
845.117	15462
845.253	15397
845.389	15249
845.525	15389
845.661	15226
845.798	15165
845.934	15188
846.07	15218
846.206	15165
846.342	15397
846.478	15203
846.614	14937
846.75	14979
846.886	14956
847.022	15085
847.158	15017
847.294	14963
847.429	15001
847.565	15017
847.701	15173
847.837	14739
847.972	14670
848.108	14826
848.244	14716
848.379	14674
848.515	14636
848.65	14583
848.786	14564
848.921	14598
849.057	14716
849.192	14724
849.328	14716
849.463	14556
849.598	14549
849.734	14537
849.869	14533
850.004	14377
850.14	14461
850.275	14461
850.41	14263
850.545	14309
850.68	14358
850.815	14427
850.95	14317
851.085	14488
851.22	14488
851.355	14370
851.49	14240
851.625	14309
851.76	14377
851.895	14244
852.03	14244
852.165	14271
852.299	14366
852.434	14499
852.569	14351
852.703	14404
852.838	14480
852.973	14541
853.107	14632
853.242	14290
853.376	14221
853.511	14176
853.645	14168
853.78	14427
853.914	14233
854.048	14267
854.183	14248
854.317	14244
854.451	14404
854.585	14157
854.72	14149
854.854	14317
854.988	14244
855.122	14123
855.256	14058
855.39	14149
855.524	14271
855.658	14294
855.792	14202
855.926	14275
856.06	14374
856.194	14298
856.327	14278
856.461	14248
856.595	14168
856.729	14225
856.862	14347
856.996	14370
857.13	14366
857.263	14480
857.397	14324
857.53	14259
857.664	14290
857.797	14328
857.931	14294
858.064	14301
858.197	14317
858.331	14119
858.464	14096
858.597	14100
858.731	14187
858.864	14271
858.997	14164
859.13	14263
859.263	14343
859.396	14362
859.529	14248
859.662	14267
859.795	14218
859.928	14275
860.061	14461
860.194	14389
860.327	14317
860.46	14240
860.592	14389
860.725	14400
860.858	14309
860.99	14336
861.123	14138
861.256	14259
861.388	14370
861.521	14902
861.653	14138
861.786	14077
861.918	14191
862.05	14168
862.183	14290
862.315	14298
862.447	14263
862.58	14138
862.712	14039
862.844	14020
862.976	14126
863.108	14031
863.24	14408
863.372	13951
863.504	14062
863.636	14134
863.768	14096
863.9	14024
864.032	13940
864.164	13963
864.296	14012
864.428	14149
864.559	14096
864.691	14168
864.823	13963
864.954	14058
865.086	14065
865.217	14005
865.349	13993
865.48	14020
865.612	14065
865.743	14134
865.875	14073
866.006	13963
866.137	14050
866.269	13989
866.4	13989
866.531	13963
866.662	13909
866.793	13860
866.924	13993
867.055	14035
867.186	13932
867.317	13928
867.448	13837
867.579	13932
867.71	13887
867.841	13932
867.972	14008
868.103	14050
868.233	13951
868.364	14050
868.495	14058
868.625	14202
868.756	14355
868.886	14149
869.017	14191
869.147	14427
869.278	14434
869.408	14301
869.539	14225
869.669	14381
869.799	14237
869.929	14419
870.06	14427
870.19	14617
870.32	14537
870.45	14617
870.58	14583
870.71	14887
870.84	14777
870.97	14636
871.1	14610
871.23	14849
871.36	14872
871.489	14750
871.619	14883
871.749	14872
871.879	14872
872.008	14967
872.138	14845
872.267	14910
872.397	14701
872.526	14613
872.656	14541
872.785	14606
872.915	14902
873.044	14880
873.173	14906
873.303	14887
873.432	14967
873.561	14982
873.69	14914
873.819	14998
873.948	14990
874.077	14937
874.206	14876
874.335	14929
874.464	15009
874.593	15256
874.722	15089
874.851	15180
874.979	15169
875.108	15294
875.237	15275
875.365	15146
875.494	15241
875.623	15310
875.751	15176
875.88	15256
876.008	15389
876.136	15488
876.265	15739
876.393	15789
876.521	15686
876.65	15637
876.778	15698
876.906	15709
877.034	15568
877.162	15633
877.29	15496
877.418	15720
877.546	15644
877.674	15595
877.802	15717
877.93	15641
878.058	15622
878.185	15603
878.313	15515
878.441	15618
878.568	15496
878.696	15603
878.824	15625
878.951	15762
879.079	15804
879.206	15922
879.333	15797
879.461	15698
879.588	15793
879.715	15743
879.842	15915
879.97	15698
880.097	15488
880.224	15595
880.351	15553
880.478	15542
880.605	15492
880.732	15420
880.859	15671
880.986	15458
881.112	15542
881.239	15355
881.366	15260
881.493	15184
881.619	15180
881.746	15264
881.872	15180
881.999	15138
882.125	15070
882.252	15207
882.378	15237
882.505	15332
882.631	14998
882.757	14899
882.883	15032
883.01	14952
883.136	14826
883.262	14788
883.388	14845
883.514	15024
883.64	15024
883.766	14990
883.892	14754
884.018	14739
884.143	14963
884.269	14979
884.395	14746
884.52	14648
884.646	14720
884.772	14564
884.897	14552
885.023	14629
885.148	14682
885.274	14792
885.399	14743
885.524	14659
885.65	14674
885.775	14785
885.9	14644
886.025	14773
886.15	14823
886.275	14610
886.4	14583
886.525	14708
886.65	14674
886.775	14526
886.9	14651
887.025	14902
887.149	14663
887.274	14655
887.399	14465
887.523	14442
887.648	14484
887.773	14438
887.897	14545
888.021	14514
888.146	14549
888.27	14667
888.395	14587
888.519	14560
888.643	14598
888.767	14541
888.891	14476
889.015	14427
889.139	14419
889.263	14229
889.387	14423
889.511	14571
889.635	14552
889.759	14377
889.883	14332
890.006	14351
890.13	14336
890.254	14290
890.377	14290
890.501	14237
890.624	14183
890.748	14317
890.871	14153
890.995	14069
891.118	13993
891.241	14027
891.364	14058
891.488	14092
891.611	14134
891.734	14069
891.857	14145
891.98	14073
892.103	14145
892.226	14100
892.349	14039
892.471	13906
892.594	14046
892.717	14126
892.839	14065
892.962	14195
893.085	14130
893.207	14050
893.33	14035
893.452	13989
893.575	14191
893.697	14111
893.819	14134
893.941	14267
894.064	14244
894.186	14035
894.308	14058
894.43	14103
894.552	14237
894.674	14195
894.796	14012
894.918	14100
895.04	14069
895.161	14168
895.283	14142
895.405	14134
895.526	14176
895.648	14134
895.769	14195
895.891	14164
896.012	14343
896.134	14244
896.255	14267
896.376	14278
896.498	14237
896.619	14248
896.74	14252
896.861	14256
896.982	14568
897.103	14727
897.224	14610
897.345	14503
897.466	14446
897.587	14556
897.708	14564
897.828	14549
897.949	14419
898.07	14381
898.19	14571
898.311	14629
898.431	14419
898.552	14503
898.672	14693
898.792	14655
898.913	14701
899.033	14461
899.153	14427
899.273	14271
899.393	14377
899.513	14495
899.633	14457
899.753	14518
899.873	14339
899.993	14507
900.113	14522
900.232	14469
900.352	14400
900.472	14393
900.591	14313
900.711	14298
900.83	14271
900.95	14389
901.069	14366
901.189	14271
901.308	13978
901.427	13944
901.546	14035
901.665	14092
901.784	14008
901.904	13887
902.023	13731
902.141	13674
902.26	13586
902.379	13605
902.498	13514
902.617	13586
902.735	13605
902.854	13559
902.973	13438
903.091	13312
903.21	13297
903.328	13221
903.446	13190
903.565	13190
903.683	13171
903.801	13015
903.919	13088
904.038	13122
904.156	12973
904.274	13015
904.392	12970
904.51	12932
904.627	12916
904.745	13076
904.863	12977
904.981	12760
905.098	12642
905.216	12574
905.334	12601
905.451	12608
905.569	12620
905.686	12707
905.803	12547
905.921	12403
906.038	12608
906.155	12437
906.272	12410
906.389	12376
906.506	12194
906.623	12216
906.74	12251
906.857	12114
906.974	12121
907.091	12315
907.208	12426
907.324	12300
907.441	12117
907.557	12011
907.674	11973
907.79	11939
907.907	11885
908.023	11973
908.139	11984
908.256	11916
908.372	11920
908.488	11748
908.604	11817
908.72	11649
908.836	11756
908.952	11676
909.068	11676
909.184	11813
909.3	11684
909.415	11836
909.531	11699
909.647	11551
909.762	11524
909.878	11493
909.993	11512
910.108	11459
910.224	11444
910.339	11570
910.454	11349
910.57	11410
910.685	11277
910.8	11581
910.915	11532
911.03	11406
911.145	11216
911.259	11246
911.374	11201
911.489	11086
911.604	11117
911.718	10961
911.833	10934
911.947	10831
912.062	10824
912.176	10972
912.291	10984
912.405	10866
912.519	11113
912.633	11128
912.748	11048
912.862	10991
912.976	10889
913.09	10778
913.204	10793
913.318	10904
913.431	10972
913.545	10934
913.659	10976
913.772	10828
913.886	10744
914	10691
914.113	10752
914.226	10862
914.34	10782
914.453	10664
914.566	10801
914.68	10717
914.793	10664
914.906	10527
915.019	10421
915.132	10363
915.245	10474
915.358	10512
915.47	10512
915.583	10508
915.696	10554
915.809	10618
915.921	10603
916.034	10478
916.146	10363
916.259	10367
916.371	10592
916.483	10489
916.595	10371
916.708	10352
916.82	10421
916.932	10402
917.044	10295
917.156	10329
917.268	10303
917.38	10291
917.491	10246
917.603	10348
917.715	10367
917.826	10417
917.938	10284
918.049	10246
918.161	10363
918.272	10386
918.384	10360
918.495	10306
918.606	10173
918.717	10093
918.828	10249
918.939	10215
919.05	10048
919.161	10154
919.272	9934
919.383	9998
919.494	10147
919.604	10447
919.715	10291
919.826	10010
919.936	10162
920.047	10265
920.157	10185
920.267	10485
920.378	10215
920.488	10173
920.598	10356
920.708	10550
920.818	10432
920.928	10417
921.038	10573
921.148	10481
921.258	10188
921.368	10219
921.477	10074
921.587	10002
921.697	9899
921.806	10090
921.916	9960
922.025	9816
922.134	9819
922.244	9747
922.353	9819
922.462	9633
922.571	9603
922.68	9428
922.789	9481
922.898	9462
923.007	9374
923.116	9507
923.224	9435
923.333	9458
923.442	9294
923.55	9336
923.659	9405
923.767	9462
923.876	9264
923.984	9412
924.092	9264
924.201	9351
924.309	9272
924.417	9310
924.525	9294
924.633	9268
924.741	10090
924.849	9081
924.956	9283
925.064	9093
925.172	9058
925.279	8998
925.387	9097
925.494	9089
925.602	9260
925.709	9184
925.816	9093
925.924	9131
926.031	9222
926.138	9043
926.245	9150
926.352	9085
926.459	9233
926.566	9218
926.673	9039
926.779	8982
926.886	8990
926.993	8918
927.099	8880
927.206	8823
927.312	8800
927.419	8872
927.525	8804
927.631	8880
927.737	8724
927.843	8686
927.95	8587
928.056	8590
928.162	8792
928.267	8708
928.373	9367
928.479	8769
928.585	8590
928.69	8697
928.796	8743
928.901	8670
929.007	8499
929.112	8541
929.218	8568
929.323	8575
929.428	8541
929.533	8693
929.638	8511
929.743	8503
929.848	8549
929.953	8545
930.058	8415
930.163	8267
930.267	8317
930.372	8434
930.477	8309
930.581	8594
930.685	8385
930.79	8252
930.894	8229
930.998	8195
931.103	8423
931.207	7982
931.311	7970
931.415	7932
931.519	7738
931.623	7719
