Data from test_V78500241_1777.txt Node
Date: Fri Mar 25 14:46:05 CST 2022
User: usil
Spectrometer: V785-0024
Trigger mode: 0
Integration Time (sec): 4.000000E-1
Scans to average: 1
Nonlinearity correction enabled: false
Boxcar width: 0
Storing dark spectrum: false
XAxis mode: Wavelengths
Number of Pixels in Spectrum: 1024
>>>>>Begin Spectral Data<<<<<
801.071	22295
801.214	22147
801.356	21918
801.499	21641
801.641	21629
801.783	21641
801.926	21587
802.068	21363
802.211	21515
802.353	21332
802.496	21226
802.638	21146
802.78	21116
802.923	21009
803.065	20819
803.208	20849
803.35	20887
803.492	20948
803.635	21066
803.777	20849
803.919	21055
804.061	21310
804.204	20967
804.346	20773
804.488	20826
804.63	20880
804.773	20663
804.915	20792
805.057	20963
805.199	20864
805.341	20925
805.483	20921
805.626	20864
805.768	20823
805.91	20762
806.052	20887
806.194	20727
806.336	20914
806.478	20819
806.62	20762
806.762	20853
806.904	21058
807.046	21291
807.188	21142
807.33	21100
807.472	21176
807.614	21070
807.756	21066
807.898	20880
808.04	20815
808.182	21028
808.324	20921
808.465	20868
808.607	20979
808.749	21176
808.891	21268
809.033	21268
809.174	21283
809.316	21272
809.458	21176
809.6	21169
809.741	21389
809.883	21351
810.025	21405
810.166	21454
810.308	21348
810.45	21329
810.591	21184
810.733	21039
810.875	21028
811.016	20853
811.158	20891
811.299	21047
811.441	21036
811.582	21116
811.724	20929
811.865	20956
812.007	20838
812.148	20830
812.29	20914
812.431	21116
812.573	21275
812.714	21405
812.855	21530
812.997	21530
813.138	21633
813.279	21614
813.421	21504
813.562	21389
813.703	21222
813.845	21051
813.986	20762
814.127	20746
814.268	20602
814.41	20606
814.551	20423
814.692	20651
814.833	20495
814.974	20419
815.115	20492
815.256	20328
815.397	20404
815.539	20355
815.68	20309
815.821	20153
815.962	20309
816.103	20202
816.244	20248
816.385	20020
816.526	20031
816.666	19849
816.807	19674
816.948	19856
817.089	19845
817.23	19799
817.371	19731
817.512	19712
817.653	19700
817.793	19616
817.934	19575
818.075	19632
818.216	19757
818.356	19540
818.497	19521
818.638	19289
818.778	19438
818.919	19202
819.06	19411
819.2	19449
819.341	19616
819.481	19563
819.622	19742
819.762	19811
819.903	19761
820.043	19696
820.184	19635
820.324	19605
820.465	19658
820.605	19590
820.746	19601
820.886	19514
821.026	19651
821.167	19567
821.307	19662
821.447	19578
821.588	19514
821.728	19282
821.868	19141
822.008	19038
822.149	19065
822.289	18958
822.429	18768
822.569	18753
822.709	18783
822.849	18570
822.99	18544
823.13	18437
823.27	18486
823.41	18289
823.55	18235
823.69	18429
823.83	18486
823.97	18224
824.11	18083
824.25	18060
824.389	18087
824.529	18159
824.669	17992
824.809	18174
824.949	18174
825.089	18121
825.228	18076
825.368	17961
825.508	17927
825.648	17836
825.787	17931
825.927	17916
826.067	17866
826.206	17904
826.346	17870
826.485	17866
826.625	17847
826.765	17923
826.904	17847
827.044	17646
827.183	17619
827.323	17630
827.462	17668
827.601	17474
827.741	17577
827.88	17619
828.02	17444
828.159	17543
828.298	17611
828.437	17566
828.577	17433
828.716	17634
828.855	17493
828.994	17311
829.134	17334
829.273	17330
829.412	17284
829.551	17239
829.69	17326
829.829	17402
829.968	17379
830.107	17326
830.246	17299
830.385	17159
830.524	17212
830.663	17223
830.802	17006
830.941	16869
831.08	16854
831.219	17064
831.357	17010
831.496	17273
831.635	17010
831.774	16885
831.913	16805
832.051	16767
832.19	16721
832.329	16801
832.467	16683
832.606	16603
832.744	16691
832.883	16622
833.022	16531
833.16	16664
833.299	16683
833.437	16683
833.576	16656
833.714	16672
833.852	16660
833.991	16733
834.129	16767
834.267	16767
834.406	16752
834.544	16713
834.682	16592
834.821	16736
834.959	16824
835.097	16675
835.235	16828
835.373	16733
835.511	16763
835.65	16569
835.788	16675
835.926	16413
836.064	16390
836.202	16428
836.34	16706
836.478	16702
836.615	16569
836.753	16630
836.891	16660
837.029	16687
837.167	16592
837.305	16451
837.443	16394
837.58	16375
837.718	16630
837.856	16546
837.993	16398
838.131	16577
838.269	16382
838.406	16409
838.544	16280
838.681	16196
838.819	16158
838.956	16017
839.094	16021
839.231	16166
839.369	16116
839.506	16386
839.643	16310
839.781	16006
839.918	16021
840.055	15945
840.193	15991
840.33	15854
840.467	16059
840.604	16032
840.742	16265
840.879	15937
841.016	15960
841.153	15899
841.29	16120
841.427	16067
841.564	15960
841.701	16078
841.838	15945
841.975	15915
842.112	15994
842.249	15762
842.385	15743
842.522	15941
842.659	15797
842.796	15880
842.933	15808
843.069	15743
843.206	15713
843.343	15857
843.479	15857
843.616	15781
843.752	15656
843.889	15576
844.025	15701
844.162	15553
844.298	15580
844.435	15523
844.571	15504
844.708	15587
844.844	15709
844.98	15709
845.117	15785
845.253	15564
845.389	15473
845.525	15431
845.661	15454
845.798	15382
845.934	15405
846.07	15348
846.206	15389
846.342	15450
846.478	15340
846.614	15135
846.75	15131
846.886	15203
847.022	15199
847.158	15211
847.294	15150
847.429	15230
847.565	15176
847.701	15370
847.837	14800
847.972	14792
848.108	15028
848.244	14944
848.379	14796
848.515	14720
848.65	14735
848.786	14750
848.921	14773
849.057	14830
849.192	14788
849.328	14785
849.463	14826
849.598	14754
849.734	14727
849.869	14629
850.004	14552
850.14	14533
850.275	14526
850.41	14465
850.545	14427
850.68	14556
850.815	14549
850.95	14495
851.085	14644
851.22	14564
851.355	14632
851.49	14446
851.625	14492
851.76	14473
851.895	14404
852.03	14465
852.165	14514
852.299	14606
852.434	14556
852.569	14503
852.703	14492
852.838	14613
852.973	14735
853.107	14697
853.242	14507
853.376	14438
853.511	14309
853.645	14377
853.78	14545
853.914	14438
854.048	14343
854.183	14294
854.317	14446
854.451	14442
854.585	14389
854.72	14374
854.854	14404
854.988	14423
855.122	14389
855.256	14187
855.39	14355
855.524	14575
855.658	14385
855.792	14355
855.926	14362
856.06	14465
856.194	14400
856.327	14457
856.461	14324
856.595	14336
856.729	14347
856.862	14469
856.996	14438
857.13	14412
857.263	14533
857.397	14556
857.53	14370
857.664	14457
857.797	14537
857.931	14575
858.064	14438
858.197	14495
858.331	14434
858.464	14339
858.597	14256
858.731	14355
858.864	14358
858.997	14286
859.13	14362
859.263	14389
859.396	14480
859.529	14317
859.662	14298
859.795	14275
859.928	14434
860.061	14533
860.194	14537
860.327	14339
860.46	14415
860.592	14457
860.725	14469
860.858	14514
860.99	14488
861.123	14309
861.256	14259
861.388	14374
861.521	15085
861.653	14290
861.786	14183
861.918	14168
862.05	14305
862.183	14286
862.315	14294
862.447	14446
862.58	14332
862.712	14271
862.844	14081
862.976	14259
863.108	14229
863.24	14533
863.372	14016
863.504	14214
863.636	14145
863.768	14164
863.9	14142
864.032	14077
864.164	14020
864.296	14210
864.428	14324
864.559	14248
864.691	14286
864.823	14183
864.954	14290
865.086	14168
865.217	14115
865.349	14050
865.48	14161
865.612	14088
865.743	14282
865.875	14157
866.006	14119
866.137	14191
866.269	14248
866.4	14065
866.531	14016
866.662	14062
866.793	14035
866.924	14138
867.055	14183
867.186	14115
867.317	14149
867.448	14058
867.579	14054
867.71	14050
867.841	14031
867.972	14142
868.103	14176
868.233	14142
868.364	14183
868.495	14237
868.625	14438
868.756	14476
868.886	14339
869.017	14343
869.147	14511
869.278	14473
869.408	14400
869.539	14488
869.669	14404
869.799	14366
869.929	14545
870.06	14560
870.19	14670
870.32	14678
870.45	14720
870.58	14914
870.71	14902
870.84	14906
870.97	14769
871.1	14773
871.23	14975
871.36	14918
871.489	14952
871.619	14956
871.749	14998
871.879	15020
872.008	15123
872.138	15051
872.267	14902
872.397	14834
872.526	14891
872.656	14826
872.785	14910
872.915	15055
873.044	15104
873.173	15077
873.303	14979
873.432	15047
873.561	15093
873.69	15066
873.819	15005
873.948	15138
874.077	15055
874.206	14982
874.335	14982
874.464	15184
874.593	15382
874.722	15340
874.851	15367
874.979	15359
875.108	15370
875.237	15249
875.365	15332
875.494	15241
875.623	15412
875.751	15405
875.88	15374
876.008	15523
876.136	15599
876.265	15762
876.393	15922
876.521	15835
876.65	15804
876.778	15762
876.906	15694
877.034	15656
877.162	15701
877.29	15682
877.418	15751
877.546	15789
877.674	15804
877.802	15690
877.93	15743
878.058	15762
878.185	15603
878.313	15675
878.441	15876
878.568	15545
878.696	15652
878.824	15869
878.951	15751
879.079	15960
879.206	16044
879.333	15857
879.461	15774
879.588	15850
879.715	15888
879.842	16097
879.97	15831
880.097	15679
880.224	15652
880.351	15584
880.478	15633
880.605	15576
880.732	15561
880.859	15835
880.986	15629
881.112	15675
881.239	15492
881.366	15378
881.493	15214
881.619	15138
881.746	15260
881.872	15298
881.999	15298
882.125	15199
882.252	15260
882.378	15298
882.505	15405
882.631	15207
882.757	15028
882.883	15150
883.01	15142
883.136	15104
883.262	14899
883.388	14872
883.514	15043
883.64	15127
883.766	15039
883.892	14845
884.018	14857
884.143	15108
884.269	15272
884.395	14823
884.52	14724
884.646	14785
884.772	14655
884.897	14800
885.023	14754
885.148	14876
885.274	14979
885.399	14880
885.524	14815
885.65	14758
885.775	14819
885.9	14796
886.025	14891
886.15	14868
886.275	14724
886.4	14625
886.525	14746
886.65	14712
886.775	14727
886.9	14819
887.025	15097
887.149	14769
887.274	14617
887.399	14568
887.523	14560
887.648	14594
887.773	14446
887.897	14750
888.021	14724
888.146	14560
888.27	14640
888.395	14648
888.519	14735
888.643	14716
888.767	14651
888.891	14571
889.015	14370
889.139	14590
889.263	14469
889.387	14537
889.511	14758
889.635	14530
889.759	14377
889.883	14457
890.006	14541
890.13	14640
890.254	14389
890.377	14419
890.501	14267
890.624	14206
890.748	14446
890.871	14221
890.995	14100
891.118	14024
891.241	14168
891.364	14210
891.488	14252
891.611	14149
891.734	14206
891.857	14229
891.98	14145
892.103	14134
892.226	14240
892.349	14176
892.471	14031
892.594	14119
892.717	14267
892.839	14115
892.962	14138
893.085	14191
893.207	14275
893.33	14088
893.452	14107
893.575	14229
893.697	14145
893.819	14343
893.941	14415
894.064	14347
894.186	14214
894.308	14096
894.43	14370
894.552	14336
894.674	14377
894.796	14161
894.918	14244
895.04	14252
895.161	14259
895.283	14400
895.405	14187
895.526	14309
895.648	14263
895.769	14301
895.891	14362
896.012	14507
896.134	14347
896.255	14275
896.376	14419
896.498	14385
896.619	14381
896.74	14343
896.861	14427
896.982	14670
897.103	14876
897.224	14773
897.345	14579
897.466	14530
897.587	14526
897.708	14686
897.828	14697
897.949	14533
898.07	14526
898.19	14629
898.311	14838
898.431	14648
898.552	14708
898.672	14792
898.792	14792
898.913	14815
899.033	14629
899.153	14560
899.273	14370
899.393	14537
899.513	14514
899.633	14610
899.753	14533
899.873	14488
899.993	14610
900.113	14541
900.232	14621
900.352	14495
900.472	14511
900.591	14305
900.711	14415
900.83	14442
900.95	14465
901.069	14560
901.189	14313
901.308	14077
901.427	14016
901.546	14096
901.665	14100
901.784	14039
901.904	14027
902.023	13970
902.141	13750
902.26	13647
902.379	13689
902.498	13693
902.617	13651
902.735	13685
902.854	13742
902.973	13548
903.091	13304
903.21	13396
903.328	13365
903.446	13198
903.565	13297
903.683	13251
903.801	13152
903.919	13190
904.038	13293
904.156	12989
904.274	13179
904.392	12993
904.51	12977
904.627	12989
904.745	13038
904.863	13069
904.981	12817
905.098	12760
905.216	12654
905.334	12772
905.451	12779
905.569	12703
905.686	12749
905.803	12726
905.921	12532
906.038	12631
906.155	12570
906.272	12399
906.389	12422
906.506	12292
906.623	12338
906.74	12243
906.857	12167
906.974	12178
907.091	12372
907.208	12380
907.324	12410
907.441	12216
907.557	12064
907.674	12091
907.79	12003
907.907	11958
908.023	12038
908.139	12091
908.256	12022
908.372	12011
908.488	11950
908.604	11908
908.72	11767
908.836	11889
908.952	11764
909.068	11824
909.184	11942
909.3	11794
909.415	11935
909.531	11874
909.647	11615
909.762	11668
909.878	11600
909.993	11596
910.108	11611
910.224	11539
910.339	11539
910.454	11448
910.57	11478
910.685	11341
910.8	11672
910.915	11649
911.03	11501
911.145	11296
911.259	11277
911.374	11318
911.489	11216
911.604	11102
911.718	11025
911.833	11022
911.947	10927
912.062	10892
912.176	11071
912.291	11064
912.405	11105
912.519	11231
912.633	11258
912.748	11140
912.862	11018
912.976	10900
913.09	10736
913.204	10843
913.318	10866
913.431	11048
913.545	11064
913.659	11033
913.772	10965
913.886	10801
914	10774
914.113	10892
914.226	10923
914.34	10900
914.453	10778
914.566	10862
914.68	10736
914.793	10679
914.906	10550
915.019	10592
915.132	10421
915.245	10554
915.358	10516
915.47	10580
915.583	10592
915.696	10611
915.809	10672
915.921	10683
916.034	10466
916.146	10508
916.259	10485
916.371	10542
916.483	10641
916.595	10455
916.708	10447
916.82	10527
916.932	10493
917.044	10474
917.156	10523
917.268	10386
917.38	10356
917.491	10478
917.603	10485
917.715	10459
917.826	10500
917.938	10360
918.049	10402
918.161	10424
918.272	10489
918.384	10508
918.495	10474
918.606	10257
918.717	10200
918.828	10337
918.939	10333
919.05	10196
919.161	10303
919.272	10109
919.383	10177
919.494	10356
919.604	10561
919.715	10318
919.826	10147
919.936	10253
920.047	10462
920.157	10325
920.267	10504
920.378	10356
920.488	10318
920.598	10500
920.708	10653
920.818	10542
920.928	10500
921.038	10615
921.148	10634
921.258	10363
921.368	10284
921.477	10207
921.587	10116
921.697	10097
921.806	10227
921.916	10082
922.025	9945
922.134	9930
922.244	9861
922.353	9892
922.462	9812
922.571	9717
922.68	9572
922.789	9557
922.898	9587
923.007	9504
923.116	9599
923.224	9549
923.333	9580
923.442	9443
923.55	9401
923.659	9519
923.767	9523
923.876	9431
923.984	9450
924.092	9378
924.201	9431
924.309	9439
924.417	9431
924.525	9416
924.633	9443
924.741	10432
924.849	9180
924.956	9386
925.064	9241
925.172	9192
925.279	9176
925.387	9249
925.494	9138
925.602	9321
925.709	9294
925.816	9138
925.924	9188
926.031	9477
926.138	9184
926.245	9264
926.352	9165
926.459	9287
926.566	9317
926.673	9154
926.779	9157
926.886	8982
926.993	8952
927.099	8857
927.206	8921
927.312	8914
927.419	8933
927.525	8914
927.631	8956
927.737	8891
927.843	8792
927.95	8735
928.056	8834
928.162	8826
928.267	8891
928.373	9458
928.479	8899
928.585	8731
928.69	8762
928.796	8845
928.901	8720
929.007	8610
929.112	8731
929.218	8705
929.323	8598
929.428	8583
929.533	8758
929.638	8537
929.743	8552
929.848	8651
929.953	8659
930.058	8518
930.163	8347
930.267	8355
930.372	8522
930.477	8389
930.581	8644
930.685	8514
930.79	8339
930.894	8442
930.998	8385
931.103	8530
931.207	8176
931.311	8115
931.415	7986
931.519	7856
931.623	7833
