Data from test_V78500241_839.txt Node
Date: Fri Mar 25 14:39:33 CST 2022
User: usil
Spectrometer: V785-0024
Trigger mode: 0
Integration Time (sec): 4.000000E-1
Scans to average: 1
Nonlinearity correction enabled: false
Boxcar width: 0
Storing dark spectrum: false
XAxis mode: Wavelengths
Number of Pixels in Spectrum: 1024
>>>>>Begin Spectral Data<<<<<
801.071	26092
801.214	25970
801.356	25628
801.499	25605
801.641	25411
801.783	25339
801.926	25438
802.068	25392
802.211	25266
802.353	25084
802.496	24916
802.638	24749
802.78	24878
802.923	24779
803.065	24802
803.208	24802
803.35	25000
803.492	24905
803.635	24943
803.777	24890
803.919	24992
804.061	25324
804.204	25061
804.346	25126
804.488	24844
804.63	25042
804.773	24863
804.915	24920
805.057	25278
805.199	25194
805.341	25304
805.483	25251
805.626	25270
805.768	25107
805.91	25270
806.052	25407
806.194	25476
806.336	25681
806.478	25791
806.62	25769
806.762	25921
806.904	26358
807.046	26705
807.188	26826
807.33	27146
807.472	27553
807.614	27812
807.756	28455
807.898	29064
808.04	29931
808.182	31050
808.324	32762
808.465	34702
808.607	36585
808.749	38324
808.891	39313
809.033	39557
809.174	38393
809.316	36680
809.458	34557
809.6	32590
809.741	30996
809.883	29783
810.025	28892
810.166	28112
810.308	27793
810.45	27344
810.591	27009
810.733	26590
810.875	26415
811.016	26119
811.158	25936
811.299	26035
811.441	25974
811.582	25940
811.724	25582
811.865	25616
812.007	25563
812.148	25483
812.29	25468
812.431	25594
812.573	25677
812.714	25864
812.855	25902
812.997	25986
813.138	26027
813.279	25795
813.421	25772
813.562	25704
813.703	25460
813.845	25221
813.986	24981
814.127	24738
814.268	24749
814.41	24734
814.551	24707
814.692	24726
814.833	24593
814.974	24749
815.115	24540
815.256	24418
815.397	24357
815.539	24300
815.68	24133
815.821	24277
815.962	24243
816.103	24186
816.244	24076
816.385	24007
816.526	23870
816.666	23726
816.807	23634
816.948	23771
817.089	23809
817.23	23752
817.371	23577
817.512	23509
817.653	23509
817.793	23638
817.934	23467
818.075	23558
818.216	23554
818.356	23368
818.497	23341
818.638	23155
818.778	23227
818.919	23098
819.06	23181
819.2	23440
819.341	23486
819.481	23448
819.622	23531
819.762	23695
819.903	23748
820.043	23505
820.184	23288
820.324	23402
820.465	23539
820.605	23277
820.746	23349
820.886	23326
821.026	23326
821.167	23372
821.307	23341
821.447	23216
821.588	23098
821.728	22949
821.868	22778
822.008	22645
822.149	22767
822.289	22645
822.429	22268
822.569	22382
822.709	22417
822.849	22139
822.99	22154
823.13	22131
823.27	22048
823.41	21937
823.55	21838
823.69	21968
823.83	22067
823.97	21850
824.11	21743
824.25	21732
824.389	21679
824.529	21747
824.669	21557
824.809	21774
824.949	21857
825.089	21724
825.228	21747
825.368	21591
825.508	21458
825.648	21572
825.787	21576
825.927	21526
826.067	21469
826.206	21435
826.346	21481
826.485	21504
826.625	21454
826.765	21481
826.904	21580
827.044	21332
827.183	21184
827.323	21142
827.462	21287
827.601	21074
827.741	21192
827.88	21245
828.02	20982
828.159	21085
828.298	21116
828.437	21207
828.577	20971
828.716	21218
828.855	21112
828.994	20906
829.134	20819
829.273	20918
829.412	20739
829.551	20708
829.69	20765
829.829	20750
829.968	20872
830.107	20868
830.246	20838
830.385	20746
830.524	20716
830.663	20594
830.802	20613
830.941	20446
831.08	20461
831.219	20461
831.357	20522
831.496	20625
831.635	20526
831.774	20320
831.913	20343
832.051	20336
832.19	20187
832.329	20286
832.467	20199
832.606	20157
832.744	20252
832.883	20145
833.022	20275
833.16	20374
833.299	20343
833.437	20404
833.576	20541
833.714	20659
833.852	20796
833.991	20830
834.129	20944
834.267	20921
834.406	20891
834.544	20804
834.682	20815
834.821	20697
834.959	20670
835.097	20503
835.235	20450
835.373	20438
835.511	20362
835.65	20081
835.788	20153
835.926	20016
836.064	19791
836.202	19852
836.34	19951
836.478	20065
836.615	19978
836.753	19993
836.891	20035
837.029	20077
837.167	19925
837.305	19826
837.443	19814
837.58	19791
837.718	19807
837.856	19807
837.993	19712
838.131	19826
838.269	19795
838.406	19689
838.544	19605
838.681	19441
838.819	19335
838.956	19164
839.094	19236
839.231	19308
839.369	19331
839.506	19693
839.643	19457
839.781	19129
839.918	19137
840.055	19282
840.193	19244
840.33	19285
840.467	19076
840.604	19198
840.742	19495
840.879	19126
841.016	19107
841.153	19137
841.29	19297
841.427	19221
841.564	19232
841.701	19190
841.838	19088
841.975	19012
842.112	19099
842.249	18962
842.385	18894
842.522	19244
842.659	19076
842.796	19019
842.933	18996
843.069	19004
843.206	18966
843.343	19133
843.479	19091
843.616	19072
843.752	18939
843.889	18875
844.025	19065
844.162	18852
844.298	19099
844.435	19088
844.571	19206
844.708	19491
844.844	19830
844.98	20046
845.117	20431
845.253	20792
845.389	21819
845.525	23741
845.661	27066
845.798	31141
845.934	34424
846.07	35775
846.206	35105
846.342	32393
846.478	28360
846.614	24681
846.75	22291
846.886	20864
847.022	20005
847.158	19571
847.294	19122
847.429	18852
847.565	18681
847.701	18894
847.837	18365
847.972	18239
848.108	18346
848.244	18334
848.379	18019
848.515	18072
848.65	17950
848.786	17992
848.921	17942
849.057	17954
849.192	17927
849.328	17999
849.463	17874
849.598	17794
849.734	17828
849.869	17687
850.004	17649
850.14	17558
850.275	17741
850.41	17558
850.545	17630
850.68	17596
850.815	17570
850.95	17516
851.085	17657
851.22	17634
851.355	17581
851.49	17604
851.625	17463
851.76	17566
851.895	17471
852.03	17516
852.165	17528
852.299	17638
852.434	17756
852.569	17611
852.703	17726
852.838	17699
852.973	17729
853.107	17817
853.242	17695
853.376	17520
853.511	17440
853.645	17440
853.78	17646
853.914	17585
854.048	17638
854.183	17577
854.317	17718
854.451	17840
854.585	17699
854.72	17657
854.854	17741
854.988	17562
855.122	17566
855.256	17356
855.39	17448
855.524	17573
855.658	17581
855.792	17471
855.926	17459
856.06	17452
856.194	17524
856.327	17444
856.461	17334
856.595	17376
856.729	17425
856.862	17501
856.996	17467
857.13	17493
857.263	17459
857.397	17429
857.53	17372
857.664	17493
857.797	17497
857.931	17471
858.064	17372
858.197	17452
858.331	17387
858.464	17261
858.597	17212
858.731	17269
858.864	17349
858.997	17299
859.13	17395
859.263	17322
859.396	17463
859.529	17277
859.662	17322
859.795	17197
859.928	17318
860.061	17455
860.194	17379
860.327	17353
860.46	17250
860.592	17429
860.725	17395
860.858	17452
860.99	17231
861.123	17280
861.256	17064
861.388	17299
861.521	17809
861.653	17147
861.786	17045
861.918	17208
862.05	17185
862.183	17258
862.315	17387
862.447	17200
862.58	17292
862.712	17022
862.844	17048
862.976	17102
863.108	16972
863.24	17368
863.372	16927
863.504	16995
863.636	17025
863.768	16968
863.9	17033
864.032	17018
864.164	16949
864.296	17064
864.428	17189
864.559	17109
864.691	17086
864.823	17140
864.954	17029
865.086	16927
865.217	17060
865.349	16919
865.48	16946
865.612	16953
865.743	17071
865.875	17025
866.006	16942
866.137	16953
866.269	16995
866.4	16839
866.531	16809
866.662	16984
866.793	16927
866.924	16927
867.055	16957
867.186	16873
867.317	16790
867.448	16889
867.579	16797
867.71	16923
867.841	16866
867.972	16889
868.103	16911
868.233	16965
868.364	16915
868.495	16930
868.625	17147
868.756	17220
868.886	17094
869.017	17071
869.147	17467
869.278	17341
869.408	17170
869.539	17299
869.669	17307
869.799	17231
869.929	17174
870.06	17387
870.19	17440
870.32	17570
870.45	17649
870.58	17646
870.71	17627
870.84	17745
870.97	17642
871.1	17516
871.23	17726
871.36	17840
871.489	17676
871.619	17786
871.749	17813
871.879	17889
872.008	17950
872.138	17859
872.267	17843
872.397	17649
872.526	17695
872.656	17642
872.785	17729
872.915	17980
873.044	17927
873.173	17973
873.303	17980
873.432	18053
873.561	18041
873.69	18171
873.819	18079
873.948	18057
874.077	18057
874.206	18098
874.335	18133
874.464	18247
874.593	18323
874.722	18327
874.851	18467
874.979	18441
875.108	18475
875.237	18464
875.365	18464
875.494	18555
875.623	18604
875.751	18521
875.88	18646
876.008	18791
876.136	18760
876.265	19034
876.393	19202
876.521	19247
876.65	19213
876.778	19225
876.906	19236
877.034	19187
877.162	19384
877.29	19373
877.418	19400
877.546	19506
877.674	19483
877.802	19597
877.93	19696
878.058	19655
878.185	19780
878.313	19989
878.441	20389
878.568	20358
878.696	20678
878.824	21260
878.951	21895
879.079	22938
879.206	24350
879.333	25441
879.461	26423
879.588	27272
879.715	27214
879.842	26617
879.97	25476
880.097	23973
880.224	23174
880.351	22493
880.478	21819
880.605	21359
880.732	21176
880.859	21211
880.986	21047
881.112	20956
881.239	20811
881.366	20670
881.493	20625
881.619	20514
881.746	20533
881.872	20549
881.999	20438
882.125	20545
882.252	20670
882.378	20594
882.505	20743
882.631	20648
882.757	20545
882.883	20514
883.01	20530
883.136	20389
883.262	20393
883.388	20301
883.514	20408
883.64	20545
883.766	20347
883.892	20202
884.018	20240
884.143	20415
884.269	20465
884.395	20263
884.52	20145
884.646	20218
884.772	20039
884.897	20035
885.023	20191
885.148	20149
885.274	20282
885.399	20237
885.524	19909
885.65	19989
885.775	19887
885.9	19818
886.025	19852
886.15	19628
886.275	19434
886.4	19369
886.525	19266
886.65	19301
886.775	19266
886.9	19377
887.025	19293
887.149	18996
887.274	18833
887.399	18798
887.523	18749
887.648	18646
887.773	18532
887.897	18612
888.021	18509
888.146	18426
888.27	18570
888.395	18570
888.519	18494
888.643	18448
888.767	18448
888.891	18167
889.015	18091
889.139	18174
889.263	18007
889.387	18136
889.511	18201
889.635	18079
889.759	18041
889.883	17885
890.006	18083
890.13	18068
890.254	17885
890.377	17866
890.501	17687
890.624	17703
890.748	17760
890.871	17608
890.995	17474
891.118	17398
891.241	17368
891.364	17459
891.488	17562
891.611	17417
891.734	17288
891.857	17353
891.98	17265
892.103	17341
892.226	17429
892.349	17303
892.471	17113
892.594	17094
892.717	17200
892.839	17200
892.962	17204
893.085	17212
893.207	17143
893.33	17006
893.452	16953
893.575	17109
893.697	17102
893.819	17296
893.941	17254
894.064	17273
894.186	16999
894.308	16953
894.43	17143
894.552	17181
894.674	17109
894.796	16942
894.918	16965
895.04	16908
895.161	16980
895.283	17124
895.405	16885
895.526	17006
895.648	16919
895.769	17018
895.891	16991
896.012	17098
896.134	17018
896.255	17014
896.376	16930
896.498	16991
896.619	17029
896.74	16987
896.861	16904
896.982	17326
897.103	17364
897.224	17296
897.345	17288
897.466	17018
897.587	17147
897.708	17307
897.828	17181
897.949	17048
898.07	17083
898.19	17166
898.311	17341
898.431	17090
898.552	17151
898.672	17280
898.792	17322
898.913	17220
899.033	17170
899.153	17029
899.273	16900
899.393	16987
899.513	17056
899.633	16961
899.753	16957
899.873	16911
899.993	17117
900.113	17022
900.232	17071
900.352	16999
900.472	16892
900.591	16843
900.711	16828
900.83	16820
900.95	17025
901.069	16930
901.189	16752
901.308	16569
901.427	16538
901.546	16470
901.665	16478
901.784	16466
901.904	16386
902.023	16211
902.141	16048
902.26	15888
902.379	15949
902.498	15884
902.617	15800
902.735	15953
902.854	15895
902.973	15812
903.091	15641
903.21	15644
903.328	15652
903.446	15466
903.565	15408
903.683	15397
903.801	15378
903.919	15382
904.038	15245
904.156	15188
904.274	15264
904.392	15161
904.51	15154
904.627	15119
904.745	15226
904.863	15230
904.981	14994
905.098	14868
905.216	14857
905.334	14872
905.451	14861
905.569	14807
905.686	14853
905.803	14880
905.921	14602
906.038	14697
906.155	14549
906.272	14495
906.389	14514
906.506	14366
906.623	14476
906.74	14324
906.857	14183
906.974	14282
907.091	14370
907.208	14541
907.324	14339
907.441	14195
907.557	14031
907.674	14054
907.79	14069
907.907	14073
908.023	14069
908.139	14012
908.256	14043
908.372	13875
908.488	13871
908.604	13902
908.72	13685
908.836	13784
908.952	13715
909.068	13769
909.184	13795
909.3	13761
909.415	13803
909.531	13784
909.647	13529
909.762	13624
909.878	13480
909.993	13548
910.108	13567
910.224	13460
910.339	13487
910.454	13282
910.57	13362
910.685	13228
910.8	13544
910.915	13468
911.03	13335
911.145	13187
911.259	13156
911.374	13221
911.489	13118
911.604	13069
911.718	12913
911.833	12954
911.947	12814
912.062	12776
912.176	12871
912.291	12859
912.405	12859
912.519	13110
912.633	13065
912.748	12916
912.862	12840
912.976	12738
913.09	12646
913.204	12734
913.318	12829
913.431	12768
913.545	12821
913.659	12848
913.772	12844
913.886	12669
914	12639
914.113	12688
914.226	12840
914.34	12719
914.453	12601
914.566	12730
914.68	12513
914.793	12540
914.906	12414
915.019	12338
915.132	12289
915.245	12304
915.358	12433
915.47	12365
915.583	12353
915.696	12426
915.809	12506
915.921	12585
916.034	12323
916.146	12334
916.259	12254
916.371	12395
916.483	12384
916.595	12190
916.708	12228
916.82	12235
916.932	12232
917.044	12273
917.156	12144
917.268	12106
917.38	12129
917.491	12167
917.603	12076
917.715	12133
917.826	12125
917.938	12117
918.049	11973
918.161	12076
918.272	12152
918.384	12216
918.495	12045
918.606	11965
918.717	11779
918.828	11923
918.939	11923
919.05	11790
919.161	12019
919.272	11657
919.383	11790
919.494	11870
919.604	12041
919.715	11923
919.826	11771
919.936	11809
920.047	11931
920.157	11897
920.267	12053
920.378	11908
920.488	11927
920.598	12175
920.708	12175
920.818	12015
920.928	11950
921.038	12152
921.148	12270
921.258	11923
921.368	11775
921.477	11809
921.587	11573
921.697	11528
921.806	11657
921.916	11471
922.025	11364
922.134	11296
922.244	11326
922.353	11410
922.462	11239
922.571	11181
922.68	11079
922.789	11014
922.898	10984
923.007	10961
923.116	10995
923.224	11014
923.333	11029
923.442	10953
923.55	10812
923.659	10923
923.767	10972
923.876	10812
923.984	10923
924.092	10744
924.201	10908
924.309	10801
924.417	10793
924.525	10786
924.633	10824
924.741	11741
924.849	10512
924.956	10710
925.064	10588
925.172	10512
925.279	10577
925.387	10660
925.494	10626
925.602	10755
925.709	10660
925.816	10527
925.924	10611
926.031	10615
926.138	10626
926.245	10558
926.352	10440
926.459	10683
926.566	10656
926.673	10504
926.779	10409
926.886	10405
926.993	10276
927.099	10196
927.206	10158
927.312	10120
927.419	10299
927.525	10185
927.631	10230
927.737	10109
927.843	10154
927.95	10082
928.056	10051
928.162	10112
928.267	10234
928.373	10729
928.479	10150
928.585	9918
928.69	10128
928.796	10074
928.901	10002
929.007	9850
929.112	10051
929.218	9979
929.323	9964
929.428	9945
929.533	10025
929.638	9827
929.743	9884
929.848	9926
929.953	9895
930.058	9766
930.163	9701
930.267	9568
930.372	9766
930.477	9606
930.581	9850
930.685	9701
930.79	9496
930.894	9572
930.998	9549
931.103	9633
931.207	9321
931.311	9260
931.415	9142
931.519	9062
931.623	9020
