Data from test_V78500241_1709.txt Node
Date: Fri Mar 25 14:45:36 CST 2022
User: usil
Spectrometer: V785-0024
Trigger mode: 0
Integration Time (sec): 4.000000E-1
Scans to average: 1
Nonlinearity correction enabled: false
Boxcar width: 0
Storing dark spectrum: false
XAxis mode: Wavelengths
Number of Pixels in Spectrum: 1024
>>>>>Begin Spectral Data<<<<<
801.071	22105
801.214	21998
801.356	21827
801.499	21808
801.641	21603
801.783	21481
801.926	21519
802.068	21382
802.211	21473
802.353	21306
802.496	21275
802.638	21119
802.78	21074
802.923	20990
803.065	20937
803.208	20960
803.35	20887
803.492	20975
803.635	20994
803.777	20918
803.919	21017
804.061	21272
804.204	21074
804.346	20857
804.488	20731
804.63	20944
804.773	20826
804.915	20868
805.057	21009
805.199	20720
805.341	20838
805.483	21017
805.626	21005
805.768	20735
805.91	20918
806.052	20933
806.194	20765
806.336	20967
806.478	20819
806.62	20811
806.762	20868
806.904	21112
807.046	21218
807.188	21116
807.33	21256
807.472	21085
807.614	21039
807.756	21081
807.898	20982
808.04	20861
808.182	20933
808.324	21062
808.465	20963
808.607	21249
808.749	21169
808.891	21287
809.033	21580
809.174	21355
809.316	21306
809.458	21302
809.6	21260
809.741	21260
809.883	21382
810.025	21496
810.166	21428
810.308	21530
810.45	21367
810.591	21298
810.733	21161
810.875	21081
811.016	20918
811.158	20952
811.299	21108
811.441	21214
811.582	21226
811.724	21024
811.865	21077
812.007	21093
812.148	20895
812.29	21119
812.431	21135
812.573	21389
812.714	21424
812.855	21534
812.997	21629
813.138	21717
813.279	21648
813.421	21504
813.562	21477
813.703	21306
813.845	21119
813.986	20895
814.127	20655
814.268	20701
814.41	20511
814.551	20598
814.692	20682
814.833	20469
814.974	20434
815.115	20450
815.256	20511
815.397	20381
815.539	20385
815.68	20267
815.821	20259
815.962	20427
816.103	20355
816.244	20157
816.385	20046
816.526	19989
816.666	19921
816.807	19689
816.948	19807
817.089	19833
817.23	19746
817.371	19818
817.512	19731
817.653	19856
817.793	19666
817.934	19734
818.075	19704
818.216	19586
818.356	19605
818.497	19533
818.638	19430
818.778	19441
818.919	19483
819.06	19483
819.2	19434
819.341	19563
819.481	19590
819.622	19689
819.762	19936
819.903	19803
820.043	19742
820.184	19693
820.324	19651
820.465	19712
820.605	19689
820.746	19731
820.886	19590
821.026	19658
821.167	19609
821.307	19715
821.447	19575
821.588	19502
821.728	19396
821.868	19278
822.008	19168
822.149	19198
822.289	19012
822.429	18783
822.569	18840
822.709	18757
822.849	18597
822.99	18646
823.13	18612
823.27	18498
823.41	18391
823.55	18319
823.69	18376
823.83	18361
823.97	18247
824.11	18228
824.25	18102
824.389	18178
824.529	18277
824.669	18163
824.809	18209
824.949	18254
825.089	18247
825.228	18216
825.368	17969
825.508	17980
825.648	17999
825.787	17977
825.927	18019
826.067	17942
826.206	17939
826.346	17882
826.485	18049
826.625	17912
826.765	18114
826.904	17980
827.044	17661
827.183	17691
827.323	17596
827.462	17691
827.601	17615
827.741	17520
827.88	17509
828.02	17539
828.159	17520
828.298	17634
828.437	17703
828.577	17703
828.716	17783
828.855	17600
828.994	17417
829.134	17368
829.273	17379
829.412	17383
829.551	17341
829.69	17334
829.829	17448
829.968	17539
830.107	17417
830.246	17364
830.385	17292
830.524	17254
830.663	17223
830.802	17098
830.941	16961
831.08	16942
831.219	17022
831.357	17098
831.496	17223
831.635	16877
831.774	16980
831.913	16908
832.051	16713
832.19	16672
832.329	16797
832.467	16622
832.606	16656
832.744	16725
832.883	16691
833.022	16755
833.16	16752
833.299	16782
833.437	16607
833.576	16653
833.714	16748
833.852	16843
833.991	16782
834.129	16759
834.267	16725
834.406	16759
834.544	16683
834.682	16748
834.821	16828
834.959	16930
835.097	16717
835.235	16816
835.373	16664
835.511	16801
835.65	16713
835.788	16565
835.926	16432
836.064	16436
836.202	16573
836.34	16622
836.478	16618
836.615	16641
836.753	16683
836.891	16706
837.029	16679
837.167	16531
837.305	16618
837.443	16550
837.58	16546
837.718	16592
837.856	16546
837.993	16386
838.131	16592
838.269	16466
838.406	16409
838.544	16394
838.681	16242
838.819	16150
838.956	15994
839.094	16086
839.231	16025
839.369	16249
839.506	16341
839.643	16299
839.781	15953
839.918	16051
840.055	16036
840.193	15964
840.33	15968
840.467	16025
840.604	16112
840.742	16234
840.879	15911
841.016	15960
841.153	15899
841.29	16120
841.427	16166
841.564	16082
841.701	16025
841.838	16017
841.975	15937
842.112	15926
842.249	15903
842.385	15694
842.522	15941
842.659	15835
842.796	15857
842.933	15915
843.069	15762
843.206	15747
843.343	15880
843.479	15876
843.616	15812
843.752	15545
843.889	15580
844.025	15781
844.162	15622
844.298	15781
844.435	15698
844.571	15625
844.708	15686
844.844	15770
844.98	15743
845.117	15747
845.253	15561
845.389	15458
845.525	15603
845.661	15504
845.798	15386
845.934	15462
846.07	15462
846.206	15549
846.342	15553
846.478	15431
846.614	15283
846.75	15108
846.886	15180
847.022	15195
847.158	15157
847.294	15245
847.429	15252
847.565	15135
847.701	15435
847.837	14982
847.972	14902
848.108	14925
848.244	14914
848.379	14857
848.515	14777
848.65	14727
848.786	14762
848.921	14830
849.057	14819
849.192	14895
849.328	14914
849.463	14921
849.598	14743
849.734	14746
849.869	14697
850.004	14617
850.14	14613
850.275	14568
850.41	14617
850.545	14541
850.68	14560
850.815	14522
850.95	14518
851.085	14849
851.22	14644
851.355	14522
851.49	14473
851.625	14549
851.76	14606
851.895	14377
852.03	14328
852.165	14473
852.299	14587
852.434	14655
852.569	14526
852.703	14579
852.838	14670
852.973	14731
853.107	14758
853.242	14575
853.376	14476
853.511	14301
853.645	14389
853.78	14541
853.914	14511
854.048	14385
854.183	14393
854.317	14370
854.451	14541
854.585	14434
854.72	14442
854.854	14465
854.988	14393
855.122	14339
855.256	14229
855.39	14488
855.524	14450
855.658	14480
855.792	14499
855.926	14518
856.06	14522
856.194	14473
856.327	14431
856.461	14427
856.595	14419
856.729	14393
856.862	14549
856.996	14324
857.13	14457
857.263	14423
857.397	14495
857.53	14423
857.664	14492
857.797	14518
857.931	14476
858.064	14419
858.197	14438
858.331	14438
858.464	14434
858.597	14408
858.731	14537
858.864	14336
858.997	14343
859.13	14423
859.263	14545
859.396	14476
859.529	14415
859.662	14476
859.795	14332
859.928	14438
860.061	14537
860.194	14564
860.327	14480
860.46	14396
860.592	14610
860.725	14541
860.858	14476
860.99	14263
861.123	14362
861.256	14469
861.388	14492
861.521	14963
861.653	14298
861.786	14172
861.918	14282
862.05	14317
862.183	14339
862.315	14480
862.447	14442
862.58	14271
862.712	14149
862.844	14111
862.976	14294
863.108	14229
863.24	14682
863.372	14145
863.504	14248
863.636	14149
863.768	14328
863.9	14176
864.032	14084
864.164	14183
864.296	14244
864.428	14366
864.559	14237
864.691	14237
864.823	14233
864.954	14240
865.086	14278
865.217	14229
865.349	14161
865.48	14115
865.612	14187
865.743	14347
865.875	14134
866.006	14145
866.137	14191
866.269	14107
866.4	14214
866.531	14214
866.662	14168
866.793	14180
866.924	14142
867.055	14286
867.186	14168
867.317	14130
867.448	14077
867.579	14065
867.71	14092
867.841	14027
867.972	14153
868.103	14199
868.233	14153
868.364	14142
868.495	14282
868.625	14374
868.756	14495
868.886	14267
869.017	14564
869.147	14602
869.278	14514
869.408	14480
869.539	14370
869.669	14461
869.799	14469
869.929	14575
870.06	14434
870.19	14678
870.32	14754
870.45	14731
870.58	14823
870.71	14929
870.84	14944
870.97	14792
871.1	14819
871.23	15100
871.36	15013
871.489	14982
871.619	15089
871.749	15032
871.879	15070
872.008	15077
872.138	15051
872.267	14929
872.397	14906
872.526	14853
872.656	14811
872.785	14781
872.915	14941
873.044	15112
873.173	15123
873.303	15237
873.432	15112
873.561	15119
873.69	15123
873.819	15009
873.948	15176
874.077	14986
874.206	15081
874.335	15188
874.464	15230
874.593	15386
874.722	15348
874.851	15439
874.979	15401
875.108	15450
875.237	15454
875.365	15359
875.494	15408
875.623	15355
875.751	15393
875.88	15431
876.008	15534
876.136	15595
876.265	15819
876.393	15972
876.521	15884
876.65	15842
876.778	15793
876.906	15846
877.034	15713
877.162	15720
877.29	15720
877.418	15907
877.546	15785
877.674	15808
877.802	15823
877.93	15895
878.058	15682
878.185	15732
878.313	15698
878.441	15797
878.568	15610
878.696	15835
878.824	15823
878.951	15930
879.079	15960
879.206	16086
879.333	15937
879.461	15838
879.588	15888
879.715	15998
879.842	16025
879.97	15838
880.097	15652
880.224	15568
880.351	15656
880.478	15599
880.605	15580
880.732	15663
880.859	15785
880.986	15709
881.112	15736
881.239	15534
881.366	15397
881.493	15355
881.619	15279
881.746	15340
881.872	15199
881.999	15313
882.125	15283
882.252	15245
882.378	15264
882.505	15485
882.631	15230
882.757	15123
882.883	15283
883.01	15085
883.136	15058
883.262	14986
883.388	14994
883.514	15142
883.64	15127
883.766	15119
883.892	14929
884.018	15001
884.143	15127
884.269	15081
884.395	14864
884.52	14823
884.646	14872
884.772	14727
884.897	14697
885.023	14853
885.148	14963
885.274	14956
885.399	14982
885.524	14887
885.65	14811
885.775	14823
885.9	14762
886.025	14982
886.15	14906
886.275	14804
886.4	14762
886.525	14773
886.65	14773
886.775	14739
886.9	14982
887.025	15055
887.149	14861
887.274	14636
887.399	14560
887.523	14564
887.648	14568
887.773	14598
887.897	14674
888.021	14754
888.146	14568
888.27	14804
888.395	14708
888.519	14655
888.643	14705
888.767	14712
888.891	14571
889.015	14541
889.139	14465
889.263	14552
889.387	14541
889.511	14705
889.635	14579
889.759	14492
889.883	14533
890.006	14587
890.13	14590
890.254	14446
890.377	14442
890.501	14336
890.624	14362
890.748	14480
890.871	14328
890.995	14218
891.118	14233
891.241	14168
891.364	14229
891.488	14248
891.611	14271
891.734	14183
891.857	14282
891.98	14336
892.103	14320
892.226	14240
892.349	14157
892.471	14020
892.594	14210
892.717	14259
892.839	14199
892.962	14214
893.085	14259
893.207	14229
893.33	14149
893.452	14149
893.575	14256
893.697	14176
893.819	14324
893.941	14393
894.064	14393
894.186	14221
894.308	14088
894.43	14317
894.552	14427
894.674	14278
894.796	14180
894.918	14240
895.04	14157
895.161	14294
895.283	14415
895.405	14240
895.526	14267
895.648	14218
895.769	14317
895.891	14336
896.012	14419
896.134	14419
896.255	14317
896.376	14351
896.498	14404
896.619	14317
896.74	14415
896.861	14332
896.982	14648
897.103	14876
897.224	14606
897.345	14750
897.466	14492
897.587	14617
897.708	14796
897.828	14697
897.949	14610
898.07	14537
898.19	14663
898.311	14697
898.431	14636
898.552	14636
898.672	14727
898.792	14800
898.913	14769
899.033	14667
899.153	14587
899.273	14446
899.393	14533
899.513	14655
899.633	14530
899.753	14541
899.873	14552
899.993	14724
900.113	14522
900.232	14598
900.352	14648
900.472	14503
900.591	14339
900.711	14473
900.83	14446
900.95	14606
901.069	14530
901.189	14320
901.308	14176
901.427	14058
901.546	14100
901.665	14069
901.784	14084
901.904	13982
902.023	13925
902.141	13742
902.26	13677
902.379	13753
902.498	13677
902.617	13636
902.735	13761
902.854	13658
902.973	13575
903.091	13426
903.21	13434
903.328	13426
903.446	13304
903.565	13236
903.683	13285
903.801	13171
903.919	13301
904.038	13297
904.156	13137
904.274	13149
904.392	13031
904.51	13076
904.627	13015
904.745	13114
904.863	13103
904.981	12863
905.098	12806
905.216	12730
905.334	12802
905.451	12700
905.569	12757
905.686	12768
905.803	12764
905.921	12620
906.038	12745
906.155	12525
906.272	12410
906.389	12467
906.506	12319
906.623	12418
906.74	12361
906.857	12304
906.974	12323
907.091	12296
907.208	12498
907.324	12380
907.441	12319
907.557	12057
907.674	12053
907.79	12163
907.907	11992
908.023	12087
908.139	12129
908.256	11988
908.372	12068
908.488	12011
908.604	11859
908.72	11836
908.836	11794
908.952	11840
909.068	11885
909.184	11961
909.3	11767
909.415	11851
909.531	11798
909.647	11596
909.762	11714
909.878	11657
909.993	11718
910.108	11623
910.224	11558
910.339	11634
910.454	11558
910.57	11463
910.685	11463
910.8	11733
910.915	11573
911.03	11497
911.145	11372
911.259	11345
911.374	11334
911.489	11258
911.604	11201
911.718	11052
911.833	11083
911.947	10995
912.062	10896
912.176	11071
912.291	11067
912.405	11048
912.519	11277
912.633	11356
912.748	11189
912.862	11155
912.976	10976
913.09	10839
913.204	10873
913.318	10953
913.431	11014
913.545	10968
913.659	11025
913.772	10938
913.886	10862
914	10915
914.113	10919
914.226	11014
914.34	10889
914.453	10714
914.566	10908
914.68	10733
914.793	10820
914.906	10641
915.019	10649
915.132	10481
915.245	10497
915.358	10554
915.47	10641
915.583	10561
915.696	10702
915.809	10721
915.921	10767
916.034	10508
916.146	10535
916.259	10527
916.371	10584
916.483	10660
916.595	10508
916.708	10493
916.82	10500
916.932	10535
917.044	10466
917.156	10451
917.268	10360
917.38	10432
917.491	10424
917.603	10428
917.715	10497
917.826	10497
917.938	10413
918.049	10303
918.161	10436
918.272	10512
918.384	10470
918.495	10447
918.606	10341
918.717	10246
918.828	10211
918.939	10268
919.05	10261
919.161	10238
919.272	10116
919.383	10105
919.494	10299
919.604	10504
919.715	10379
919.826	10246
919.936	10268
920.047	10348
920.157	10333
920.267	10390
920.378	10337
920.488	10246
920.598	10459
920.708	10656
920.818	10516
920.928	10542
921.038	10672
921.148	10611
921.258	10352
921.368	10230
921.477	10280
921.587	10207
921.697	10112
921.806	10158
921.916	9983
922.025	9926
922.134	9857
922.244	9880
922.353	9880
922.462	9660
922.571	9606
922.68	9549
922.789	9481
922.898	9587
923.007	9530
923.116	9584
923.224	9511
923.333	9481
923.442	9538
923.55	9405
923.659	9504
923.767	9462
923.876	9416
923.984	9523
924.092	9325
924.201	9386
924.309	9405
924.417	9450
924.525	9317
924.633	9401
924.741	10253
924.849	9188
924.956	9447
925.064	9180
925.172	9123
925.279	9195
925.387	9241
925.494	9180
925.602	9313
925.709	9207
925.816	9112
925.924	9161
926.031	9233
926.138	9241
926.245	9272
926.352	9077
926.459	9294
926.566	9275
926.673	9146
926.779	9017
926.886	9017
926.993	8937
927.099	8895
927.206	8781
927.312	8849
927.419	9005
927.525	8990
927.631	8914
927.737	8830
927.843	8838
927.95	8640
928.056	8773
928.162	8811
928.267	8792
928.373	9389
928.479	8887
928.585	8667
928.69	8750
928.796	8834
928.901	8739
929.007	8613
929.112	8727
929.218	8663
929.323	8659
929.428	8610
929.533	8781
929.638	8522
929.743	8530
929.848	8678
929.953	8602
930.058	8541
930.163	8396
930.267	8358
930.372	8545
930.477	8366
930.581	8587
930.685	8442
930.79	8347
930.894	8385
930.998	8290
931.103	8454
931.207	8183
931.311	8111
931.415	7970
931.519	7830
931.623	7849
