Data from test_V78500241_3080.txt Node
Date: Fri Mar 25 14:55:09 CST 2022
User: usil
Spectrometer: V785-0024
Trigger mode: 0
Integration Time (sec): 4.000000E-1
Scans to average: 1
Nonlinearity correction enabled: false
Boxcar width: 0
Storing dark spectrum: false
XAxis mode: Wavelengths
Number of Pixels in Spectrum: 1024
>>>>>Begin Spectral Data<<<<<
801.071	22177
801.214	21998
801.356	21739
801.499	21595
801.641	21511
801.783	21564
801.926	21428
802.068	21367
802.211	21424
802.353	21340
802.496	20979
802.638	20921
802.78	20937
802.923	20876
803.065	20758
803.208	20781
803.35	20800
803.492	20823
803.635	20933
803.777	20838
803.919	20819
804.061	21184
804.204	20902
804.346	20731
804.488	20629
804.63	20754
804.773	20716
804.915	20621
805.057	20762
805.199	20655
805.341	20720
805.483	20921
805.626	20769
805.768	20511
805.91	20720
806.052	20765
806.194	20575
806.336	20807
806.478	20571
806.62	20606
806.762	20792
806.904	20975
807.046	21119
807.188	20979
807.33	21005
807.472	21074
807.614	21093
807.756	21013
807.898	20868
808.04	20762
808.182	20727
808.324	20800
808.465	20933
808.607	21036
808.749	21020
808.891	21230
809.033	21329
809.174	21226
809.316	20967
809.458	21123
809.6	20925
809.741	21074
809.883	21146
810.025	21146
810.166	21306
810.308	21279
810.45	21146
810.591	21184
810.733	21017
810.875	20982
811.016	20857
811.158	20697
811.299	20838
811.441	21017
811.582	20960
811.724	20804
811.865	20804
812.007	20826
812.148	20849
812.29	20899
812.431	21039
812.573	21093
812.714	21294
812.855	21408
812.997	21363
813.138	21511
813.279	21363
813.421	21386
813.562	21317
813.703	21009
813.845	20895
813.986	20659
814.127	20621
814.268	20473
814.41	20423
814.551	20393
814.692	20514
814.833	20328
814.974	20374
815.115	20412
815.256	20225
815.397	20286
815.539	20240
815.68	20267
815.821	20046
815.962	20054
816.103	20058
816.244	19932
816.385	19864
816.526	19959
816.666	19620
816.807	19499
816.948	19597
817.089	19605
817.23	19563
817.371	19628
817.512	19449
817.653	19559
817.793	19430
817.934	19472
818.075	19537
818.216	19438
818.356	19430
818.497	19308
818.638	19171
818.778	19065
818.919	19126
819.06	19194
819.2	19270
819.341	19396
819.481	19506
819.622	19613
819.762	19655
819.903	19746
820.043	19632
820.184	19346
820.324	19464
820.465	19647
820.605	19487
820.746	19586
820.886	19400
821.026	19548
821.167	19377
821.307	19563
821.447	19426
821.588	19396
821.728	19312
821.868	19004
822.008	18840
822.149	18840
822.289	18924
822.429	18608
822.569	18574
822.709	18555
822.849	18388
822.99	18330
823.13	18308
823.27	18346
823.41	18213
823.55	18114
823.69	18083
823.83	18136
823.97	18209
824.11	17992
824.25	17920
824.389	17996
824.529	18091
824.669	18019
824.809	17988
824.949	17999
825.089	18007
825.228	17958
825.368	17786
825.508	17786
825.648	17741
825.787	17786
825.927	17821
826.067	17665
826.206	17714
826.346	17802
826.485	17771
826.625	17737
826.765	17771
826.904	17786
827.044	17402
827.183	17459
827.323	17421
827.462	17425
827.601	17433
827.741	17364
827.88	17463
828.02	17273
828.159	17372
828.298	17490
828.437	17349
828.577	17318
828.716	17459
828.855	17277
828.994	17212
829.134	17174
829.273	17200
829.412	17064
829.551	17121
829.69	17094
829.829	17189
829.968	17208
830.107	17231
830.246	17162
830.385	17200
830.524	16995
830.663	16930
830.802	16881
830.941	16790
831.08	16637
831.219	16797
831.357	16892
831.496	17006
831.635	16740
831.774	16713
831.913	16656
832.051	16622
832.19	16561
832.329	16599
832.467	16516
832.606	16421
832.744	16436
832.883	16447
833.022	16436
833.16	16497
833.299	16577
833.437	16474
833.576	16630
833.714	16500
833.852	16500
833.991	16558
834.129	16546
834.267	16615
834.406	16466
834.544	16497
834.682	16421
834.821	16485
834.959	16717
835.097	16421
835.235	16554
835.373	16523
835.511	16459
835.65	16306
835.788	16371
835.926	16287
836.064	16150
836.202	16287
836.34	16470
836.478	16409
836.615	16394
836.753	16535
836.891	16504
837.029	16363
837.167	16284
837.305	16314
837.443	16394
837.58	16204
837.718	16310
837.856	16219
837.993	16299
838.131	16204
838.269	16223
838.406	16200
838.544	16128
838.681	16040
838.819	15964
838.956	15861
839.094	15800
839.231	15895
839.369	15915
839.506	16169
839.643	16109
839.781	15831
839.918	15770
840.055	15789
840.193	15728
840.33	15759
840.467	15679
840.604	15854
840.742	16112
840.879	15785
841.016	15637
841.153	15724
841.29	15918
841.427	15819
841.564	15888
841.701	15869
841.838	15774
841.975	15743
842.112	15656
842.249	15568
842.385	15584
842.522	15808
842.659	15591
842.796	15538
842.933	15622
843.069	15473
843.206	15568
843.343	15709
843.479	15606
843.616	15542
843.752	15416
843.889	15462
844.025	15462
844.162	15397
844.298	15469
844.435	15439
844.571	15374
844.708	15397
844.844	15485
844.98	15538
845.117	15530
845.253	15378
845.389	15279
845.525	15325
845.661	15298
845.798	15119
845.934	15192
846.07	15146
846.206	15211
846.342	15306
846.478	15157
846.614	14887
846.75	14868
846.886	14944
847.022	15116
847.158	14944
847.294	15009
847.429	14902
847.565	14902
847.701	15112
847.837	14693
847.972	14579
848.108	14788
848.244	14781
848.379	14545
848.515	14568
848.65	14503
848.786	14571
848.921	14541
849.057	14705
849.192	14670
849.328	14473
849.463	14590
849.598	14511
849.734	14480
849.869	14427
850.004	14263
850.14	14370
850.275	14393
850.41	14328
850.545	14256
850.68	14324
850.815	14332
850.95	14180
851.085	14492
851.22	14366
851.355	14358
851.49	14290
851.625	14305
851.76	14377
851.895	14183
852.03	14161
852.165	14355
852.299	14309
852.434	14351
852.569	14278
852.703	14305
852.838	14438
852.973	14419
853.107	14347
853.242	14294
853.376	14199
853.511	14016
853.645	14172
853.78	14317
853.914	14244
854.048	14145
854.183	14138
854.317	14103
854.451	14259
854.585	14290
854.72	14180
854.854	14286
854.988	14054
855.122	14187
855.256	14035
855.39	14225
855.524	14244
855.658	14267
855.792	14229
855.926	14199
856.06	14275
856.194	14248
856.327	14202
856.461	14107
856.595	14092
856.729	14138
856.862	14252
856.996	14096
857.13	14161
857.263	14320
857.397	14355
857.53	14237
857.664	14248
857.797	14332
857.931	14237
858.064	14130
858.197	14358
858.331	14046
858.464	14069
858.597	14050
858.731	14218
858.864	14153
858.997	14126
859.13	14164
859.263	14183
859.396	14244
859.529	14161
859.662	14214
859.795	14126
859.928	14233
860.061	14465
860.194	14355
860.327	14199
860.46	14077
860.592	14328
860.725	14339
860.858	14385
860.99	14119
861.123	14100
861.256	14126
861.388	14145
861.521	14887
861.653	14039
861.786	13993
861.918	14027
862.05	14149
862.183	14123
862.315	14111
862.447	14164
862.58	14138
862.712	13986
862.844	13947
862.976	13978
863.108	13982
863.24	14370
863.372	13909
863.504	13989
863.636	13928
863.768	14035
863.9	13970
864.032	13955
864.164	13890
864.296	13894
864.428	14172
864.559	14107
864.691	14050
864.823	14012
864.954	14123
865.086	13947
865.217	14001
865.349	13860
865.48	13959
865.612	14084
865.743	14027
865.875	13997
866.006	13940
866.137	14016
866.269	13868
866.4	14020
866.531	13875
866.662	13894
866.793	13849
866.924	13970
867.055	13940
867.186	13890
867.317	13890
867.448	13780
867.579	13902
867.71	13822
867.841	13940
867.972	13902
868.103	13944
868.233	13989
868.364	13894
868.495	13967
868.625	14123
868.756	14320
868.886	14123
869.017	14237
869.147	14355
869.278	14271
869.408	14214
869.539	14164
869.669	14263
869.799	14244
869.929	14263
870.06	14324
870.19	14541
870.32	14545
870.45	14537
870.58	14606
870.71	14663
870.84	14727
870.97	14587
871.1	14503
871.23	14788
871.36	14758
871.489	14731
871.619	14724
871.749	14758
871.879	14830
872.008	14842
872.138	14883
872.267	14811
872.397	14693
872.526	14545
872.656	14545
872.785	14613
872.915	14819
873.044	14830
873.173	14815
873.303	14910
873.432	14880
873.561	14921
873.69	14857
873.819	14861
873.948	14864
874.077	14941
874.206	14746
874.335	14796
874.464	15097
874.593	15150
874.722	15077
874.851	15230
874.979	15070
875.108	15169
875.237	15116
875.365	15047
875.494	15214
875.623	15233
875.751	15142
875.88	15150
876.008	15389
876.136	15348
876.265	15584
876.393	15812
876.521	15713
876.65	15610
876.778	15644
876.906	15576
877.034	15545
877.162	15606
877.29	15587
877.418	15625
877.546	15553
877.674	15568
877.802	15545
877.93	15618
878.058	15534
878.185	15473
878.313	15603
878.441	15523
878.568	15511
878.696	15568
878.824	15603
878.951	15656
879.079	15736
879.206	15857
879.333	15736
879.461	15686
879.588	15713
879.715	15800
879.842	15915
879.97	15648
880.097	15435
880.224	15450
880.351	15458
880.478	15485
880.605	15473
880.732	15370
880.859	15762
880.986	15469
881.112	15428
881.239	15275
881.366	15165
881.493	15108
881.619	15127
881.746	15020
881.872	15108
881.999	15051
882.125	15047
882.252	15097
882.378	15070
882.505	15180
882.631	15036
882.757	14876
882.883	14975
883.01	14895
883.136	14887
883.262	14807
883.388	14727
883.514	14910
883.64	14994
883.766	14899
883.892	14682
884.018	14693
884.143	14868
884.269	15062
884.395	14667
884.52	14575
884.646	14632
884.772	14507
884.897	14526
885.023	14617
885.148	14834
885.274	14739
885.399	14670
885.524	14674
885.65	14644
885.775	14648
885.9	14568
886.025	14807
886.15	14655
886.275	14560
886.4	14549
886.525	14606
886.65	14461
886.775	14659
886.9	14785
887.025	14845
887.149	14545
887.274	14522
887.399	14389
887.523	14457
887.648	14294
887.773	14381
887.897	14476
888.021	14533
888.146	14370
888.27	14617
888.395	14514
888.519	14476
888.643	14469
888.767	14427
888.891	14298
889.015	14332
889.139	14328
889.263	14278
889.387	14351
889.511	14526
889.635	14454
889.759	14240
889.883	14263
890.006	14336
890.13	14389
890.254	14256
890.377	14202
890.501	14130
890.624	14103
890.748	14100
890.871	14020
890.995	13951
891.118	13841
891.241	14001
891.364	14084
891.488	14096
891.611	13967
891.734	14046
891.857	14058
891.98	13974
892.103	14229
892.226	14058
892.349	13944
892.471	13807
892.594	14050
892.717	14046
892.839	13978
892.962	13955
893.085	14020
893.207	14012
893.33	13898
893.452	13989
893.575	14024
893.697	13970
893.819	14134
893.941	14191
894.064	14031
894.186	13928
894.308	13925
894.43	14123
894.552	14221
894.674	14172
894.796	13936
894.918	14092
895.04	14065
895.161	14119
895.283	14073
895.405	13986
895.526	14069
895.648	14107
895.769	14199
895.891	14187
896.012	14328
896.134	14256
896.255	14123
896.376	14210
896.498	14214
896.619	14176
896.74	14168
896.861	14328
896.982	14590
897.103	14648
897.224	14457
897.345	14400
897.466	14385
897.587	14480
897.708	14579
897.828	14499
897.949	14503
898.07	14366
898.19	14415
898.311	14511
898.431	14514
898.552	14533
898.672	14640
898.792	14720
898.913	14670
899.033	14454
899.153	14419
899.273	14366
899.393	14362
899.513	14377
899.633	14469
899.753	14503
899.873	14400
899.993	14469
900.113	14385
900.232	14476
900.352	14347
900.472	14233
900.591	14221
900.711	14336
900.83	14267
900.95	14377
901.069	14377
901.189	14233
901.308	13940
901.427	13860
901.546	13928
901.665	13944
901.784	14046
901.904	13849
902.023	13742
902.141	13495
902.26	13624
902.379	13674
902.498	13571
902.617	13521
902.735	13632
902.854	13529
902.973	13400
903.091	13232
903.21	13244
903.328	13304
903.446	13187
903.565	13126
903.683	13076
903.801	12958
903.919	13008
904.038	13038
904.156	12875
904.274	12924
904.392	12806
904.51	12856
904.627	12920
904.745	13038
904.863	12966
904.981	12726
905.098	12646
905.216	12616
905.334	12654
905.451	12662
905.569	12467
905.686	12623
905.803	12616
905.921	12350
906.038	12525
906.155	12422
906.272	12201
906.389	12273
906.506	12171
906.623	12182
906.74	12235
906.857	12045
906.974	12106
907.091	12167
907.208	12300
907.324	12232
907.441	12072
907.557	11984
907.674	11882
907.79	11805
907.907	11908
908.023	11996
908.139	11889
908.256	11855
908.372	11878
908.488	11821
908.604	11649
908.72	11649
908.836	11680
908.952	11642
909.068	11703
909.184	11737
909.3	11699
909.415	11703
909.531	11691
909.647	11501
909.762	11482
909.878	11417
909.993	11440
910.108	11490
910.224	11436
910.339	11398
910.454	11349
910.57	11311
910.685	11258
910.8	11585
910.915	11433
911.03	11288
911.145	11151
911.259	11056
911.374	11178
911.489	11048
911.604	11121
911.718	10824
911.833	10881
911.947	10850
912.062	10714
912.176	10854
912.291	10889
912.405	10968
912.519	11075
912.633	11102
912.748	10991
912.862	10942
912.976	10866
913.09	10691
913.204	10691
913.318	10828
913.431	10904
913.545	10847
913.659	10949
913.772	10805
913.886	10656
914	10675
914.113	10660
914.226	10790
914.34	10774
914.453	10706
914.566	10679
914.68	10603
914.793	10573
914.906	10485
915.019	10367
915.132	10276
915.245	10394
915.358	10409
915.47	10470
915.583	10459
915.696	10432
915.809	10550
915.921	10611
916.034	10417
916.146	10413
916.259	10344
916.371	10554
916.483	10382
916.595	10284
916.708	10318
916.82	10325
916.932	10299
917.044	10314
917.156	10280
917.268	10204
917.38	10295
917.491	10272
917.603	10276
917.715	10314
917.826	10379
917.938	10211
918.049	10158
918.161	10234
918.272	10356
918.384	10447
918.495	10303
918.606	10120
918.717	10013
918.828	10051
918.939	10135
919.05	10074
919.161	10211
919.272	9880
919.383	10044
919.494	10162
919.604	10398
919.715	10185
919.826	10029
919.936	10093
920.047	10242
920.157	10211
920.267	10318
920.378	10112
920.488	10150
920.598	10402
920.708	10485
920.818	10371
920.928	10341
921.038	10580
921.148	10413
921.258	10265
921.368	10048
921.477	10021
921.587	9972
921.697	9899
921.806	10051
921.916	9895
922.025	9770
922.134	9785
922.244	9682
922.353	9709
922.462	9606
922.571	9473
922.68	9477
922.789	9359
922.898	9485
923.007	9336
923.116	9439
923.224	9458
923.333	9393
923.442	9298
923.55	9283
923.659	9317
923.767	9363
923.876	9264
923.984	9389
924.092	9253
924.201	9302
924.309	9256
924.417	9268
924.525	9249
924.633	9214
924.741	10207
924.849	9104
924.956	9218
925.064	9070
925.172	9020
925.279	9032
925.387	9112
925.494	9055
925.602	9119
925.709	9146
925.816	8979
925.924	9036
926.031	9165
926.138	9093
926.245	9077
926.352	8975
926.459	9081
926.566	9173
926.673	9077
926.779	8914
926.886	8941
926.993	8845
927.099	8819
927.206	8777
927.312	8754
927.419	8830
927.525	8750
927.631	8845
927.737	8670
927.843	8682
927.95	8583
928.056	8621
928.162	8743
928.267	8754
928.373	9370
928.479	8849
928.585	8537
928.69	8610
928.796	8727
928.901	8533
929.007	8450
929.112	8621
929.218	8583
929.323	8545
929.428	8480
929.533	8667
929.638	8415
929.743	8438
929.848	8454
929.953	8492
930.058	8400
930.163	8267
930.267	8294
930.372	8434
930.477	8214
930.581	8465
930.685	8362
930.79	8244
930.894	8271
930.998	8199
931.103	8389
931.207	8050
931.311	7917
931.415	7875
931.519	7708
931.623	7666
