Data from test_V78500241_784.txt Node
Date: Fri Mar 25 14:39:10 CST 2022
User: usil
Spectrometer: V785-0024
Trigger mode: 0
Integration Time (sec): 4.000000E-1
Scans to average: 1
Nonlinearity correction enabled: false
Boxcar width: 0
Storing dark spectrum: false
XAxis mode: Wavelengths
Number of Pixels in Spectrum: 1024
>>>>>Begin Spectral Data<<<<<
801.071	26735
801.214	26473
801.356	26294
801.499	26339
801.641	26100
801.783	26054
801.926	26142
802.068	26043
802.211	25818
802.353	25871
802.496	25670
802.638	25578
802.78	25609
802.923	25537
803.065	25483
803.208	25491
803.35	25567
803.492	25643
803.635	25639
803.777	25594
803.919	25689
804.061	26020
804.204	25662
804.346	25670
804.488	25704
804.63	25887
804.773	25639
804.915	25947
805.057	25963
805.199	26054
805.341	26149
805.483	26244
805.626	26168
805.768	26111
805.91	26214
806.052	26469
806.194	26507
806.336	26705
806.478	26842
806.62	26895
806.762	27294
806.904	27572
807.046	28150
807.188	28489
807.33	28713
807.472	29379
807.614	29798
807.756	30601
807.898	31525
808.04	32929
808.182	34778
808.324	37088
808.465	39781
808.607	42764
808.749	45294
808.891	46915
809.033	47075
809.174	45393
809.316	43008
809.458	39953
809.6	36886
809.741	34341
809.883	32423
810.025	31331
810.166	30159
810.308	29455
810.45	28801
810.591	28535
810.733	28006
810.875	27591
811.016	27256
811.158	27104
811.299	27055
811.441	27077
811.582	26849
811.724	26522
811.865	26514
812.007	26446
812.148	26347
812.29	26244
812.431	26343
812.573	26446
812.714	26575
812.855	26560
812.997	26575
813.138	26613
813.279	26655
813.421	26408
813.562	26301
813.703	26191
813.845	25947
813.986	25769
814.127	25476
814.268	25285
814.41	25343
814.551	25282
814.692	25225
814.833	25175
814.974	25152
815.115	25247
815.256	25012
815.397	24970
815.539	25038
815.68	24719
815.821	24764
815.962	24913
816.103	24844
816.244	24616
816.385	24464
816.526	24369
816.666	24308
816.807	24159
816.948	24209
817.089	24194
817.23	24125
817.371	24026
817.512	24106
817.653	23961
817.793	24083
817.934	24022
818.075	24102
818.216	24125
818.356	23942
818.497	23805
818.638	23707
818.778	23729
818.919	23733
819.06	23824
819.2	23874
819.341	23897
819.481	23908
819.622	23996
819.762	24216
819.903	24106
820.043	23999
820.184	23809
820.324	23908
820.465	23984
820.605	23863
820.746	23851
820.886	23745
821.026	23840
821.167	23779
821.307	23840
821.447	23691
821.588	23570
821.728	23512
821.868	23387
822.008	23265
822.149	23162
822.289	23105
822.429	22942
822.569	22812
822.709	22797
822.849	22546
822.99	22489
823.13	22493
823.27	22561
823.41	22356
823.55	22421
823.69	22314
823.83	22421
823.97	22348
824.11	22226
824.25	22177
824.389	22295
824.529	22192
824.669	22120
824.809	22322
824.949	22223
825.089	22188
825.228	22211
825.368	22070
825.508	21949
825.648	21949
825.787	21926
825.927	22150
826.067	21945
826.206	21865
826.346	21907
826.485	21983
826.625	21888
826.765	22044
826.904	21998
827.044	21629
827.183	21606
827.323	21580
827.462	21679
827.601	21603
827.741	21542
827.88	21511
828.02	21561
828.159	21515
828.298	21538
828.437	21625
828.577	21606
828.716	21549
828.855	21424
828.994	21359
829.134	21264
829.273	21363
829.412	21188
829.551	21222
829.69	21218
829.829	21264
829.968	21321
830.107	21188
830.246	21222
830.385	21169
830.524	21272
830.663	21127
830.802	20990
830.941	20815
831.08	20887
831.219	20861
831.357	20948
831.496	21146
831.635	20876
831.774	20773
831.913	20788
832.051	20632
832.19	20727
832.329	20651
832.467	20663
832.606	20708
832.744	20617
832.883	20834
833.022	20648
833.16	20902
833.299	20887
833.437	20982
833.576	21138
833.714	21397
833.852	21515
833.991	21682
834.129	21755
834.267	21797
834.406	21492
834.544	21610
834.682	21473
834.821	21291
834.959	21428
835.097	21077
835.235	20944
835.373	20967
835.511	20948
835.65	20640
835.788	20632
835.926	20503
836.064	20351
836.202	20282
836.34	20564
836.478	20590
836.615	20400
836.753	20404
836.891	20552
837.029	20347
837.167	20358
837.305	20240
837.443	20221
837.58	20103
837.718	20358
837.856	20229
837.993	20119
838.131	20164
838.269	20100
838.406	20031
838.544	19909
838.681	19932
838.819	19951
838.956	19761
839.094	19620
839.231	19788
839.369	19799
839.506	20119
839.643	19875
839.781	19624
839.918	19567
840.055	19582
840.193	19689
840.33	19681
840.467	19586
840.604	19647
840.742	19909
840.879	19499
841.016	19575
841.153	19411
841.29	19738
841.427	19609
841.564	19727
841.701	19540
841.838	19548
841.975	19533
842.112	19510
842.249	19388
842.385	19304
842.522	19533
842.659	19540
842.796	19453
842.933	19434
843.069	19373
843.206	19445
843.343	19620
843.479	19559
843.616	19658
843.752	19362
843.889	19506
844.025	19597
844.162	19499
844.298	19757
844.435	19765
844.571	19845
844.708	20126
844.844	20564
844.98	21077
845.117	21485
845.253	22306
845.389	24003
845.525	27055
845.661	32180
845.798	38240
845.934	42970
846.07	44670
846.206	43601
846.342	39313
846.478	33485
846.614	27983
846.75	24441
846.886	22569
847.022	21336
847.158	20537
847.294	20008
847.429	19803
847.565	19487
847.701	19571
847.837	18970
847.972	18791
848.108	18802
848.244	18848
848.379	18585
848.515	18422
848.65	18388
848.786	18448
848.921	18494
849.057	18414
849.192	18513
849.328	18407
849.463	18350
849.598	18251
849.734	18167
849.869	18194
850.004	18095
850.14	18140
850.275	18072
850.41	17870
850.545	18019
850.68	18076
850.815	17946
850.95	18053
851.085	18186
851.22	18110
851.355	18045
851.49	17961
851.625	18102
851.76	17958
851.895	17923
852.03	17961
852.165	17999
852.299	18148
852.434	18121
852.569	18148
852.703	18178
852.838	18182
852.973	18266
853.107	18232
853.242	18114
853.376	18148
853.511	18083
853.645	18026
853.78	18304
853.914	18194
854.048	18194
854.183	18258
854.317	18353
854.451	18456
854.585	18216
854.72	18159
854.854	18258
854.988	18136
855.122	18095
855.256	18076
855.39	18049
855.524	18095
855.658	18102
855.792	17958
855.926	17961
856.06	18015
856.194	17988
856.327	17980
856.461	17927
856.595	17802
856.729	17954
856.862	18003
856.996	17942
857.13	17999
857.263	17908
857.397	17935
857.53	17828
857.664	17832
857.797	18053
857.931	18022
858.064	17824
858.197	17863
858.331	17794
858.464	17661
858.597	17703
858.731	17752
858.864	17745
858.997	17680
859.13	17684
859.263	17859
859.396	17703
859.529	17665
859.662	17672
859.795	17741
859.928	17798
860.061	17916
860.194	17923
860.327	17790
860.46	17672
860.592	17764
860.725	17847
860.858	17866
860.99	17630
861.123	17623
861.256	17680
861.388	17691
861.521	18197
861.653	17444
861.786	17665
861.918	17566
862.05	17589
862.183	17710
862.315	17718
862.447	17779
862.58	17566
862.712	17486
862.844	17337
862.976	17497
863.108	17448
863.24	17946
863.372	17398
863.504	17395
863.636	17345
863.768	17455
863.9	17440
864.032	17288
864.164	17368
864.296	17372
864.428	17520
864.559	17482
864.691	17486
864.823	17410
864.954	17417
865.086	17318
865.217	17421
865.349	17170
865.48	17307
865.612	17307
865.743	17532
865.875	17535
866.006	17337
866.137	17296
866.269	17410
866.4	17311
866.531	17284
866.662	17307
866.793	17299
866.924	17303
867.055	17227
867.186	17349
867.317	17292
867.448	17273
867.579	17239
867.71	17208
867.841	17197
867.972	17318
868.103	17242
868.233	17296
868.364	17383
868.495	17337
868.625	17535
868.756	17634
868.886	17414
869.017	17619
869.147	17646
869.278	17672
869.408	17554
869.539	17687
869.669	17657
869.799	17577
869.929	17733
870.06	17729
870.19	17851
870.32	18026
870.45	17954
870.58	18038
870.71	18091
870.84	18110
870.97	18076
871.1	17942
871.23	18178
871.36	18220
871.489	17969
871.619	18155
871.749	18334
871.879	18460
872.008	18456
872.138	18262
872.267	18315
872.397	18095
872.526	18129
872.656	18167
872.785	18117
872.915	18418
873.044	18563
873.173	18422
873.303	18483
873.432	18399
873.561	18521
873.69	18490
873.819	18452
873.948	18646
874.077	18547
874.206	18544
874.335	18646
874.464	18787
874.593	18970
874.722	18806
874.851	19046
874.979	19031
875.108	19148
875.237	18954
875.365	19091
875.494	19156
875.623	19369
875.751	19103
875.88	19293
876.008	19381
876.136	19430
876.265	19799
876.393	19989
876.521	19830
876.65	19997
876.778	19955
876.906	19906
877.034	19947
877.162	20221
877.29	20027
877.418	20229
877.546	20419
877.674	20385
877.802	20556
877.93	20617
878.058	20853
878.185	20872
878.313	21165
878.441	21542
878.568	21701
878.696	22314
878.824	23056
878.951	24015
879.079	25476
879.206	27249
879.333	29109
879.461	30738
879.588	31712
879.715	31765
879.842	30981
879.97	29197
880.097	27226
880.224	25727
880.351	24802
880.478	23954
880.605	23402
880.732	23147
880.859	23071
880.986	22641
881.112	22565
881.239	22436
881.366	22249
881.493	22200
881.619	22280
881.746	22276
881.872	22268
881.999	22344
882.125	22280
882.252	22386
882.378	22421
882.505	22535
882.631	22226
882.757	22394
882.883	22363
883.01	22291
883.136	22128
883.262	22109
883.388	22097
883.514	22310
883.64	22287
883.766	22150
883.892	22025
884.018	21994
884.143	22131
884.269	22223
884.395	21994
884.52	21911
884.646	21949
884.772	21915
884.897	21800
885.023	21991
885.148	21975
885.274	22021
885.399	21819
885.524	21572
885.65	21614
885.775	21481
885.9	21329
886.025	21424
886.15	21268
886.275	21051
886.4	20727
886.525	20769
886.65	20587
886.775	20602
886.9	20514
887.025	20560
887.149	20187
887.274	19936
887.399	19932
887.523	19879
887.648	19681
887.773	19559
887.897	19662
888.021	19590
888.146	19457
888.27	19575
888.395	19499
888.519	19506
888.643	19453
888.767	19335
888.891	19168
889.015	19091
889.139	19072
889.263	18890
889.387	19031
889.511	19179
889.635	19027
889.759	18840
889.883	18783
890.006	18764
890.13	18810
890.254	18665
890.377	18734
890.501	18471
890.624	18464
890.748	18528
890.871	18270
890.995	18300
891.118	18106
891.241	18136
891.364	18068
891.488	18209
891.611	17977
891.734	18190
891.857	17992
891.98	17965
892.103	18045
892.226	18098
892.349	17935
892.471	17707
892.594	17786
892.717	17893
892.839	17771
892.962	17779
893.085	17798
893.207	17741
893.33	17642
893.452	17665
893.575	17748
893.697	17661
893.819	17764
893.941	17684
894.064	17756
894.186	17543
894.308	17478
894.43	17630
894.552	17653
894.674	17627
894.796	17520
894.918	17444
895.04	17395
895.161	17501
895.283	17493
895.405	17455
895.526	17360
895.648	17345
895.769	17433
895.891	17471
896.012	17501
896.134	17509
896.255	17334
896.376	17376
896.498	17322
896.619	17383
896.74	17265
896.861	17417
896.982	17657
897.103	17824
897.224	17611
897.345	17532
897.466	17539
897.587	17570
897.708	17642
897.828	17509
897.949	17444
898.07	17334
898.19	17478
898.311	17680
898.431	17581
898.552	17535
898.672	17687
898.792	17687
898.913	17551
899.033	17429
899.153	17395
899.273	17398
899.393	17265
899.513	17368
899.633	17341
899.753	17444
899.873	17246
899.993	17528
900.113	17330
900.232	17231
900.352	17235
900.472	17189
900.591	17079
900.711	17235
900.83	17029
900.95	17284
901.069	17261
901.189	16953
901.308	16984
901.427	16748
901.546	16656
901.665	16877
901.784	16752
901.904	16679
902.023	16577
902.141	16337
902.26	16272
902.379	16337
902.498	16310
902.617	16185
902.735	16185
902.854	16185
902.973	16082
903.091	15922
903.21	15770
903.328	15922
903.446	15766
903.565	15751
903.683	15675
903.801	15553
903.919	15690
904.038	15675
904.156	15473
904.274	15504
904.392	15405
904.51	15268
904.627	15462
904.745	15473
904.863	15469
904.981	15249
905.098	15077
905.216	15024
905.334	15169
905.451	15074
905.569	15032
905.686	15093
905.803	15195
905.921	14872
906.038	14921
906.155	14838
906.272	14693
906.389	14720
906.506	14667
906.623	14674
906.74	14469
906.857	14465
906.974	14484
907.091	14583
907.208	14632
907.324	14568
907.441	14442
907.557	14442
907.674	14317
907.79	14252
907.907	14240
908.023	14339
908.139	14374
908.256	14256
908.372	14294
908.488	14191
908.604	14077
908.72	14065
908.836	13997
908.952	14035
909.068	14046
909.184	14138
909.3	14100
909.415	14111
909.531	14024
909.647	13753
909.762	13769
909.878	13719
909.993	13719
910.108	13791
910.224	13742
910.339	13761
910.454	13571
910.57	13628
910.685	13582
910.8	13928
910.915	13791
911.03	13567
911.145	13483
911.259	13441
911.374	13407
911.489	13339
911.604	13247
911.718	13225
911.833	13190
911.947	13038
912.062	13031
912.176	13069
912.291	13179
912.405	13194
912.519	13396
912.633	13373
912.748	13175
912.862	13179
912.976	12985
913.09	12901
913.204	12962
913.318	13019
913.431	13065
913.545	13110
913.659	13137
913.772	12970
913.886	12939
914	12871
914.113	13038
914.226	12916
914.34	12916
914.453	12814
914.566	12981
914.68	12772
914.793	12722
914.906	12631
915.019	12585
915.132	12517
915.245	12490
915.358	12563
915.47	12532
915.583	12612
915.696	12616
915.809	12703
915.921	12772
916.034	12502
916.146	12502
916.259	12555
916.371	12696
916.483	12608
916.595	12536
916.708	12464
916.82	12509
916.932	12517
917.044	12521
917.156	12525
917.268	12296
917.38	12369
917.491	12342
917.603	12311
917.715	12391
917.826	12467
917.938	12357
918.049	12254
918.161	12235
918.272	12475
918.384	12346
918.495	12289
918.606	12224
918.717	12076
918.828	12079
918.939	12205
919.05	11984
919.161	12144
919.272	11916
919.383	12015
919.494	12201
919.604	12376
919.715	12182
919.826	11950
919.936	12038
920.047	12110
920.157	12110
920.267	12308
920.378	12159
920.488	12095
920.598	12258
920.708	12429
920.818	12216
920.928	12220
921.038	12475
921.148	12353
921.258	12026
921.368	11999
921.477	11927
921.587	11840
921.697	11760
921.806	11882
921.916	11684
922.025	11608
922.134	11573
922.244	11463
922.353	11684
922.462	11417
922.571	11364
922.68	11239
922.789	11208
922.898	11269
923.007	11159
923.116	11212
923.224	11201
923.333	11113
923.442	11014
923.55	11048
923.659	10991
923.767	11170
923.876	11064
923.984	11162
924.092	10980
924.201	11048
924.309	11003
924.417	11064
924.525	10953
924.633	10957
924.741	11882
924.849	10767
924.956	10896
925.064	10759
925.172	10782
925.279	10759
925.387	10812
925.494	10748
925.602	10892
925.709	10831
925.816	10569
925.924	10759
926.031	10820
926.138	10679
926.245	10691
926.352	10653
926.459	10790
926.566	10854
926.673	10683
926.779	10573
926.886	10519
926.993	10470
927.099	10459
927.206	10344
927.312	10341
927.419	10497
927.525	10390
927.631	10531
927.737	10382
927.843	10291
927.95	10215
928.056	10360
928.162	10299
928.267	10314
928.373	10987
928.479	10314
928.585	10135
928.69	10265
928.796	10265
928.901	10139
929.007	10093
929.112	10177
929.218	10128
929.323	10090
929.428	10090
929.533	10272
929.638	9964
929.743	10017
929.848	10101
929.953	10071
930.058	9888
930.163	9755
930.267	9797
930.372	9941
930.477	9747
930.581	10048
930.685	9857
930.79	9667
930.894	9789
930.998	9713
931.103	9812
931.207	9545
931.311	9462
931.415	9363
931.519	9211
931.623	9108
