Data from test_V78500241_603.txt Node
Date: Fri Mar 25 14:37:55 CST 2022
User: usil
Spectrometer: V785-0024
Trigger mode: 0
Integration Time (sec): 4.000000E-1
Scans to average: 1
Nonlinearity correction enabled: false
Boxcar width: 0
Storing dark spectrum: false
XAxis mode: Wavelengths
Number of Pixels in Spectrum: 1024
>>>>>Begin Spectral Data<<<<<
801.071	27991
801.214	27903
801.356	27606
801.499	27618
801.641	27302
801.783	27336
801.926	27272
802.068	27294
802.211	27154
802.353	27093
802.496	26975
802.638	26940
802.78	26872
802.923	26815
803.065	26735
803.208	26788
803.35	26785
803.492	26891
803.635	27058
803.777	26807
803.919	26990
804.061	27389
804.204	27112
804.346	27093
804.488	27024
804.63	27081
804.773	27112
804.915	27211
805.057	27252
805.199	27233
805.341	27351
805.483	27306
805.626	27439
805.768	27450
805.91	27488
806.052	27599
806.194	27583
806.336	28021
806.478	27789
806.62	27953
806.762	28196
806.904	28656
807.046	29094
807.188	29212
807.33	29478
807.472	29931
807.614	30353
807.756	30913
807.898	31605
808.04	32746
808.182	34158
808.324	35916
808.465	38012
808.607	40192
808.749	42254
808.891	43601
809.033	43609
809.174	42300
809.316	40284
809.458	37986
809.6	35752
809.741	33739
809.883	32366
810.025	31339
810.166	30627
810.308	30053
810.45	29566
810.591	29277
810.733	28896
810.875	28580
811.016	28295
811.158	28295
811.299	28150
811.441	28207
811.582	28074
811.724	27930
811.865	27671
812.007	27819
812.148	27656
812.29	27622
812.431	27739
812.573	27861
812.714	27831
812.855	27953
812.997	27873
813.138	28040
813.279	28051
813.421	27812
813.562	27663
813.703	27496
813.845	27397
813.986	27062
814.127	26929
814.268	26743
814.41	26773
814.551	26571
814.692	26644
814.833	26606
814.974	26663
815.115	26583
815.256	26541
815.397	26453
815.539	26511
815.68	26309
815.821	26332
815.962	26172
816.103	26259
816.244	26035
816.385	26050
816.526	25818
816.666	25757
816.807	25609
816.948	25727
817.089	25651
817.23	25567
817.371	25575
817.512	25537
817.653	25556
817.793	25594
817.934	25567
818.075	25643
818.216	25601
818.356	25533
818.497	25525
818.638	25327
818.778	25293
818.919	25343
819.06	25244
819.2	25365
819.341	25537
819.481	25415
819.622	25521
819.762	25799
819.903	25601
820.043	25670
820.184	25457
820.324	25400
820.465	25556
820.605	25533
820.746	25430
820.886	25278
821.026	25510
821.167	25217
821.307	25453
821.447	25316
821.588	25217
821.728	25065
821.868	24787
822.008	24738
822.149	24764
822.289	24631
822.429	24388
822.569	24334
822.709	24395
822.849	24270
822.99	24213
823.13	24095
823.27	24121
823.41	23855
823.55	23885
823.69	23942
823.83	23855
823.97	23775
824.11	23798
824.25	23676
824.389	23661
824.529	23836
824.669	23687
824.809	23779
824.949	23684
825.089	23668
825.228	23821
825.368	23398
825.508	23425
825.648	23444
825.787	23501
825.927	23414
826.067	23455
826.206	23501
826.346	23425
826.485	23471
826.625	23486
826.765	23589
826.904	23478
827.044	23231
827.183	23254
827.323	23124
827.462	23250
827.601	23155
827.741	23079
827.88	23231
828.02	22999
828.159	23147
828.298	23166
828.437	23056
828.577	23018
828.716	23193
828.855	23132
828.994	22919
829.134	22854
829.273	22763
829.412	22831
829.551	22744
829.69	22774
829.829	22778
829.968	22828
830.107	22927
830.246	22820
830.385	22782
830.524	22744
830.663	22584
830.802	22527
830.941	22436
831.08	22246
831.219	22436
831.357	22352
831.496	22580
831.635	22443
831.774	22325
831.913	22211
832.051	22173
832.19	22177
832.329	22291
832.467	22234
832.606	22135
832.744	22223
832.883	22253
833.022	22341
833.16	22291
833.299	22337
833.437	22508
833.576	22622
833.714	22630
833.852	22691
833.991	22904
834.129	22968
834.267	22976
834.406	22953
834.544	22839
834.682	22702
834.821	22675
834.959	22702
835.097	22516
835.235	22489
835.373	22230
835.511	22276
835.65	22105
835.788	22223
835.926	21918
836.064	21816
836.202	21785
836.34	22040
836.478	21930
836.615	21987
836.753	21812
836.891	21964
837.029	21998
837.167	21781
837.305	21846
837.443	21770
837.58	21679
837.718	21797
837.856	21705
837.993	21591
838.131	21797
838.269	21542
838.406	21622
838.544	21397
838.681	21336
838.819	21272
838.956	21138
839.094	21195
839.231	21230
839.369	21306
839.506	21439
839.643	21458
839.781	21142
839.918	21100
840.055	21066
840.193	21123
840.33	21085
840.467	21062
840.604	21055
840.742	21230
840.879	20902
841.016	20963
841.153	20796
841.29	21123
841.427	21085
841.564	21047
841.701	21020
841.838	20906
841.975	20880
842.112	20891
842.249	20796
842.385	20906
842.522	20952
842.659	20872
842.796	20906
842.933	20819
843.069	20819
843.206	20864
843.343	20929
843.479	20826
843.616	20925
843.752	20746
843.889	20804
844.025	20864
844.162	20800
844.298	21032
844.435	21039
844.571	21173
844.708	21336
844.844	21755
844.98	21949
845.117	22329
845.253	23044
845.389	24197
845.525	26530
845.661	30403
845.798	35140
845.934	38587
846.07	40207
846.206	39542
846.342	36239
846.478	31643
846.614	27507
846.75	24601
846.886	23162
847.022	22147
847.158	21530
847.294	21169
847.429	20883
847.565	20530
847.701	20693
847.837	20229
847.972	20043
848.108	20187
848.244	20176
848.379	19887
848.515	19723
848.65	19811
848.786	19715
848.921	19651
849.057	19811
849.192	19742
849.328	19609
849.463	19761
849.598	19605
849.734	19632
849.869	19586
850.004	19358
850.14	19521
850.275	19472
850.41	19335
850.545	19411
850.68	19335
850.815	19354
850.95	19297
851.085	19506
851.22	19350
851.355	19293
851.49	19415
851.625	19400
851.76	19297
851.895	19266
852.03	19228
852.165	19354
852.299	19350
852.434	19282
852.569	19373
852.703	19430
852.838	19521
852.973	19563
853.107	19514
853.242	19449
853.376	19350
853.511	19236
853.645	19278
853.78	19419
853.914	19434
854.048	19369
854.183	19506
854.317	19521
854.451	19529
854.585	19464
854.72	19506
854.854	19620
854.988	19346
855.122	19274
855.256	19240
855.39	19335
855.524	19472
855.658	19373
855.792	19434
855.926	19225
856.06	19240
856.194	19270
856.327	19194
856.461	19129
856.595	19145
856.729	19194
856.862	19285
856.996	19175
857.13	19244
857.263	19392
857.397	19213
857.53	19160
857.664	19148
857.797	19209
857.931	19263
858.064	19164
858.197	19240
858.331	19095
858.464	19061
858.597	19042
858.731	19141
858.864	18993
858.997	18951
859.13	19107
859.263	19160
859.396	19156
859.529	18981
859.662	19012
859.795	18973
859.928	19031
860.061	19145
860.194	19247
860.327	19069
860.46	18966
860.592	19046
860.725	19050
860.858	19095
860.99	18909
861.123	18920
861.256	19027
861.388	18954
861.521	19791
861.653	18886
861.786	18779
861.918	18802
862.05	18913
862.183	19008
862.315	19091
862.447	19069
862.58	18924
862.712	18806
862.844	18711
862.976	18913
863.108	18795
863.24	19088
863.372	18700
863.504	18730
863.636	18703
863.768	18787
863.9	18730
864.032	18665
864.164	18604
864.296	18806
864.428	18840
864.559	18726
864.691	18833
864.823	18753
864.954	18798
865.086	18616
865.217	18597
865.349	18483
865.48	18566
865.612	18673
865.743	18783
865.875	18681
866.006	18601
866.137	18715
866.269	18494
866.4	18631
866.531	18631
866.662	18608
866.793	18570
866.924	18536
867.055	18597
867.186	18703
867.317	18490
867.448	18486
867.579	18566
867.71	18532
867.841	18532
867.972	18608
868.103	18502
868.233	18585
868.364	18681
868.495	18646
868.625	18844
868.756	18856
868.886	18764
869.017	18776
869.147	18935
869.278	18859
869.408	18916
869.539	18753
869.669	19019
869.799	18878
869.929	19057
870.06	18981
870.19	19175
870.32	19027
870.45	19339
870.58	19270
870.71	19381
870.84	19373
870.97	19209
871.1	19434
871.23	19346
871.36	19422
871.489	19396
871.619	19449
871.749	19430
871.879	19544
872.008	19571
872.138	19502
872.267	19506
872.397	19422
872.526	19438
872.656	19434
872.785	19411
872.915	19658
873.044	19677
873.173	19525
873.303	19651
873.432	19704
873.561	19761
873.69	19746
873.819	19883
873.948	19871
874.077	19719
874.206	19833
874.335	19864
874.464	19989
874.593	20039
874.722	20039
874.851	20191
874.979	20206
875.108	20298
875.237	20180
875.365	20031
875.494	20221
875.623	20355
875.751	20210
875.88	20317
876.008	20480
876.136	20530
876.265	20883
876.393	20979
876.521	21024
876.65	21039
876.778	20933
876.906	21017
877.034	20994
877.162	21230
877.29	21119
877.418	21146
877.546	21275
877.674	21416
877.802	21466
877.93	21492
878.058	21572
878.185	21675
878.313	21827
878.441	22124
878.568	22314
878.696	22790
878.824	23410
878.951	24178
879.079	25217
879.206	26682
879.333	28070
879.461	29162
879.588	30057
879.715	30114
879.842	29551
879.97	28105
880.097	26522
880.224	25384
880.351	24646
880.478	23999
880.605	23520
880.732	23429
880.859	23531
880.986	23113
881.112	22995
881.239	22904
881.366	22702
881.493	22497
881.619	22497
881.746	22679
881.872	22622
881.999	22592
882.125	22618
882.252	22740
882.378	22645
882.505	22908
882.631	22573
882.757	22447
882.883	22573
883.01	22485
883.136	22504
883.262	22379
883.388	22329
883.514	22421
883.64	22535
883.766	22379
883.892	22303
884.018	22310
884.143	22459
884.269	22531
884.395	22158
884.52	22238
884.646	22207
884.772	22120
884.897	21987
885.023	22139
885.148	22306
885.274	22265
885.399	22120
885.524	21930
885.65	21895
885.775	21812
885.9	21717
886.025	21629
886.15	21625
886.275	21481
886.4	21260
886.525	21260
886.65	21165
886.775	20994
886.9	21218
887.025	21214
887.149	20902
887.274	20697
887.399	20617
887.523	20556
887.648	20446
887.773	20385
887.897	20457
888.021	20225
888.146	20111
888.27	20427
888.395	20153
888.519	20202
888.643	20317
888.767	20107
888.891	19978
889.015	19955
889.139	19814
889.263	19856
889.387	19902
889.511	19951
889.635	19890
889.759	19620
889.883	19647
890.006	19662
890.13	19784
890.254	19586
890.377	19616
890.501	19502
890.624	19358
890.748	19381
890.871	19190
890.995	19099
891.118	19031
891.241	18989
891.364	19053
891.488	19270
891.611	19069
891.734	18993
891.857	19012
891.98	18882
892.103	19034
892.226	18989
892.349	18852
892.471	18722
892.594	18791
892.717	18810
892.839	18787
892.962	18681
893.085	18791
893.207	18745
893.33	18555
893.452	18521
893.575	18734
893.697	18574
893.819	18696
893.941	18646
894.064	18779
894.186	18467
894.308	18502
894.43	18509
894.552	18582
894.674	18620
894.796	18395
894.918	18506
895.04	18479
895.161	18509
895.283	18475
895.405	18319
895.526	18467
895.648	18445
895.769	18582
895.891	18388
896.012	18494
896.134	18631
896.255	18471
896.376	18289
896.498	18452
896.619	18407
896.74	18346
896.861	18509
896.982	18745
897.103	18787
897.224	18658
897.345	18585
897.466	18574
897.587	18593
897.708	18658
897.828	18593
897.949	18574
898.07	18494
898.19	18540
898.311	18715
898.431	18566
898.552	18597
898.672	18665
898.792	18540
898.913	18559
899.033	18471
899.153	18452
899.273	18350
899.393	18296
899.513	18376
899.633	18277
899.753	18422
899.873	18323
899.993	18270
900.113	18319
900.232	18353
900.352	18372
900.472	18323
900.591	18205
900.711	18205
900.83	18034
900.95	18289
901.069	18277
901.189	18114
901.308	17805
901.427	17726
901.546	17805
901.665	17726
901.784	17767
901.904	17627
902.023	17493
902.141	17349
902.26	17296
902.379	17220
902.498	17239
902.617	17178
902.735	17155
902.854	17094
902.973	17109
903.091	16839
903.21	16927
903.328	16854
903.446	16733
903.565	16622
903.683	16740
903.801	16588
903.919	16603
904.038	16531
904.156	16462
904.274	16584
904.392	16394
904.51	16337
904.627	16421
904.745	16379
904.863	16459
904.981	16219
905.098	15987
905.216	16082
905.334	16044
905.451	16036
905.569	16078
905.686	16116
905.803	16036
905.921	15743
906.038	15899
906.155	15755
906.272	15686
906.389	15698
906.506	15610
906.623	15656
906.74	15656
906.857	15428
906.974	15389
907.091	15564
907.208	15629
907.324	15530
907.441	15477
907.557	15325
907.674	15302
907.79	15287
907.907	15291
908.023	15291
908.139	15207
908.256	15222
908.372	15207
908.488	15119
908.604	14963
908.72	14883
908.836	15043
908.952	14933
909.068	15036
909.184	15116
909.3	14921
909.415	14967
909.531	14944
909.647	14655
909.762	14712
909.878	14727
909.993	14674
910.108	14663
910.224	14617
910.339	14602
910.454	14590
910.57	14526
910.685	14427
910.8	14712
910.915	14621
911.03	14457
911.145	14347
911.259	14305
911.374	14259
911.489	14176
911.604	14134
911.718	14069
911.833	14081
911.947	13887
912.062	13841
912.176	14012
912.291	14058
912.405	13982
912.519	14202
912.633	14183
912.748	14084
912.862	14001
912.976	13936
913.09	13765
913.204	13826
913.318	13982
913.431	14058
913.545	13909
913.659	13947
913.772	13830
913.886	13689
914	13734
914.113	13830
914.226	13803
914.34	13708
914.453	13590
914.566	13753
914.68	13624
914.793	13548
914.906	13483
915.019	13384
915.132	13312
915.245	13388
915.358	13457
915.47	13403
915.583	13472
915.696	13430
915.809	13502
915.921	13537
916.034	13369
916.146	13331
916.259	13259
916.371	13419
916.483	13381
916.595	13369
916.708	13282
916.82	13247
916.932	13327
917.044	13232
917.156	13251
917.268	13160
917.38	13209
917.491	13183
917.603	13129
917.715	13164
917.826	13171
917.938	13034
918.049	13023
918.161	13114
918.272	13156
918.384	13179
918.495	13088
918.606	12996
918.717	12848
918.828	12859
918.939	12901
919.05	12825
919.161	12821
919.272	12798
919.383	12738
919.494	12913
919.604	12954
919.715	12829
919.826	12848
919.936	12764
920.047	12897
920.157	12844
920.267	13046
920.378	12909
920.488	12715
920.598	13034
920.708	13133
920.818	12985
920.928	12977
921.038	13175
921.148	13141
921.258	12802
921.368	12669
921.477	12692
921.587	12589
921.697	12464
921.806	12570
921.916	12452
922.025	12270
922.134	12289
922.244	12266
922.353	12224
922.462	12136
922.571	12133
922.68	11935
922.789	11897
922.898	11935
923.007	11851
923.116	11942
923.224	11866
923.333	11824
923.442	11699
923.55	11710
923.659	11866
923.767	11904
923.876	11752
923.984	11809
924.092	11646
924.201	11733
924.309	11794
924.417	11661
924.525	11665
924.633	11501
924.741	12467
924.849	11516
924.956	11619
925.064	11497
925.172	11315
925.279	11326
925.387	11425
925.494	11520
925.602	11520
925.709	11532
925.816	11383
925.924	11383
926.031	11490
926.138	11402
926.245	11459
926.352	11337
926.459	11402
926.566	11448
926.673	11299
926.779	11174
926.886	11216
926.993	11079
927.099	11117
927.206	10927
927.312	11048
927.419	11067
927.525	11006
927.631	11090
927.737	10877
927.843	10854
927.95	10786
928.056	10923
928.162	10934
928.267	10999
928.373	11570
928.479	10934
928.585	10763
928.69	10911
928.796	10930
928.901	10793
929.007	10603
929.112	10694
929.218	10740
929.323	10793
929.428	10641
929.533	10752
929.638	10599
929.743	10603
929.848	10660
929.953	10550
930.058	10573
930.163	10291
930.267	10402
930.372	10580
930.477	10375
930.581	10512
930.685	10459
930.79	10379
930.894	10265
930.998	10280
931.103	10405
931.207	10044
931.311	9972
931.415	9888
931.519	9770
931.623	9732
