Data from test_V78500241_1792.txt Node
Date: Fri Mar 25 14:46:11 CST 2022
User: usil
Spectrometer: V785-0024
Trigger mode: 0
Integration Time (sec): 4.000000E-1
Scans to average: 1
Nonlinearity correction enabled: false
Boxcar width: 0
Storing dark spectrum: false
XAxis mode: Wavelengths
Number of Pixels in Spectrum: 1024
>>>>>Begin Spectral Data<<<<<
801.071	22082
801.214	22025
801.356	21804
801.499	21694
801.641	21553
801.783	21488
801.926	21610
802.068	21374
802.211	21443
802.353	21386
802.496	21142
802.638	21074
802.78	21024
802.923	20979
803.065	20845
803.208	20815
803.35	20937
803.492	20895
803.635	21032
803.777	21001
803.919	20975
804.061	21279
804.204	21024
804.346	20792
804.488	20800
804.63	20819
804.773	20883
804.915	20921
805.057	20838
805.199	20602
805.341	20872
805.483	20933
805.626	20921
805.768	20762
805.91	20769
806.052	20785
806.194	20792
806.336	20929
806.478	20857
806.62	20754
806.762	20880
806.904	20944
807.046	21123
807.188	21112
807.33	20948
807.472	21173
807.614	21070
807.756	21043
807.898	20967
808.04	20773
808.182	20807
808.324	20876
808.465	20902
808.607	21169
808.749	21218
808.891	21233
809.033	21348
809.174	21340
809.316	21135
809.458	21024
809.6	21119
809.741	21226
809.883	21317
810.025	21211
810.166	21317
810.308	21386
810.45	21313
810.591	21214
810.733	21062
810.875	20895
811.016	20891
811.158	20967
811.299	21028
811.441	21074
811.582	21047
811.724	20960
811.865	20971
812.007	20891
812.148	21013
812.29	20906
812.431	21077
812.573	21256
812.714	21443
812.855	21492
812.997	21485
813.138	21652
813.279	21568
813.421	21511
813.562	21443
813.703	21138
813.845	21150
813.986	20883
814.127	20590
814.268	20495
814.41	20579
814.551	20492
814.692	20579
814.833	20427
814.974	20473
815.115	20434
815.256	20347
815.397	20362
815.539	20434
815.68	20301
815.821	20180
815.962	20180
816.103	20183
816.244	20107
816.385	19947
816.526	20031
816.666	19833
816.807	19700
816.948	19811
817.089	19712
817.23	19533
817.371	19746
817.512	19605
817.653	19620
817.793	19605
817.934	19578
818.075	19689
818.216	19643
818.356	19628
818.497	19415
818.638	19228
818.778	19308
818.919	19324
819.06	19384
819.2	19460
819.341	19476
819.481	19506
819.622	19704
819.762	19811
819.903	19742
820.043	19811
820.184	19518
820.324	19601
820.465	19689
820.605	19658
820.746	19571
820.886	19548
821.026	19533
821.167	19548
821.307	19708
821.447	19552
821.588	19373
821.728	19335
821.868	19160
822.008	19088
822.149	19156
822.289	19015
822.429	18722
822.569	18673
822.709	18802
822.849	18551
822.99	18582
823.13	18528
823.27	18441
823.41	18311
823.55	18300
823.69	18357
823.83	18365
823.97	18266
824.11	18148
824.25	18003
824.389	18186
824.529	18133
824.669	18140
824.809	18281
824.949	18205
825.089	18076
825.228	18121
825.368	17828
825.508	17824
825.648	17878
825.787	17760
825.927	17897
826.067	17813
826.206	17828
826.346	17893
826.485	17843
826.625	17786
826.765	17923
826.904	17927
827.044	17570
827.183	17596
827.323	17524
827.462	17657
827.601	17619
827.741	17478
827.88	17524
828.02	17387
828.159	17642
828.298	17573
828.437	17596
828.577	17459
828.716	17707
828.855	17577
828.994	17391
829.134	17334
829.273	17303
829.412	17277
829.551	17315
829.69	17368
829.829	17341
829.968	17467
830.107	17349
830.246	17372
830.385	17231
830.524	17166
830.663	17102
830.802	17060
830.941	16987
831.08	16904
831.219	16923
831.357	16972
831.496	17121
831.635	16927
831.774	16877
831.913	16755
832.051	16645
832.19	16771
832.329	16710
832.467	16653
832.606	16599
832.744	16660
832.883	16603
833.022	16778
833.16	16656
833.299	16641
833.437	16664
833.576	16558
833.714	16618
833.852	16740
833.991	16687
834.129	16801
834.267	16725
834.406	16706
834.544	16782
834.682	16660
834.821	16687
834.959	16816
835.097	16641
835.235	16824
835.373	16698
835.511	16797
835.65	16531
835.788	16641
835.926	16451
836.064	16398
836.202	16504
836.34	16637
836.478	16630
836.615	16588
836.753	16634
836.891	16615
837.029	16554
837.167	16493
837.305	16489
837.443	16447
837.58	16386
837.718	16493
837.856	16485
837.993	16489
838.131	16504
838.269	16261
838.406	16474
838.544	16284
838.681	16147
838.819	16116
838.956	16051
839.094	15975
839.231	16021
839.369	16124
839.506	16421
839.643	16215
839.781	16032
839.918	15918
840.055	15960
840.193	16006
840.33	15979
840.467	15945
840.604	16051
840.742	16261
840.879	15850
841.016	15979
841.153	15842
841.29	16112
841.427	15991
841.564	16029
841.701	15983
841.838	15892
841.975	15884
842.112	15960
842.249	15876
842.385	15660
842.522	16021
842.659	15850
842.796	15816
842.933	15861
843.069	15751
843.206	15774
843.343	15892
843.479	15797
843.616	15774
843.752	15637
843.889	15545
844.025	15667
844.162	15534
844.298	15713
844.435	15538
844.571	15538
844.708	15641
844.844	15766
844.98	15800
845.117	15728
845.253	15557
845.389	15488
845.525	15519
845.661	15431
845.798	15363
845.934	15515
846.07	15279
846.206	15412
846.342	15443
846.478	15329
846.614	15298
846.75	15119
846.886	15062
847.022	15260
847.158	15112
847.294	15150
847.429	15195
847.565	15116
847.701	15279
847.837	14880
847.972	14769
848.108	14929
848.244	14899
848.379	14842
848.515	14716
848.65	14743
848.786	14712
848.921	14750
849.057	14857
849.192	14842
849.328	14792
849.463	14705
849.598	14659
849.734	14636
849.869	14670
850.004	14629
850.14	14560
850.275	14480
850.41	14511
850.545	14404
850.68	14469
850.815	14590
850.95	14465
851.085	14708
851.22	14663
851.355	14568
851.49	14400
851.625	14526
851.76	14465
851.895	14415
852.03	14377
852.165	14408
852.299	14575
852.434	14545
852.569	14537
852.703	14537
852.838	14625
852.973	14686
853.107	14682
853.242	14518
853.376	14320
853.511	14298
853.645	14317
853.78	14473
853.914	14298
854.048	14385
854.183	14370
854.317	14343
854.451	14556
854.585	14412
854.72	14381
854.854	14419
854.988	14267
855.122	14366
855.256	14263
855.39	14309
855.524	14446
855.658	14457
855.792	14446
855.926	14431
856.06	14366
856.194	14461
856.327	14362
856.461	14339
856.595	14263
856.729	14286
856.862	14465
856.996	14442
857.13	14454
857.263	14545
857.397	14446
857.53	14408
857.664	14454
857.797	14446
857.931	14587
858.064	14366
858.197	14469
858.331	14393
858.464	14381
858.597	14263
858.731	14347
858.864	14313
858.997	14275
859.13	14434
859.263	14396
859.396	14408
859.529	14389
859.662	14412
859.795	14286
859.928	14282
860.061	14518
860.194	14499
860.327	14396
860.46	14339
860.592	14522
860.725	14518
860.858	14495
860.99	14423
861.123	14271
861.256	14362
861.388	14419
861.521	15157
861.653	14233
861.786	14240
861.918	14233
862.05	14355
862.183	14362
862.315	14355
862.447	14404
862.58	14309
862.712	14138
862.844	14054
862.976	14263
863.108	14263
863.24	14530
863.372	14050
863.504	14157
863.636	14111
863.768	14176
863.9	14168
864.032	14103
864.164	14115
864.296	14202
864.428	14278
864.559	14123
864.691	14263
864.823	14248
864.954	14172
865.086	14206
865.217	14081
865.349	14069
865.48	14187
865.612	14130
865.743	14221
865.875	14138
866.006	14012
866.137	14073
866.269	14202
866.4	14138
866.531	14024
866.662	14081
866.793	14077
866.924	14115
867.055	14210
867.186	14218
867.317	14119
867.448	14092
867.579	14043
867.71	14005
867.841	14138
867.972	14161
868.103	14153
868.233	14214
868.364	14157
868.495	14161
868.625	14358
868.756	14575
868.886	14290
869.017	14412
869.147	14457
869.278	14507
869.408	14408
869.539	14495
869.669	14560
869.799	14526
869.929	14473
870.06	14530
870.19	14727
870.32	14667
870.45	14735
870.58	14948
870.71	14834
870.84	14986
870.97	14830
871.1	14804
871.23	14963
871.36	15024
871.489	14948
871.619	14998
871.749	15066
871.879	15085
872.008	15097
872.138	15093
872.267	14933
872.397	14830
872.526	14792
872.656	14834
872.785	14842
872.915	15070
873.044	15192
873.173	15013
873.303	15100
873.432	15173
873.561	15093
873.69	15058
873.819	15116
873.948	15100
874.077	15123
874.206	14994
874.335	15089
874.464	15173
874.593	15321
874.722	15317
874.851	15447
874.979	15488
875.108	15481
875.237	15332
875.365	15241
875.494	15348
875.623	15439
875.751	15382
875.88	15416
876.008	15622
876.136	15599
876.265	15759
876.393	15949
876.521	15937
876.65	15804
876.778	15865
876.906	15713
877.034	15717
877.162	15869
877.29	15652
877.418	15728
877.546	15781
877.674	15873
877.802	15873
877.93	15747
878.058	15895
878.185	15762
878.313	15667
878.441	15781
878.568	15660
878.696	15717
878.824	15827
878.951	15930
879.079	15941
879.206	16128
879.333	15975
879.461	15857
879.588	15823
879.715	16048
879.842	16071
879.97	15861
880.097	15717
880.224	15663
880.351	15625
880.478	15709
880.605	15644
880.732	15705
880.859	15915
880.986	15663
881.112	15743
881.239	15462
881.366	15397
881.493	15302
881.619	15245
881.746	15310
881.872	15313
881.999	15348
882.125	15218
882.252	15272
882.378	15325
882.505	15458
882.631	15233
882.757	15077
882.883	15279
883.01	15165
883.136	15081
883.262	14891
883.388	14994
883.514	15039
883.64	15173
883.766	15055
883.892	14830
884.018	14982
884.143	15062
884.269	15157
884.395	14880
884.52	14777
884.646	14788
884.772	14754
884.897	14804
885.023	14823
885.148	14868
885.274	15058
885.399	14979
885.524	14807
885.65	14762
885.775	14883
885.9	14830
886.025	14937
886.15	14895
886.275	14769
886.4	14716
886.525	14731
886.65	14788
886.775	14773
886.9	14883
887.025	15116
887.149	14796
887.274	14655
887.399	14636
887.523	14644
887.648	14526
887.773	14541
887.897	14735
888.021	14648
888.146	14712
888.27	14712
888.395	14842
888.519	14724
888.643	14727
888.767	14708
888.891	14564
889.015	14594
889.139	14530
889.263	14503
889.387	14636
889.511	14724
889.635	14667
889.759	14507
889.883	14476
890.006	14575
890.13	14568
890.254	14431
890.377	14423
890.501	14259
890.624	14454
890.748	14400
890.871	14267
890.995	14206
891.118	14126
891.241	14275
891.364	14149
891.488	14275
891.611	14187
891.734	14256
891.857	14313
891.98	14252
892.103	14339
892.226	14248
892.349	14195
892.471	14008
892.594	14134
892.717	14210
892.839	14187
892.962	14237
893.085	14301
893.207	14240
893.33	14119
893.452	14172
893.575	14294
893.697	14164
893.819	14351
893.941	14518
894.064	14374
894.186	14168
894.308	14157
894.43	14336
894.552	14434
894.674	14347
894.796	14214
894.918	14313
895.04	14153
895.161	14339
895.283	14301
895.405	14256
895.526	14309
895.648	14332
895.769	14412
895.891	14313
896.012	14396
896.134	14328
896.255	14393
896.376	14328
896.498	14271
896.619	14446
896.74	14259
896.861	14469
896.982	14640
897.103	14899
897.224	14678
897.345	14590
897.466	14678
897.587	14594
897.708	14689
897.828	14686
897.949	14587
898.07	14552
898.19	14564
898.311	14746
898.431	14625
898.552	14720
898.672	14792
898.792	14842
898.913	14834
899.033	14590
899.153	14602
899.273	14511
899.393	14396
899.513	14674
899.633	14644
899.753	14701
899.873	14495
899.993	14587
900.113	14492
900.232	14556
900.352	14488
900.472	14446
900.591	14313
900.711	14450
900.83	14434
900.95	14606
901.069	14522
901.189	14381
901.308	14199
901.427	14073
901.546	14134
901.665	14100
901.784	14145
901.904	14077
902.023	13803
902.141	13727
902.26	13712
902.379	13841
902.498	13647
902.617	13548
902.735	13772
902.854	13677
902.973	13544
903.091	13354
903.21	13426
903.328	13430
903.446	13285
903.565	13206
903.683	13244
903.801	13206
903.919	13240
904.038	13187
904.156	13057
904.274	13160
904.392	13004
904.51	13076
904.627	13050
904.745	13088
904.863	13164
904.981	12856
905.098	12802
905.216	12810
905.334	12825
905.451	12787
905.569	12673
905.686	12776
905.803	12757
905.921	12566
906.038	12700
906.155	12544
906.272	12525
906.389	12441
906.506	12380
906.623	12285
906.74	12289
906.857	12216
906.974	12258
907.091	12365
907.208	12475
907.324	12376
907.441	12266
907.557	12057
907.674	12133
907.79	12098
907.907	12057
908.023	12095
908.139	12087
908.256	12022
908.372	11973
908.488	12007
908.604	11832
908.72	11901
908.836	11863
908.952	11767
909.068	11855
909.184	11908
909.3	11836
909.415	11836
909.531	11805
909.647	11672
909.762	11604
909.878	11604
909.993	11653
910.108	11611
910.224	11577
910.339	11630
910.454	11532
910.57	11509
910.685	11364
910.8	11642
910.915	11653
911.03	11554
911.145	11349
911.259	11288
911.374	11330
911.489	11246
911.604	11117
911.718	11071
911.833	11113
911.947	10999
912.062	10881
912.176	11022
912.291	11113
912.405	11102
912.519	11269
912.633	11269
912.748	11159
912.862	11033
912.976	10908
913.09	10854
913.204	10915
913.318	10972
913.431	10968
913.545	11090
913.659	11056
913.772	11014
913.886	10816
914	10793
914.113	10877
914.226	10984
914.34	10866
914.453	10702
914.566	10930
914.68	10839
914.793	10771
914.906	10710
915.019	10554
915.132	10546
915.245	10500
915.358	10546
915.47	10573
915.583	10596
915.696	10649
915.809	10733
915.921	10683
916.034	10478
916.146	10538
916.259	10531
916.371	10664
916.483	10523
916.595	10497
916.708	10447
916.82	10531
916.932	10451
917.044	10440
917.156	10474
917.268	10360
917.38	10440
917.491	10405
917.603	10474
917.715	10493
917.826	10504
917.938	10421
918.049	10356
918.161	10424
918.272	10558
918.384	10580
918.495	10428
918.606	10238
918.717	10242
918.828	10310
918.939	10337
919.05	10200
919.161	10204
919.272	10040
919.383	10173
919.494	10268
919.604	10485
919.715	10318
919.826	10143
919.936	10192
920.047	10371
920.157	10329
920.267	10451
920.378	10451
920.488	10246
920.598	10546
920.708	10603
920.818	10497
920.928	10459
921.038	10683
921.148	10668
921.258	10299
921.368	10204
921.477	10230
921.587	10071
921.697	10021
921.806	10128
921.916	10059
922.025	9979
922.134	9903
922.244	9778
922.353	9895
922.462	9785
922.571	9713
922.68	9568
922.789	9553
922.898	9564
923.007	9507
923.116	9561
923.224	9462
923.333	9542
923.442	9466
923.55	9351
923.659	9420
923.767	9477
923.876	9401
923.984	9458
924.092	9317
924.201	9462
924.309	9466
924.417	9389
924.525	9393
924.633	9351
924.741	10303
924.849	9123
924.956	9283
925.064	9192
925.172	9062
925.279	9150
925.387	9279
925.494	9245
925.602	9340
925.709	9310
925.816	9112
925.924	9218
926.031	9203
926.138	9226
926.245	9256
926.352	9070
926.459	9245
926.566	9306
926.673	9142
926.779	9116
926.886	9074
926.993	8971
927.099	8937
927.206	8880
927.312	8826
927.419	8952
927.525	8914
927.631	8872
927.737	8834
927.843	8785
927.95	8594
928.056	8785
928.162	8815
928.267	8880
928.373	9458
928.479	8857
928.585	8655
928.69	8815
928.796	8899
928.901	8758
929.007	8610
929.112	8792
929.218	8716
929.323	8613
929.428	8564
929.533	8754
929.638	8564
929.743	8598
929.848	8564
929.953	8693
930.058	8465
930.163	8324
930.267	8347
930.372	8560
930.477	8343
930.581	8590
930.685	8473
930.79	8396
930.894	8328
930.998	8320
931.103	8446
931.207	8088
931.311	8069
931.415	7989
931.519	7830
931.623	7772
