Data from test_V78500241_2490.txt Node
Date: Fri Mar 25 14:51:03 CST 2022
User: usil
Spectrometer: V785-0024
Trigger mode: 0
Integration Time (sec): 4.000000E-1
Scans to average: 1
Nonlinearity correction enabled: false
Boxcar width: 0
Storing dark spectrum: false
XAxis mode: Wavelengths
Number of Pixels in Spectrum: 1024
>>>>>Begin Spectral Data<<<<<
801.071	22078
801.214	22006
801.356	21694
801.499	21720
801.641	21496
801.783	21363
801.926	21511
802.068	21473
802.211	21325
802.353	21214
802.496	21017
802.638	21017
802.78	21013
802.923	20842
803.065	20830
803.208	20842
803.35	20963
803.492	20891
803.635	20910
803.777	20731
803.919	20804
804.061	21188
804.204	20956
804.346	20815
804.488	20602
804.63	20724
804.773	20636
804.915	20663
805.057	20788
805.199	20617
805.341	20754
805.483	20758
805.626	20849
805.768	20465
805.91	20682
806.052	20762
806.194	20495
806.336	20819
806.478	20632
806.62	20648
806.762	20716
806.904	20876
807.046	21108
807.188	20960
807.33	20998
807.472	20998
807.614	20933
807.756	20872
807.898	20815
808.04	20686
808.182	20731
808.324	20811
808.465	20861
808.607	20883
808.749	21043
808.891	21127
809.033	21252
809.174	21180
809.316	20971
809.458	21116
809.6	21017
809.741	21108
809.883	21249
810.025	21237
810.166	21256
810.308	21214
810.45	21176
810.591	21119
810.733	20887
810.875	20853
811.016	20796
811.158	20834
811.299	20838
811.441	20994
811.582	20929
811.724	20750
811.865	20842
812.007	20823
812.148	20731
812.29	20807
812.431	20952
812.573	21066
812.714	21195
812.855	21237
812.997	21367
813.138	21599
813.279	21416
813.421	21291
813.562	21287
813.703	21150
813.845	20982
813.986	20727
814.127	20545
814.268	20454
814.41	20484
814.551	20400
814.692	20427
814.833	20168
814.974	20305
815.115	20518
815.256	20347
815.397	20206
815.539	20275
815.68	20172
815.821	19928
815.962	20164
816.103	20054
816.244	20008
816.385	19765
816.526	19860
816.666	19769
816.807	19628
816.948	19601
817.089	19788
817.23	19575
817.371	19506
817.512	19529
817.653	19324
817.793	19460
817.934	19430
818.075	19495
818.216	19480
818.356	19491
818.497	19282
818.638	19156
818.778	19156
818.919	19270
819.06	19133
819.2	19369
819.341	19365
819.481	19441
819.622	19518
819.762	19666
819.903	19628
820.043	19514
820.184	19506
820.324	19582
820.465	19525
820.605	19464
820.746	19487
820.886	19396
821.026	19597
821.167	19495
821.307	19525
821.447	19350
821.588	19308
821.728	19217
821.868	19072
822.008	18913
822.149	18886
822.289	18882
822.429	18540
822.569	18589
822.709	18673
822.849	18445
822.99	18319
823.13	18357
823.27	18372
823.41	18144
823.55	18110
823.69	18243
823.83	18194
823.97	18129
824.11	18007
824.25	17939
824.389	17824
824.529	18022
824.669	17961
824.809	18114
824.949	18019
825.089	17931
825.228	17931
825.368	17771
825.508	17824
825.648	17718
825.787	17695
825.927	17790
826.067	17752
826.206	17668
826.346	17771
826.485	17767
826.625	17707
826.765	17824
826.904	17722
827.044	17467
827.183	17421
827.323	17360
827.462	17577
827.601	17425
827.741	17577
827.88	17478
828.02	17250
828.159	17425
828.298	17448
828.437	17414
828.577	17261
828.716	17634
828.855	17440
828.994	17128
829.134	17200
829.273	17220
829.412	17128
829.551	17109
829.69	17128
829.829	17223
829.968	17181
830.107	17292
830.246	17155
830.385	17197
830.524	17185
830.663	16885
830.802	16896
830.941	16858
831.08	16752
831.219	16854
831.357	16911
831.496	17006
831.635	16729
831.774	16710
831.913	16679
832.051	16584
832.19	16561
832.329	16546
832.467	16535
832.606	16478
832.744	16447
832.883	16413
833.022	16542
833.16	16428
833.299	16512
833.437	16462
833.576	16672
833.714	16459
833.852	16462
833.991	16588
834.129	16546
834.267	16550
834.406	16504
834.544	16558
834.682	16626
834.821	16546
834.959	16881
835.097	16504
835.235	16698
835.373	16607
835.511	16421
835.65	16402
835.788	16493
835.926	16173
836.064	16150
836.202	16287
836.34	16481
836.478	16470
836.615	16462
836.753	16500
836.891	16535
837.029	16527
837.167	16405
837.305	16424
837.443	16367
837.58	16204
837.718	16303
837.856	16318
837.993	16226
838.131	16337
838.269	16280
838.406	16306
838.544	16219
838.681	16078
838.819	15983
838.956	15899
839.094	15865
839.231	15895
839.369	16006
839.506	16261
839.643	16166
839.781	15804
839.918	15880
840.055	15842
840.193	15911
840.33	15812
840.467	15895
840.604	15934
840.742	16067
840.879	15694
841.016	15774
841.153	15720
841.29	16010
841.427	15892
841.564	15972
841.701	15926
841.838	15816
841.975	15732
842.112	15903
842.249	15736
842.385	15603
842.522	15835
842.659	15660
842.796	15675
842.933	15747
843.069	15641
843.206	15641
843.343	15800
843.479	15618
843.616	15694
843.752	15405
843.889	15496
844.025	15568
844.162	15443
844.298	15538
844.435	15469
844.571	15317
844.708	15420
844.844	15519
844.98	15576
845.117	15549
845.253	15454
845.389	15386
845.525	15397
845.661	15325
845.798	15291
845.934	15279
846.07	15237
846.206	15321
846.342	15450
846.478	15233
846.614	15032
846.75	15017
846.886	15001
847.022	15123
847.158	14975
847.294	15005
847.429	15081
847.565	14941
847.701	15165
847.837	14765
847.972	14815
848.108	14872
848.244	14914
848.379	14724
848.515	14648
848.65	14495
848.786	14507
848.921	14689
849.057	14743
849.192	14750
849.328	14629
849.463	14590
849.598	14556
849.734	14602
849.869	14526
850.004	14415
850.14	14442
850.275	14408
850.41	14377
850.545	14275
850.68	14370
850.815	14355
850.95	14343
851.085	14533
851.22	14431
851.355	14514
851.49	14347
851.625	14278
851.76	14309
851.895	14206
852.03	14275
852.165	14290
852.299	14347
852.434	14492
852.569	14434
852.703	14404
852.838	14442
852.973	14549
853.107	14522
853.242	14256
853.376	14320
853.511	14161
853.645	14157
853.78	14362
853.914	14286
854.048	14199
854.183	14183
854.317	14305
854.451	14393
854.585	14267
854.72	14168
854.854	14248
854.988	14126
855.122	14263
855.256	14092
855.39	14259
855.524	14362
855.658	14336
855.792	14153
855.926	14229
856.06	14324
856.194	14313
856.327	14206
856.461	14164
856.595	14168
856.729	14252
856.862	14294
856.996	14309
857.13	14256
857.263	14305
857.397	14317
857.53	14229
857.664	14377
857.797	14381
857.931	14366
858.064	14320
858.197	14362
858.331	14214
858.464	14149
858.597	14065
858.731	14172
858.864	14294
858.997	14149
859.13	14267
859.263	14298
859.396	14336
859.529	14225
859.662	14252
859.795	14339
859.928	14248
860.061	14396
860.194	14473
860.327	14225
860.46	14161
860.592	14328
860.725	14374
860.858	14351
860.99	14225
861.123	14126
861.256	14187
861.388	14271
861.521	14876
861.653	14050
861.786	14035
861.918	14077
862.05	14183
862.183	14195
862.315	14240
862.447	14294
862.58	14195
862.712	14096
862.844	13967
862.976	14111
863.108	14012
863.24	14385
863.372	14046
863.504	14088
863.636	14039
863.768	14111
863.9	14088
864.032	13932
864.164	13982
864.296	14111
864.428	14164
864.559	14157
864.691	14107
864.823	14130
864.954	14035
865.086	14077
865.217	14001
865.349	13959
865.48	14130
865.612	14058
865.743	14153
865.875	14077
866.006	13963
866.137	14008
866.269	13970
866.4	13902
866.531	13894
866.662	13932
866.793	13944
866.924	13913
867.055	14039
867.186	14016
867.317	13989
867.448	13944
867.579	14039
867.71	13894
867.841	13955
867.972	14020
868.103	14062
868.233	14046
868.364	13940
868.495	14050
868.625	14237
868.756	14320
868.886	14278
869.017	14275
869.147	14442
869.278	14328
869.408	14351
869.539	14294
869.669	14267
869.799	14355
869.929	14415
870.06	14347
870.19	14568
870.32	14575
870.45	14590
870.58	14655
870.71	14804
870.84	14743
870.97	14682
871.1	14648
871.23	14819
871.36	14895
871.489	14765
871.619	14796
871.749	14876
871.879	14967
872.008	14929
872.138	14910
872.267	14727
872.397	14785
872.526	14682
872.656	14655
872.785	14754
872.915	14864
873.044	14868
873.173	14887
873.303	14902
873.432	14914
873.561	14937
873.69	14921
873.819	14830
873.948	15005
874.077	14887
874.206	14933
874.335	14948
874.464	15077
874.593	15291
874.722	15249
874.851	15302
874.979	15192
875.108	15241
875.237	15176
875.365	15085
875.494	15207
875.623	15306
875.751	15180
875.88	15287
876.008	15420
876.136	15416
876.265	15660
876.393	15789
876.521	15781
876.65	15641
876.778	15663
876.906	15641
877.034	15629
877.162	15606
877.29	15572
877.418	15698
877.546	15625
877.674	15667
877.802	15614
877.93	15591
878.058	15584
878.185	15523
878.313	15504
878.441	15580
878.568	15500
878.696	15667
878.824	15564
878.951	15648
879.079	15816
879.206	15979
879.333	15835
879.461	15644
879.588	15797
879.715	15930
879.842	15911
879.97	15720
880.097	15431
880.224	15504
880.351	15439
880.478	15488
880.605	15431
880.732	15439
880.859	15682
880.986	15488
881.112	15511
881.239	15439
881.366	15272
881.493	15211
881.619	15150
881.746	15131
881.872	15188
881.999	15211
882.125	15100
882.252	15207
882.378	15150
882.505	15241
882.631	15055
882.757	14986
882.883	14982
883.01	14998
883.136	14941
883.262	14872
883.388	14899
883.514	15066
883.64	15058
883.766	14982
883.892	14750
884.018	14849
884.143	15005
884.269	14952
884.395	14762
884.52	14674
884.646	14720
884.772	14594
884.897	14541
885.023	14720
885.148	14777
885.274	14902
885.399	14743
885.524	14705
885.65	14674
885.775	14655
885.9	14606
886.025	14712
886.15	14667
886.275	14579
886.4	14549
886.525	14686
886.65	14640
886.775	14648
886.9	14807
887.025	14910
887.149	14621
887.274	14568
887.399	14347
887.523	14495
887.648	14370
887.773	14396
887.897	14583
888.021	14575
888.146	14438
888.27	14552
888.395	14693
888.519	14590
888.643	14568
888.767	14499
888.891	14465
889.015	14305
889.139	14415
889.263	14339
889.387	14480
889.511	14594
889.635	14545
889.759	14275
889.883	14343
890.006	14400
890.13	14541
890.254	14286
890.377	14366
890.501	14054
890.624	14244
890.748	14229
890.871	14092
890.995	14020
891.118	13989
891.241	14065
891.364	14111
891.488	14134
891.611	14077
891.734	14058
891.857	14077
891.98	14081
892.103	14126
892.226	14058
892.349	14081
892.471	13856
892.594	14001
892.717	14043
892.839	14077
892.962	14031
893.085	14119
893.207	14058
893.33	13887
893.452	14096
893.575	14123
893.697	14126
893.819	14210
893.941	14187
894.064	14168
894.186	14020
894.308	14073
894.43	14130
894.552	14309
894.674	14206
894.796	14062
894.918	14077
895.04	14134
895.161	14237
895.283	14100
895.405	14145
895.526	14172
895.648	14180
895.769	14187
895.891	14161
896.012	14290
896.134	14237
896.255	14278
896.376	14176
896.498	14218
896.619	14286
896.74	14244
896.861	14278
896.982	14518
897.103	14651
897.224	14556
897.345	14446
897.466	14492
897.587	14415
897.708	14541
897.828	14594
897.949	14552
898.07	14412
898.19	14454
898.311	14648
898.431	14541
898.552	14571
898.672	14636
898.792	14678
898.913	14701
899.033	14499
899.153	14419
899.273	14370
899.393	14454
899.513	14503
899.633	14332
899.753	14499
899.873	14313
899.993	14587
900.113	14526
900.232	14560
900.352	14476
900.472	14294
900.591	14305
900.711	14290
900.83	14309
900.95	14461
901.069	14465
901.189	14161
901.308	13982
901.427	13921
901.546	14008
901.665	14031
901.784	13997
901.904	13795
902.023	13811
902.141	13613
902.26	13552
902.379	13734
902.498	13575
902.617	13559
902.735	13616
902.854	13506
902.973	13571
903.091	13289
903.21	13164
903.328	13266
903.446	13187
903.565	13080
903.683	13232
903.801	12977
903.919	13091
904.038	13099
904.156	12947
904.274	13027
904.392	12897
904.51	12886
904.627	13000
904.745	12958
904.863	13046
904.981	12798
905.098	12719
905.216	12669
905.334	12753
905.451	12639
905.569	12665
905.686	12764
905.803	12726
905.921	12429
906.038	12631
906.155	12536
906.272	12414
906.389	12365
906.506	12350
906.623	12194
906.74	12262
906.857	12083
906.974	12216
907.091	12346
907.208	12372
907.324	12254
907.441	12205
907.557	11954
907.674	12022
907.79	12015
907.907	11965
908.023	12026
908.139	12049
908.256	11965
908.372	12011
908.488	11939
908.604	11832
908.72	11718
908.836	11756
908.952	11752
909.068	11752
909.184	11802
909.3	11748
909.415	11904
909.531	11813
909.647	11566
909.762	11589
909.878	11493
909.993	11547
910.108	11524
910.224	11535
910.339	11539
910.454	11402
910.57	11417
910.685	11322
910.8	11547
910.915	11608
911.03	11406
911.145	11261
911.259	11258
911.374	11231
911.489	11121
911.604	11083
911.718	11045
911.833	11006
911.947	10892
912.062	10896
912.176	10976
912.291	11048
912.405	11037
912.519	11178
912.633	11143
912.748	10999
912.862	11037
912.976	10984
913.09	10717
913.204	10885
913.318	10790
913.431	10957
913.545	11018
913.659	11033
913.772	10862
913.886	10812
914	10736
914.113	10915
914.226	10949
914.34	10771
914.453	10641
914.566	10847
914.68	10698
914.793	10664
914.906	10569
915.019	10500
915.132	10402
915.245	10455
915.358	10504
915.47	10569
915.583	10618
915.696	10580
915.809	10645
915.921	10611
916.034	10466
916.146	10382
916.259	10386
916.371	10569
916.483	10565
916.595	10402
916.708	10356
916.82	10455
916.932	10379
917.044	10424
917.156	10459
917.268	10325
917.38	10432
917.491	10398
917.603	10322
917.715	10379
917.826	10432
917.938	10329
918.049	10207
918.161	10356
918.272	10462
918.384	10443
918.495	10451
918.606	10234
918.717	10135
918.828	10246
918.939	10185
919.05	10120
919.161	10169
919.272	9968
919.383	10055
919.494	10246
919.604	10516
919.715	10215
919.826	10181
919.936	10154
920.047	10333
920.157	10303
920.267	10436
920.378	10280
920.488	10158
920.598	10356
920.708	10538
920.818	10421
920.928	10398
921.038	10580
921.148	10512
921.258	10356
921.368	10204
921.477	10048
921.587	10013
921.697	9983
921.806	10109
921.916	9998
922.025	9762
922.134	9842
922.244	9789
922.353	9831
922.462	9618
922.571	9625
922.68	9504
922.789	9481
922.898	9485
923.007	9405
923.116	9591
923.224	9492
923.333	9538
923.442	9397
923.55	9344
923.659	9351
923.767	9374
923.876	9370
923.984	9405
924.092	9302
924.201	9359
924.309	9344
924.417	9344
924.525	9298
924.633	9256
924.741	10044
924.849	9100
924.956	9233
925.064	9123
925.172	8952
925.279	9081
925.387	9199
925.494	9077
925.602	9230
925.709	9233
925.816	9077
925.924	9123
926.031	9256
926.138	9176
926.245	9161
926.352	9062
926.459	9230
926.566	9218
926.673	9104
926.779	8921
926.886	8982
926.993	8948
927.099	8792
927.206	8830
927.312	8815
927.419	8857
927.525	8853
927.631	8914
927.737	8826
927.843	8697
927.95	8606
928.056	8754
928.162	8743
928.267	8792
928.373	9431
928.479	8880
928.585	8606
928.69	8758
928.796	8785
928.901	8632
929.007	8526
929.112	8640
929.218	8617
929.323	8613
929.428	8606
929.533	8785
929.638	8537
929.743	8545
929.848	8568
929.953	8522
930.058	8408
930.163	8301
930.267	8339
930.372	8465
930.477	8309
930.581	8594
930.685	8408
930.79	8271
930.894	8328
930.998	8275
931.103	8377
931.207	8058
931.311	8046
931.415	7917
931.519	7792
931.623	7769
