Data from test_V78500241_1269.txt Node
Date: Fri Mar 25 14:42:33 CST 2022
User: usil
Spectrometer: V785-0024
Trigger mode: 0
Integration Time (sec): 4.000000E-1
Scans to average: 1
Nonlinearity correction enabled: false
Boxcar width: 0
Storing dark spectrum: false
XAxis mode: Wavelengths
Number of Pixels in Spectrum: 1024
>>>>>Begin Spectral Data<<<<<
801.071	22394
801.214	22265
801.356	22029
801.499	21869
801.641	21759
801.783	21690
801.926	21732
802.068	21652
802.211	21530
802.353	21488
802.496	21275
802.638	21195
802.78	21062
802.923	21142
803.065	21127
803.208	21051
803.35	21085
803.492	21180
803.635	21165
803.777	21116
803.919	21180
804.061	21439
804.204	21138
804.346	21043
804.488	20937
804.63	20918
804.773	20853
804.915	21108
805.057	21260
805.199	20975
805.341	21047
805.483	21047
805.626	21005
805.768	20910
805.91	20990
806.052	20994
806.194	20876
806.336	21039
806.478	20929
806.62	21089
806.762	21085
806.904	21081
807.046	21466
807.188	21405
807.33	21298
807.472	21336
807.614	21279
807.756	21374
807.898	21207
808.04	21058
808.182	21222
808.324	21127
808.465	21180
808.607	21408
808.749	21477
808.891	21675
809.033	21583
809.174	21549
809.316	21564
809.458	21393
809.6	21367
809.741	21534
809.883	21443
810.025	21637
810.166	21549
810.308	21526
810.45	21526
810.591	21450
810.733	21291
810.875	21230
811.016	21173
811.158	21062
811.299	21192
811.441	21252
811.582	21317
811.724	21138
811.865	21203
812.007	21165
812.148	21123
812.29	21226
812.431	21336
812.573	21542
812.714	21496
812.855	21557
812.997	21800
813.138	21781
813.279	21690
813.421	21587
813.562	21679
813.703	21412
813.845	21351
813.986	20967
814.127	20765
814.268	20686
814.41	20712
814.551	20754
814.692	20727
814.833	20625
814.974	20701
815.115	20670
815.256	20507
815.397	20602
815.539	20579
815.68	20655
815.821	20503
815.962	20465
816.103	20366
816.244	20275
816.385	20092
816.526	20210
816.666	20058
816.807	19921
816.948	19917
817.089	20050
817.23	19944
817.371	19852
817.512	19852
817.653	19898
817.793	19757
817.934	19921
818.075	19879
818.216	19856
818.356	19822
818.497	19655
818.638	19514
818.778	19658
818.919	19632
819.06	19567
819.2	19647
819.341	19772
819.481	19807
819.622	19906
819.762	20111
819.903	19974
820.043	19894
820.184	19909
820.324	19879
820.465	20012
820.605	20012
820.746	19841
820.886	19708
821.026	19780
821.167	19750
821.307	19864
821.447	19864
821.588	19689
821.728	19666
821.868	19422
822.008	19247
822.149	19274
822.289	19221
822.429	19061
822.569	18871
822.709	18867
822.849	18795
822.99	18726
823.13	18760
823.27	18726
823.41	18544
823.55	18494
823.69	18574
823.83	18597
823.97	18483
824.11	18342
824.25	18330
824.389	18342
824.529	18361
824.669	18311
824.809	18445
824.949	18410
825.089	18365
825.228	18388
825.368	18201
825.508	18190
825.648	18281
825.787	18346
825.927	18262
826.067	18095
826.206	18076
826.346	18152
826.485	18053
826.625	18007
826.765	18235
826.904	18262
827.044	17961
827.183	17824
827.323	17817
827.462	17958
827.601	17805
827.741	17851
827.88	17855
828.02	17570
828.159	17798
828.298	17847
828.437	17904
828.577	17718
828.716	17912
828.855	17908
828.994	17577
829.134	17558
829.273	17608
829.412	17638
829.551	17516
829.69	17463
829.829	17524
829.968	17585
830.107	17676
830.246	17638
830.385	17570
830.524	17551
830.663	17455
830.802	17288
830.941	17242
831.08	17277
831.219	17337
831.357	17265
831.496	17349
831.635	17231
831.774	17193
831.913	17212
832.051	16995
832.19	17025
832.329	16984
832.467	16908
832.606	16942
832.744	16904
832.883	16908
833.022	16968
833.16	17014
833.299	17083
833.437	16976
833.576	17025
833.714	17041
833.852	17124
833.991	17052
834.129	17025
834.267	17086
834.406	16930
834.544	16968
834.682	16957
834.821	17086
834.959	17105
835.097	16934
835.235	17155
835.373	17022
835.511	17037
835.65	16972
835.788	16881
835.926	16694
836.064	16778
836.202	16706
836.34	16847
836.478	17102
836.615	16942
836.753	16919
836.891	17121
837.029	16877
837.167	16839
837.305	16873
837.443	16854
837.58	16653
837.718	16839
837.856	16839
837.993	16774
838.131	16862
838.269	16656
838.406	16793
838.544	16615
838.681	16497
838.819	16462
838.956	16306
839.094	16314
839.231	16299
839.369	16519
839.506	16767
839.643	16588
839.781	16211
839.918	16356
840.055	16314
840.193	16276
840.33	16280
840.467	16394
840.604	16344
840.742	16603
840.879	16154
841.016	16310
841.153	16196
841.29	16428
841.427	16371
841.564	16337
841.701	16322
841.838	16284
841.975	16234
842.112	16169
842.249	16181
842.385	16147
842.522	16268
842.659	16135
842.796	16002
842.933	16128
843.069	15991
843.206	16074
843.343	16131
843.479	16082
843.616	16185
843.752	15865
843.889	15899
844.025	15949
844.162	15880
844.298	15934
844.435	15876
844.571	15953
844.708	15953
844.844	16036
844.98	16010
845.117	16036
845.253	15831
845.389	15831
845.525	15865
845.661	15884
845.798	15812
845.934	15816
846.07	15812
846.206	15823
846.342	15941
846.478	15739
846.614	15633
846.75	15496
846.886	15424
847.022	15500
847.158	15481
847.294	15355
847.429	15488
847.565	15348
847.701	15633
847.837	15222
847.972	15131
848.108	15264
848.244	15249
848.379	15184
848.515	15009
848.65	14994
848.786	15013
848.921	15058
849.057	15104
849.192	15070
849.328	15123
849.463	15097
849.598	14902
849.734	14960
849.869	14910
850.004	14823
850.14	14826
850.275	14720
850.41	14796
850.545	14754
850.68	14693
850.815	14819
850.95	14853
851.085	15039
851.22	14887
851.355	14883
851.49	14754
851.625	14769
851.76	14769
851.895	14659
852.03	14746
852.165	14670
852.299	14834
852.434	14986
852.569	14910
852.703	14891
852.838	14838
852.973	14933
853.107	15001
853.242	14754
853.376	14682
853.511	14552
853.645	14625
853.78	14765
853.914	14613
854.048	14693
854.183	14629
854.317	14689
854.451	14811
854.585	14659
854.72	14648
854.854	14750
854.988	14606
855.122	14693
855.256	14655
855.39	14636
855.524	14716
855.658	14773
855.792	14689
855.926	14708
856.06	14705
856.194	14716
856.327	14701
856.461	14575
856.595	14648
856.729	14617
856.862	14739
856.996	14727
857.13	14705
857.263	14807
857.397	14750
857.53	14606
857.664	14720
857.797	14746
857.931	14823
858.064	14651
858.197	14785
858.331	14632
858.464	14575
858.597	14488
858.731	14659
858.864	14659
858.997	14708
859.13	14598
859.263	14724
859.396	14777
859.529	14682
859.662	14655
859.795	14579
859.928	14750
860.061	14830
860.194	14864
860.327	14651
860.46	14731
860.592	14712
860.725	14826
860.858	14845
860.99	14781
861.123	14549
861.256	14648
861.388	14617
861.521	15355
861.653	14579
861.786	14484
861.918	14537
862.05	14568
862.183	14583
862.315	14693
862.447	14697
862.58	14617
862.712	14484
862.844	14434
862.976	14514
863.108	14438
863.24	14929
863.372	14396
863.504	14469
863.636	14370
863.768	14457
863.9	14457
864.032	14339
864.164	14381
864.296	14564
864.428	14571
864.559	14560
864.691	14522
864.823	14457
864.954	14454
865.086	14507
865.217	14423
865.349	14419
865.48	14438
865.612	14415
865.743	14610
865.875	14446
866.006	14347
866.137	14454
866.269	14366
866.4	14400
866.531	14362
866.662	14294
866.793	14324
866.924	14385
867.055	14404
867.186	14320
867.317	14408
867.448	14332
867.579	14332
867.71	14415
867.841	14328
867.972	14434
868.103	14522
868.233	14469
868.364	14450
868.495	14442
868.625	14712
868.756	14724
868.886	14670
869.017	14712
869.147	14731
869.278	14686
869.408	14739
869.539	14640
869.669	14769
869.799	14648
869.929	14895
870.06	14819
870.19	15032
870.32	14937
870.45	14967
870.58	15150
870.71	15184
870.84	15184
870.97	15077
871.1	15066
871.23	15176
871.36	15268
871.489	15222
871.619	15226
871.749	15214
871.879	15298
872.008	15302
872.138	15226
872.267	15146
872.397	15165
872.526	15013
872.656	15089
872.785	15127
872.915	15287
873.044	15386
873.173	15199
873.303	15424
873.432	15332
873.561	15447
873.69	15351
873.819	15321
873.948	15332
874.077	15408
874.206	15279
874.335	15382
874.464	15447
874.593	15584
874.722	15496
874.851	15622
874.979	15610
875.108	15671
875.237	15534
875.365	15545
875.494	15534
875.623	15614
875.751	15603
875.88	15652
876.008	15720
876.136	15911
876.265	16048
876.393	16226
876.521	16097
876.65	16116
876.778	16112
876.906	16010
877.034	15953
877.162	15994
877.29	15907
877.418	16051
877.546	16143
877.674	16051
877.802	16010
877.93	15888
878.058	15998
878.185	15953
878.313	16055
878.441	16116
878.568	15956
878.696	15960
878.824	16196
878.951	16188
879.079	16272
879.206	16272
879.333	16188
879.461	16207
879.588	16219
879.715	16310
879.842	16440
879.97	16177
880.097	15968
880.224	15941
880.351	16002
880.478	15911
880.605	15876
880.732	15861
880.859	16158
880.986	15956
881.112	16002
881.239	15850
881.366	15660
881.493	15587
881.619	15492
881.746	15580
881.872	15587
881.999	15538
882.125	15553
882.252	15671
882.378	15568
882.505	15690
882.631	15511
882.757	15416
882.883	15500
883.01	15367
883.136	15306
883.262	15272
883.388	15249
883.514	15374
883.64	15488
883.766	15332
883.892	15165
884.018	15272
884.143	15264
884.269	15431
884.395	15173
884.52	15024
884.646	15154
884.772	15009
884.897	14918
885.023	15032
885.148	15127
885.274	15199
885.399	15161
885.524	15020
885.65	15127
885.775	15112
885.9	15123
886.025	15119
886.15	15207
886.275	15009
886.4	14975
886.525	15051
886.65	15020
886.775	14994
886.9	15195
887.025	15340
887.149	15097
887.274	14849
887.399	14914
887.523	14834
887.648	14857
887.773	14807
887.897	15005
888.021	14956
888.146	14872
888.27	14944
888.395	15020
888.519	14952
888.643	14952
888.767	14963
888.891	14918
889.015	14762
889.139	14811
889.263	14758
889.387	14944
889.511	14895
889.635	14845
889.759	14739
889.883	14758
890.006	14674
890.13	14781
890.254	14697
890.377	14648
890.501	14587
890.624	14526
890.748	14648
890.871	14438
890.995	14423
891.118	14313
891.241	14427
891.364	14461
891.488	14556
891.611	14396
891.734	14503
891.857	14530
891.98	14465
892.103	14434
892.226	14488
892.349	14347
892.471	14275
892.594	14415
892.717	14469
892.839	14454
892.962	14389
893.085	14590
893.207	14412
893.33	14259
893.452	14343
893.575	14545
893.697	14446
893.819	14583
893.941	14571
894.064	14530
894.186	14328
894.308	14400
894.43	14610
894.552	14667
894.674	14594
894.796	14374
894.918	14400
895.04	14465
895.161	14526
895.283	14651
895.405	14400
895.526	14511
895.648	14590
895.769	14598
895.891	14575
896.012	14663
896.134	14587
896.255	14602
896.376	14537
896.498	14564
896.619	14663
896.74	14556
896.861	14644
896.982	14937
897.103	15127
897.224	14941
897.345	14838
897.466	14785
897.587	14895
897.708	15047
897.828	15028
897.949	14857
898.07	14754
898.19	14773
898.311	14979
898.431	14864
898.552	14994
898.672	15070
898.792	14925
898.913	14937
899.033	14811
899.153	14758
899.273	14651
899.393	14823
899.513	14868
899.633	14792
899.753	14727
899.873	14807
899.993	14777
900.113	14689
900.232	14773
900.352	14804
900.472	14579
900.591	14579
900.711	14632
900.83	14568
900.95	14739
901.069	14815
901.189	14678
901.308	14313
901.427	14332
901.546	14309
901.665	14336
901.784	14317
901.904	14164
902.023	14107
902.141	13974
902.26	13947
902.379	13845
902.498	13822
902.617	13947
902.735	13917
902.854	13856
902.973	13871
903.091	13590
903.21	13533
903.328	13582
903.446	13499
903.565	13502
903.683	13438
903.801	13369
903.919	13411
904.038	13381
904.156	13270
904.274	13289
904.392	13384
904.51	13213
904.627	13183
904.745	13285
904.863	13270
904.981	13015
905.098	12958
905.216	12897
905.334	13004
905.451	12970
905.569	12856
905.686	12867
905.803	12939
905.921	12772
906.038	12943
906.155	12650
906.272	12620
906.389	12677
906.506	12498
906.623	12532
906.74	12426
906.857	12384
906.974	12490
907.091	12608
907.208	12627
907.324	12597
907.441	12437
907.557	12334
907.674	12323
907.79	12167
907.907	12277
908.023	12384
908.139	12270
908.256	12304
908.372	12175
908.488	12159
908.604	12076
908.72	12007
908.836	11992
908.952	12102
909.068	12030
909.184	12178
909.3	11980
909.415	12102
909.531	12007
909.647	11923
909.762	11794
909.878	11855
909.993	11840
910.108	11764
910.224	11821
910.339	11794
910.454	11653
910.57	11665
910.685	11581
910.8	11927
910.915	11741
911.03	11699
911.145	11486
911.259	11417
911.374	11528
911.489	11353
911.604	11345
911.718	11136
911.833	11227
911.947	11136
912.062	11094
912.176	11216
912.291	11269
912.405	11326
912.519	11318
912.633	11497
912.748	11395
912.862	11330
912.976	11121
913.09	11090
913.204	11147
913.318	11079
913.431	11083
913.545	11162
913.659	11178
913.772	11064
913.886	10968
914	10972
914.113	11060
914.226	11193
914.34	11090
914.453	10968
914.566	11124
914.68	10980
914.793	10946
914.906	10797
915.019	10736
915.132	10622
915.245	10752
915.358	10767
915.47	10752
915.583	10759
915.696	10877
915.809	10862
915.921	10850
916.034	10702
916.146	10641
916.259	10736
916.371	10721
916.483	10683
916.595	10577
916.708	10691
916.82	10687
916.932	10679
917.044	10683
917.156	10550
917.268	10508
917.38	10466
917.491	10538
917.603	10550
917.715	10679
917.826	10599
917.938	10546
918.049	10516
918.161	10584
918.272	10683
918.384	10698
918.495	10607
918.606	10409
918.717	10379
918.828	10390
918.939	10527
919.05	10318
919.161	10394
919.272	10249
919.383	10249
919.494	10497
919.604	10615
919.715	10451
919.826	10352
919.936	10344
920.047	10535
920.157	10508
920.267	10637
920.378	10455
920.488	10519
920.598	10660
920.708	10847
920.818	10687
920.928	10599
921.038	10843
921.148	10725
921.258	10440
921.368	10390
921.477	10299
921.587	10303
921.697	10147
921.806	10352
921.916	10177
922.025	10063
922.134	9979
922.244	9926
922.353	10013
922.462	9892
922.571	9797
922.68	9728
922.789	9591
922.898	9762
923.007	9648
923.116	9675
923.224	9633
923.333	9648
923.442	9534
923.55	9526
923.659	9564
923.767	9622
923.876	9526
923.984	9545
924.092	9481
924.201	9530
924.309	9526
924.417	9477
924.525	9466
924.633	9435
924.741	10207
924.849	9332
924.956	9485
925.064	9317
925.172	9260
925.279	9264
925.387	9321
925.494	9332
925.602	9424
925.709	9466
925.816	9306
925.924	9344
926.031	9408
926.138	9268
926.245	9401
926.352	9184
926.459	9393
926.566	9405
926.673	9321
926.779	9142
926.886	9161
926.993	9085
927.099	8998
927.206	8971
927.312	8986
927.419	9074
927.525	8994
927.631	9024
927.737	8956
927.843	8899
927.95	8864
928.056	8868
928.162	8994
928.267	8998
928.373	9618
928.479	8998
928.585	8769
928.69	8929
928.796	8994
928.901	8887
929.007	8629
929.112	8796
929.218	8796
929.323	8746
929.428	8667
929.533	8853
929.638	8674
929.743	8693
929.848	8743
929.953	8727
930.058	8693
930.163	8438
930.267	8541
930.372	8632
930.477	8442
930.581	8746
930.685	8549
930.79	8461
930.894	8533
930.998	8457
931.103	8590
931.207	8248
931.311	8191
931.415	8024
931.519	7986
931.623	7970
