Data from test_V78500241_105.txt Node
Date: Fri Mar 25 14:34:27 CST 2022
User: usil
Spectrometer: V785-0024
Trigger mode: 0
Integration Time (sec): 4.000000E-1
Scans to average: 1
Nonlinearity correction enabled: false
Boxcar width: 0
Storing dark spectrum: false
XAxis mode: Wavelengths
Number of Pixels in Spectrum: 1024
>>>>>Begin Spectral Data<<<<<
801.071	29512
801.214	29273
801.356	29071
801.499	28957
801.641	28873
801.783	28930
801.926	28927
802.068	28869
802.211	28683
802.353	28801
802.496	28637
802.638	28535
802.78	28615
802.923	28660
803.065	28352
803.208	28649
803.35	28542
803.492	28801
803.635	28801
803.777	28843
803.919	28843
804.061	29003
804.204	28866
804.346	28793
804.488	28649
804.63	28679
804.773	28580
804.915	28793
805.057	29048
805.199	28820
805.341	28904
805.483	28999
805.626	28991
805.768	28938
805.91	29067
806.052	29181
806.194	29208
806.336	29307
806.478	29471
806.62	29250
806.762	29467
806.904	29813
807.046	30030
807.188	30045
807.33	30311
807.472	30399
807.614	30528
807.756	30875
807.898	31129
808.04	31620
808.182	32183
808.324	32979
808.465	33762
808.607	34934
808.749	36018
808.891	36494
809.033	36464
809.174	35950
809.316	34835
809.458	33907
809.6	32940
809.741	32187
809.883	31628
810.025	31320
810.166	30894
810.308	30661
810.45	30464
810.591	30365
810.733	30011
810.875	29802
811.016	29653
811.158	29543
811.299	29657
811.441	29722
811.582	29714
811.724	29573
811.865	29436
812.007	29615
812.148	29360
812.29	29463
812.431	29562
812.573	29425
812.714	29657
812.855	29752
812.997	30011
813.138	30015
813.279	29996
813.421	29817
813.562	29657
813.703	29402
813.845	29493
813.986	29083
814.127	28862
814.268	28831
814.41	28736
814.551	28793
814.692	28900
814.833	28736
814.974	28641
815.115	28771
815.256	28470
815.397	28546
815.539	28546
815.68	28455
815.821	28344
815.962	28348
816.103	28337
816.244	28253
816.385	28162
816.526	28105
816.666	28063
816.807	27698
816.948	27835
817.089	27888
817.23	27827
817.371	27675
817.512	27713
817.653	27705
817.793	27766
817.934	27633
818.075	27789
818.216	27770
818.356	27762
818.497	27595
818.638	27488
818.778	27485
818.919	27572
819.06	27450
819.2	27644
819.341	27595
819.481	27618
819.622	27968
819.762	27972
819.903	27823
820.043	27854
820.184	27732
820.324	27709
820.465	27846
820.605	27564
820.746	27686
820.886	27610
821.026	27606
821.167	27576
821.307	27743
821.447	27488
821.588	27519
821.728	27173
821.868	27154
822.008	27039
822.149	27001
822.289	26906
822.429	26731
822.569	26667
822.709	26659
822.849	26533
822.99	26450
823.13	26393
823.27	26267
823.41	26218
823.55	26134
823.69	26252
823.83	26183
823.97	26225
824.11	26050
824.25	26100
824.389	25947
824.529	25986
824.669	26103
824.809	26130
824.949	26054
825.089	26046
825.228	26077
825.368	25845
825.508	25864
825.648	25928
825.787	25791
825.927	25913
826.067	25685
826.206	25761
826.346	25807
826.485	25822
826.625	25757
826.765	25807
826.904	25799
827.044	25396
827.183	25521
827.323	25400
827.462	25597
827.601	25582
827.741	25350
827.88	25434
828.02	25373
828.159	25556
828.298	25449
828.437	25426
828.577	25343
828.716	25468
828.855	25221
828.994	25065
829.134	25141
829.273	25156
829.412	25171
829.551	25019
829.69	25091
829.829	25065
829.968	25202
830.107	25095
830.246	25038
830.385	24977
830.524	25057
830.663	24844
830.802	24730
830.941	24726
831.08	24688
831.219	24745
831.357	24703
831.496	24935
831.635	24700
831.774	24566
831.913	24566
832.051	24460
832.19	24346
832.329	24509
832.467	24403
832.606	24304
832.744	24391
832.883	24426
833.022	24475
833.16	24384
833.299	24521
833.437	24547
833.576	24528
833.714	24673
833.852	24715
833.991	24692
834.129	24814
834.267	24749
834.406	24639
834.544	24719
834.682	24589
834.821	24593
834.959	24620
835.097	24479
835.235	24448
835.373	24380
835.511	24357
835.65	24270
835.788	24194
835.926	24064
836.064	23996
836.202	23973
836.34	24163
836.478	24220
836.615	24121
836.753	24213
836.891	24182
837.029	24053
837.167	24011
837.305	24003
837.443	23984
837.58	23901
837.718	23954
837.856	24110
837.993	23942
838.131	23992
838.269	23901
838.406	23817
838.544	23843
838.681	23573
838.819	23543
838.956	23258
839.094	23307
839.231	23288
839.369	23501
839.506	23741
839.643	23668
839.781	23292
839.918	23250
840.055	23189
840.193	23322
840.33	23098
840.467	23170
840.604	23242
840.742	23592
840.879	23151
841.016	23124
841.153	23006
841.29	23376
841.427	23220
841.564	23231
841.701	23231
841.838	23216
841.975	22953
842.112	23098
842.249	22915
842.385	22930
842.522	23170
842.659	22949
842.796	22896
842.933	22953
843.069	22930
843.206	22892
843.343	23075
843.479	23044
843.616	22908
843.752	22793
843.889	22831
844.025	22987
844.162	22790
844.298	22976
844.435	22809
844.571	22896
844.708	23105
844.844	23303
844.98	23398
845.117	23589
845.253	23657
845.389	24228
845.525	25164
845.661	26720
845.798	28820
845.934	30483
846.07	31137
846.206	30749
846.342	29604
846.478	27526
846.614	25601
846.75	24140
846.886	23512
847.022	23056
847.158	22858
847.294	22645
847.429	22470
847.565	22451
847.701	22618
847.837	21994
847.972	22017
848.108	22093
848.244	22040
848.379	21873
848.515	21774
848.65	21679
848.786	21728
848.921	21728
849.057	21835
849.192	21774
849.328	21793
849.463	21732
849.598	21812
849.734	21648
849.869	21519
850.004	21504
850.14	21500
850.275	21405
850.41	21207
850.545	21412
850.68	21348
850.815	21420
850.95	21443
851.085	21606
851.22	21454
851.355	21507
851.49	21534
851.625	21424
851.76	21336
851.895	21287
852.03	21306
852.165	21310
852.299	21374
852.434	21485
852.569	21450
852.703	21420
852.838	21496
852.973	21549
853.107	21481
853.242	21424
853.376	21226
853.511	21214
853.645	21131
853.78	21416
853.914	21408
854.048	21245
854.183	21260
854.317	21313
854.451	21492
854.585	21317
854.72	21226
854.854	21363
854.988	21245
855.122	21325
855.256	21165
855.39	21222
855.524	21310
855.658	21287
855.792	21199
855.926	21340
856.06	21294
856.194	21359
856.327	21184
856.461	21173
856.595	21161
856.729	21062
856.862	21294
856.996	21180
857.13	21287
857.263	21161
857.397	21218
857.53	21180
857.664	21214
857.797	21154
857.931	21188
858.064	21165
858.197	21317
858.331	21055
858.464	21066
858.597	20982
858.731	20887
858.864	20963
858.997	21001
859.13	21077
859.263	20994
859.396	21184
859.529	20967
859.662	20971
859.795	20952
859.928	21032
860.061	21195
860.194	21180
860.327	21104
860.46	21013
860.592	21222
860.725	21108
860.858	21077
860.99	21112
861.123	20941
861.256	21024
861.388	21043
861.521	21743
861.653	20834
861.786	20933
861.918	20914
862.05	21005
862.183	21043
862.315	21131
862.447	21298
862.58	20937
862.712	20952
862.844	20746
862.976	20849
863.108	20773
863.24	21116
863.372	20746
863.504	20705
863.636	20807
863.768	20773
863.9	20887
864.032	20735
864.164	20769
864.296	20758
864.428	20815
864.559	20807
864.691	20834
864.823	20739
864.954	20621
865.086	20762
865.217	20693
865.349	20552
865.48	20689
865.612	20598
865.743	20724
865.875	20655
866.006	20476
866.137	20682
866.269	20621
866.4	20625
866.531	20579
866.662	20438
866.793	20568
866.924	20511
867.055	20667
867.186	20541
867.317	20454
867.448	20473
867.579	20632
867.71	20385
867.841	20427
867.972	20636
868.103	20495
868.233	20602
868.364	20514
868.495	20777
868.625	20762
868.756	20868
868.886	20716
869.017	20815
869.147	20777
869.278	20952
869.408	20781
869.539	20762
869.669	20849
869.799	20823
869.929	20990
870.06	20883
870.19	20982
870.32	21116
870.45	21009
870.58	21150
870.71	21275
870.84	21332
870.97	21230
871.1	21249
871.23	21374
871.36	21378
871.489	21363
871.619	21317
871.749	21412
871.879	21511
872.008	21564
872.138	21511
872.267	21374
872.397	21283
872.526	21165
872.656	21199
872.785	21279
872.915	21462
873.044	21477
873.173	21424
873.303	21473
873.432	21515
873.561	21564
873.69	21504
873.819	21462
873.948	21591
874.077	21557
874.206	21462
874.335	21591
874.464	21675
874.593	21789
874.722	21800
874.851	21903
874.979	21789
875.108	21930
875.237	21800
875.365	21861
875.494	21823
875.623	22032
875.751	21884
875.88	22090
876.008	22116
876.136	22002
876.265	22417
876.393	22557
876.521	22424
876.65	22481
876.778	22421
876.906	22333
877.034	22382
877.162	22527
877.29	22413
877.418	22440
877.546	22538
877.674	22542
877.802	22538
877.93	22599
878.058	22668
878.185	22599
878.313	22702
878.441	22938
878.568	22892
878.696	23151
878.824	23326
878.951	23927
879.079	24464
879.206	25118
879.333	25647
879.461	26092
879.588	26473
879.715	26537
879.842	26298
879.97	25582
880.097	24905
880.224	24304
880.351	23954
880.478	23729
880.605	23520
880.732	23372
880.859	23436
880.986	23162
881.112	23223
881.239	23006
881.366	22900
881.493	22889
881.619	22679
881.746	22694
881.872	22771
881.999	22854
882.125	22801
882.252	22820
882.378	22839
882.505	22957
882.631	22752
882.757	22656
882.883	22744
883.01	22679
883.136	22557
883.262	22527
883.388	22432
883.514	22527
883.64	22653
883.766	22535
883.892	22280
884.018	22337
884.143	22519
884.269	22668
884.395	22325
884.52	22188
884.646	22242
884.772	22299
884.897	22200
885.023	22150
885.148	22268
885.274	22337
885.399	22261
885.524	22147
885.65	22093
885.775	22010
885.9	21907
886.025	22025
886.15	21983
886.275	21747
886.4	21629
886.525	21789
886.65	21701
886.775	21644
886.9	21842
887.025	21899
887.149	21572
887.274	21405
887.399	21367
887.523	21355
887.648	21233
887.773	21104
887.897	21397
888.021	21203
888.146	21157
888.27	21157
888.395	21336
888.519	21226
888.643	21085
888.767	21066
888.891	21066
889.015	20853
889.139	20960
889.263	20765
889.387	21085
889.511	21077
889.635	21001
889.759	20758
889.883	20823
890.006	20899
890.13	20868
890.254	20663
890.377	20682
890.501	20579
890.624	20396
890.748	20552
890.871	20465
890.995	20328
891.118	20286
891.241	20199
891.364	20313
891.488	20336
891.611	20259
891.734	20138
891.857	20237
891.98	20317
892.103	20282
892.226	20385
892.349	20199
892.471	19970
892.594	20142
892.717	20073
892.839	20069
892.962	20027
893.085	20115
893.207	20142
893.33	19928
893.452	20012
893.575	20142
893.697	19928
893.819	20126
893.941	20103
894.064	20191
894.186	19967
894.308	19887
894.43	20081
894.552	20153
894.674	20001
894.796	19894
894.918	19993
895.04	19913
895.161	19982
895.283	20001
895.405	19852
895.526	19921
895.648	19860
895.769	19932
895.891	19928
896.012	19944
896.134	20001
896.255	19940
896.376	19879
896.498	19925
896.619	19997
896.74	19978
896.861	19936
896.982	20218
897.103	20351
897.224	20210
897.345	20130
897.466	19940
897.587	20008
897.708	20199
897.828	20084
897.949	19974
898.07	19974
898.19	19993
898.311	20142
898.431	19967
898.552	20065
898.672	20168
898.792	20092
898.913	19959
899.033	19845
899.153	19841
899.273	19540
899.393	19677
899.513	19712
899.633	19704
899.753	19674
899.873	19521
899.993	19708
900.113	19670
900.232	19696
900.352	19499
900.472	19594
900.591	19468
900.711	19632
900.83	19457
900.95	19510
901.069	19601
901.189	19339
901.308	19293
901.427	19164
901.546	19133
901.665	19126
901.784	19141
901.904	18901
902.023	18760
902.141	18707
902.26	18616
902.379	18604
902.498	18654
902.617	18665
902.735	18578
902.854	18517
902.973	18456
903.091	18319
903.21	18186
903.328	18315
903.446	18201
903.565	18011
903.683	18079
903.801	17942
903.919	18045
904.038	17980
904.156	17878
904.274	17824
904.392	17764
904.51	17745
904.627	17923
904.745	17855
904.863	17836
904.981	17543
905.098	17372
905.216	17444
905.334	17459
905.451	17379
905.569	17356
905.686	17406
905.803	17516
905.921	17288
906.038	17337
906.155	17239
906.272	17204
906.389	17147
906.506	17064
906.623	17086
906.74	16904
906.857	16824
906.974	16904
907.091	17048
907.208	17090
907.324	17033
907.441	16919
907.557	16592
907.674	16733
907.79	16752
907.907	16618
908.023	16702
908.139	16656
908.256	16603
908.372	16580
908.488	16538
908.604	16485
908.72	16344
908.836	16394
908.952	16402
909.068	16360
909.184	16478
909.3	16409
909.415	16398
909.531	16257
909.647	16265
909.762	16063
909.878	16097
909.993	16105
910.108	16013
910.224	16013
910.339	16150
910.454	15918
910.57	15941
910.685	15876
910.8	16112
910.915	16048
911.03	15873
911.145	15816
911.259	15720
911.374	15690
911.489	15561
911.604	15530
911.718	15511
911.833	15477
911.947	15317
912.062	15249
912.176	15458
912.291	15393
912.405	15477
912.519	15584
912.633	15591
912.748	15485
912.862	15408
912.976	15237
913.09	15245
913.204	15363
913.318	15283
913.431	15348
913.545	15268
913.659	15439
913.772	15230
913.886	15157
914	15032
914.113	15169
914.226	15176
914.34	15100
914.453	15001
914.566	15074
914.68	15020
914.793	14998
914.906	14739
915.019	14815
915.132	14613
915.245	14727
915.358	14720
915.47	14689
915.583	14754
915.696	14746
915.809	14834
915.921	14796
916.034	14773
916.146	14530
916.259	14621
916.371	14674
916.483	14712
916.595	14571
916.708	14610
916.82	14549
916.932	14495
917.044	14564
917.156	14545
917.268	14355
917.38	14415
917.491	14328
917.603	14419
917.715	14320
917.826	14488
917.938	14248
918.049	14130
918.161	14271
918.272	14457
918.384	14339
918.495	14313
918.606	14229
918.717	14065
918.828	14233
918.939	14092
919.05	14024
919.161	14035
919.272	13932
919.383	13932
919.494	14115
919.604	14339
919.715	14119
919.826	13883
919.936	13989
920.047	14183
920.157	13986
920.267	14119
920.378	14016
920.488	14001
920.598	14168
920.708	14286
920.818	14138
920.928	14153
921.038	14320
921.148	14259
921.258	13830
921.368	13925
921.477	13868
921.587	13708
921.697	13628
921.806	13738
921.916	13662
922.025	13453
922.134	13445
922.244	13400
922.353	13403
922.462	13244
922.571	13175
922.68	13095
922.789	13042
922.898	13076
923.007	12985
923.116	13072
923.224	12973
923.333	13038
923.442	12916
923.55	12928
923.659	12787
923.767	12947
923.876	12833
923.984	12962
924.092	12749
924.201	12772
924.309	12817
924.417	12829
924.525	12642
924.633	12700
924.741	13670
924.849	12555
924.956	12688
925.064	12483
925.172	12426
925.279	12517
925.387	12479
925.494	12513
925.602	12506
925.709	12521
925.816	12372
925.924	12460
926.031	12467
926.138	12323
926.245	12414
926.352	12330
926.459	12407
926.566	12597
926.673	12315
926.779	12228
926.886	12262
926.993	12068
927.099	12015
927.206	12045
927.312	11935
927.419	12091
927.525	11999
927.631	12011
927.737	11977
927.843	11870
927.95	11824
928.056	11939
928.162	11901
928.267	11946
928.373	12433
928.479	12022
928.585	11809
928.69	11893
928.796	11965
928.901	11840
929.007	11604
929.112	11805
929.218	11661
929.323	11665
929.428	11535
929.533	11714
929.638	11539
929.743	11547
929.848	11608
929.953	11615
930.058	11471
930.163	11406
930.267	11250
930.372	11448
930.477	11258
930.581	11482
930.685	11395
930.79	11162
930.894	11204
930.998	11124
931.103	11265
931.207	10904
931.311	10889
931.415	10824
931.519	10607
931.623	10493
