Data from test_V78500241_2908.txt Node
Date: Fri Mar 25 14:53:57 CST 2022
User: usil
Spectrometer: V785-0024
Trigger mode: 0
Integration Time (sec): 4.000000E-1
Scans to average: 1
Nonlinearity correction enabled: false
Boxcar width: 0
Storing dark spectrum: false
XAxis mode: Wavelengths
Number of Pixels in Spectrum: 1024
>>>>>Begin Spectral Data<<<<<
801.071	22025
801.214	22036
801.356	21720
801.499	21766
801.641	21564
801.783	21374
801.926	21431
802.068	21355
802.211	21211
802.353	21184
802.496	21036
802.638	20979
802.78	20914
802.923	20842
803.065	20575
803.208	20686
803.35	20746
803.492	20849
803.635	20960
803.777	20731
803.919	20952
804.061	21154
804.204	20819
804.346	20689
804.488	20609
804.63	20876
804.773	20750
804.915	20667
805.057	20834
805.199	20743
805.341	20727
805.483	20845
805.626	20807
805.768	20651
805.91	20705
806.052	20769
806.194	20629
806.336	20796
806.478	20708
806.62	20773
806.762	20701
806.904	20994
807.046	21161
807.188	21028
807.33	20975
807.472	21100
807.614	20956
807.756	20883
807.898	20830
808.04	20857
808.182	20781
808.324	20769
808.465	20758
808.607	20906
808.749	20960
808.891	21116
809.033	21214
809.174	21150
809.316	20979
809.458	20990
809.6	21051
809.741	21157
809.883	21081
810.025	21313
810.166	21222
810.308	21192
810.45	21195
810.591	21028
810.733	20895
810.875	21009
811.016	20769
811.158	20663
811.299	20842
811.441	20895
811.582	20963
811.724	20811
811.865	20762
812.007	20872
812.148	20804
812.29	20834
812.431	20990
812.573	21157
812.714	21150
812.855	21397
812.997	21389
813.138	21656
813.279	21363
813.421	21317
813.562	21325
813.703	21146
813.845	20887
813.986	20651
814.127	20469
814.268	20358
814.41	20454
814.551	20412
814.692	20434
814.833	20183
814.974	20259
815.115	20495
815.256	20259
815.397	20320
815.539	20237
815.68	20084
815.821	20084
815.962	20111
816.103	20062
816.244	20039
816.385	19947
816.526	19856
816.666	19666
816.807	19480
816.948	19563
817.089	19651
817.23	19620
817.371	19597
817.512	19521
817.653	19563
817.793	19525
817.934	19540
818.075	19597
818.216	19575
818.356	19468
818.497	19293
818.638	19175
818.778	19225
818.919	19198
819.06	19194
819.2	19327
819.341	19400
819.481	19289
819.622	19457
819.762	19746
819.903	19647
820.043	19445
820.184	19449
820.324	19365
820.465	19529
820.605	19441
820.746	19491
820.886	19327
821.026	19460
821.167	19400
821.307	19559
821.447	19457
821.588	19289
821.728	19194
821.868	19069
822.008	18943
822.149	18901
822.289	18958
822.429	18703
822.569	18551
822.709	18726
822.849	18334
822.99	18330
823.13	18380
823.27	18376
823.41	18152
823.55	18102
823.69	18159
823.83	18148
823.97	18148
824.11	18057
824.25	17950
824.389	17973
824.529	18003
824.669	17939
824.809	18087
824.949	18072
825.089	18034
825.228	17885
825.368	17878
825.508	17794
825.648	17748
825.787	17771
825.927	17756
826.067	17638
826.206	17748
826.346	17783
826.485	17802
826.625	17710
826.765	17851
826.904	17843
827.044	17516
827.183	17532
827.323	17356
827.462	17417
827.601	17440
827.741	17292
827.88	17493
828.02	17330
828.159	17284
828.298	17474
828.437	17444
828.577	17440
828.716	17535
828.855	17501
828.994	17242
829.134	17109
829.273	17239
829.412	17178
829.551	16919
829.69	17166
829.829	17242
829.968	17326
830.107	17292
830.246	17193
830.385	16957
830.524	17147
830.663	16919
830.802	16923
830.941	16816
831.08	16831
831.219	16778
831.357	16866
831.496	16961
831.635	16790
831.774	16691
831.913	16653
832.051	16641
832.19	16466
832.329	16584
832.467	16394
832.606	16443
832.744	16436
832.883	16466
833.022	16291
833.16	16497
833.299	16451
833.437	16409
833.576	16459
833.714	16394
833.852	16558
833.991	16561
834.129	16451
834.267	16637
834.406	16565
834.544	16641
834.682	16558
834.821	16527
834.959	16755
835.097	16470
835.235	16592
835.373	16519
835.511	16554
835.65	16405
835.788	16451
835.926	16215
836.064	16219
836.202	16284
836.34	16489
836.478	16508
836.615	16360
836.753	16508
836.891	16527
837.029	16432
837.167	16398
837.305	16382
837.443	16295
837.58	16276
837.718	16348
837.856	16337
837.993	16344
838.131	16265
838.269	16253
838.406	16204
838.544	16124
838.681	15960
838.819	16048
838.956	15846
839.094	15903
839.231	15953
839.369	16002
839.506	16295
839.643	16086
839.781	15861
839.918	15793
840.055	15888
840.193	15797
840.33	15819
840.467	15800
840.604	15903
840.742	16078
840.879	15732
841.016	15739
841.153	15675
841.29	15972
841.427	15804
841.564	15876
841.701	15819
841.838	15800
841.975	15633
842.112	15743
842.249	15671
842.385	15485
842.522	15759
842.659	15587
842.796	15545
842.933	15686
843.069	15625
843.206	15633
843.343	15614
843.479	15637
843.616	15549
843.752	15332
843.889	15424
844.025	15542
844.162	15386
844.298	15477
844.435	15424
844.571	15420
844.708	15405
844.844	15572
844.98	15492
845.117	15420
845.253	15336
845.389	15237
845.525	15348
845.661	15237
845.798	15150
845.934	15298
846.07	15142
846.206	15279
846.342	15344
846.478	15150
846.614	14971
846.75	14887
846.886	15013
847.022	15062
847.158	15058
847.294	15013
847.429	14944
847.565	14948
847.701	15192
847.837	14682
847.972	14632
848.108	14868
848.244	14804
848.379	14583
848.515	14537
848.65	14499
848.786	14648
848.921	14526
849.057	14682
849.192	14651
849.328	14568
849.463	14659
849.598	14556
849.734	14412
849.869	14438
850.004	14374
850.14	14393
850.275	14332
850.41	14252
850.545	14267
850.68	14317
850.815	14351
850.95	14446
851.085	14530
851.22	14381
851.355	14374
851.49	14286
851.625	14324
851.76	14286
851.895	14263
852.03	14176
852.165	14358
852.299	14339
852.434	14374
852.569	14377
852.703	14324
852.838	14396
852.973	14495
853.107	14396
853.242	14271
853.376	14149
853.511	14149
853.645	14115
853.78	14404
853.914	14267
854.048	14161
854.183	14183
854.317	14210
854.451	14374
854.585	14221
854.72	14195
854.854	14275
854.988	14081
855.122	14126
855.256	14020
855.39	14233
855.524	14259
855.658	14225
855.792	14244
855.926	14221
856.06	14210
856.194	14278
856.327	14092
856.461	14210
856.595	14180
856.729	14161
856.862	14400
856.996	14233
857.13	14305
857.263	14313
857.397	14320
857.53	14153
857.664	14256
857.797	14317
857.931	14282
858.064	14191
858.197	14252
858.331	14103
858.464	14164
858.597	14142
858.731	14294
858.864	14225
858.997	14221
859.13	14225
859.263	14214
859.396	14282
859.529	14229
859.662	14172
859.795	14126
859.928	14282
860.061	14358
860.194	14347
860.327	14195
860.46	14305
860.592	14191
860.725	14336
860.858	14290
860.99	14240
861.123	14062
861.256	14168
861.388	14233
861.521	14800
861.653	14073
861.786	14077
861.918	13974
862.05	14107
862.183	14100
862.315	14202
862.447	14233
862.58	14149
862.712	14088
862.844	13879
862.976	14054
863.108	13890
863.24	14328
863.372	13944
863.504	13974
863.636	13986
863.768	14039
863.9	13986
864.032	13875
864.164	13944
864.296	13928
864.428	14172
864.559	14081
864.691	14123
864.823	13963
864.954	13997
865.086	14027
865.217	13951
865.349	13917
865.48	13940
865.612	13959
865.743	14065
865.875	13978
866.006	13864
866.137	14005
866.269	13993
866.4	13936
866.531	13909
866.662	13967
866.793	13818
866.924	13883
867.055	13928
867.186	13921
867.317	14001
867.448	13875
867.579	13883
867.71	13913
867.841	13887
867.972	13970
868.103	13944
868.233	13906
868.364	14020
868.495	13951
868.625	14214
868.756	14423
868.886	14157
869.017	14256
869.147	14301
869.278	14393
869.408	14218
869.539	14221
869.669	14252
869.799	14271
869.929	14381
870.06	14244
870.19	14381
870.32	14522
870.45	14507
870.58	14545
870.71	14648
870.84	14644
870.97	14556
871.1	14537
871.23	14800
871.36	14777
871.489	14697
871.619	14712
871.749	14746
871.879	14796
872.008	14956
872.138	14796
872.267	14853
872.397	14636
872.526	14670
872.656	14568
872.785	14670
872.915	14849
873.044	14826
873.173	14838
873.303	14952
873.432	14800
873.561	14925
873.69	14876
873.819	14826
873.948	14979
874.077	14918
874.206	14845
874.335	14876
874.464	15036
874.593	15150
874.722	15058
874.851	15176
874.979	15161
875.108	15089
875.237	15116
875.365	15135
875.494	15188
875.623	15252
875.751	15150
875.88	15207
876.008	15252
876.136	15473
876.265	15675
876.393	15660
876.521	15637
876.65	15728
876.778	15545
876.906	15568
877.034	15481
877.162	15610
877.29	15557
877.418	15610
877.546	15595
877.674	15553
877.802	15595
877.93	15614
878.058	15538
878.185	15561
878.313	15515
878.441	15557
878.568	15473
878.696	15515
878.824	15553
878.951	15690
879.079	15720
879.206	15808
879.333	15720
879.461	15618
879.588	15698
879.715	15800
879.842	15827
879.97	15603
880.097	15393
880.224	15439
880.351	15481
880.478	15473
880.605	15329
880.732	15401
880.859	15644
880.986	15584
881.112	15431
881.239	15336
881.366	15275
881.493	15066
881.619	15036
881.746	15070
881.872	15097
881.999	15154
882.125	15043
882.252	15108
882.378	15074
882.505	15237
882.631	15043
882.757	14857
882.883	15020
883.01	14929
883.136	14864
883.262	14754
883.388	14769
883.514	14906
883.64	15039
883.766	14826
883.892	14746
884.018	14800
884.143	14906
884.269	14986
884.395	14693
884.52	14613
884.646	14689
884.772	14537
884.897	14587
885.023	14571
885.148	14739
885.274	14868
885.399	14708
885.524	14571
885.65	14602
885.775	14556
885.9	14598
886.025	14678
886.15	14655
886.275	14632
886.4	14556
886.525	14564
886.65	14621
886.775	14648
886.9	14720
887.025	14826
887.149	14682
887.274	14480
887.399	14473
887.523	14446
887.648	14385
887.773	14381
887.897	14537
888.021	14480
888.146	14518
888.27	14518
888.395	14674
888.519	14495
888.643	14610
888.767	14552
888.891	14374
889.015	14324
889.139	14328
889.263	14206
889.387	14431
889.511	14533
889.635	14499
889.759	14389
889.883	14263
890.006	14385
890.13	14431
890.254	14225
890.377	14237
890.501	14142
890.624	14046
890.748	14107
890.871	14103
890.995	13978
891.118	13860
891.241	13970
891.364	14024
891.488	14161
891.611	14005
891.734	14024
891.857	14039
891.98	14062
892.103	14134
892.226	14039
892.349	13970
892.471	13951
892.594	14008
892.717	14027
892.839	14008
892.962	13970
893.085	14058
893.207	14020
893.33	13928
893.452	13982
893.575	14115
893.697	13944
893.819	14138
893.941	14176
894.064	14278
894.186	14100
894.308	14031
894.43	14271
894.552	14263
894.674	14229
894.796	13917
894.918	14062
895.04	13993
895.161	14168
895.283	14119
895.405	14039
895.526	14130
895.648	14130
895.769	14119
895.891	14248
896.012	14271
896.134	14301
896.255	14214
896.376	14115
896.498	14282
896.619	14233
896.74	14214
896.861	14240
896.982	14575
897.103	14640
897.224	14545
897.345	14446
897.466	14427
897.587	14442
897.708	14552
897.828	14533
897.949	14438
898.07	14377
898.19	14438
898.311	14594
898.431	14362
898.552	14556
898.672	14556
898.792	14617
898.913	14606
899.033	14469
899.153	14446
899.273	14336
899.393	14393
899.513	14473
899.633	14438
899.753	14480
899.873	14347
899.993	14412
900.113	14469
900.232	14480
900.352	14374
900.472	14343
900.591	14332
900.711	14298
900.83	14218
900.95	14351
901.069	14404
901.189	14271
901.308	13970
901.427	13936
901.546	14043
901.665	14024
901.784	14027
901.904	13814
902.023	13750
902.141	13548
902.26	13567
902.379	13586
902.498	13483
902.617	13487
902.735	13575
902.854	13434
902.973	13559
903.091	13171
903.21	13285
903.328	13209
903.446	13145
903.565	13099
903.683	13088
903.801	13027
903.919	13069
904.038	13095
904.156	12966
904.274	13038
904.392	12882
904.51	12905
904.627	12913
904.745	13000
904.863	12970
904.981	12760
905.098	12658
905.216	12544
905.334	12551
905.451	12525
905.569	12608
905.686	12559
905.803	12604
905.921	12464
906.038	12509
906.155	12410
906.272	12399
906.389	12369
906.506	12239
906.623	12224
906.74	12247
906.857	12087
906.974	12129
907.091	12152
907.208	12357
907.324	12254
907.441	12091
907.557	11946
907.674	11939
907.79	11870
907.907	11942
908.023	11965
908.139	12011
908.256	11851
908.372	11794
908.488	11863
908.604	11718
908.72	11752
908.836	11722
908.952	11672
909.068	11661
909.184	11794
909.3	11737
909.415	11870
909.531	11684
909.647	11467
909.762	11402
909.878	11391
909.993	11539
910.108	11444
910.224	11562
910.339	11505
910.454	11334
910.57	11402
910.685	11299
910.8	11528
910.915	11486
911.03	11349
911.145	11174
911.259	11185
911.374	11162
911.489	11083
911.604	11006
911.718	10987
911.833	10904
911.947	10790
912.062	10634
912.176	10923
912.291	10850
912.405	10980
912.519	11067
912.633	11117
912.748	10972
912.862	10911
912.976	10793
913.09	10725
913.204	10759
913.318	10866
913.431	10889
913.545	10782
913.659	10930
913.772	10850
913.886	10691
914	10721
914.113	10790
914.226	10828
914.34	10759
914.453	10615
914.566	10774
914.68	10687
914.793	10580
914.906	10459
915.019	10421
915.132	10367
915.245	10428
915.358	10481
915.47	10428
915.583	10413
915.696	10466
915.809	10538
915.921	10554
916.034	10363
916.146	10390
916.259	10363
916.371	10481
916.483	10455
916.595	10382
916.708	10314
916.82	10325
916.932	10371
917.044	10348
917.156	10325
917.268	10188
917.38	10386
917.491	10261
917.603	10318
917.715	10276
917.826	10405
917.938	10257
918.049	10230
918.161	10268
918.272	10402
918.384	10405
918.495	10253
918.606	10173
918.717	10036
918.828	10135
918.939	10147
919.05	10124
919.161	10093
919.272	9888
919.383	9934
919.494	10150
919.604	10352
919.715	10181
919.826	10097
919.936	10120
920.047	10185
920.157	10154
920.267	10405
920.378	10215
920.488	10074
920.598	10405
920.708	10432
920.818	10348
920.928	10299
921.038	10508
921.148	10413
921.258	10135
921.368	10078
921.477	9998
921.587	10006
921.697	9945
921.806	10139
921.916	9899
922.025	9751
922.134	9743
922.244	9698
922.353	9766
922.462	9637
922.571	9500
922.68	9515
922.789	9374
922.898	9458
923.007	9435
923.116	9469
923.224	9405
923.333	9454
923.442	9302
923.55	9306
923.659	9298
923.767	9374
923.876	9272
923.984	9378
924.092	9260
924.201	9325
924.309	9283
924.417	9351
924.525	9192
924.633	9256
924.741	10154
924.849	9070
924.956	9275
925.064	9123
925.172	8994
925.279	8986
925.387	9085
925.494	9112
925.602	9161
925.709	9203
925.816	9100
925.924	9058
926.031	9253
926.138	9070
926.245	9150
926.352	8956
926.459	9142
926.566	9161
926.673	9100
926.779	8960
926.886	8941
926.993	8849
927.099	8769
927.206	8769
927.312	8864
927.419	8842
927.525	8762
927.631	8868
927.737	8648
927.843	8746
927.95	8594
928.056	8579
928.162	8804
928.267	8708
928.373	9401
928.479	8762
928.585	8533
928.69	8705
928.796	8766
928.901	8629
929.007	8484
929.112	8625
929.218	8636
929.323	8610
929.428	8503
929.533	8659
929.638	8419
929.743	8511
929.848	8606
929.953	8530
930.058	8438
930.163	8271
930.267	8275
930.372	8370
930.477	8275
930.581	8396
930.685	8343
930.79	8168
930.894	8244
930.998	8206
931.103	8324
931.207	8016
931.311	7986
931.415	7928
931.519	7776
931.623	7727
