Data from test_V78500241_2775.txt Node
Date: Fri Mar 25 14:53:02 CST 2022
User: usil
Spectrometer: V785-0024
Trigger mode: 0
Integration Time (sec): 4.000000E-1
Scans to average: 1
Nonlinearity correction enabled: false
Boxcar width: 0
Storing dark spectrum: false
XAxis mode: Wavelengths
Number of Pixels in Spectrum: 1024
>>>>>Begin Spectral Data<<<<<
801.071	21987
801.214	21819
801.356	21610
801.499	21561
801.641	21538
801.783	21329
801.926	21507
802.068	21374
802.211	21245
802.353	21157
802.496	20960
802.638	20781
802.78	20880
802.923	20705
803.065	20648
803.208	20731
803.35	20830
803.492	20788
803.635	20880
803.777	20735
803.919	20678
804.061	21005
804.204	20785
804.346	20697
804.488	20598
804.63	20701
804.773	20552
804.915	20682
805.057	20682
805.199	20640
805.341	20720
805.483	20807
805.626	20727
805.768	20511
805.91	20659
806.052	20693
806.194	20522
806.336	20830
806.478	20678
806.62	20602
806.762	20750
806.904	20678
807.046	21085
807.188	20910
807.33	20948
807.472	21127
807.614	20872
807.756	20918
807.898	20769
808.04	20648
808.182	20735
808.324	20720
808.465	20739
808.607	20960
808.749	21062
808.891	21127
809.033	21287
809.174	21039
809.316	20990
809.458	20895
809.6	21020
809.741	21017
809.883	20986
810.025	21127
810.166	21077
810.308	21123
810.45	21043
810.591	20929
810.733	20876
810.875	20765
811.016	20670
811.158	20758
811.299	20773
811.441	20883
811.582	20834
811.724	20800
811.865	20731
812.007	20674
812.148	20750
812.29	20781
812.431	20921
812.573	21093
812.714	21066
812.855	21272
812.997	21454
813.138	21557
813.279	21310
813.421	21252
813.562	21199
813.703	21020
813.845	20998
813.986	20689
814.127	20507
814.268	20374
814.41	20286
814.551	20385
814.692	20332
814.833	20161
814.974	20374
815.115	20305
815.256	20176
815.397	20164
815.539	20168
815.68	20043
815.821	20005
815.962	20005
816.103	19997
816.244	19852
816.385	19864
816.526	19742
816.666	19552
816.807	19491
816.948	19502
817.089	19582
817.23	19487
817.371	19518
817.512	19487
817.653	19586
817.793	19419
817.934	19514
818.075	19434
818.216	19460
818.356	19285
818.497	19213
818.638	19107
818.778	19240
818.919	19000
819.06	19137
819.2	19198
819.341	19335
819.481	19377
819.622	19537
819.762	19674
819.903	19460
820.043	19468
820.184	19285
820.324	19354
820.465	19445
820.605	19373
820.746	19460
820.886	19327
821.026	19381
821.167	19358
821.307	19441
821.447	19339
821.588	19301
821.728	19194
821.868	19042
822.008	18856
822.149	18856
822.289	18779
822.429	18604
822.569	18570
822.709	18471
822.849	18369
822.99	18319
823.13	18247
823.27	18292
823.41	18136
823.55	18038
823.69	18121
823.83	18163
823.97	17992
824.11	17885
824.25	17923
824.389	17988
824.529	17935
824.669	17859
824.809	18064
824.949	17885
825.089	17897
825.228	17863
825.368	17718
825.508	17661
825.648	17619
825.787	17676
825.927	17733
826.067	17684
826.206	17665
826.346	17691
826.485	17604
826.625	17592
826.765	17745
826.904	17707
827.044	17436
827.183	17433
827.323	17368
827.462	17421
827.601	17398
827.741	17353
827.88	17410
828.02	17223
828.159	17353
828.298	17356
828.437	17444
828.577	17372
828.716	17543
828.855	17334
828.994	17022
829.134	17105
829.273	17052
829.412	17060
829.551	17083
829.69	17121
829.829	17064
829.968	17208
830.107	17121
830.246	17136
830.385	17086
830.524	16949
830.663	16984
830.802	16892
830.941	16831
831.08	16763
831.219	16744
831.357	16831
831.496	16972
831.635	16683
831.774	16660
831.913	16634
832.051	16504
832.19	16474
832.329	16504
832.467	16417
832.606	16382
832.744	16421
832.883	16421
833.022	16363
833.16	16417
833.299	16455
833.437	16519
833.576	16500
833.714	16428
833.852	16531
833.991	16523
834.129	16592
834.267	16443
834.406	16478
834.544	16538
834.682	16440
834.821	16577
834.959	16641
835.097	16523
835.235	16596
835.373	16577
835.511	16573
835.65	16455
835.788	16386
835.926	16303
836.064	16162
836.202	16200
836.34	16493
836.478	16440
836.615	16451
836.753	16451
836.891	16603
837.029	16470
837.167	16394
837.305	16352
837.443	16344
837.58	16234
837.718	16325
837.856	16257
837.993	16337
838.131	16246
838.269	16173
838.406	16200
838.544	16093
838.681	16032
838.819	15922
838.956	15865
839.094	15808
839.231	15823
839.369	15956
839.506	16169
839.643	15998
839.781	15922
839.918	15797
840.055	15717
840.193	15701
840.33	15766
840.467	15861
840.604	15861
840.742	16124
840.879	15641
841.016	15701
841.153	15679
841.29	15949
841.427	15812
841.564	15857
841.701	15975
841.838	15804
841.975	15713
842.112	15671
842.249	15667
842.385	15671
842.522	15812
842.659	15625
842.796	15580
842.933	15648
843.069	15595
843.206	15496
843.343	15755
843.479	15633
843.616	15629
843.752	15344
843.889	15370
844.025	15584
844.162	15207
844.298	15523
844.435	15496
844.571	15408
844.708	15500
844.844	15553
844.98	15629
845.117	15561
845.253	15340
845.389	15222
845.525	15382
845.661	15268
845.798	15089
845.934	15237
846.07	15146
846.206	15203
846.342	15336
846.478	15165
846.614	14998
846.75	14960
846.886	14960
847.022	15116
847.158	15055
847.294	14910
847.429	14979
847.565	14982
847.701	15131
847.837	14670
847.972	14682
848.108	14819
848.244	14693
848.379	14556
848.515	14533
848.65	14507
848.786	14469
848.921	14594
849.057	14629
849.192	14678
849.328	14606
849.463	14537
849.598	14571
849.734	14423
849.869	14511
850.004	14389
850.14	14404
850.275	14336
850.41	14263
850.545	14252
850.68	14339
850.815	14324
850.95	14256
851.085	14488
851.22	14450
851.355	14339
851.49	14271
851.625	14324
851.76	14309
851.895	14278
852.03	14180
852.165	14229
852.299	14328
852.434	14484
852.569	14415
852.703	14377
852.838	14469
852.973	14598
853.107	14454
853.242	14320
853.376	14164
853.511	14153
853.645	14172
853.78	14366
853.914	14294
854.048	14229
854.183	14233
854.317	14123
854.451	14347
854.585	14233
854.72	14183
854.854	14278
854.988	14115
855.122	14218
855.256	14092
855.39	14111
855.524	14263
855.658	14172
855.792	14202
855.926	14225
856.06	14358
856.194	14301
856.327	14233
856.461	14058
856.595	14142
856.729	14161
856.862	14351
856.996	14218
857.13	14282
857.263	14298
857.397	14298
857.53	14218
857.664	14191
857.797	14221
857.931	14309
858.064	14221
858.197	14282
858.331	14237
858.464	14191
858.597	14149
858.731	14123
858.864	14161
858.997	14130
859.13	14294
859.263	14290
859.396	14202
859.529	14233
859.662	14161
859.795	14103
859.928	14176
860.061	14385
860.194	14393
860.327	14210
860.46	14244
860.592	14237
860.725	14324
860.858	14317
860.99	14233
861.123	14225
861.256	14172
861.388	14199
861.521	14724
861.653	14103
861.786	14005
861.918	14062
862.05	14142
862.183	14168
862.315	14248
862.447	14248
862.58	14271
862.712	13955
862.844	13993
862.976	14043
863.108	14073
863.24	14488
863.372	13955
863.504	13970
863.636	13982
863.768	14081
863.9	14001
864.032	13951
864.164	13940
864.296	13940
864.428	14069
864.559	14142
864.691	14107
864.823	14088
864.954	13986
865.086	14016
865.217	14001
865.349	13906
865.48	13989
865.612	13852
865.743	13982
865.875	14001
866.006	13963
866.137	14058
866.269	13932
866.4	13917
866.531	13928
866.662	13928
866.793	13921
866.924	13947
867.055	13997
867.186	13921
867.317	13959
867.448	13868
867.579	13902
867.71	13811
867.841	13947
867.972	13906
868.103	13967
868.233	13967
868.364	13932
868.495	14092
868.625	14157
868.756	14370
868.886	14142
869.017	14244
869.147	14298
869.278	14328
869.408	14214
869.539	14313
869.669	14271
869.799	14294
869.929	14282
870.06	14351
870.19	14476
870.32	14594
870.45	14644
870.58	14708
870.71	14785
870.84	14697
870.97	14670
871.1	14629
871.23	14819
871.36	14724
871.489	14716
871.619	14746
871.749	14819
871.879	14823
872.008	14956
872.138	14758
872.267	14773
872.397	14693
872.526	14629
872.656	14689
872.785	14686
872.915	14777
873.044	14887
873.173	14800
873.303	14956
873.432	14861
873.561	14910
873.69	14998
873.819	14857
873.948	14948
874.077	14910
874.206	14872
874.335	14857
874.464	15051
874.593	15214
874.722	15074
874.851	15237
874.979	15093
875.108	15222
875.237	15036
875.365	15047
875.494	15173
875.623	15275
875.751	15222
875.88	15195
876.008	15370
876.136	15408
876.265	15606
876.393	15675
876.521	15728
876.65	15690
876.778	15755
876.906	15591
877.034	15625
877.162	15485
877.29	15553
877.418	15618
877.546	15553
877.674	15595
877.802	15625
877.93	15629
878.058	15458
878.185	15458
878.313	15523
878.441	15519
878.568	15374
878.696	15603
878.824	15648
878.951	15637
879.079	15854
879.206	15922
879.333	15728
879.461	15671
879.588	15720
879.715	15793
879.842	15781
879.97	15743
880.097	15473
880.224	15443
880.351	15485
880.478	15492
880.605	15523
880.732	15435
880.859	15698
880.986	15485
881.112	15488
881.239	15424
881.366	15348
881.493	15119
881.619	15131
881.746	15165
881.872	15138
881.999	15100
882.125	15104
882.252	15081
882.378	15203
882.505	15344
882.631	15032
882.757	14956
882.883	14963
883.01	14861
883.136	14800
883.262	14769
883.388	14773
883.514	14910
883.64	14956
883.766	14853
883.892	14727
884.018	14758
884.143	14921
884.269	14914
884.395	14663
884.52	14644
884.646	14564
884.772	14625
884.897	14533
885.023	14644
885.148	14788
885.274	14800
885.399	14773
885.524	14667
885.65	14648
885.775	14735
885.9	14629
886.025	14739
886.15	14667
886.275	14632
886.4	14503
886.525	14644
886.65	14533
886.775	14594
886.9	14712
887.025	14834
887.149	14632
887.274	14366
887.399	14454
887.523	14511
887.648	14415
887.773	14389
887.897	14526
888.021	14530
888.146	14389
888.27	14556
888.395	14533
888.519	14450
888.643	14526
888.767	14587
888.891	14415
889.015	14218
889.139	14404
889.263	14347
889.387	14423
889.511	14541
889.635	14419
889.759	14309
889.883	14343
890.006	14336
890.13	14431
890.254	14252
890.377	14301
890.501	14199
890.624	14180
890.748	14271
890.871	14107
890.995	13951
891.118	13978
891.241	13951
891.364	14062
891.488	14134
891.611	14024
891.734	14008
891.857	14031
891.98	14123
892.103	14187
892.226	14256
892.349	14077
892.471	13898
892.594	13951
892.717	13906
892.839	13993
892.962	14138
893.085	14054
893.207	14035
893.33	13875
893.452	14024
893.575	14092
893.697	14046
893.819	14267
893.941	14187
894.064	14202
894.186	14008
894.308	13902
894.43	14248
894.552	14267
894.674	14145
894.796	14088
894.918	14043
895.04	14123
895.161	14119
895.283	14111
895.405	14107
895.526	14168
895.648	14149
895.769	14180
895.891	14271
896.012	14286
896.134	14206
896.255	14221
896.376	14130
896.498	14252
896.619	14259
896.74	14240
896.861	14286
896.982	14613
897.103	14731
897.224	14526
897.345	14389
897.466	14415
897.587	14446
897.708	14568
897.828	14484
897.949	14465
898.07	14305
898.19	14454
898.311	14613
898.431	14465
898.552	14488
898.672	14632
898.792	14651
898.913	14598
899.033	14412
899.153	14412
899.273	14332
899.393	14400
899.513	14377
899.633	14438
899.753	14396
899.873	14454
899.993	14404
900.113	14454
900.232	14457
900.352	14400
900.472	14244
900.591	14298
900.711	14400
900.83	14225
900.95	14355
901.069	14408
901.189	14218
901.308	14020
901.427	13921
901.546	14058
901.665	13940
901.784	13997
901.904	13894
902.023	13719
902.141	13567
902.26	13578
902.379	13563
902.498	13445
902.617	13449
902.735	13491
902.854	13491
902.973	13430
903.091	13206
903.21	13289
903.328	13285
903.446	13171
903.565	12973
903.683	13129
903.801	12966
903.919	13095
904.038	13095
904.156	12821
904.274	12867
904.392	12863
904.51	12897
904.627	12871
904.745	12939
904.863	12985
904.981	12715
905.098	12551
905.216	12631
905.334	12585
905.451	12574
905.569	12612
905.686	12662
905.803	12585
905.921	12407
906.038	12566
906.155	12441
906.272	12323
906.389	12308
906.506	12159
906.623	12251
906.74	12216
906.857	12167
906.974	12060
907.091	12228
907.208	12342
907.324	12254
907.441	12121
907.557	11980
907.674	11961
907.79	11874
907.907	11950
908.023	12034
908.139	11977
908.256	11939
908.372	11927
908.488	11752
908.604	11748
908.72	11653
908.836	11680
908.952	11646
909.068	11745
909.184	11805
909.3	11745
909.415	11779
909.531	11748
909.647	11528
909.762	11516
909.878	11425
909.993	11459
910.108	11474
910.224	11452
910.339	11444
910.454	11410
910.57	11356
910.685	11330
910.8	11520
910.915	11589
911.03	11349
911.145	11155
911.259	11269
911.374	11162
911.489	11147
911.604	11018
911.718	10984
911.833	10858
911.947	10869
912.062	10782
912.176	10908
912.291	10961
912.405	10953
912.519	11033
912.633	11147
912.748	10889
912.862	10961
912.976	10889
913.09	10733
913.204	10782
913.318	10843
913.431	10900
913.545	10927
913.659	10946
913.772	10847
913.886	10721
914	10790
914.113	10744
914.226	10820
914.34	10755
914.453	10622
914.566	10744
914.68	10660
914.793	10710
914.906	10470
915.019	10371
915.132	10318
915.245	10424
915.358	10474
915.47	10459
915.583	10497
915.696	10542
915.809	10588
915.921	10596
916.034	10489
916.146	10417
916.259	10386
916.371	10516
916.483	10424
916.595	10318
916.708	10405
916.82	10402
916.932	10325
917.044	10386
917.156	10352
917.268	10280
917.38	10318
917.491	10223
917.603	10257
917.715	10440
917.826	10371
917.938	10242
918.049	10139
918.161	10227
918.272	10394
918.384	10344
918.495	10276
918.606	10196
918.717	10105
918.828	10162
918.939	10120
919.05	10036
919.161	10147
919.272	9926
919.383	10074
919.494	10196
919.604	10341
919.715	10177
919.826	10048
919.936	10196
920.047	10265
920.157	10215
920.267	10390
920.378	10253
920.488	10154
920.598	10424
920.708	10462
920.818	10310
920.928	10341
921.038	10462
921.148	10512
921.258	10234
921.368	10120
921.477	9998
921.587	9968
921.697	9934
921.806	10078
921.916	9926
922.025	9793
922.134	9717
922.244	9682
922.353	9755
922.462	9663
922.571	9606
922.68	9401
922.789	9382
922.898	9447
923.007	9412
923.116	9557
923.224	9412
923.333	9412
923.442	9386
923.55	9344
923.659	9321
923.767	9370
923.876	9332
923.984	9359
924.092	9211
924.201	9260
924.309	9294
924.417	9310
924.525	9218
924.633	9211
924.741	10124
924.849	9127
924.956	9214
925.064	9135
925.172	8971
925.279	9100
925.387	9097
925.494	9157
925.602	9161
925.709	9161
925.816	9009
925.924	9081
926.031	9180
926.138	9036
926.245	9154
926.352	9039
926.459	9169
926.566	9199
926.673	9104
926.779	8883
926.886	8986
926.993	8811
927.099	8834
927.206	8746
927.312	8746
927.419	8849
927.525	8853
927.631	8819
927.737	8724
927.843	8648
927.95	8587
928.056	8625
928.162	8686
928.267	8716
928.373	9329
928.479	8781
928.585	8549
928.69	8606
928.796	8705
928.901	8575
929.007	8522
929.112	8625
929.218	8606
929.323	8549
929.428	8552
929.533	8674
929.638	8457
929.743	8526
929.848	8587
929.953	8575
930.058	8385
930.163	8275
930.267	8317
930.372	8419
930.477	8294
930.581	8564
930.685	8366
930.79	8233
930.894	8244
930.998	8214
931.103	8332
931.207	8031
931.311	8001
931.415	7989
931.519	7780
931.623	7689
