Data from test_V78500241_2748.txt Node
Date: Fri Mar 25 14:52:50 CST 2022
User: usil
Spectrometer: V785-0024
Trigger mode: 0
Integration Time (sec): 4.000000E-1
Scans to average: 1
Nonlinearity correction enabled: false
Boxcar width: 0
Storing dark spectrum: false
XAxis mode: Wavelengths
Number of Pixels in Spectrum: 1024
>>>>>Begin Spectral Data<<<<<
801.071	22059
801.214	21903
801.356	21755
801.499	21739
801.641	21500
801.783	21287
801.926	21447
802.068	21252
802.211	21321
802.353	21298
802.496	20979
802.638	20872
802.78	20880
802.923	20800
803.065	20640
803.208	20705
803.35	20785
803.492	20830
803.635	20838
803.777	20746
803.919	20823
804.061	21100
804.204	20807
804.346	20735
804.488	20655
804.63	20613
804.773	20564
804.915	20724
805.057	20804
805.199	20571
805.341	20754
805.483	20731
805.626	20800
805.768	20590
805.91	20659
806.052	20724
806.194	20583
806.336	20830
806.478	20735
806.62	20670
806.762	20689
806.904	20838
807.046	21123
807.188	21131
807.33	21043
807.472	21119
807.614	20762
807.756	20788
807.898	20781
808.04	20708
808.182	20739
808.324	20746
808.465	20785
808.607	20872
808.749	21036
808.891	21123
809.033	21264
809.174	21154
809.316	20952
809.458	20914
809.6	21070
809.741	21116
809.883	21036
810.025	21169
810.166	21169
810.308	21249
810.45	21195
810.591	21058
810.733	20967
810.875	20807
811.016	20724
811.158	20655
811.299	20994
811.441	20914
811.582	20971
811.724	20773
811.865	20739
812.007	20842
812.148	20743
812.29	20845
812.431	20880
812.573	21058
812.714	21131
812.855	21374
812.997	21439
813.138	21553
813.279	21424
813.421	21329
813.562	21142
813.703	20948
813.845	20975
813.986	20670
814.127	20564
814.268	20301
814.41	20366
814.551	20434
814.692	20244
814.833	20301
814.974	20294
815.115	20282
815.256	20199
815.397	20229
815.539	20180
815.68	20058
815.821	20001
815.962	20092
816.103	19989
816.244	19845
816.385	19799
816.526	19776
816.666	19597
816.807	19453
816.948	19540
817.089	19582
817.23	19578
817.371	19540
817.512	19335
817.653	19521
817.793	19438
817.934	19449
818.075	19495
818.216	19476
818.356	19320
818.497	19301
818.638	19206
818.778	19217
818.919	19247
819.06	19228
819.2	19324
819.341	19422
819.481	19312
819.622	19502
819.762	19814
819.903	19601
820.043	19514
820.184	19480
820.324	19415
820.465	19468
820.605	19537
820.746	19472
820.886	19350
821.026	19369
821.167	19324
821.307	19411
821.447	19426
821.588	19320
821.728	19259
821.868	19008
822.008	18932
822.149	18920
822.289	18935
822.429	18585
822.569	18620
822.709	18536
822.849	18346
822.99	18350
823.13	18319
823.27	18342
823.41	18190
823.55	18167
823.69	18228
823.83	18087
823.97	18022
824.11	17996
824.25	17920
824.389	17836
824.529	18068
824.669	17908
824.809	18011
824.949	17988
825.089	17992
825.228	17897
825.368	17767
825.508	17661
825.648	17817
825.787	17573
825.927	17760
826.067	17703
826.206	17615
826.346	17695
826.485	17661
826.625	17718
826.765	17794
826.904	17703
827.044	17474
827.183	17516
827.323	17425
827.462	17436
827.601	17459
827.741	17433
827.88	17429
828.02	17315
828.159	17421
828.298	17414
828.437	17402
828.577	17429
828.716	17509
828.855	17383
828.994	17155
829.134	17029
829.273	17132
829.412	17151
829.551	17132
829.69	17102
829.829	17193
829.968	17414
830.107	17227
830.246	17239
830.385	17067
830.524	17159
830.663	17075
830.802	16934
830.941	16774
831.08	16713
831.219	16858
831.357	16904
831.496	16953
831.635	16744
831.774	16725
831.913	16736
832.051	16626
832.19	16580
832.329	16622
832.467	16599
832.606	16474
832.744	16428
832.883	16508
833.022	16478
833.16	16424
833.299	16512
833.437	16546
833.576	16478
833.714	16558
833.852	16588
833.991	16569
834.129	16599
834.267	16565
834.406	16470
834.544	16558
834.682	16634
834.821	16599
834.959	16740
835.097	16504
835.235	16691
835.373	16577
835.511	16546
835.65	16421
835.788	16436
835.926	16333
836.064	16287
836.202	16188
836.34	16634
836.478	16424
836.615	16405
836.753	16451
836.891	16512
837.029	16466
837.167	16424
837.305	16360
837.443	16379
837.58	16287
837.718	16371
837.856	16284
837.993	16238
838.131	16344
838.269	16287
838.406	16219
838.544	16223
838.681	16010
838.819	16040
838.956	15907
839.094	15873
839.231	15865
839.369	15979
839.506	16230
839.643	16055
839.781	15915
839.918	15861
840.055	15778
840.193	15800
840.33	15838
840.467	15895
840.604	15941
840.742	16055
840.879	15831
841.016	15724
841.153	15800
841.29	15956
841.427	15865
841.564	16025
841.701	15915
841.838	15755
841.975	15823
842.112	15755
842.249	15675
842.385	15667
842.522	15774
842.659	15663
842.796	15591
842.933	15553
843.069	15564
843.206	15679
843.343	15618
843.479	15610
843.616	15637
843.752	15473
843.889	15443
844.025	15526
844.162	15587
844.298	15587
844.435	15462
844.571	15408
844.708	15549
844.844	15587
844.98	15557
845.117	15591
845.253	15431
845.389	15363
845.525	15294
845.661	15317
845.798	15199
845.934	15287
846.07	15135
846.206	15272
846.342	15393
846.478	15230
846.614	14994
846.75	14998
846.886	14944
847.022	15100
847.158	15009
847.294	15097
847.429	14979
847.565	14925
847.701	15272
847.837	14800
847.972	14727
848.108	14815
848.244	14834
848.379	14678
848.515	14556
848.65	14533
848.786	14560
848.921	14720
849.057	14659
849.192	14701
849.328	14708
849.463	14560
849.598	14522
849.734	14537
849.869	14473
850.004	14389
850.14	14423
850.275	14377
850.41	14275
850.545	14286
850.68	14317
850.815	14256
850.95	14324
851.085	14636
851.22	14484
851.355	14362
851.49	14358
851.625	14332
851.76	14301
851.895	14202
852.03	14267
852.165	14389
852.299	14400
852.434	14495
852.569	14347
852.703	14339
852.838	14415
852.973	14556
853.107	14533
853.242	14389
853.376	14240
853.511	14187
853.645	14248
853.78	14248
853.914	14248
854.048	14233
854.183	14218
854.317	14301
854.451	14396
854.585	14195
854.72	14244
854.854	14286
854.988	14168
855.122	14176
855.256	14130
855.39	14229
855.524	14233
855.658	14256
855.792	14240
855.926	14221
856.06	14301
856.194	14339
856.327	14218
856.461	14138
856.595	14195
856.729	14214
856.862	14294
856.996	14259
857.13	14191
857.263	14438
857.397	14336
857.53	14263
857.664	14328
857.797	14313
857.931	14320
858.064	14259
858.197	14324
858.331	14301
858.464	14142
858.597	14199
858.731	14187
858.864	14164
858.997	14244
859.13	14336
859.263	14317
859.396	14282
859.529	14199
859.662	14305
859.795	14130
859.928	14206
860.061	14400
860.194	14503
860.327	14149
860.46	14282
860.592	14317
860.725	14317
860.858	14317
860.99	14259
861.123	14210
861.256	14103
861.388	14111
861.521	14910
861.653	14096
861.786	13989
861.918	14142
862.05	14123
862.183	14130
862.315	14202
862.447	14233
862.58	14233
862.712	14043
862.844	13936
862.976	14062
863.108	14126
863.24	14469
863.372	14005
863.504	14012
863.636	13993
863.768	14046
863.9	14027
864.032	13986
864.164	14012
864.296	14008
864.428	14115
864.559	14100
864.691	13974
864.823	14103
864.954	14005
865.086	14084
865.217	14035
865.349	13898
865.48	14016
865.612	14012
865.743	14168
865.875	14024
866.006	14024
866.137	14012
866.269	14039
866.4	14039
866.531	13955
866.662	13925
866.793	13970
866.924	14027
867.055	13951
867.186	13982
867.317	13959
867.448	13955
867.579	13963
867.71	13925
867.841	13887
867.972	13967
868.103	14016
868.233	14119
868.364	14050
868.495	14077
868.625	14271
868.756	14248
868.886	14267
869.017	14218
869.147	14385
869.278	14294
869.408	14286
869.539	14286
869.669	14347
869.799	14294
869.929	14320
870.06	14396
870.19	14621
870.32	14571
870.45	14648
870.58	14712
870.71	14716
870.84	14834
870.97	14651
871.1	14625
871.23	14815
871.36	14861
871.489	14785
871.619	14773
871.749	14891
871.879	14883
872.008	14910
872.138	14815
872.267	14796
872.397	14701
872.526	14716
872.656	14651
872.785	14701
872.915	14845
873.044	14963
873.173	14910
873.303	14960
873.432	14914
873.561	14933
873.69	14948
873.819	14925
873.948	15024
874.077	14925
874.206	14842
874.335	14842
874.464	15066
874.593	15173
874.722	15180
874.851	15340
874.979	15237
875.108	15195
875.237	15268
875.365	15142
875.494	15161
875.623	15325
875.751	15157
875.88	15218
876.008	15321
876.136	15492
876.265	15656
876.393	15831
876.521	15675
876.65	15709
876.778	15713
876.906	15648
877.034	15538
877.162	15557
877.29	15610
877.418	15667
877.546	15637
877.674	15724
877.802	15686
877.93	15606
878.058	15652
878.185	15549
878.313	15701
878.441	15732
878.568	15481
878.696	15485
878.824	15633
878.951	15682
879.079	15793
879.206	16006
879.333	15888
879.461	15637
879.588	15705
879.715	15709
879.842	15922
879.97	15698
880.097	15507
880.224	15416
880.351	15511
880.478	15507
880.605	15443
880.732	15443
880.859	15793
880.986	15526
881.112	15492
881.239	15344
881.366	15184
881.493	15256
881.619	15093
881.746	15188
881.872	15211
881.999	15131
882.125	15108
882.252	15264
882.378	15127
882.505	15218
882.631	15089
882.757	14910
882.883	14975
883.01	15005
883.136	14933
883.262	14880
883.388	14857
883.514	14956
883.64	14979
883.766	14880
883.892	14804
884.018	14746
884.143	14906
884.269	15055
884.395	14712
884.52	14689
884.646	14606
884.772	14594
884.897	14552
885.023	14731
885.148	14724
885.274	14777
885.399	14651
885.524	14537
885.65	14648
885.775	14693
885.9	14587
886.025	14849
886.15	14758
886.275	14613
886.4	14484
886.525	14583
886.65	14648
886.775	14560
886.9	14777
887.025	14910
887.149	14621
887.274	14442
887.399	14469
887.523	14476
887.648	14438
887.773	14408
887.897	14564
888.021	14640
888.146	14374
888.27	14564
888.395	14575
888.519	14461
888.643	14518
888.767	14552
888.891	14454
889.015	14263
889.139	14454
889.263	14259
889.387	14526
889.511	14610
889.635	14541
889.759	14343
889.883	14355
890.006	14400
890.13	14461
890.254	14259
890.377	14263
890.501	14248
890.624	14126
890.748	14115
890.871	14149
890.995	13997
891.118	13963
891.241	14027
891.364	14020
891.488	14229
891.611	14039
891.734	14138
891.857	14130
891.98	14126
892.103	14084
892.226	14142
892.349	13997
892.471	13898
892.594	13993
892.717	13997
892.839	14035
892.962	14149
893.085	14081
893.207	14027
893.33	13887
893.452	13986
893.575	14054
893.697	14058
893.819	14111
893.941	14290
894.064	14275
894.186	14134
894.308	14001
894.43	14157
894.552	14202
894.674	14126
894.796	14001
894.918	14077
895.04	13947
895.161	14256
895.283	14111
895.405	14008
895.526	14115
895.648	14142
895.769	14225
895.891	14267
896.012	14237
896.134	14248
896.255	14218
896.376	14180
896.498	14218
896.619	14263
896.74	14290
896.861	14332
896.982	14568
897.103	14758
897.224	14514
897.345	14473
897.466	14450
897.587	14450
897.708	14598
897.828	14575
897.949	14412
898.07	14419
898.19	14545
898.311	14746
898.431	14533
898.552	14579
898.672	14644
898.792	14708
898.913	14655
899.033	14484
899.153	14385
899.273	14324
899.393	14431
899.513	14450
899.633	14393
899.753	14518
899.873	14324
899.993	14545
900.113	14400
900.232	14484
900.352	14419
900.472	14328
900.591	14237
900.711	14309
900.83	14225
900.95	14343
901.069	14438
901.189	14294
901.308	14092
901.427	13940
901.546	13928
901.665	13963
901.784	13993
901.904	13879
902.023	13658
902.141	13567
902.26	13537
902.379	13628
902.498	13552
902.617	13453
902.735	13540
902.854	13464
902.973	13400
903.091	13316
903.21	13232
903.328	13259
903.446	13118
903.565	13240
903.683	13110
903.801	13076
903.919	13076
904.038	13069
904.156	13008
904.274	13099
904.392	12920
904.51	12958
904.627	12943
904.745	12970
904.863	13042
904.981	12779
905.098	12566
905.216	12673
905.334	12612
905.451	12684
905.569	12566
905.686	12753
905.803	12646
905.921	12429
906.038	12532
906.155	12433
906.272	12327
906.389	12384
906.506	12228
906.623	12216
906.74	12224
906.857	12079
906.974	12144
907.091	12289
907.208	12330
907.324	12277
907.441	12049
907.557	11904
907.674	11988
907.79	11920
907.907	11908
908.023	11977
908.139	11999
908.256	11866
908.372	11912
908.488	11866
908.604	11748
908.72	11695
908.836	11805
908.952	11668
909.068	11718
909.184	11775
909.3	11733
909.415	11817
909.531	11703
909.647	11463
909.762	11509
909.878	11452
909.993	11455
910.108	11474
910.224	11467
910.339	11532
910.454	11372
910.57	11379
910.685	11284
910.8	11592
910.915	11501
911.03	11280
911.145	11250
911.259	11159
911.374	11124
911.489	11113
911.604	11075
911.718	10976
911.833	10965
911.947	10793
912.062	10778
912.176	11018
912.291	10911
912.405	10972
912.519	11079
912.633	11189
912.748	10980
912.862	10946
912.976	10759
913.09	10736
913.204	10748
913.318	10786
913.431	10961
913.545	10896
913.659	10980
913.772	10873
913.886	10691
914	10691
914.113	10820
914.226	10824
914.34	10694
914.453	10694
914.566	10767
914.68	10596
914.793	10656
914.906	10428
915.019	10424
915.132	10417
915.245	10447
915.358	10516
915.47	10424
915.583	10443
915.696	10508
915.809	10599
915.921	10668
916.034	10390
916.146	10344
916.259	10329
916.371	10527
916.483	10432
916.595	10409
916.708	10394
916.82	10459
916.932	10295
917.044	10386
917.156	10303
917.268	10261
917.38	10337
917.491	10238
917.603	10295
917.715	10402
917.826	10386
917.938	10261
918.049	10234
918.161	10299
918.272	10413
918.384	10470
918.495	10211
918.606	10154
918.717	10116
918.828	10242
918.939	10120
919.05	10101
919.161	10242
919.272	9972
919.383	10025
919.494	10219
919.604	10379
919.715	10173
919.826	10131
919.936	10109
920.047	10143
920.157	10196
920.267	10325
920.378	10284
920.488	10147
920.598	10367
920.708	10535
920.818	10417
920.928	10371
921.038	10607
921.148	10436
921.258	10162
921.368	10112
921.477	9983
921.587	10036
921.697	9903
921.806	10025
921.916	9960
922.025	9785
922.134	9701
922.244	9686
922.353	9755
922.462	9519
922.571	9580
922.68	9435
922.789	9393
922.898	9412
923.007	9367
923.116	9462
923.224	9416
923.333	9344
923.442	9287
923.55	9310
923.659	9321
923.767	9416
923.876	9294
923.984	9355
924.092	9348
924.201	9294
924.309	9408
924.417	9367
924.525	9207
924.633	9298
924.741	10040
924.849	9138
924.956	9241
925.064	9089
925.172	8963
925.279	9051
925.387	9013
925.494	9184
925.602	9195
925.709	9131
925.816	9032
925.924	9089
926.031	9188
926.138	9081
926.245	9176
926.352	9024
926.459	9241
926.566	9188
926.673	9066
926.779	9001
926.886	8887
926.993	8823
927.099	8762
927.206	8678
927.312	8781
927.419	8826
927.525	8792
927.631	8758
927.737	8693
927.843	8708
927.95	8552
928.056	8678
928.162	8678
928.267	8804
928.373	9306
928.479	8754
928.585	8571
928.69	8727
928.796	8651
928.901	8629
929.007	8537
929.112	8571
929.218	8610
929.323	8503
929.428	8484
929.533	8727
929.638	8503
929.743	8446
929.848	8579
929.953	8484
930.058	8328
930.163	8248
930.267	8320
930.372	8412
930.477	8195
930.581	8419
930.685	8358
930.79	8229
930.894	8229
930.998	8210
931.103	8343
931.207	8016
931.311	8012
931.415	7890
931.519	7753
931.623	7761
