Data from test_V78500241_892.txt Node
Date: Fri Mar 25 14:39:55 CST 2022
User: usil
Spectrometer: V785-0024
Trigger mode: 0
Integration Time (sec): 4.000000E-1
Scans to average: 1
Nonlinearity correction enabled: false
Boxcar width: 0
Storing dark spectrum: false
XAxis mode: Wavelengths
Number of Pixels in Spectrum: 1024
>>>>>Begin Spectral Data<<<<<
801.071	25206
801.214	25137
801.356	24966
801.499	24787
801.641	24650
801.783	24658
801.926	24688
802.068	24464
802.211	24437
802.353	24334
802.496	24182
802.638	24102
802.78	24064
802.923	24106
803.065	23958
803.208	23961
803.35	24129
803.492	24136
803.635	24140
803.777	23901
803.919	24064
804.061	24311
804.204	24072
804.346	23992
804.488	23893
804.63	23954
804.773	23794
804.915	23965
805.057	24121
805.199	24106
805.341	24148
805.483	24235
805.626	24155
805.768	24133
805.91	24076
806.052	24182
806.194	24053
806.336	24433
806.478	24319
806.62	24353
806.762	24528
806.904	24601
807.046	24913
807.188	25076
807.33	25145
807.472	25251
807.614	25327
807.756	25666
807.898	25833
808.04	26294
808.182	26739
808.324	27473
808.465	28070
808.607	29094
808.749	29942
808.891	30384
809.033	30441
809.174	29878
809.316	29060
809.458	28207
809.6	27492
809.741	26796
809.883	26355
810.025	26031
810.166	25788
810.308	25502
810.45	25362
810.591	25027
810.733	25008
810.875	24711
811.016	24551
811.158	24509
811.299	24563
811.441	24551
811.582	24498
811.724	24330
811.865	24399
812.007	24273
812.148	24289
812.29	24384
812.431	24566
812.573	24612
812.714	24692
812.855	24700
812.997	24798
813.138	24939
813.279	24863
813.421	24837
813.562	24711
813.703	24471
813.845	24471
813.986	24117
814.127	23889
814.268	23817
814.41	23790
814.551	23847
814.692	23927
814.833	23779
814.974	23722
815.115	23794
815.256	23501
815.397	23535
815.539	23611
815.68	23467
815.821	23395
815.962	23376
816.103	23474
816.244	23227
816.385	23090
816.526	23227
816.666	22923
816.807	22850
816.948	22793
817.089	22953
817.23	22847
817.371	22752
817.512	22839
817.653	22805
817.793	22729
817.934	22763
818.075	22771
818.216	22744
818.356	22740
818.497	22603
818.638	22371
818.778	22504
818.919	22535
819.06	22497
819.2	22577
819.341	22546
819.481	22691
819.622	22869
819.762	22938
819.903	22938
820.043	22717
820.184	22649
820.324	22733
820.465	22854
820.605	22733
820.746	22797
820.886	22493
821.026	22702
821.167	22645
821.307	22683
821.447	22516
821.588	22500
821.728	22459
821.868	22207
822.008	22082
822.149	22112
822.289	21972
822.429	21861
822.569	21732
822.709	21534
822.849	21496
822.99	21568
823.13	21466
823.27	21431
823.41	21249
823.55	21214
823.69	21245
823.83	21321
823.97	21199
824.11	21074
824.25	21032
824.389	21146
824.529	21138
824.669	20998
824.809	21226
824.949	21252
825.089	21161
825.228	21180
825.368	20925
825.508	20895
825.648	20895
825.787	20880
825.927	20956
826.067	20868
826.206	20807
826.346	20975
826.485	20857
826.625	20853
826.765	20952
826.904	20842
827.044	20549
827.183	20488
827.323	20484
827.462	20465
827.601	20522
827.741	20537
827.88	20495
828.02	20400
828.159	20355
828.298	20446
828.437	20545
828.577	20530
828.716	20674
828.855	20434
828.994	20229
829.134	20176
829.273	20202
829.412	20282
829.551	20183
829.69	20126
829.829	20244
829.968	20328
830.107	20244
830.246	20210
830.385	20043
830.524	20168
830.663	20001
830.802	19955
830.941	19715
831.08	19742
831.219	19928
831.357	19849
831.496	20001
831.635	19807
831.774	19639
831.913	19594
832.051	19575
832.19	19696
832.329	19761
832.467	19518
832.606	19480
832.744	19548
832.883	19609
833.022	19369
833.16	19537
833.299	19662
833.437	19582
833.576	19814
833.714	19674
833.852	19769
833.991	19734
834.129	19864
834.267	19715
834.406	19746
834.544	19689
834.682	19704
834.821	19662
834.959	19852
835.097	19620
835.235	19712
835.373	19449
835.511	19510
835.65	19407
835.788	19346
835.926	19247
836.064	19137
836.202	19213
836.34	19263
836.478	19445
836.615	19343
836.753	19270
836.891	19297
837.029	19403
837.167	19297
837.305	19103
837.443	19247
837.58	19080
837.718	19240
837.856	19175
837.993	19069
838.131	19031
838.269	19057
838.406	19160
838.544	18932
838.681	18817
838.819	18814
838.956	18623
839.094	18544
839.231	18745
839.369	18829
839.506	19065
839.643	18886
839.781	18635
839.918	18639
840.055	18551
840.193	18490
840.33	18517
840.467	18566
840.604	18631
840.742	18878
840.879	18441
841.016	18604
841.153	18517
841.29	18745
841.427	18612
841.564	18631
841.701	18544
841.838	18448
841.975	18422
842.112	18433
842.249	18445
842.385	18281
842.522	18612
842.659	18471
842.796	18243
842.933	18330
843.069	18323
843.206	18315
843.343	18391
843.479	18391
843.616	18384
843.752	18144
843.889	18182
844.025	18258
844.162	18266
844.298	18300
844.435	18163
844.571	18254
844.708	18399
844.844	18604
844.98	18677
845.117	18840
845.253	18909
845.389	19335
845.525	20119
845.661	21401
845.798	23094
845.934	24494
846.07	25133
846.206	24943
846.342	23946
846.478	22097
846.614	20488
846.75	19373
846.886	18734
847.022	18479
847.158	18167
847.294	17999
847.429	17984
847.565	17885
847.701	17996
847.837	17440
847.972	17341
848.108	17471
848.244	17562
848.379	17299
848.515	17330
848.65	17216
848.786	17277
848.921	17265
849.057	17326
849.192	17250
849.328	17178
849.463	17200
849.598	17109
849.734	17105
849.869	16961
850.004	16835
850.14	16908
850.275	17014
850.41	16850
850.545	16957
850.68	16904
850.815	16805
850.95	16965
851.085	17162
851.22	17052
851.355	16965
851.49	16866
851.625	16797
851.76	16968
851.895	16942
852.03	16934
852.165	16892
852.299	16946
852.434	17056
852.569	16957
852.703	16995
852.838	16999
852.973	17117
853.107	17098
853.242	16938
853.376	16824
853.511	16759
853.645	16850
853.78	16930
853.914	16873
854.048	16908
854.183	16850
854.317	17018
854.451	17056
854.585	16904
854.72	16816
854.854	16889
854.988	16774
855.122	16923
855.256	16744
855.39	16797
855.524	16858
855.658	16831
855.792	16828
855.926	16763
856.06	16854
856.194	16927
856.327	16672
856.461	16733
856.595	16713
856.729	16782
856.862	16847
856.996	16862
857.13	16896
857.263	16930
857.397	16881
857.53	16687
857.664	16877
857.797	16812
857.931	16976
858.064	16847
858.197	16904
858.331	16793
858.464	16641
858.597	16523
858.731	16793
858.864	16812
858.997	16725
859.13	16767
859.263	16774
859.396	16759
859.529	16668
859.662	16733
859.795	16660
859.928	16721
860.061	16858
860.194	16847
860.327	16805
860.46	16618
860.592	16828
860.725	16790
860.858	16740
860.99	16694
861.123	16554
861.256	16618
861.388	16858
861.521	17353
861.653	16561
861.786	16481
861.918	16653
862.05	16691
862.183	16569
862.315	16664
862.447	16683
862.58	16717
862.712	16489
862.844	16443
862.976	16417
863.108	16538
863.24	16858
863.372	16466
863.504	16516
863.636	16470
863.768	16432
863.9	16421
864.032	16409
864.164	16306
864.296	16565
864.428	16546
864.559	16470
864.691	16512
864.823	16554
864.954	16489
865.086	16352
865.217	16489
865.349	16390
865.48	16360
865.612	16428
865.743	16527
865.875	16409
866.006	16360
866.137	16382
866.269	16493
866.4	16466
866.531	16363
866.662	16432
866.793	16242
866.924	16413
867.055	16375
867.186	16356
867.317	16341
867.448	16276
867.579	16325
867.71	16200
867.841	16238
867.972	16382
868.103	16360
868.233	16455
868.364	16421
868.495	16523
868.625	16493
868.756	16622
868.886	16561
869.017	16653
869.147	16691
869.278	16675
869.408	16554
869.539	16607
869.669	16725
869.799	16645
869.929	16748
870.06	16679
870.19	16862
870.32	16968
870.45	16877
870.58	16938
870.71	17151
870.84	17113
870.97	17022
871.1	16930
871.23	17246
871.36	17216
871.489	17113
871.619	17117
871.749	17181
871.879	17311
872.008	17318
872.138	17242
872.267	17117
872.397	17170
872.526	17052
872.656	17162
872.785	17079
872.915	17318
873.044	17410
873.173	17250
873.303	17280
873.432	17353
873.561	17356
873.69	17341
873.819	17345
873.948	17406
874.077	17292
874.206	17235
874.335	17311
874.464	17402
874.593	17684
874.722	17672
874.851	17726
874.979	17802
875.108	17783
875.237	17657
875.365	17558
875.494	17726
875.623	17783
875.751	17733
875.88	17855
876.008	17771
876.136	18019
876.265	18220
876.393	18384
876.521	18258
876.65	18243
876.778	18292
876.906	18266
877.034	18167
877.162	18251
877.29	18262
877.418	18285
877.546	18266
877.674	18273
877.802	18380
877.93	18429
878.058	18376
878.185	18464
878.313	18540
878.441	18593
878.568	18544
878.696	18958
878.824	19034
878.951	19392
879.079	19925
879.206	20552
879.333	21005
879.461	21313
879.588	21644
879.715	21667
879.842	21511
879.97	21009
880.097	20271
880.224	19769
880.351	19400
880.478	19285
880.605	19031
880.732	18993
880.859	19122
880.986	18810
881.112	18821
881.239	18703
881.366	18528
881.493	18506
881.619	18483
881.746	18513
881.872	18475
881.999	18536
882.125	18414
882.252	18544
882.378	18566
882.505	18658
882.631	18578
882.757	18334
882.883	18448
883.01	18323
883.136	18213
883.262	18213
883.388	18144
883.514	18445
883.64	18289
883.766	18285
883.892	18144
884.018	18167
884.143	18258
884.269	18353
884.395	18064
884.52	17935
884.646	18015
884.772	17939
884.897	17916
885.023	18117
885.148	18167
885.274	18060
885.399	18102
885.524	17954
885.65	17897
885.775	17958
885.9	17904
886.025	17904
886.15	17817
886.275	17691
886.4	17684
886.525	17627
886.65	17619
886.775	17596
886.9	17790
887.025	17764
887.149	17577
887.274	17345
887.399	17341
887.523	17216
887.648	17337
887.773	17174
887.897	17326
888.021	17227
888.146	17227
888.27	17277
888.395	17326
888.519	17239
888.643	17216
888.767	17121
888.891	17029
889.015	16934
889.139	17010
889.263	16938
889.387	17025
889.511	17162
889.635	17071
889.759	16911
889.883	16873
890.006	16908
890.13	17064
890.254	16782
890.377	16755
890.501	16683
890.624	16558
890.748	16782
890.871	16565
890.995	16523
891.118	16394
891.241	16413
891.364	16443
891.488	16592
891.611	16436
891.734	16329
891.857	16538
891.98	16432
892.103	16504
892.226	16470
892.349	16500
892.471	16291
892.594	16398
892.717	16379
892.839	16306
892.962	16333
893.085	16470
893.207	16344
893.33	16185
893.452	16196
893.575	16306
893.697	16303
893.819	16424
893.941	16519
894.064	16459
894.186	16234
894.308	16223
894.43	16341
894.552	16516
894.674	16390
894.796	16238
894.918	16211
895.04	16230
895.161	16306
895.283	16409
895.405	16257
895.526	16382
895.648	16322
895.769	16379
895.891	16371
896.012	16470
896.134	16481
896.255	16398
896.376	16409
896.498	16394
896.619	16516
896.74	16424
896.861	16360
896.982	16733
897.103	16816
897.224	16660
897.345	16588
897.466	16459
897.587	16569
897.708	16733
897.828	16679
897.949	16641
898.07	16500
898.19	16584
898.311	16793
898.431	16626
898.552	16603
898.672	16839
898.792	16763
898.913	16713
899.033	16569
899.153	16561
899.273	16459
899.393	16455
899.513	16523
899.633	16497
899.753	16500
899.873	16565
899.993	16573
900.113	16455
900.232	16455
900.352	16466
900.472	16440
900.591	16295
900.711	16390
900.83	16200
900.95	16459
901.069	16436
901.189	16246
901.308	16051
901.427	15941
901.546	16074
901.665	16013
901.784	16002
901.904	15762
902.023	15778
902.141	15530
902.26	15538
902.379	15675
902.498	15511
902.617	15462
902.735	15469
902.854	15412
902.973	15336
903.091	15112
903.21	15173
903.328	15188
903.446	15108
903.565	15104
903.683	15043
903.801	14941
903.919	14967
904.038	14994
904.156	14769
904.274	14773
904.392	14689
904.51	14765
904.627	14655
904.745	14819
904.863	14861
904.981	14571
905.098	14469
905.216	14461
905.334	14545
905.451	14434
905.569	14339
905.686	14381
905.803	14568
905.921	14252
906.038	14278
906.155	14244
906.272	14100
906.389	14138
906.506	14008
906.623	13921
906.74	13959
906.857	13822
906.974	13864
907.091	14008
907.208	14111
907.324	13993
907.441	13883
907.557	13700
907.674	13632
907.79	13616
907.907	13700
908.023	13689
908.139	13708
908.256	13559
908.372	13567
908.488	13597
908.604	13403
908.72	13350
908.836	13346
908.952	13358
909.068	13392
909.184	13430
909.3	13365
909.415	13449
909.531	13422
909.647	13141
909.762	13145
909.878	13095
909.993	13126
910.108	13149
910.224	13019
910.339	13103
910.454	12977
910.57	12916
910.685	12913
910.8	13141
910.915	13164
911.03	12859
911.145	12856
911.259	12760
911.374	12776
911.489	12677
911.604	12593
911.718	12483
911.833	12494
911.947	12486
912.062	12403
912.176	12525
912.291	12559
912.405	12475
912.519	12753
912.633	12692
912.748	12525
912.862	12479
912.976	12429
913.09	12292
913.204	12353
913.318	12426
913.431	12456
913.545	12441
913.659	12502
913.772	12342
913.886	12194
914	12213
914.113	12342
914.226	12395
914.34	12224
914.453	12175
914.566	12262
914.68	12140
914.793	12136
914.906	11897
915.019	11954
915.132	11984
915.245	12026
915.358	12015
915.47	11942
915.583	12019
915.696	12057
915.809	12148
915.921	12129
916.034	11870
916.146	11874
916.259	11939
916.371	11988
916.483	11958
916.595	11870
916.708	11897
916.82	11882
916.932	11836
917.044	11828
917.156	11798
917.268	11737
917.38	11786
917.491	11737
917.603	11737
917.715	11847
917.826	11817
917.938	11714
918.049	11646
918.161	11733
918.272	11824
918.384	11870
918.495	11760
918.606	11596
918.717	11490
918.828	11535
918.939	11657
919.05	11505
919.161	11516
919.272	11315
919.383	11463
919.494	11570
919.604	11748
919.715	11501
919.826	11520
919.936	11482
920.047	11623
920.157	11505
920.267	11764
920.378	11627
920.488	11486
920.598	11786
920.708	11904
920.818	11661
920.928	11707
921.038	11824
921.148	11802
921.258	11585
921.368	11471
921.477	11372
921.587	11299
921.697	11227
921.806	11410
921.916	11220
922.025	11121
922.134	11064
922.244	11045
922.353	11166
922.462	10923
922.571	10797
922.68	10812
922.789	10687
922.898	10672
923.007	10664
923.116	10733
923.224	10668
923.333	10641
923.442	10634
923.55	10565
923.659	10622
923.767	10679
923.876	10523
923.984	10592
924.092	10550
924.201	10565
924.309	10523
924.417	10523
924.525	10462
924.633	10538
924.741	11261
924.849	10287
924.956	10508
925.064	10287
925.172	10230
925.279	10230
925.387	10325
925.494	10257
925.602	10443
925.709	10329
925.816	10211
925.924	10303
926.031	10352
926.138	10303
926.245	10253
926.352	10230
926.459	10352
926.566	10299
926.673	10242
926.779	10188
926.886	10063
926.993	10044
927.099	9945
927.206	9934
927.312	9918
927.419	9930
927.525	9964
927.631	9994
927.737	9850
927.843	9819
927.95	9747
928.056	9823
928.162	9831
928.267	9899
928.373	10474
928.479	9930
928.585	9732
928.69	9800
928.796	9865
928.901	9800
929.007	9663
929.112	9774
929.218	9720
929.323	9698
929.428	9549
929.533	9770
929.638	9545
929.743	9660
929.848	9568
929.953	9587
930.058	9530
930.163	9344
930.267	9374
930.372	9523
930.477	9412
930.581	9595
930.685	9431
930.79	9321
930.894	9351
930.998	9336
931.103	9408
931.207	9097
931.311	9081
931.415	8982
931.519	8731
931.623	8743
