Data from test_V78500241_1961.txt Node
Date: Fri Mar 25 14:47:22 CST 2022
User: usil
Spectrometer: V785-0024
Trigger mode: 0
Integration Time (sec): 4.000000E-1
Scans to average: 1
Nonlinearity correction enabled: false
Boxcar width: 0
Storing dark spectrum: false
XAxis mode: Wavelengths
Number of Pixels in Spectrum: 1024
>>>>>Begin Spectral Data<<<<<
801.071	22112
801.214	21991
801.356	21838
801.499	21622
801.641	21481
801.783	21485
801.926	21412
802.068	21439
802.211	21359
802.353	21192
802.496	21001
802.638	20948
802.78	21009
802.923	20701
803.065	20724
803.208	20739
803.35	20868
803.492	20781
803.635	20887
803.777	20868
803.919	20853
804.061	21100
804.204	20929
804.346	20785
804.488	20602
804.63	20826
804.773	20701
804.915	20708
805.057	20765
805.199	20758
805.341	20895
805.483	20887
805.626	20849
805.768	20644
805.91	20830
806.052	20788
806.194	20648
806.336	20921
806.478	20708
806.62	20655
806.762	20655
806.904	20876
807.046	21157
807.188	21077
807.33	20944
807.472	21093
807.614	20925
807.756	20902
807.898	20838
808.04	20727
808.182	20773
808.324	20868
808.465	20773
808.607	21005
808.749	20994
808.891	21070
809.033	21325
809.174	21222
809.316	21074
809.458	21169
809.6	21058
809.741	21043
809.883	21157
810.025	21363
810.166	21252
810.308	21112
810.45	21291
810.591	21199
810.733	21005
810.875	20910
811.016	20743
811.158	20746
811.299	20910
811.441	20975
811.582	21043
811.724	20906
811.865	20792
812.007	20826
812.148	20937
812.29	20960
812.431	21024
812.573	21146
812.714	21146
812.855	21336
812.997	21454
813.138	21564
813.279	21591
813.421	21405
813.562	21325
813.703	21138
813.845	20952
813.986	20724
814.127	20480
814.268	20507
814.41	20552
814.551	20332
814.692	20560
814.833	20370
814.974	20377
815.115	20278
815.256	20214
815.397	20252
815.539	20126
815.68	20130
815.821	20035
815.962	20130
816.103	20164
816.244	20043
816.385	19940
816.526	19784
816.666	19685
816.807	19616
816.948	19658
817.089	19666
817.23	19674
817.371	19655
817.512	19453
817.653	19430
817.793	19502
817.934	19597
818.075	19624
818.216	19533
818.356	19438
818.497	19316
818.638	19126
818.778	19225
818.919	19274
819.06	19240
819.2	19358
819.341	19415
819.481	19304
819.622	19601
819.762	19712
819.903	19559
820.043	19601
820.184	19590
820.324	19457
820.465	19609
820.605	19540
820.746	19578
820.886	19331
821.026	19468
821.167	19453
821.307	19514
821.447	19514
821.588	19358
821.728	19263
821.868	19061
822.008	18905
822.149	18935
822.289	18901
822.429	18673
822.569	18593
822.709	18604
822.849	18433
822.99	18521
823.13	18426
823.27	18323
823.41	18304
823.55	18220
823.69	18338
823.83	18296
823.97	18213
824.11	18072
824.25	18038
824.389	18110
824.529	17977
824.669	17965
824.809	18190
824.949	18079
825.089	18057
825.228	17961
825.368	17870
825.508	17794
825.648	17817
825.787	17748
825.927	17805
826.067	17824
826.206	17832
826.346	17794
826.485	17752
826.625	17764
826.765	17863
826.904	17901
827.044	17570
827.183	17524
827.323	17429
827.462	17608
827.601	17463
827.741	17448
827.88	17448
828.02	17254
828.159	17512
828.298	17436
828.437	17539
828.577	17448
828.716	17520
828.855	17490
828.994	17269
829.134	17223
829.273	17364
829.412	17239
829.551	17189
829.69	17162
829.829	17288
829.968	17337
830.107	17170
830.246	17273
830.385	17109
830.524	17109
830.663	17022
830.802	17022
830.941	16816
831.08	16843
831.219	16911
831.357	16896
831.496	16980
831.635	16809
831.774	16744
831.913	16790
832.051	16679
832.19	16698
832.329	16675
832.467	16584
832.606	16504
832.744	16493
832.883	16546
833.022	16440
833.16	16398
833.299	16542
833.437	16569
833.576	16584
833.714	16672
833.852	16645
833.991	16664
834.129	16721
834.267	16630
834.406	16569
834.544	16733
834.682	16634
834.821	16531
834.959	16850
835.097	16500
835.235	16736
835.373	16634
835.511	16535
835.65	16436
835.788	16436
835.926	16459
836.064	16230
836.202	16325
836.34	16603
836.478	16512
836.615	16519
836.753	16466
836.891	16554
837.029	16603
837.167	16459
837.305	16466
837.443	16375
837.58	16413
837.718	16481
837.856	16360
837.993	16375
838.131	16413
838.269	16268
838.406	16348
838.544	16226
838.681	16109
838.819	16109
838.956	16105
839.094	15991
839.231	15934
839.369	16013
839.506	16341
839.643	16135
839.781	15956
839.918	15876
840.055	16006
840.193	16006
840.33	15911
840.467	15850
840.604	15987
840.742	16181
840.879	15892
841.016	15892
841.153	15819
841.29	16044
841.427	16010
841.564	15876
841.701	15968
841.838	15934
841.975	15964
842.112	15755
842.249	15728
842.385	15823
842.522	16078
842.659	15789
842.796	15709
842.933	15774
843.069	15606
843.206	15591
843.343	15823
843.479	15637
843.616	15755
843.752	15481
843.889	15504
844.025	15667
844.162	15443
844.298	15641
844.435	15519
844.571	15435
844.708	15485
844.844	15660
844.98	15717
845.117	15606
845.253	15466
845.389	15378
845.525	15443
845.661	15397
845.798	15310
845.934	15344
846.07	15321
846.206	15351
846.342	15473
846.478	15359
846.614	15188
846.75	15020
846.886	15074
847.022	15233
847.158	15157
847.294	15161
847.429	15093
847.565	15112
847.701	15378
847.837	14785
847.972	14750
848.108	14952
848.244	14902
848.379	14777
848.515	14659
848.65	14678
848.786	14636
848.921	14659
849.057	14739
849.192	14769
849.328	14758
849.463	14678
849.598	14670
849.734	14537
849.869	14648
850.004	14575
850.14	14511
850.275	14454
850.41	14351
850.545	14393
850.68	14446
850.815	14423
850.95	14552
851.085	14571
851.22	14564
851.355	14492
851.49	14434
851.625	14400
851.76	14442
851.895	14408
852.03	14423
852.165	14427
852.299	14434
852.434	14484
852.569	14480
852.703	14480
852.838	14545
852.973	14499
853.107	14560
853.242	14499
853.376	14374
853.511	14286
853.645	14305
853.78	14503
853.914	14358
854.048	14290
854.183	14248
854.317	14396
854.451	14423
854.585	14381
854.72	14282
854.854	14446
854.988	14244
855.122	14339
855.256	14183
855.39	14248
855.524	14389
855.658	14286
855.792	14381
855.926	14389
856.06	14313
856.194	14484
856.327	14404
856.461	14229
856.595	14248
856.729	14233
856.862	14332
856.996	14366
857.13	14522
857.263	14381
857.397	14454
857.53	14259
857.664	14438
857.797	14442
857.931	14434
858.064	14252
858.197	14393
858.331	14328
858.464	14271
858.597	14248
858.731	14317
858.864	14324
858.997	14256
859.13	14400
859.263	14298
859.396	14412
859.529	14218
859.662	14362
859.795	14134
859.928	14313
860.061	14571
860.194	14492
860.327	14328
860.46	14339
860.592	14461
860.725	14454
860.858	14412
860.99	14317
861.123	14240
861.256	14290
861.388	14366
861.521	15028
861.653	14267
861.786	14271
861.918	14195
862.05	14324
862.183	14221
862.315	14267
862.447	14355
862.58	14218
862.712	14073
862.844	14069
862.976	14176
863.108	14176
863.24	14518
863.372	14062
863.504	14100
863.636	14111
863.768	14119
863.9	14069
864.032	14088
864.164	14123
864.296	14214
864.428	14138
864.559	14115
864.691	14153
864.823	14103
864.954	14164
865.086	14218
865.217	14103
865.349	14100
865.48	14210
865.612	14058
865.743	14275
865.875	14145
866.006	14069
866.137	14096
866.269	14069
866.4	14069
866.531	14100
866.662	14039
866.793	13978
866.924	14065
867.055	14096
867.186	14046
867.317	13951
867.448	14046
867.579	14035
867.71	13989
867.841	14088
867.972	14081
868.103	14073
868.233	14062
868.364	14069
868.495	14176
868.625	14301
868.756	14457
868.886	14358
869.017	14278
869.147	14522
869.278	14377
869.408	14313
869.539	14298
869.669	14377
869.799	14377
869.929	14469
870.06	14545
870.19	14712
870.32	14594
870.45	14640
870.58	14693
870.71	14872
870.84	14921
870.97	14693
871.1	14781
871.23	14883
871.36	14948
871.489	14853
871.619	14861
871.749	14887
871.879	14948
872.008	15062
872.138	14906
872.267	14971
872.397	14777
872.526	14731
872.656	14720
872.785	14708
872.915	14975
873.044	15077
873.173	15055
873.303	15032
873.432	15009
873.561	15108
873.69	15138
873.819	15043
873.948	15074
874.077	15039
874.206	14986
874.335	15020
874.464	15203
874.593	15306
874.722	15222
874.851	15332
874.979	15245
875.108	15367
875.237	15302
875.365	15195
875.494	15313
875.623	15386
875.751	15272
875.88	15298
876.008	15534
876.136	15568
876.265	15770
876.393	15842
876.521	15926
876.65	15675
876.778	15800
876.906	15682
877.034	15637
877.162	15781
877.29	15637
877.418	15766
877.546	15732
877.674	15652
877.802	15789
877.93	15720
878.058	15739
878.185	15610
878.313	15675
878.441	15698
878.568	15584
878.696	15743
878.824	15732
878.951	15812
879.079	15918
879.206	16021
879.333	15842
879.461	15762
879.588	15812
879.715	15945
879.842	15941
879.97	15728
880.097	15542
880.224	15584
880.351	15606
880.478	15507
880.605	15606
880.732	15561
880.859	15701
880.986	15576
881.112	15542
881.239	15393
881.366	15351
881.493	15264
881.619	15203
881.746	15302
881.872	15272
881.999	15066
882.125	15226
882.252	15241
882.378	15260
882.505	15355
882.631	15199
882.757	15112
882.883	15070
883.01	14990
883.136	15017
883.262	14914
883.388	14845
883.514	15047
883.64	15112
883.766	14948
883.892	14914
884.018	14834
884.143	14994
884.269	15089
884.395	14762
884.52	14754
884.646	14781
884.772	14655
884.897	14697
885.023	14689
885.148	14861
885.274	15001
885.399	14807
885.524	14804
885.65	14754
885.775	14754
885.9	14731
886.025	14868
886.15	14788
886.275	14636
886.4	14644
886.525	14705
886.65	14724
886.775	14667
886.9	14857
887.025	14933
887.149	14796
887.274	14610
887.399	14549
887.523	14530
887.648	14545
887.773	14469
887.897	14602
888.021	14594
888.146	14549
888.27	14640
888.395	14746
888.519	14587
888.643	14720
888.767	14579
888.891	14545
889.015	14465
889.139	14530
889.263	14446
889.387	14587
889.511	14625
889.635	14549
889.759	14381
889.883	14324
890.006	14545
890.13	14552
890.254	14389
890.377	14343
890.501	14309
890.624	14195
890.748	14275
890.871	14172
890.995	14103
891.118	14027
891.241	14172
891.364	14100
891.488	14271
891.611	14130
891.734	14195
891.857	14221
891.98	14145
892.103	14130
892.226	14191
892.349	14183
892.471	13967
892.594	14168
892.717	14111
892.839	14111
892.962	14142
893.085	14176
893.207	14187
893.33	14062
893.452	14100
893.575	14195
893.697	14035
893.819	14309
893.941	14309
894.064	14301
894.186	14164
894.308	14134
894.43	14290
894.552	14294
894.674	14195
894.796	14088
894.918	14195
895.04	14149
895.161	14313
895.283	14221
895.405	14164
895.526	14214
895.648	14237
895.769	14313
895.891	14298
896.012	14377
896.134	14381
896.255	14336
896.376	14282
896.498	14271
896.619	14336
896.74	14320
896.861	14374
896.982	14632
897.103	14754
897.224	14560
897.345	14408
897.466	14454
897.587	14495
897.708	14640
897.828	14583
897.949	14492
898.07	14446
898.19	14526
898.311	14708
898.431	14545
898.552	14636
898.672	14720
898.792	14708
898.913	14705
899.033	14632
899.153	14503
899.273	14454
899.393	14431
899.513	14522
899.633	14518
899.753	14438
899.873	14499
899.993	14526
900.113	14522
900.232	14499
900.352	14541
900.472	14473
900.591	14412
900.711	14457
900.83	14324
900.95	14431
901.069	14450
901.189	14271
901.308	14180
901.427	14069
901.546	14088
901.665	14096
901.784	14039
901.904	13890
902.023	13871
902.141	13681
902.26	13613
902.379	13685
902.498	13639
902.617	13521
902.735	13647
902.854	13582
902.973	13525
903.091	13293
903.21	13373
903.328	13346
903.446	13308
903.565	13240
903.683	13190
903.801	13126
903.919	13091
904.038	13160
904.156	13015
904.274	13107
904.392	12989
904.51	13027
904.627	12916
904.745	13012
904.863	13008
904.981	12779
905.098	12665
905.216	12703
905.334	12734
905.451	12646
905.569	12696
905.686	12673
905.803	12711
905.921	12566
906.038	12536
906.155	12570
906.272	12452
906.389	12525
906.506	12319
906.623	12270
906.74	12262
906.857	12106
906.974	12114
907.091	12334
907.208	12429
907.324	12330
907.441	12285
907.557	11939
907.674	12049
907.79	11980
907.907	12038
908.023	12060
908.139	12068
908.256	11946
908.372	11965
908.488	11897
908.604	11809
908.72	11771
908.836	11813
908.952	11832
909.068	11809
909.184	11901
909.3	11840
909.415	11805
909.531	11851
909.647	11570
909.762	11615
909.878	11547
909.993	11623
910.108	11551
910.224	11490
910.339	11600
910.454	11459
910.57	11414
910.685	11372
910.8	11684
910.915	11665
911.03	11410
911.145	11383
911.259	11299
911.374	11284
911.489	11147
911.604	11178
911.718	11060
911.833	11064
911.947	10953
912.062	10809
912.176	11014
912.291	10949
912.405	11014
912.519	11296
912.633	11273
912.748	11086
912.862	11014
912.976	10908
913.09	10740
913.204	10854
913.318	10904
913.431	11048
913.545	10934
913.659	11033
913.772	10889
913.886	10820
914	10782
914.113	10831
914.226	10938
914.34	10873
914.453	10664
914.566	10873
914.68	10668
914.793	10752
914.906	10478
915.019	10493
915.132	10417
915.245	10481
915.358	10554
915.47	10508
915.583	10573
915.696	10592
915.809	10615
915.921	10675
916.034	10538
916.146	10451
916.259	10424
916.371	10577
916.483	10485
916.595	10390
916.708	10466
916.82	10485
916.932	10398
917.044	10436
917.156	10428
917.268	10337
917.38	10371
917.491	10367
917.603	10375
917.715	10382
917.826	10459
917.938	10352
918.049	10230
918.161	10447
918.272	10504
918.384	10474
918.495	10382
918.606	10181
918.717	10162
918.828	10268
918.939	10238
919.05	10139
919.161	10299
919.272	10048
919.383	10040
919.494	10325
919.604	10447
919.715	10249
919.826	10185
919.936	10303
920.047	10352
920.157	10306
920.267	10451
920.378	10280
920.488	10246
920.598	10474
920.708	10531
920.818	10402
920.928	10405
921.038	10573
921.148	10523
921.258	10246
921.368	10181
921.477	10067
921.587	10048
921.697	9991
921.806	10112
921.916	9968
922.025	9762
922.134	9842
922.244	9759
922.353	9888
922.462	9686
922.571	9637
922.68	9492
922.789	9454
922.898	9519
923.007	9466
923.116	9473
923.224	9447
923.333	9477
923.442	9355
923.55	9340
923.659	9401
923.767	9435
923.876	9359
923.984	9431
924.092	9302
924.201	9344
924.309	9382
924.417	9329
924.525	9313
924.633	9344
924.741	10249
924.849	9119
924.956	9291
925.064	9150
925.172	9077
925.279	9039
925.387	9138
925.494	9138
925.602	9249
925.709	9165
925.816	9070
925.924	9135
926.031	9249
926.138	9154
926.245	9173
926.352	9036
926.459	9135
926.566	9256
926.673	9112
926.779	9017
926.886	9039
926.993	8887
927.099	8883
927.206	8895
927.312	8842
927.419	8933
927.525	8830
927.631	8876
927.737	8689
927.843	8792
927.95	8670
928.056	8800
928.162	8792
928.267	8834
928.373	9431
928.479	8819
928.585	8579
928.69	8724
928.796	8727
928.901	8712
929.007	8518
929.112	8686
929.218	8629
929.323	8636
929.428	8587
929.533	8667
929.638	8549
929.743	8564
929.848	8617
929.953	8530
930.058	8461
930.163	8351
930.267	8358
930.372	8533
930.477	8358
930.581	8499
930.685	8442
930.79	8275
930.894	8320
930.998	8263
931.103	8393
931.207	8096
931.311	8054
931.415	7989
931.519	7780
931.623	7765
