Data from test_V78500241_685.txt Node
Date: Fri Mar 25 14:38:29 CST 2022
User: usil
Spectrometer: V785-0024
Trigger mode: 0
Integration Time (sec): 4.000000E-1
Scans to average: 1
Nonlinearity correction enabled: false
Boxcar width: 0
Storing dark spectrum: false
XAxis mode: Wavelengths
Number of Pixels in Spectrum: 1024
>>>>>Begin Spectral Data<<<<<
801.071	28067
801.214	27998
801.356	27797
801.499	27720
801.641	27538
801.783	27519
801.926	27538
802.068	27427
802.211	27279
802.353	27207
802.496	27085
802.638	27100
802.78	27005
802.923	27070
803.065	26948
803.208	26956
803.35	27009
803.492	27020
803.635	27157
803.777	26975
803.919	27199
804.061	27401
804.204	27051
804.346	27302
804.488	27256
804.63	27252
804.773	27268
804.915	27488
805.057	27629
805.199	27420
805.341	27526
805.483	27648
805.626	27846
805.768	27732
805.91	27956
806.052	28116
806.194	28120
806.336	28314
806.478	28500
806.62	28675
806.762	29083
806.904	29356
807.046	29954
807.188	30174
807.33	30665
807.472	31270
807.614	31837
807.756	32887
807.898	33854
808.04	35467
808.182	37506
808.324	40162
808.465	43088
808.607	46531
808.749	49487
808.891	51290
809.033	51424
809.174	49753
809.316	46995
809.458	43354
809.6	39770
809.741	37027
809.883	35022
810.025	33458
810.166	32229
810.308	31335
810.45	30821
810.591	30384
810.733	29836
810.875	29349
811.016	29033
811.158	28976
811.299	28831
811.441	28744
811.582	28500
811.724	28314
811.865	28185
812.007	28135
812.148	28048
812.29	27998
812.431	28032
812.573	28032
812.714	28093
812.855	28162
812.997	28120
813.138	28295
813.279	28337
813.421	28029
813.562	27846
813.703	27728
813.845	27534
813.986	27188
814.127	27058
814.268	26861
814.41	27081
814.551	26807
814.692	26834
814.833	26602
814.974	26800
815.115	26724
815.256	26598
815.397	26568
815.539	26427
815.68	26355
815.821	26328
815.962	26377
816.103	26202
816.244	26130
816.385	26077
816.526	26020
816.666	25868
816.807	25662
816.948	25693
817.089	25689
817.23	25586
817.371	25544
817.512	25518
817.653	25620
817.793	25426
817.934	25472
818.075	25582
818.216	25533
818.356	25388
818.497	25343
818.638	25114
818.778	25080
818.919	25175
819.06	25270
819.2	25270
819.341	25388
819.481	25339
819.622	25594
819.762	25609
819.903	25639
820.043	25476
820.184	25472
820.324	25449
820.465	25369
820.605	25308
820.746	25472
820.886	25164
821.026	25358
821.167	25209
821.307	25377
821.447	25304
821.588	25065
821.728	24890
821.868	24734
822.008	24547
822.149	24601
822.289	24525
822.429	24327
822.569	24376
822.709	24281
822.849	24068
822.99	24060
823.13	24117
823.27	24034
823.41	23710
823.55	23699
823.69	23885
823.83	23897
823.97	23745
824.11	23615
824.25	23467
824.389	23653
824.529	23623
824.669	23581
824.809	23665
824.949	23714
825.089	23668
825.228	23558
825.368	23433
825.508	23376
825.648	23474
825.787	23395
825.927	23543
826.067	23414
826.206	23326
826.346	23471
826.485	23433
826.625	23391
826.765	23402
826.904	23387
827.044	23162
827.183	23102
827.323	22999
827.462	23170
827.601	23033
827.741	23056
827.88	23022
828.02	23029
828.159	22961
828.298	23083
828.437	23006
828.577	22934
828.716	23014
828.855	22767
828.994	22733
829.134	22831
829.273	22736
829.412	22664
829.551	22641
829.69	22664
829.829	22599
829.968	22717
830.107	22649
830.246	22717
830.385	22679
830.524	22668
830.663	22588
830.802	22402
830.941	22265
831.08	22382
831.219	22253
831.357	22386
831.496	22557
831.635	22268
831.774	22348
831.913	22196
832.051	22242
832.19	22101
832.329	22333
832.467	22150
832.606	22067
832.744	22128
832.883	22261
833.022	22314
833.16	22341
833.299	22413
833.437	22660
833.576	22713
833.714	22976
833.852	23056
833.991	23330
834.129	23322
834.267	23330
834.406	23197
834.544	23227
834.682	23102
834.821	22949
834.959	22949
835.097	22698
835.235	22611
835.373	22466
835.511	22428
835.65	22280
835.788	22162
835.926	21941
836.064	21804
836.202	21800
836.34	22101
836.478	21972
836.615	21835
836.753	21804
836.891	22002
837.029	21922
837.167	21648
837.305	21759
837.443	21644
837.58	21633
837.718	21690
837.856	21652
837.993	21511
838.131	21500
838.269	21507
838.406	21416
838.544	21428
838.681	21287
838.819	21192
838.956	21085
839.094	21093
839.231	21093
839.369	21214
839.506	21393
839.643	21321
839.781	21047
839.918	21047
840.055	20948
840.193	21074
840.33	20883
840.467	20990
840.604	20986
840.742	21317
840.879	20887
841.016	20796
841.153	20918
841.29	21085
841.427	21047
841.564	21055
841.701	21074
841.838	20887
841.975	20902
842.112	20914
842.249	20880
842.385	20758
842.522	20861
842.659	20857
842.796	20731
842.933	20823
843.069	20811
843.206	20880
843.343	20876
843.479	21024
843.616	20887
843.752	20979
843.889	20830
844.025	20963
844.162	21013
844.298	21142
844.435	21138
844.571	21363
844.708	21747
844.844	22147
844.98	22607
845.117	23174
845.253	24346
845.389	25989
845.525	29813
845.661	35809
845.798	42684
845.934	47908
846.07	49719
846.206	48125
846.342	43266
846.478	36384
846.614	30555
846.75	26655
846.886	24285
847.022	22961
847.158	22128
847.294	21370
847.429	21089
847.565	20781
847.701	21081
847.837	20393
847.972	20343
848.108	20210
848.244	20145
848.379	19993
848.515	19890
848.65	19822
848.786	19833
848.921	19681
849.057	19818
849.192	19791
849.328	19833
849.463	19746
849.598	19597
849.734	19597
849.869	19559
850.004	19415
850.14	19514
850.275	19449
850.41	19331
850.545	19244
850.68	19419
850.815	19400
850.95	19438
851.085	19601
851.22	19453
851.355	19445
851.49	19422
851.625	19365
851.76	19415
851.895	19259
852.03	19225
852.165	19285
852.299	19403
852.434	19548
852.569	19495
852.703	19419
852.838	19483
852.973	19628
853.107	19457
853.242	19495
853.376	19426
853.511	19392
853.645	19472
853.78	19632
853.914	19533
854.048	19556
854.183	19540
854.317	19750
854.451	19830
854.585	19723
854.72	19700
854.854	19594
854.988	19476
855.122	19510
855.256	19373
855.39	19358
855.524	19415
855.658	19449
855.792	19381
855.926	19259
856.06	19266
856.194	19426
856.327	19270
856.461	19122
856.595	19209
856.729	19190
856.862	19327
856.996	19080
857.13	19308
857.263	19289
857.397	19251
857.53	19148
857.664	19198
857.797	19240
857.931	19225
858.064	19175
858.197	19217
858.331	19103
858.464	19046
858.597	19004
858.731	19088
858.864	18981
858.997	18981
859.13	19042
859.263	18947
859.396	19095
859.529	19107
859.662	19084
859.795	18958
859.928	18935
860.061	19171
860.194	19160
860.327	18939
860.46	18886
860.592	19187
860.725	19076
860.858	19126
860.99	18958
861.123	18954
861.256	18928
861.388	19046
861.521	19632
861.653	18901
861.786	18783
861.918	18829
862.05	18989
862.183	18954
862.315	18970
862.447	19038
862.58	18962
862.712	18738
862.844	18669
862.976	18745
863.108	18798
863.24	19031
863.372	18589
863.504	18502
863.636	18692
863.768	18753
863.9	18623
864.032	18620
864.164	18616
864.296	18654
864.428	18650
864.559	18631
864.691	18669
864.823	18692
864.954	18639
865.086	18654
865.217	18551
865.349	18448
865.48	18582
865.612	18502
865.743	18654
865.875	18570
866.006	18555
866.137	18563
866.269	18612
866.4	18490
866.531	18486
866.662	18467
866.793	18525
866.924	18528
867.055	18555
867.186	18570
867.317	18353
867.448	18422
867.579	18528
867.71	18479
867.841	18452
867.972	18544
868.103	18513
868.233	18544
868.364	18532
868.495	18688
868.625	18635
868.756	18913
868.886	18673
869.017	18745
869.147	18871
869.278	19027
869.408	18783
869.539	18840
869.669	18894
869.799	18802
869.929	18882
870.06	18966
870.19	19179
870.32	19042
870.45	19156
870.58	19145
870.71	19358
870.84	19365
870.97	19259
871.1	19377
871.23	19422
871.36	19460
871.489	19384
871.619	19403
871.749	19495
871.879	19491
872.008	19594
872.138	19540
872.267	19510
872.397	19472
872.526	19346
872.656	19476
872.785	19434
872.915	19499
873.044	19750
873.173	19700
873.303	19662
873.432	19826
873.561	19723
873.69	19875
873.819	19818
873.948	19807
874.077	19883
874.206	19856
874.335	19909
874.464	20111
874.593	20161
874.722	20214
874.851	20278
874.979	20332
875.108	20393
875.237	20240
875.365	20336
875.494	20324
875.623	20541
875.751	20446
875.88	20640
876.008	20682
876.136	20727
876.265	21070
876.393	21230
876.521	21100
876.65	21249
876.778	21294
876.906	21332
877.034	21336
877.162	21393
877.29	21401
877.418	21671
877.546	21804
877.674	21861
877.802	21953
877.93	22086
878.058	22242
878.185	22367
878.313	22771
878.441	23086
878.568	23326
878.696	23988
878.824	24806
878.951	25746
879.079	27622
879.206	29634
879.333	31647
879.461	33485
879.588	34531
879.715	34481
879.842	33644
879.97	31818
880.097	29638
880.224	27930
880.351	26720
880.478	25875
880.605	25232
880.732	24973
880.859	24837
880.986	24483
881.112	24304
881.239	24068
881.366	24049
881.493	23988
881.619	23870
881.746	24091
881.872	23901
881.999	23912
882.125	24064
882.252	24163
882.378	24125
882.505	24129
882.631	24072
882.757	23969
882.883	23866
883.01	23916
883.136	23901
883.262	23802
883.388	23783
883.514	23958
883.64	23859
883.766	23642
883.892	23653
884.018	23619
884.143	23783
884.269	23961
884.395	23802
884.52	23634
884.646	23611
884.772	23710
884.897	23585
885.023	23627
885.148	23760
885.274	23714
885.399	23585
885.524	23497
885.65	23353
885.775	23147
885.9	23010
886.025	22854
886.15	22831
886.275	22573
886.4	22344
886.525	22158
886.65	22135
886.775	21899
886.9	22021
887.025	22006
887.149	21747
887.274	21538
887.399	21351
887.523	21283
887.648	21218
887.773	21001
887.897	20971
888.021	20986
888.146	20819
888.27	20914
888.395	20910
888.519	20781
888.643	20682
888.767	20708
888.891	20549
889.015	20252
889.139	20358
889.263	20309
889.387	20294
889.511	20374
889.635	20278
889.759	20157
889.883	20229
890.006	20138
890.13	20138
890.254	19909
890.377	19860
890.501	19674
890.624	19677
890.748	19689
890.871	19518
890.995	19510
891.118	19358
891.241	19403
891.364	19354
891.488	19381
891.611	19324
891.734	19316
891.857	19350
891.98	19244
892.103	19358
892.226	19129
892.349	19141
892.471	18916
892.594	19038
892.717	19152
892.839	18878
892.962	19004
893.085	18951
893.207	18882
893.33	18859
893.452	18772
893.575	18821
893.697	18779
893.819	18856
893.941	18970
894.064	18779
894.186	18620
894.308	18650
894.43	18776
894.552	18844
894.674	18646
894.796	18464
894.918	18608
895.04	18604
895.161	18650
895.283	18570
895.405	18502
895.526	18494
895.648	18502
895.769	18426
895.891	18486
896.012	18475
896.134	18467
896.255	18547
896.376	18391
896.498	18414
896.619	18471
896.74	18456
896.861	18471
896.982	18677
897.103	18753
897.224	18635
897.345	18589
897.466	18460
897.587	18658
897.708	18688
897.828	18547
897.949	18536
898.07	18346
898.19	18551
898.311	18578
898.431	18578
898.552	18669
898.672	18623
898.792	18612
898.913	18612
899.033	18525
899.153	18414
899.273	18194
899.393	18334
899.513	18365
899.633	18376
899.753	18315
899.873	18338
899.993	18346
900.113	18292
900.232	18384
900.352	18262
900.472	18117
900.591	18201
900.711	18148
900.83	18110
900.95	18247
901.069	18178
901.189	18091
901.308	17786
901.427	17684
901.546	17710
901.665	17767
901.784	17684
901.904	17630
902.023	17516
902.141	17193
902.26	17181
902.379	17185
902.498	17143
902.617	17124
902.735	17143
902.854	16976
902.973	16987
903.091	16908
903.21	16816
903.328	16820
903.446	16599
903.565	16596
903.683	16592
903.801	16402
903.919	16504
904.038	16558
904.156	16284
904.274	16443
904.392	16280
904.51	16310
904.627	16363
904.745	16337
904.863	16440
904.981	16044
905.098	16021
905.216	15823
905.334	15998
905.451	15949
905.569	15945
905.686	16029
905.803	15895
905.921	15698
906.038	15827
906.155	15800
906.272	15591
906.389	15587
906.506	15542
906.623	15492
906.74	15485
906.857	15332
906.974	15389
907.091	15401
907.208	15553
907.324	15561
907.441	15325
907.557	15150
907.674	15157
907.79	15089
907.907	15138
908.023	15184
908.139	15199
908.256	15009
908.372	15043
908.488	15036
908.604	14941
908.72	14899
908.836	14899
908.952	14842
909.068	14982
909.184	14971
909.3	14792
909.415	14910
909.531	14868
909.647	14640
909.762	14590
909.878	14571
909.993	14636
910.108	14518
910.224	14549
910.339	14552
910.454	14434
910.57	14537
910.685	14339
910.8	14701
910.915	14594
911.03	14446
911.145	14263
911.259	14286
911.374	14240
911.489	14191
911.604	14145
911.718	14001
911.833	13974
911.947	13928
912.062	13818
912.176	13944
912.291	13978
912.405	14054
912.519	14119
912.633	14142
912.748	14039
912.862	13959
912.976	13757
913.09	13655
913.204	13712
913.318	13818
913.431	13959
913.545	13799
913.659	13902
913.772	13738
913.886	13628
914	13613
914.113	13776
914.226	13753
914.34	13658
914.453	13502
914.566	13727
914.68	13620
914.793	13537
914.906	13426
915.019	13316
915.132	13308
915.245	13324
915.358	13396
915.47	13316
915.583	13400
915.696	13377
915.809	13426
915.921	13578
916.034	13331
916.146	13304
916.259	13209
916.371	13301
916.483	13312
916.595	13213
916.708	13339
916.82	13251
916.932	13274
917.044	13316
917.156	13270
917.268	13107
917.38	13213
917.491	13091
917.603	13133
917.715	13107
917.826	13080
917.938	13095
918.049	12947
918.161	13038
918.272	13198
918.384	13152
918.495	12935
918.606	12867
918.717	12711
918.828	12886
918.939	12920
919.05	12738
919.161	12802
919.272	12597
919.383	12658
919.494	12837
919.604	12996
919.715	12787
919.826	12650
919.936	12806
920.047	12772
920.157	12875
920.267	13012
920.378	12829
920.488	12814
920.598	12920
920.708	13103
920.818	12935
920.928	12920
921.038	12993
921.148	13076
921.258	12688
921.368	12692
921.477	12585
921.587	12593
921.697	12426
921.806	12513
921.916	12437
922.025	12308
922.134	12232
922.244	12155
922.353	12330
922.462	12194
922.571	12068
922.68	11859
922.789	11821
922.898	11874
923.007	11790
923.116	11904
923.224	11882
923.333	11771
923.442	11718
923.55	11657
923.659	11718
923.767	11756
923.876	11630
923.984	11710
924.092	11619
924.201	11627
924.309	11653
924.417	11600
924.525	11566
924.633	11611
924.741	12597
924.849	11334
924.956	11478
925.064	11376
925.172	11284
925.279	11337
925.387	11425
925.494	11452
925.602	11570
925.709	11436
925.816	11391
925.924	11391
926.031	11455
926.138	11364
926.245	11414
926.352	11273
926.459	11356
926.566	11349
926.673	11227
926.779	11143
926.886	11128
926.993	11025
927.099	10930
927.206	10968
927.312	10949
927.419	11064
927.525	10980
927.631	11105
927.737	10915
927.843	10828
927.95	10778
928.056	10835
928.162	10801
928.267	10938
928.373	11398
928.479	10923
928.585	10584
928.69	10847
928.796	10866
928.901	10748
929.007	10561
929.112	10668
929.218	10721
929.323	10653
929.428	10596
929.533	10847
929.638	10497
929.743	10569
929.848	10683
929.953	10565
930.058	10500
930.163	10314
930.267	10322
930.372	10413
930.477	10272
930.581	10535
930.685	10405
930.79	10211
930.894	10253
930.998	10219
931.103	10344
931.207	9930
931.311	9884
931.415	9880
931.519	9682
931.623	9660
