Data from test_V78500241_2537.txt Node
Date: Fri Mar 25 14:51:22 CST 2022
User: usil
Spectrometer: V785-0024
Trigger mode: 0
Integration Time (sec): 4.000000E-1
Scans to average: 1
Nonlinearity correction enabled: false
Boxcar width: 0
Storing dark spectrum: false
XAxis mode: Wavelengths
Number of Pixels in Spectrum: 1024
>>>>>Begin Spectral Data<<<<<
801.071	22093
801.214	21869
801.356	21766
801.499	21591
801.641	21488
801.783	21382
801.926	21458
802.068	21348
802.211	21294
802.353	21165
802.496	20891
802.638	21020
802.78	20823
802.923	20807
803.065	20720
803.208	20758
803.35	20834
803.492	20857
803.635	20788
803.777	20697
803.919	20819
804.061	21100
804.204	20804
804.346	20712
804.488	20621
804.63	20720
804.773	20678
804.915	20678
805.057	20686
805.199	20629
805.341	20731
805.483	20739
805.626	20670
805.768	20579
805.91	20674
806.052	20792
806.194	20651
806.336	20849
806.478	20640
806.62	20602
806.762	20693
806.904	20902
807.046	21039
807.188	20971
807.33	20933
807.472	21138
807.614	20883
807.756	20944
807.898	20902
808.04	20716
808.182	20830
808.324	20834
808.465	20735
808.607	20944
808.749	21062
808.891	21184
809.033	21340
809.174	21195
809.316	20982
809.458	21108
809.6	21020
809.741	21150
809.883	21116
810.025	21211
810.166	21077
810.308	21192
810.45	21100
810.591	20998
810.733	20876
810.875	20891
811.016	20758
811.158	20716
811.299	20872
811.441	20891
811.582	20956
811.724	20944
811.865	20769
812.007	20811
812.148	20845
812.29	20857
812.431	20929
812.573	21135
812.714	21226
812.855	21150
812.997	21412
813.138	21599
813.279	21317
813.421	21264
813.562	21176
813.703	21047
813.845	20952
813.986	20758
814.127	20476
814.268	20476
814.41	20423
814.551	20434
814.692	20324
814.833	20271
814.974	20221
815.115	20343
815.256	20202
815.397	20240
815.539	20187
815.68	20035
815.821	19989
815.962	20058
816.103	20115
816.244	19925
816.385	19864
816.526	19757
816.666	19537
816.807	19426
816.948	19464
817.089	19460
817.23	19460
817.371	19590
817.512	19476
817.653	19521
817.793	19419
817.934	19388
818.075	19419
818.216	19521
818.356	19396
818.497	19396
818.638	19285
818.778	19129
818.919	19179
819.06	19255
819.2	19293
819.341	19354
819.481	19331
819.622	19563
819.762	19582
819.903	19658
820.043	19639
820.184	19445
820.324	19388
820.465	19419
820.605	19502
820.746	19445
820.886	19297
821.026	19487
821.167	19373
821.307	19487
821.447	19381
821.588	19312
821.728	19198
821.868	19008
822.008	18916
822.149	18901
822.289	18829
822.429	18616
822.569	18490
822.709	18654
822.849	18361
822.99	18357
823.13	18308
823.27	18228
823.41	18194
823.55	18152
823.69	18186
823.83	18152
823.97	18121
824.11	17939
824.25	17965
824.389	17988
824.529	17935
824.669	17950
824.809	18106
824.949	18007
825.089	17999
825.228	17889
825.368	17786
825.508	17741
825.648	17726
825.787	17794
825.927	17836
826.067	17672
826.206	17676
826.346	17627
826.485	17733
826.625	17737
826.765	17783
826.904	17680
827.044	17425
827.183	17433
827.323	17376
827.462	17486
827.601	17478
827.741	17497
827.88	17417
828.02	17277
828.159	17341
828.298	17417
828.437	17547
828.577	17326
828.716	17543
828.855	17391
828.994	17197
829.134	17246
829.273	17132
829.412	17117
829.551	17113
829.69	17128
829.829	17159
829.968	17288
830.107	17223
830.246	17128
830.385	17128
830.524	16999
830.663	17067
830.802	16911
830.941	16683
831.08	16706
831.219	16885
831.357	16828
831.496	16949
831.635	16755
831.774	16771
831.913	16603
832.051	16611
832.19	16626
832.329	16675
832.467	16443
832.606	16382
832.744	16489
832.883	16402
833.022	16360
833.16	16409
833.299	16497
833.437	16485
833.576	16546
833.714	16577
833.852	16603
833.991	16580
834.129	16592
834.267	16584
834.406	16466
834.544	16527
834.682	16550
834.821	16481
834.959	16588
835.097	16474
835.235	16516
835.373	16481
835.511	16527
835.65	16459
835.788	16485
835.926	16325
836.064	16215
836.202	16265
836.34	16493
836.478	16588
836.615	16455
836.753	16538
836.891	16493
837.029	16527
837.167	16413
837.305	16478
837.443	16341
837.58	16272
837.718	16272
837.856	16341
837.993	16265
838.131	16280
838.269	16192
838.406	16158
838.544	16162
838.681	16025
838.819	16013
838.956	15888
839.094	15850
839.231	15873
839.369	16002
839.506	16200
839.643	16051
839.781	15937
839.918	15892
840.055	15857
840.193	15823
840.33	15854
840.467	15793
840.604	15956
840.742	16131
840.879	15732
841.016	15648
841.153	15743
841.29	15968
841.427	15960
841.564	15899
841.701	15835
841.838	15876
841.975	15698
842.112	15793
842.249	15690
842.385	15580
842.522	15846
842.659	15580
842.796	15694
842.933	15671
843.069	15595
843.206	15580
843.343	15648
843.479	15633
843.616	15667
843.752	15443
843.889	15416
844.025	15580
844.162	15367
844.298	15557
844.435	15431
844.571	15348
844.708	15515
844.844	15622
844.98	15705
845.117	15405
845.253	15348
845.389	15245
845.525	15321
845.661	15310
845.798	15241
845.934	15306
846.07	15135
846.206	15283
846.342	15454
846.478	15188
846.614	15051
846.75	14994
846.886	14956
847.022	15127
847.158	14944
847.294	15028
847.429	15070
847.565	14910
847.701	15154
847.837	14758
847.972	14746
848.108	14781
848.244	14769
848.379	14670
848.515	14571
848.65	14602
848.786	14598
848.921	14663
849.057	14648
849.192	14667
849.328	14651
849.463	14708
849.598	14598
849.734	14450
849.869	14495
850.004	14393
850.14	14488
850.275	14343
850.41	14339
850.545	14423
850.68	14282
850.815	14347
850.95	14374
851.085	14541
851.22	14579
851.355	14396
851.49	14362
851.625	14339
851.76	14294
851.895	14218
852.03	14267
852.165	14370
852.299	14301
852.434	14423
852.569	14347
852.703	14419
852.838	14457
852.973	14465
853.107	14492
853.242	14393
853.376	14267
853.511	14115
853.645	14172
853.78	14366
853.914	14271
854.048	14225
854.183	14225
854.317	14259
854.451	14412
854.585	14176
854.72	14126
854.854	14240
854.988	14077
855.122	14218
855.256	14176
855.39	14202
855.524	14396
855.658	14309
855.792	14218
855.926	14244
856.06	14324
856.194	14267
856.327	14278
856.461	14134
856.595	14225
856.729	14202
856.862	14351
856.996	14328
857.13	14191
857.263	14328
857.397	14309
857.53	14191
857.664	14252
857.797	14290
857.931	14271
858.064	14263
858.197	14328
858.331	14256
858.464	14195
858.597	14225
858.731	14142
858.864	14244
858.997	14210
859.13	14164
859.263	14206
859.396	14332
859.529	14206
859.662	14206
859.795	14088
859.928	14301
860.061	14393
860.194	14412
860.327	14309
860.46	14286
860.592	14313
860.725	14385
860.858	14377
860.99	14259
861.123	14157
861.256	14164
861.388	14248
861.521	14705
861.653	14088
861.786	14100
861.918	14096
862.05	14123
862.183	14202
862.315	14248
862.447	14317
862.58	14149
862.712	13993
862.844	13993
862.976	14084
863.108	14027
863.24	14328
863.372	14005
863.504	14046
863.636	14107
863.768	14058
863.9	13997
864.032	13936
864.164	14039
864.296	14100
864.428	14191
864.559	14164
864.691	14221
864.823	14088
864.954	14043
865.086	14187
865.217	13921
865.349	13932
865.48	14043
865.612	14077
865.743	14142
865.875	14065
866.006	14065
866.137	13921
866.269	14020
866.4	13928
866.531	14092
866.662	13974
866.793	13871
866.924	13951
867.055	13955
867.186	13959
867.317	13951
867.448	13837
867.579	13947
867.71	13974
867.841	13856
867.972	14024
868.103	13909
868.233	13959
868.364	14031
868.495	14221
868.625	14271
868.756	14328
868.886	14161
869.017	14176
869.147	14347
869.278	14461
869.408	14172
869.539	14305
869.669	14351
869.799	14244
869.929	14442
870.06	14339
870.19	14541
870.32	14579
870.45	14636
870.58	14629
870.71	14880
870.84	14815
870.97	14651
871.1	14697
871.23	14731
871.36	14883
871.489	14781
871.619	14819
871.749	14811
871.879	14963
872.008	14853
872.138	14845
872.267	14773
872.397	14739
872.526	14663
872.656	14613
872.785	14686
872.915	14925
873.044	14998
873.173	14830
873.303	14960
873.432	14914
873.561	14941
873.69	15070
873.819	14956
873.948	15058
874.077	14998
874.206	14944
874.335	14891
874.464	15077
874.593	15226
874.722	15135
874.851	15302
874.979	15146
875.108	15321
875.237	15135
875.365	15199
875.494	15116
875.623	15393
875.751	15161
875.88	15272
876.008	15302
876.136	15485
876.265	15739
876.393	15713
876.521	15755
876.65	15724
876.778	15618
876.906	15648
877.034	15610
877.162	15690
877.29	15538
877.418	15690
877.546	15587
877.674	15694
877.802	15614
877.93	15481
878.058	15584
878.185	15511
878.313	15580
878.441	15629
878.568	15538
878.696	15557
878.824	15652
878.951	15736
879.079	15816
879.206	15983
879.333	15701
879.461	15660
879.588	15614
879.715	15759
879.842	16029
879.97	15713
880.097	15462
880.224	15416
880.351	15481
880.478	15557
880.605	15500
880.732	15435
880.859	15759
880.986	15519
881.112	15580
881.239	15370
881.366	15332
881.493	15256
881.619	15173
881.746	15146
881.872	15062
881.999	15154
882.125	15226
882.252	15203
882.378	15226
882.505	15336
882.631	14971
882.757	14918
882.883	15020
883.01	14990
883.136	14944
883.262	14826
883.388	14830
883.514	15039
883.64	15051
883.766	14849
883.892	14811
884.018	14823
884.143	14952
884.269	14963
884.395	14777
884.52	14674
884.646	14667
884.772	14727
884.897	14606
885.023	14617
885.148	14739
885.274	14807
885.399	14792
885.524	14651
885.65	14708
885.775	14697
885.9	14716
886.025	14689
886.15	14724
886.275	14663
886.4	14507
886.525	14644
886.65	14621
886.775	14583
886.9	14819
887.025	14883
887.149	14617
887.274	14575
887.399	14484
887.523	14450
887.648	14412
887.773	14389
887.897	14598
888.021	14594
888.146	14427
888.27	14518
888.395	14739
888.519	14507
888.643	14590
888.767	14632
888.891	14434
889.015	14438
889.139	14423
889.263	14377
889.387	14473
889.511	14503
889.635	14476
889.759	14423
889.883	14259
890.006	14438
890.13	14469
890.254	14301
890.377	14225
890.501	14206
890.624	14119
890.748	14225
890.871	14088
890.995	14069
891.118	14043
891.241	14119
891.364	14145
891.488	14103
891.611	13936
891.734	14130
891.857	14062
891.98	14176
892.103	14240
892.226	14088
892.349	14069
892.471	13940
892.594	14081
892.717	14119
892.839	14050
892.962	14035
893.085	14138
893.207	14157
893.33	13963
893.452	13986
893.575	14123
893.697	14050
893.819	14267
893.941	14248
894.064	14267
894.186	14020
894.308	14054
894.43	14164
894.552	14214
894.674	14282
894.796	14062
894.918	14046
895.04	14130
895.161	14187
895.283	14229
895.405	14119
895.526	14180
895.648	14176
895.769	14237
895.891	14305
896.012	14317
896.134	14317
896.255	14298
896.376	14271
896.498	14233
896.619	14278
896.74	14298
896.861	14282
896.982	14503
897.103	14648
897.224	14488
897.345	14545
897.466	14415
897.587	14568
897.708	14590
897.828	14590
897.949	14457
898.07	14366
898.19	14488
898.311	14701
898.431	14446
898.552	14670
898.672	14682
898.792	14663
898.913	14590
899.033	14492
899.153	14408
899.273	14381
899.393	14366
899.513	14488
899.633	14499
899.753	14442
899.873	14438
899.993	14571
900.113	14476
900.232	14476
900.352	14492
900.472	14404
900.591	14271
900.711	14320
900.83	14248
900.95	14336
901.069	14404
901.189	14294
901.308	14073
901.427	13997
901.546	13993
901.665	13993
901.784	13963
901.904	13890
902.023	13772
902.141	13590
902.26	13582
902.379	13616
902.498	13487
902.617	13525
902.735	13696
902.854	13518
902.973	13510
903.091	13324
903.21	13228
903.328	13343
903.446	13270
903.565	13091
903.683	13149
903.801	13012
903.919	13053
904.038	13095
904.156	12947
904.274	13042
904.392	12924
904.51	12951
904.627	12894
904.745	12985
904.863	12989
904.981	12783
905.098	12555
905.216	12635
905.334	12681
905.451	12608
905.569	12589
905.686	12623
905.803	12658
905.921	12410
906.038	12551
906.155	12448
906.272	12350
906.389	12391
906.506	12243
906.623	12308
906.74	12194
906.857	12163
906.974	12144
907.091	12251
907.208	12327
907.324	12319
907.441	12125
907.557	11988
907.674	11946
907.79	11885
907.907	11935
908.023	11996
908.139	11961
908.256	11893
908.372	11866
908.488	11760
908.604	11733
908.72	11653
908.836	11703
908.952	11745
909.068	11745
909.184	11855
909.3	11714
909.415	11817
909.531	11699
909.647	11524
909.762	11509
909.878	11467
909.993	11539
910.108	11459
910.224	11524
910.339	11539
910.454	11452
910.57	11452
910.685	11299
910.8	11589
910.915	11497
911.03	11345
911.145	11216
911.259	11216
911.374	11235
911.489	11109
911.604	11102
911.718	10915
911.833	10930
911.947	10927
912.062	10809
912.176	10923
912.291	10999
912.405	11010
912.519	11147
912.633	11208
912.748	10987
912.862	11037
912.976	10805
913.09	10725
913.204	10805
913.318	10767
913.431	10881
913.545	10866
913.659	10980
913.772	10847
913.886	10675
914	10725
914.113	10812
914.226	10816
914.34	10835
914.453	10660
914.566	10824
914.68	10622
914.793	10653
914.906	10512
915.019	10504
915.132	10360
915.245	10493
915.358	10466
915.47	10462
915.583	10440
915.696	10546
915.809	10603
915.921	10592
916.034	10478
916.146	10398
916.259	10462
916.371	10497
916.483	10428
916.595	10325
916.708	10432
916.82	10405
916.932	10432
917.044	10367
917.156	10371
917.268	10253
917.38	10348
917.491	10284
917.603	10333
917.715	10356
917.826	10405
917.938	10299
918.049	10086
918.161	10268
918.272	10459
918.384	10348
918.495	10303
918.606	10215
918.717	10131
918.828	10185
918.939	10173
919.05	10147
919.161	10128
919.272	9934
919.383	10032
919.494	10249
919.604	10409
919.715	10162
919.826	10166
919.936	10131
920.047	10272
920.157	10230
920.267	10386
920.378	10261
920.488	10188
920.598	10424
920.708	10508
920.818	10360
920.928	10325
921.038	10577
921.148	10550
921.258	10223
921.368	10204
921.477	10090
921.587	9994
921.697	9949
921.806	10097
921.916	9960
922.025	9854
922.134	9789
922.244	9751
922.353	9808
922.462	9641
922.571	9587
922.68	9454
922.789	9443
922.898	9420
923.007	9367
923.116	9523
923.224	9408
923.333	9370
923.442	9344
923.55	9245
923.659	9397
923.767	9378
923.876	9214
923.984	9363
924.092	9241
924.201	9313
924.309	9351
924.417	9249
924.525	9287
924.633	9294
924.741	10249
924.849	9100
924.956	9211
925.064	9093
925.172	8979
925.279	9043
925.387	9097
925.494	9085
925.602	9218
925.709	9135
925.816	9032
925.924	9100
926.031	9184
926.138	9089
926.245	9157
926.352	9017
926.459	9142
926.566	9260
926.673	9001
926.779	8887
926.886	8963
926.993	8842
927.099	8731
927.206	8777
927.312	8781
927.419	8861
927.525	8838
927.631	8876
927.737	8766
927.843	8648
927.95	8613
928.056	8682
928.162	8708
928.267	8849
928.373	9420
928.479	8834
928.585	8541
928.69	8708
928.796	8735
928.901	8610
929.007	8518
929.112	8670
929.218	8610
929.323	8571
929.428	8568
929.533	8670
929.638	8469
929.743	8571
929.848	8594
929.953	8541
930.058	8434
930.163	8279
930.267	8294
930.372	8457
930.477	8252
930.581	8514
930.685	8396
930.79	8259
930.894	8271
930.998	8263
931.103	8393
931.207	8046
931.311	7982
931.415	7917
931.519	7742
931.623	7753
