Data from test_V78500241_2153.txt Node
Date: Fri Mar 25 14:48:42 CST 2022
User: usil
Spectrometer: V785-0024
Trigger mode: 0
Integration Time (sec): 4.000000E-1
Scans to average: 1
Nonlinearity correction enabled: false
Boxcar width: 0
Storing dark spectrum: false
XAxis mode: Wavelengths
Number of Pixels in Spectrum: 1024
>>>>>Begin Spectral Data<<<<<
801.071	22341
801.214	22074
801.356	21808
801.499	21705
801.641	21557
801.783	21553
801.926	21660
802.068	21519
802.211	21408
802.353	21367
802.496	21169
802.638	21070
802.78	21017
802.923	21001
803.065	20914
803.208	20899
803.35	20876
803.492	21020
803.635	21127
803.777	20891
803.919	20921
804.061	21275
804.204	21077
804.346	20842
804.488	20807
804.63	20857
804.773	20667
804.915	20834
805.057	20998
805.199	20864
805.341	20944
805.483	20967
805.626	20921
805.768	20853
805.91	20849
806.052	20941
806.194	20823
806.336	20952
806.478	20796
806.62	20811
806.762	20990
806.904	20982
807.046	21397
807.188	21195
807.33	21233
807.472	21093
807.614	21066
807.756	21051
807.898	20990
808.04	20853
808.182	20914
808.324	20948
808.465	21096
808.607	21127
808.749	21233
808.891	21279
809.033	21344
809.174	21245
809.316	21214
809.458	21291
809.6	21241
809.741	21249
809.883	21279
810.025	21500
810.166	21397
810.308	21382
810.45	21275
810.591	21203
810.733	20982
810.875	20982
811.016	20948
811.158	20864
811.299	21039
811.441	21116
811.582	21104
811.724	21047
811.865	21017
812.007	20933
812.148	20986
812.29	21028
812.431	21237
812.573	21386
812.714	21321
812.855	21549
812.997	21526
813.138	21747
813.279	21538
813.421	21511
813.562	21439
813.703	21256
813.845	21150
813.986	20952
814.127	20712
814.268	20602
814.41	20560
814.551	20503
814.692	20750
814.833	20564
814.974	20476
815.115	20594
815.256	20370
815.397	20358
815.539	20533
815.68	20396
815.821	20351
815.962	20336
816.103	20286
816.244	20092
816.385	19978
816.526	20096
816.666	19921
816.807	19666
816.948	19765
817.089	19734
817.23	19662
817.371	19746
817.512	19609
817.653	19597
817.793	19616
817.934	19662
818.075	19597
818.216	19567
818.356	19628
818.497	19487
818.638	19384
818.778	19266
818.919	19483
819.06	19441
819.2	19525
819.341	19441
819.481	19464
819.622	19727
819.762	19921
819.903	19799
820.043	19723
820.184	19757
820.324	19643
820.465	19761
820.605	19655
820.746	19624
820.886	19556
821.026	19662
821.167	19719
821.307	19662
821.447	19563
821.588	19468
821.728	19392
821.868	19194
822.008	18985
822.149	18981
822.289	19057
822.429	18802
822.569	18673
822.709	18768
822.849	18540
822.99	18445
823.13	18486
823.27	18525
823.41	18296
823.55	18300
823.69	18369
823.83	18254
823.97	18308
824.11	18232
824.25	18194
824.389	18102
824.529	18152
824.669	18148
824.809	18121
824.949	18186
825.089	18235
825.228	18171
825.368	17920
825.508	17920
825.648	18060
825.787	18015
825.927	18019
826.067	17973
826.206	17798
826.346	17863
826.485	17912
826.625	17840
826.765	17931
826.904	17988
827.044	17745
827.183	17600
827.323	17509
827.462	17646
827.601	17661
827.741	17566
827.88	17592
828.02	17436
828.159	17642
828.298	17615
828.437	17661
828.577	17478
828.716	17718
828.855	17570
828.994	17455
829.134	17421
829.273	17455
829.412	17246
829.551	17261
829.69	17296
829.829	17296
829.968	17402
830.107	17395
830.246	17307
830.385	17307
830.524	17200
830.663	17178
830.802	16995
830.941	16900
831.08	16866
831.219	16995
831.357	17098
831.496	17147
831.635	16965
831.774	16911
831.913	16782
832.051	16790
832.19	16694
832.329	16767
832.467	16592
832.606	16588
832.744	16573
832.883	16618
833.022	16649
833.16	16710
833.299	16763
833.437	16607
833.576	16744
833.714	16702
833.852	16759
833.991	16782
834.129	16733
834.267	16687
834.406	16683
834.544	16702
834.682	16748
834.821	16706
834.959	16885
835.097	16649
835.235	16835
835.373	16599
835.511	16649
835.65	16497
835.788	16546
835.926	16462
836.064	16421
836.202	16375
836.34	16618
836.478	16698
836.615	16577
836.753	16577
836.891	16748
837.029	16645
837.167	16596
837.305	16523
837.443	16550
837.58	16432
837.718	16561
837.856	16470
837.993	16398
838.131	16428
838.269	16409
838.406	16402
838.544	16402
838.681	16310
838.819	16188
838.956	16010
839.094	15949
839.231	16173
839.369	16074
839.506	16398
839.643	16257
839.781	16078
839.918	16010
840.055	16044
840.193	16067
840.33	16124
840.467	15979
840.604	16010
840.742	16272
840.879	15793
841.016	15835
841.153	15873
841.29	16120
841.427	16006
841.564	16025
841.701	16116
841.838	16002
841.975	16010
842.112	15953
842.249	15774
842.385	15770
842.522	16044
842.659	15895
842.796	15739
842.933	15785
843.069	15785
843.206	15644
843.343	15789
843.479	15728
843.616	15846
843.752	15603
843.889	15488
844.025	15705
844.162	15538
844.298	15610
844.435	15564
844.571	15564
844.708	15641
844.844	15747
844.98	15709
845.117	15603
845.253	15523
845.389	15450
845.525	15523
845.661	15500
845.798	15439
845.934	15466
846.07	15321
846.206	15329
846.342	15542
846.478	15397
846.614	15203
846.75	15154
846.886	15036
847.022	15199
847.158	15100
847.294	15138
847.429	15142
847.565	15233
847.701	15431
847.837	14963
847.972	14918
848.108	15005
848.244	14887
848.379	14838
848.515	14754
848.65	14845
848.786	14777
848.921	14758
849.057	14788
849.192	14769
849.328	14697
849.463	14765
849.598	14678
849.734	14701
849.869	14678
850.004	14507
850.14	14552
850.275	14419
850.41	14419
850.545	14438
850.68	14526
850.815	14587
850.95	14507
851.085	14655
851.22	14625
851.355	14393
851.49	14457
851.625	14385
851.76	14374
851.895	14396
852.03	14385
852.165	14465
852.299	14499
852.434	14625
852.569	14530
852.703	14503
852.838	14533
852.973	14621
853.107	14678
853.242	14457
853.376	14412
853.511	14229
853.645	14377
853.78	14514
853.914	14419
854.048	14313
854.183	14358
854.317	14370
854.451	14511
854.585	14393
854.72	14324
854.854	14434
854.988	14244
855.122	14434
855.256	14271
855.39	14370
855.524	14465
855.658	14419
855.792	14305
855.926	14377
856.06	14427
856.194	14438
856.327	14362
856.461	14313
856.595	14320
856.729	14370
856.862	14454
856.996	14499
857.13	14351
857.263	14442
857.397	14484
857.53	14427
857.664	14503
857.797	14438
857.931	14583
858.064	14358
858.197	14530
858.331	14400
858.464	14381
858.597	14320
858.731	14412
858.864	14309
858.997	14381
859.13	14404
859.263	14419
859.396	14575
859.529	14381
859.662	14336
859.795	14259
859.928	14412
860.061	14560
860.194	14518
860.327	14408
860.46	14381
860.592	14537
860.725	14590
860.858	14495
860.99	14332
861.123	14389
861.256	14290
861.388	14351
861.521	15024
861.653	14317
861.786	14248
861.918	14229
862.05	14305
862.183	14351
862.315	14400
862.447	14362
862.58	14370
862.712	14088
862.844	14134
862.976	14187
863.108	14278
863.24	14579
863.372	14039
863.504	14206
863.636	14149
863.768	14259
863.9	14119
864.032	14081
864.164	14065
864.296	14244
864.428	14229
864.559	14313
864.691	14271
864.823	14240
864.954	14240
865.086	14103
865.217	14050
865.349	14084
865.48	14069
865.612	14142
865.743	14298
865.875	14138
866.006	14043
866.137	14233
866.269	14218
866.4	14206
866.531	14039
866.662	14058
866.793	14172
866.924	13906
867.055	14115
867.186	14103
867.317	14077
867.448	14046
867.579	14062
867.71	14020
867.841	14039
867.972	14103
868.103	14088
868.233	14142
868.364	14073
868.495	14115
868.625	14400
868.756	14419
868.886	14313
869.017	14393
869.147	14530
869.278	14461
869.408	14362
869.539	14446
869.669	14457
869.799	14533
869.929	14499
870.06	14454
870.19	14705
870.32	14743
870.45	14697
870.58	14785
870.71	14762
870.84	14842
870.97	14826
871.1	14720
871.23	14994
871.36	15047
871.489	14990
871.619	14956
871.749	15013
871.879	14975
872.008	15066
872.138	14986
872.267	14941
872.397	14807
872.526	14830
872.656	14785
872.785	14815
872.915	15131
873.044	15028
873.173	14952
873.303	15043
873.432	15188
873.561	15237
873.69	15020
873.819	15039
873.948	15195
874.077	15043
874.206	15028
874.335	15081
874.464	15195
874.593	15359
874.722	15211
874.851	15306
874.979	15447
875.108	15420
875.237	15245
875.365	15340
875.494	15272
875.623	15462
875.751	15355
875.88	15431
876.008	15568
876.136	15519
876.265	15766
876.393	15945
876.521	15884
876.65	15846
876.778	15766
876.906	15774
877.034	15690
877.162	15770
877.29	15660
877.418	15728
877.546	15785
877.674	15736
877.802	15732
877.93	15854
878.058	15770
878.185	15652
878.313	15720
878.441	15766
878.568	15652
878.696	15675
878.824	15751
878.951	15869
879.079	16017
879.206	16143
879.333	15975
879.461	15755
879.588	15911
879.715	16025
879.842	16067
879.97	15819
880.097	15553
880.224	15675
880.351	15663
880.478	15679
880.605	15526
880.732	15641
880.859	15804
880.986	15568
881.112	15660
881.239	15507
881.366	15420
881.493	15294
881.619	15317
881.746	15287
881.872	15256
881.999	15268
882.125	15260
882.252	15408
882.378	15317
882.505	15454
882.631	15233
882.757	15097
882.883	15135
883.01	15135
883.136	15051
883.262	15024
883.388	14979
883.514	15032
883.64	15104
883.766	15017
883.892	14861
884.018	14914
884.143	15058
884.269	15214
884.395	14804
884.52	14800
884.646	14842
884.772	14746
884.897	14686
885.023	14819
885.148	14891
885.274	14967
885.399	14933
885.524	14815
885.65	14739
885.775	14849
885.9	14830
886.025	14876
886.15	14769
886.275	14765
886.4	14640
886.525	14815
886.65	14720
886.775	14705
886.9	14975
887.025	15097
887.149	14826
887.274	14648
887.399	14473
887.523	14667
887.648	14511
887.773	14465
887.897	14686
888.021	14697
888.146	14564
888.27	14716
888.395	14674
888.519	14602
888.643	14632
888.767	14754
888.891	14552
889.015	14526
889.139	14503
889.263	14404
889.387	14602
889.511	14739
889.635	14598
889.759	14469
889.883	14465
890.006	14571
890.13	14522
890.254	14408
890.377	14431
890.501	14347
890.624	14275
890.748	14347
890.871	14214
890.995	14115
891.118	14062
891.241	14142
891.364	14168
891.488	14240
891.611	14119
891.734	14229
891.857	14240
891.98	14282
892.103	14317
892.226	14168
892.349	14218
892.471	14058
892.594	14191
892.717	14195
892.839	14206
892.962	14237
893.085	14229
893.207	14138
893.33	14039
893.452	14149
893.575	14237
893.697	14172
893.819	14294
893.941	14446
894.064	14446
894.186	14138
894.308	14176
894.43	14275
894.552	14347
894.674	14324
894.796	14111
894.918	14309
895.04	14111
895.161	14271
895.283	14370
895.405	14233
895.526	14240
895.648	14381
895.769	14278
895.891	14294
896.012	14404
896.134	14374
896.255	14252
896.376	14248
896.498	14355
896.619	14400
896.74	14370
896.861	14442
896.982	14625
897.103	14872
897.224	14705
897.345	14617
897.466	14518
897.587	14735
897.708	14823
897.828	14568
897.949	14526
898.07	14552
898.19	14617
898.311	14735
898.431	14667
898.552	14777
898.672	14758
898.792	14758
898.913	14777
899.033	14640
899.153	14499
899.273	14431
899.393	14606
899.513	14518
899.633	14514
899.753	14552
899.873	14526
899.993	14648
900.113	14526
900.232	14663
900.352	14450
900.472	14412
900.591	14355
900.711	14454
900.83	14351
900.95	14518
901.069	14503
901.189	14317
901.308	14130
901.427	13951
901.546	14157
901.665	14210
901.784	14069
901.904	13997
902.023	13814
902.141	13776
902.26	13700
902.379	13750
902.498	13491
902.617	13578
902.735	13620
902.854	13632
902.973	13613
903.091	13388
903.21	13400
903.328	13415
903.446	13324
903.565	13171
903.683	13350
903.801	13244
903.919	13225
904.038	13282
904.156	13038
904.274	13050
904.392	13000
904.51	13000
904.627	13046
904.745	13160
904.863	13065
904.981	12878
905.098	12776
905.216	12741
905.334	12783
905.451	12734
905.569	12688
905.686	12764
905.803	12711
905.921	12483
906.038	12574
906.155	12635
906.272	12448
906.389	12448
906.506	12285
906.623	12262
906.74	12296
906.857	12262
906.974	12296
907.091	12452
907.208	12506
907.324	12429
907.441	12258
907.557	12053
907.674	12140
907.79	11980
907.907	12034
908.023	12178
908.139	12064
908.256	12133
908.372	11999
908.488	11973
908.604	11843
908.72	11760
908.836	11817
908.952	11882
909.068	11866
909.184	11973
909.3	11863
909.415	11885
909.531	11802
909.647	11600
909.762	11615
909.878	11642
909.993	11604
910.108	11520
910.224	11490
910.339	11535
910.454	11471
910.57	11452
910.685	11379
910.8	11703
910.915	11581
911.03	11467
911.145	11246
911.259	11273
911.374	11284
911.489	11265
911.604	11288
911.718	11056
911.833	10976
911.947	10877
912.062	10774
912.176	11056
912.291	11056
912.405	11048
912.519	11246
912.633	11204
912.748	11124
912.862	11128
912.976	10911
913.09	10835
913.204	10866
913.318	10896
913.431	11048
913.545	11018
913.659	11067
913.772	11029
913.886	10790
914	10767
914.113	10812
914.226	10968
914.34	10934
914.453	10710
914.566	10942
914.68	10710
914.793	10774
914.906	10584
915.019	10542
915.132	10459
915.245	10611
915.358	10580
915.47	10535
915.583	10634
915.696	10580
915.809	10656
915.921	10748
916.034	10554
916.146	10481
916.259	10497
916.371	10637
916.483	10550
916.595	10466
916.708	10478
916.82	10451
916.932	10421
917.044	10470
917.156	10459
917.268	10341
917.38	10432
917.491	10398
917.603	10379
917.715	10363
917.826	10519
917.938	10379
918.049	10211
918.161	10371
918.272	10500
918.384	10485
918.495	10398
918.606	10227
918.717	10227
918.828	10246
918.939	10261
919.05	10162
919.161	10207
919.272	10086
919.383	10078
919.494	10329
919.604	10504
919.715	10265
919.826	10188
919.936	10318
920.047	10329
920.157	10242
920.267	10390
920.378	10287
920.488	10215
920.598	10516
920.708	10611
920.818	10466
920.928	10424
921.038	10618
921.148	10516
921.258	10310
921.368	10173
921.477	10139
921.587	10154
921.697	10036
921.806	10169
921.916	9972
922.025	9835
922.134	9838
922.244	9694
922.353	9842
922.462	9679
922.571	9656
922.68	9553
922.789	9496
922.898	9561
923.007	9466
923.116	9492
923.224	9526
923.333	9496
923.442	9466
923.55	9332
923.659	9420
923.767	9530
923.876	9386
923.984	9481
924.092	9348
924.201	9317
924.309	9397
924.417	9374
924.525	9355
924.633	9374
924.741	10059
924.849	9081
924.956	9359
925.064	9169
925.172	9066
925.279	9161
925.387	9184
925.494	9104
925.602	9359
925.709	9321
925.816	9070
925.924	9176
926.031	9302
926.138	9165
926.245	9233
926.352	9097
926.459	9222
926.566	9268
926.673	9135
926.779	9005
926.886	9093
926.993	8830
927.099	8857
927.206	8849
927.312	8785
927.419	8963
927.525	8902
927.631	8906
927.737	8815
927.843	8735
927.95	8705
928.056	8743
928.162	8777
928.267	8842
928.373	9332
928.479	8819
928.585	8629
928.69	8788
928.796	8769
928.901	8712
929.007	8571
929.112	8701
929.218	8712
929.323	8636
929.428	8571
929.533	8796
929.638	8522
929.743	8575
929.848	8640
929.953	8598
930.058	8526
930.163	8355
930.267	8389
930.372	8522
930.477	8385
930.581	8530
930.685	8408
930.79	8336
930.894	8336
930.998	8286
931.103	8499
931.207	8145
931.311	8062
931.415	7917
931.519	7841
931.623	7811
