Data from test_V78500241_1896.txt Node
Date: Fri Mar 25 14:46:54 CST 2022
User: usil
Spectrometer: V785-0024
Trigger mode: 0
Integration Time (sec): 4.000000E-1
Scans to average: 1
Nonlinearity correction enabled: false
Boxcar width: 0
Storing dark spectrum: false
XAxis mode: Wavelengths
Number of Pixels in Spectrum: 1024
>>>>>Begin Spectral Data<<<<<
801.071	22059
801.214	22006
801.356	21701
801.499	21656
801.641	21458
801.783	21473
801.926	21523
802.068	21348
802.211	21298
802.353	21146
802.496	21169
802.638	21070
802.78	20952
802.923	20921
803.065	20758
803.208	20765
803.35	20708
803.492	20815
803.635	20929
803.777	20769
803.919	20937
804.061	21062
804.204	20880
804.346	20777
804.488	20800
804.63	20941
804.773	20640
804.915	20838
805.057	20895
805.199	20773
805.341	20792
805.483	20800
805.626	20845
805.768	20663
805.91	20743
806.052	20731
806.194	20579
806.336	20857
806.478	20625
806.62	20655
806.762	20762
806.904	20864
807.046	21047
807.188	21001
807.33	20979
807.472	21096
807.614	20902
807.756	20952
807.898	20929
808.04	20762
808.182	20720
808.324	20750
808.465	20887
808.607	20891
808.749	21199
808.891	21169
809.033	21310
809.174	21161
809.316	21138
809.458	21093
809.6	21017
809.741	21108
809.883	21230
810.025	21241
810.166	21252
810.308	21207
810.45	21188
810.591	21211
810.733	20975
810.875	20823
811.016	20834
811.158	20785
811.299	20918
811.441	20998
811.582	20952
811.724	20933
811.865	20815
812.007	20800
812.148	20883
812.29	20994
812.431	21005
812.573	21192
812.714	21279
812.855	21294
812.997	21443
813.138	21450
813.279	21447
813.421	21450
813.562	21287
813.703	21180
813.845	20998
813.986	20765
814.127	20629
814.268	20560
814.41	20431
814.551	20404
814.692	20450
814.833	20476
814.974	20366
815.115	20286
815.256	20218
815.397	20168
815.539	20256
815.68	20263
815.821	19997
815.962	20161
816.103	20065
816.244	19947
816.385	19841
816.526	19849
816.666	19746
816.807	19537
816.948	19594
817.089	19655
817.23	19529
817.371	19605
817.512	19609
817.653	19537
817.793	19434
817.934	19563
818.075	19609
818.216	19605
818.356	19533
818.497	19388
818.638	19168
818.778	19194
818.919	19175
819.06	19304
819.2	19308
819.341	19282
819.481	19407
819.622	19590
819.762	19734
819.903	19696
820.043	19601
820.184	19552
820.324	19506
820.465	19502
820.605	19533
820.746	19502
820.886	19441
821.026	19647
821.167	19559
821.307	19620
821.447	19396
821.588	19331
821.728	19297
821.868	19091
822.008	18966
822.149	18856
822.289	18878
822.429	18711
822.569	18574
822.709	18582
822.849	18555
822.99	18388
823.13	18426
823.27	18334
823.41	18338
823.55	18205
823.69	18220
823.83	18315
823.97	18213
824.11	17999
824.25	17980
824.389	17954
824.529	18098
824.669	18045
824.809	18098
824.949	18079
825.089	18022
825.228	18057
825.368	17737
825.508	17756
825.648	17752
825.787	17855
825.927	17798
826.067	17714
826.206	17722
826.346	17874
826.485	17767
826.625	17790
826.765	17904
826.904	17710
827.044	17649
827.183	17558
827.323	17421
827.462	17547
827.601	17467
827.741	17429
827.88	17478
828.02	17379
828.159	17349
828.298	17539
828.437	17562
828.577	17345
828.716	17623
828.855	17402
828.994	17356
829.134	17246
829.273	17265
829.412	17280
829.551	17140
829.69	17193
829.829	17337
829.968	17429
830.107	17254
830.246	17204
830.385	17200
830.524	17159
830.663	17064
830.802	16934
830.941	16869
831.08	16805
831.219	16938
831.357	16923
831.496	16968
831.635	16915
831.774	16725
831.913	16847
832.051	16691
832.19	16641
832.329	16748
832.467	16497
832.606	16474
832.744	16569
832.883	16546
833.022	16592
833.16	16565
833.299	16538
833.437	16451
833.576	16660
833.714	16679
833.852	16660
833.991	16584
834.129	16641
834.267	16588
834.406	16561
834.544	16577
834.682	16599
834.821	16523
834.959	16805
835.097	16527
835.235	16763
835.373	16679
835.511	16660
835.65	16573
835.788	16535
835.926	16459
836.064	16325
836.202	16424
836.34	16531
836.478	16672
836.615	16519
836.753	16584
836.891	16645
837.029	16603
837.167	16474
837.305	16493
837.443	16352
837.58	16405
837.718	16535
837.856	16360
837.993	16360
838.131	16390
838.269	16356
838.406	16363
838.544	16230
838.681	16143
838.819	16055
838.956	15953
839.094	15915
839.231	16002
839.369	16105
839.506	16314
839.643	16181
839.781	15956
839.918	15918
840.055	16036
840.193	16032
840.33	16025
840.467	15922
840.604	15876
840.742	16143
840.879	15770
841.016	15747
841.153	15838
841.29	16048
841.427	15968
841.564	15972
841.701	15983
841.838	15907
841.975	15823
842.112	15762
842.249	15709
842.385	15774
842.522	15994
842.659	15827
842.796	15759
842.933	15739
843.069	15717
843.206	15766
843.343	15865
843.479	15739
843.616	15709
843.752	15591
843.889	15488
844.025	15671
844.162	15538
844.298	15633
844.435	15500
844.571	15462
844.708	15606
844.844	15660
844.98	15637
845.117	15739
845.253	15511
845.389	15435
845.525	15591
845.661	15469
845.798	15313
845.934	15397
846.07	15325
846.206	15329
846.342	15370
846.478	15340
846.614	15127
846.75	15131
846.886	15104
847.022	15169
847.158	15100
847.294	14998
847.429	15097
847.565	15024
847.701	15405
847.837	14746
847.972	14735
848.108	15036
848.244	14842
848.379	14762
848.515	14785
848.65	14670
848.786	14648
848.921	14682
849.057	14823
849.192	14826
849.328	14708
849.463	14758
849.598	14743
849.734	14560
849.869	14564
850.004	14484
850.14	14442
850.275	14492
850.41	14396
850.545	14351
850.68	14423
850.815	14533
850.95	14454
851.085	14727
851.22	14575
851.355	14446
851.49	14412
851.625	14423
851.76	14457
851.895	14339
852.03	14412
852.165	14442
852.299	14530
852.434	14545
852.569	14526
852.703	14495
852.838	14621
852.973	14606
853.107	14552
853.242	14454
853.376	14298
853.511	14233
853.645	14244
853.78	14461
853.914	14309
854.048	14389
854.183	14347
854.317	14320
854.451	14571
854.585	14275
854.72	14339
854.854	14404
854.988	14248
855.122	14286
855.256	14248
855.39	14218
855.524	14412
855.658	14389
855.792	14366
855.926	14438
856.06	14324
856.194	14355
856.327	14374
856.461	14248
856.595	14408
856.729	14385
856.862	14381
856.996	14370
857.13	14404
857.263	14423
857.397	14473
857.53	14290
857.664	14396
857.797	14377
857.931	14381
858.064	14404
858.197	14389
858.331	14336
858.464	14412
858.597	14233
858.731	14286
858.864	14199
858.997	14332
859.13	14301
859.263	14317
859.396	14507
859.529	14370
859.662	14271
859.795	14324
859.928	14442
860.061	14446
860.194	14610
860.327	14400
860.46	14301
860.592	14355
860.725	14644
860.858	14499
860.99	14317
861.123	14256
861.256	14324
861.388	14396
861.521	15009
861.653	14214
861.786	14054
861.918	14134
862.05	14286
862.183	14267
862.315	14309
862.447	14419
862.58	14233
862.712	14157
862.844	14046
862.976	14187
863.108	14145
863.24	14511
863.372	14024
863.504	14183
863.636	14020
863.768	14278
863.9	14016
864.032	14058
864.164	13982
864.296	14161
864.428	14202
864.559	14168
864.691	14134
864.823	14119
864.954	14187
865.086	14126
865.217	14123
865.349	14157
865.48	14195
865.612	14111
865.743	14214
865.875	14005
866.006	14077
866.137	14123
866.269	14119
866.4	14130
866.531	13997
866.662	14161
866.793	14096
866.924	14073
867.055	14168
867.186	14103
867.317	14100
867.448	13860
867.579	14084
867.71	14054
867.841	13989
867.972	14180
868.103	14153
868.233	14119
868.364	14187
868.495	14191
868.625	14286
868.756	14355
868.886	14244
869.017	14309
869.147	14446
869.278	14454
869.408	14298
869.539	14328
869.669	14427
869.799	14473
869.929	14442
870.06	14476
870.19	14636
870.32	14602
870.45	14777
870.58	14887
870.71	14834
870.84	14864
870.97	14777
871.1	14670
871.23	14861
871.36	15051
871.489	14758
871.619	14944
871.749	14918
871.879	15017
872.008	15009
872.138	14906
872.267	14982
872.397	14826
872.526	14773
872.656	14765
872.785	14765
872.915	14982
873.044	14956
873.173	14948
873.303	14979
873.432	15112
873.561	15032
873.69	15017
873.819	14933
873.948	15081
874.077	15085
874.206	15005
874.335	15058
874.464	15104
874.593	15321
874.722	15298
874.851	15291
874.979	15416
875.108	15310
875.237	15249
875.365	15226
875.494	15321
875.623	15317
875.751	15272
875.88	15336
876.008	15485
876.136	15466
876.265	15732
876.393	15895
876.521	15759
876.65	15854
876.778	15793
876.906	15648
877.034	15644
877.162	15747
877.29	15663
877.418	15736
877.546	15644
877.674	15682
877.802	15686
877.93	15808
878.058	15713
878.185	15530
878.313	15751
878.441	15690
878.568	15587
878.696	15717
878.824	15743
878.951	15694
879.079	15949
879.206	16071
879.333	15895
879.461	15869
879.588	15846
879.715	15975
879.842	15956
879.97	15823
880.097	15610
880.224	15557
880.351	15530
880.478	15686
880.605	15614
880.732	15530
880.859	15903
880.986	15641
881.112	15557
881.239	15428
881.366	15378
881.493	15302
881.619	15252
881.746	15336
881.872	15256
881.999	15188
882.125	15131
882.252	15127
882.378	15283
882.505	15367
882.631	15195
882.757	15013
882.883	15116
883.01	15123
883.136	15017
883.262	14758
883.388	14826
883.514	14994
883.64	15138
883.766	14982
883.892	14815
884.018	14845
884.143	14937
884.269	15097
884.395	14887
884.52	14773
884.646	14750
884.772	14731
884.897	14670
885.023	14731
885.148	14800
885.274	14872
885.399	14883
885.524	14773
885.65	14663
885.775	14842
885.9	14785
886.025	14876
886.15	14739
886.275	14716
886.4	14651
886.525	14804
886.65	14674
886.775	14727
886.9	14891
887.025	15062
887.149	14758
887.274	14613
887.399	14579
887.523	14571
887.648	14484
887.773	14514
887.897	14670
888.021	14545
888.146	14564
888.27	14830
888.395	14800
888.519	14644
888.643	14644
888.767	14632
888.891	14473
889.015	14473
889.139	14511
889.263	14434
889.387	14564
889.511	14613
889.635	14587
889.759	14412
889.883	14374
890.006	14484
890.13	14583
890.254	14339
890.377	14454
890.501	14324
890.624	14229
890.748	14278
890.871	14183
890.995	14145
891.118	13978
891.241	14111
891.364	14176
891.488	14290
891.611	14119
891.734	14111
891.857	14240
891.98	14180
892.103	14210
892.226	14199
892.349	14081
892.471	13940
892.594	14168
892.717	14138
892.839	14221
892.962	14172
893.085	14233
893.207	14191
893.33	14001
893.452	14043
893.575	14248
893.697	14157
893.819	14244
893.941	14248
894.064	14256
894.186	14161
894.308	14145
894.43	14237
894.552	14301
894.674	14202
894.796	14035
894.918	14199
895.04	14244
895.161	14267
895.283	14252
895.405	14111
895.526	14263
895.648	14313
895.769	14301
895.891	14286
896.012	14313
896.134	14290
896.255	14263
896.376	14282
896.498	14339
896.619	14385
896.74	14400
896.861	14438
896.982	14606
897.103	14792
897.224	14621
897.345	14568
897.466	14499
897.587	14571
897.708	14773
897.828	14617
897.949	14530
898.07	14507
898.19	14579
898.311	14724
898.431	14625
898.552	14613
898.672	14708
898.792	14762
898.913	14712
899.033	14606
899.153	14450
899.273	14400
899.393	14473
899.513	14488
899.633	14514
899.753	14560
899.873	14545
899.993	14682
900.113	14427
900.232	14571
900.352	14438
900.472	14492
900.591	14366
900.711	14412
900.83	14389
900.95	14415
901.069	14484
901.189	14370
901.308	14088
901.427	14096
901.546	14043
901.665	14145
901.784	14119
901.904	13932
902.023	13799
902.141	13685
902.26	13609
902.379	13750
902.498	13582
902.617	13518
902.735	13674
902.854	13594
902.973	13578
903.091	13324
903.21	13320
903.328	13403
903.446	13282
903.565	13202
903.683	13183
903.801	13118
903.919	13194
904.038	13179
904.156	13057
904.274	13069
904.392	13031
904.51	12958
904.627	13053
904.745	13031
904.863	13053
904.981	12764
905.098	12696
905.216	12715
905.334	12738
905.451	12707
905.569	12692
905.686	12821
905.803	12589
905.921	12452
906.038	12582
906.155	12498
906.272	12498
906.389	12372
906.506	12342
906.623	12296
906.74	12243
906.857	12072
906.974	12228
907.091	12315
907.208	12365
907.324	12243
907.441	12175
907.557	12049
907.674	12057
907.79	12060
907.907	11988
908.023	11984
908.139	12064
908.256	11999
908.372	11980
908.488	12026
908.604	11760
908.72	11855
908.836	11912
908.952	11798
909.068	11805
909.184	11836
909.3	11710
909.415	11859
909.531	11866
909.647	11562
909.762	11623
909.878	11482
909.993	11585
910.108	11570
910.224	11543
910.339	11627
910.454	11467
910.57	11463
910.685	11429
910.8	11634
910.915	11608
911.03	11467
911.145	11345
911.259	11220
911.374	11277
911.489	11280
911.604	11189
911.718	10984
911.833	11079
911.947	10953
912.062	10820
912.176	11022
912.291	11025
912.405	11060
912.519	11216
912.633	11239
912.748	11075
912.862	11022
912.976	10892
913.09	10752
913.204	10828
913.318	10953
913.431	10995
913.545	10957
913.659	11094
913.772	10923
913.886	10706
914	10736
914.113	10904
914.226	10953
914.34	10809
914.453	10714
914.566	10877
914.68	10793
914.793	10721
914.906	10531
915.019	10470
915.132	10382
915.245	10550
915.358	10561
915.47	10607
915.583	10565
915.696	10569
915.809	10603
915.921	10645
916.034	10512
916.146	10481
916.259	10481
916.371	10565
916.483	10519
916.595	10489
916.708	10481
916.82	10421
916.932	10455
917.044	10390
917.156	10394
917.268	10398
917.38	10424
917.491	10325
917.603	10386
917.715	10382
917.826	10459
917.938	10280
918.049	10295
918.161	10341
918.272	10504
918.384	10455
918.495	10394
918.606	10329
918.717	10207
918.828	10272
918.939	10268
919.05	10215
919.161	10173
919.272	10105
919.383	10112
919.494	10211
919.604	10462
919.715	10207
919.826	10242
919.936	10257
920.047	10280
920.157	10284
920.267	10424
920.378	10322
920.488	10246
920.598	10512
920.708	10504
920.818	10489
920.928	10459
921.038	10626
921.148	10573
921.258	10268
921.368	10188
921.477	10086
921.587	10059
921.697	10002
921.806	10116
921.916	9994
922.025	9800
922.134	9846
922.244	9740
922.353	9827
922.462	9648
922.571	9584
922.68	9458
922.789	9549
922.898	9542
923.007	9500
923.116	9557
923.224	9561
923.333	9515
923.442	9367
923.55	9298
923.659	9450
923.767	9431
923.876	9317
923.984	9435
924.092	9298
924.201	9351
924.309	9351
924.417	9405
924.525	9310
924.633	9348
924.741	10284
924.849	9169
924.956	9332
925.064	9157
925.172	9028
925.279	9077
925.387	9165
925.494	9176
925.602	9298
925.709	9218
925.816	9058
925.924	9108
926.031	9260
926.138	9089
926.245	9173
926.352	9024
926.459	9256
926.566	9260
926.673	9089
926.779	9001
926.886	9001
926.993	8876
927.099	8845
927.206	8792
927.312	8788
927.419	9013
927.525	8868
927.631	8960
927.737	8773
927.843	8834
927.95	8621
928.056	8678
928.162	8769
928.267	8773
928.373	9283
928.479	8857
928.585	8598
928.69	8701
928.796	8785
928.901	8640
929.007	8556
929.112	8758
929.218	8655
929.323	8587
929.428	8594
929.533	8796
929.638	8552
929.743	8587
929.848	8670
929.953	8587
930.058	8499
930.163	8324
930.267	8351
930.372	8492
930.477	8343
930.581	8526
930.685	8473
930.79	8294
930.894	8328
930.998	8263
931.103	8419
931.207	8077
931.311	8100
931.415	7928
931.519	7830
931.623	7864
