Data from test_V78500241_2678.txt Node
Date: Fri Mar 25 14:52:21 CST 2022
User: usil
Spectrometer: V785-0024
Trigger mode: 0
Integration Time (sec): 4.000000E-1
Scans to average: 1
Nonlinearity correction enabled: false
Boxcar width: 0
Storing dark spectrum: false
XAxis mode: Wavelengths
Number of Pixels in Spectrum: 1024
>>>>>Begin Spectral Data<<<<<
801.071	22013
801.214	21831
801.356	21679
801.499	21507
801.641	21420
801.783	21256
801.926	21363
802.068	21310
802.211	21207
802.353	21252
802.496	20933
802.638	20868
802.78	20918
802.923	20746
803.065	20564
803.208	20613
803.35	20682
803.492	20754
803.635	20880
803.777	20724
803.919	20750
804.061	21089
804.204	20773
804.346	20651
804.488	20499
804.63	20651
804.773	20575
804.915	20579
805.057	20632
805.199	20648
805.341	20663
805.483	20724
805.626	20686
805.768	20552
805.91	20640
806.052	20598
806.194	20431
806.336	20686
806.478	20575
806.62	20648
806.762	20598
806.904	20864
807.046	20971
807.188	21013
807.33	21085
807.472	21032
807.614	20849
807.756	20956
807.898	20674
808.04	20621
808.182	20777
808.324	20613
808.465	20708
808.607	20876
808.749	20952
808.891	21070
809.033	21195
809.174	21089
809.316	20914
809.458	20933
809.6	20918
809.741	20967
809.883	21058
810.025	21081
810.166	21104
810.308	21169
810.45	21112
810.591	20963
810.733	20887
810.875	20830
811.016	20746
811.158	20648
811.299	20891
811.441	20838
811.582	20868
811.724	20644
811.865	20606
812.007	20678
812.148	20769
812.29	20804
812.431	21024
812.573	21180
812.714	21070
812.855	21226
812.997	21370
813.138	21488
813.279	21298
813.421	21180
813.562	21203
813.703	21047
813.845	20982
813.986	20533
814.127	20438
814.268	20324
814.41	20263
814.551	20351
814.692	20320
814.833	20256
814.974	20233
815.115	20278
815.256	20107
815.397	20046
815.539	20126
815.68	20058
815.821	19951
815.962	20039
816.103	20054
816.244	19909
816.385	19750
816.526	19799
816.666	19670
816.807	19441
816.948	19514
817.089	19609
817.23	19434
817.371	19426
817.512	19460
817.653	19400
817.793	19362
817.934	19297
818.075	19460
818.216	19388
818.356	19377
818.497	19206
818.638	19080
818.778	18962
818.919	19236
819.06	19103
819.2	19350
819.341	19293
819.481	19270
819.622	19495
819.762	19628
819.903	19514
820.043	19449
820.184	19350
820.324	19476
820.465	19525
820.605	19441
820.746	19445
820.886	19206
821.026	19358
821.167	19434
821.307	19400
821.447	19350
821.588	19297
821.728	19080
821.868	19004
822.008	18825
822.149	18642
822.289	18802
822.429	18506
822.569	18559
822.709	18525
822.849	18380
822.99	18384
823.13	18361
823.27	18361
823.41	18098
823.55	18060
823.69	18159
823.83	18098
823.97	17920
824.11	17836
824.25	17843
824.389	17942
824.529	17954
824.669	17904
824.809	17828
824.949	17961
825.089	17912
825.228	17855
825.368	17684
825.508	17661
825.648	17817
825.787	17748
825.927	17813
826.067	17630
826.206	17737
826.346	17733
826.485	17729
826.625	17630
826.765	17710
826.904	17756
827.044	17516
827.183	17436
827.323	17288
827.462	17463
827.601	17330
827.741	17398
827.88	17440
828.02	17204
828.159	17417
828.298	17429
828.437	17490
828.577	17280
828.716	17516
828.855	17277
828.994	17143
829.134	17231
829.273	17162
829.412	17105
829.551	17147
829.69	17121
829.829	17159
829.968	17208
830.107	17254
830.246	17212
830.385	17109
830.524	17105
830.663	16942
830.802	16866
830.941	16793
831.08	16687
831.219	16801
831.357	16782
831.496	16987
831.635	16797
831.774	16687
831.913	16694
832.051	16603
832.19	16428
832.329	16622
832.467	16493
832.606	16459
832.744	16375
832.883	16440
833.022	16413
833.16	16443
833.299	16432
833.437	16451
833.576	16455
833.714	16500
833.852	16497
833.991	16577
834.129	16611
834.267	16538
834.406	16481
834.544	16649
834.682	16508
834.821	16489
834.959	16634
835.097	16489
835.235	16546
835.373	16558
835.511	16531
835.65	16386
835.788	16325
835.926	16234
836.064	16295
836.202	16306
836.34	16371
836.478	16470
836.615	16375
836.753	16421
836.891	16481
837.029	16436
837.167	16352
837.305	16352
837.443	16402
837.58	16166
837.718	16360
837.856	16257
837.993	16314
838.131	16333
838.269	16257
838.406	16287
838.544	16204
838.681	16025
838.819	16036
838.956	15861
839.094	15797
839.231	15892
839.369	16021
839.506	16280
839.643	16093
839.781	15911
839.918	15861
840.055	15915
840.193	15873
840.33	15800
840.467	15827
840.604	15880
840.742	16173
840.879	15732
841.016	15743
841.153	15778
841.29	15949
841.427	15861
841.564	15911
841.701	15960
841.838	15797
841.975	15895
842.112	15728
842.249	15682
842.385	15644
842.522	15907
842.659	15610
842.796	15656
842.933	15671
843.069	15591
843.206	15557
843.343	15656
843.479	15622
843.616	15625
843.752	15428
843.889	15435
844.025	15542
844.162	15393
844.298	15545
844.435	15424
844.571	15298
844.708	15488
844.844	15610
844.98	15694
845.117	15587
845.253	15412
845.389	15237
845.525	15382
845.661	15329
845.798	15199
845.934	15294
846.07	15218
846.206	15291
846.342	15367
846.478	15218
846.614	15089
846.75	15009
846.886	14963
847.022	15150
847.158	15070
847.294	15013
847.429	15085
847.565	15024
847.701	15268
847.837	14834
847.972	14720
848.108	14689
848.244	14864
848.379	14632
848.515	14602
848.65	14579
848.786	14640
848.921	14587
849.057	14651
849.192	14815
849.328	14636
849.463	14765
849.598	14552
849.734	14484
849.869	14404
850.004	14400
850.14	14419
850.275	14351
850.41	14252
850.545	14263
850.68	14347
850.815	14324
850.95	14381
851.085	14545
851.22	14427
851.355	14362
851.49	14305
851.625	14389
851.76	14351
851.895	14172
852.03	14256
852.165	14237
852.299	14427
852.434	14438
852.569	14332
852.703	14355
852.838	14415
852.973	14537
853.107	14473
853.242	14343
853.376	14229
853.511	14206
853.645	14176
853.78	14370
853.914	14278
854.048	14214
854.183	14229
854.317	14244
854.451	14309
854.585	14191
854.72	14195
854.854	14324
854.988	14206
855.122	14263
855.256	14081
855.39	14248
855.524	14351
855.658	14225
855.792	14210
855.926	14275
856.06	14317
856.194	14438
856.327	14290
856.461	14248
856.595	14233
856.729	14176
856.862	14377
856.996	14309
857.13	14278
857.263	14298
857.397	14370
857.53	14195
857.664	14324
857.797	14267
857.931	14336
858.064	14290
858.197	14415
858.331	14168
858.464	14168
858.597	14100
858.731	14313
858.864	14225
858.997	14301
859.13	14271
859.263	14229
859.396	14313
859.529	14107
859.662	14191
859.795	14191
859.928	14229
860.061	14537
860.194	14358
860.327	14324
860.46	14267
860.592	14351
860.725	14263
860.858	14366
860.99	14218
861.123	14183
861.256	14115
861.388	14206
861.521	14785
861.653	14187
861.786	14126
861.918	14096
862.05	14058
862.183	14229
862.315	14202
862.447	14317
862.58	14130
862.712	14096
862.844	13967
862.976	14035
863.108	14031
863.24	14206
863.372	13928
863.504	14016
863.636	14073
863.768	14103
863.9	14046
864.032	13875
864.164	14024
864.296	14119
864.428	14084
864.559	14084
864.691	14043
864.823	14107
864.954	14088
865.086	13959
865.217	14043
865.349	13951
865.48	13951
865.612	14084
865.743	14062
865.875	13967
866.006	13989
866.137	14043
866.269	13974
866.4	13997
866.531	14039
866.662	14005
866.793	13868
866.924	13936
867.055	14039
867.186	14069
867.317	13906
867.448	13909
867.579	13993
867.71	13955
867.841	13906
867.972	14046
868.103	13906
868.233	14050
868.364	14077
868.495	14073
868.625	14134
868.756	14278
868.886	14153
869.017	14244
869.147	14442
869.278	14389
869.408	14248
869.539	14164
869.669	14282
869.799	14339
869.929	14434
870.06	14358
870.19	14533
870.32	14514
870.45	14526
870.58	14629
870.71	14720
870.84	14720
870.97	14579
871.1	14610
871.23	14804
871.36	14804
871.489	14857
871.619	14746
871.749	14758
871.879	14807
872.008	14967
872.138	14941
872.267	14826
872.397	14636
872.526	14712
872.656	14598
872.785	14716
872.915	14887
873.044	14868
873.173	14842
873.303	14914
873.432	14887
873.561	15009
873.69	14853
873.819	14826
873.948	15032
874.077	14902
874.206	14853
874.335	14933
874.464	15070
874.593	15233
874.722	15142
874.851	15321
874.979	15264
875.108	15275
875.237	15154
875.365	15123
875.494	15245
875.623	15291
875.751	15298
875.88	15275
876.008	15450
876.136	15370
876.265	15694
876.393	15739
876.521	15591
876.65	15713
876.778	15614
876.906	15443
877.034	15591
877.162	15618
877.29	15545
877.418	15644
877.546	15587
877.674	15614
877.802	15580
877.93	15736
878.058	15625
878.185	15557
878.313	15625
878.441	15622
878.568	15530
878.696	15625
878.824	15603
878.951	15705
879.079	15895
879.206	15991
879.333	15865
879.461	15667
879.588	15770
879.715	15808
879.842	15880
879.97	15728
880.097	15530
880.224	15370
880.351	15591
880.478	15580
880.605	15458
880.732	15553
880.859	15717
880.986	15496
881.112	15420
881.239	15485
881.366	15291
881.493	15268
881.619	15081
881.746	15157
881.872	15066
881.999	15085
882.125	15039
882.252	15199
882.378	15085
882.505	15329
882.631	15085
882.757	15081
882.883	15081
883.01	15036
883.136	14902
883.262	14773
883.388	14830
883.514	15005
883.64	15116
883.766	14925
883.892	14887
884.018	14842
884.143	15036
884.269	15051
884.395	14762
884.52	14659
884.646	14769
884.772	14598
884.897	14560
885.023	14689
885.148	14853
885.274	14914
885.399	14750
885.524	14701
885.65	14716
885.775	14750
885.9	14670
886.025	14868
886.15	14819
886.275	14682
886.4	14556
886.525	14644
886.65	14621
886.775	14610
886.9	14727
887.025	14960
887.149	14716
887.274	14480
887.399	14560
887.523	14389
887.648	14473
887.773	14377
887.897	14571
888.021	14583
888.146	14571
888.27	14560
888.395	14632
888.519	14610
888.643	14670
888.767	14667
888.891	14336
889.015	14244
889.139	14461
889.263	14320
889.387	14499
889.511	14522
889.635	14419
889.759	14377
889.883	14381
890.006	14412
890.13	14473
890.254	14355
890.377	14278
890.501	14191
890.624	14187
890.748	14229
890.871	14103
890.995	14077
891.118	13883
891.241	14054
891.364	14161
891.488	14180
891.611	14065
891.734	14081
891.857	14115
891.98	14119
892.103	14229
892.226	14031
892.349	14069
892.471	13849
892.594	14035
892.717	14134
892.839	14084
892.962	14035
893.085	14180
893.207	14043
893.33	14039
893.452	14020
893.575	14065
893.697	14027
893.819	14248
893.941	14278
894.064	14248
894.186	13974
894.308	14065
894.43	14206
894.552	14278
894.674	14290
894.796	14069
894.918	14153
895.04	14092
895.161	14275
895.283	14229
895.405	14138
895.526	14180
895.648	14172
895.769	14237
895.891	14233
896.012	14252
896.134	14252
896.255	14286
896.376	14199
896.498	14298
896.619	14317
896.74	14206
896.861	14275
896.982	14579
897.103	14727
897.224	14526
897.345	14476
897.466	14396
897.587	14484
897.708	14511
897.828	14473
897.949	14499
898.07	14404
898.19	14454
898.311	14689
898.431	14579
898.552	14617
898.672	14781
898.792	14640
898.913	14625
899.033	14537
899.153	14385
899.273	14305
899.393	14461
899.513	14366
899.633	14442
899.753	14499
899.873	14434
899.993	14396
900.113	14522
900.232	14450
900.352	14442
900.472	14400
900.591	14187
900.711	14271
900.83	14240
900.95	14446
901.069	14461
901.189	14351
901.308	13982
901.427	14005
901.546	13928
901.665	13917
901.784	14050
901.904	13898
902.023	13811
902.141	13582
902.26	13499
902.379	13544
902.498	13552
902.617	13464
902.735	13533
902.854	13529
902.973	13487
903.091	13339
903.21	13282
903.328	13263
903.446	13236
903.565	13168
903.683	13122
903.801	13046
903.919	13114
904.038	13046
904.156	12989
904.274	13023
904.392	12981
904.51	12916
904.627	12981
904.745	12985
904.863	12943
904.981	12757
905.098	12696
905.216	12677
905.334	12711
905.451	12707
905.569	12570
905.686	12707
905.803	12574
905.921	12494
906.038	12631
906.155	12452
906.272	12391
906.389	12403
906.506	12258
906.623	12247
906.74	12216
906.857	12011
906.974	12197
907.091	12262
907.208	12369
907.324	12361
907.441	12182
907.557	11984
907.674	12057
907.79	11954
907.907	12007
908.023	12034
908.139	12030
908.256	11904
908.372	11897
908.488	11935
908.604	11809
908.72	11756
908.836	11771
908.952	11710
909.068	11756
909.184	11923
909.3	11798
909.415	11863
909.531	11817
909.647	11482
909.762	11482
909.878	11493
909.993	11566
910.108	11516
910.224	11501
910.339	11532
910.454	11436
910.57	11337
910.685	11250
910.8	11649
910.915	11505
911.03	11444
911.145	11250
911.259	11212
911.374	11250
911.489	11193
911.604	11121
911.718	11014
911.833	11037
911.947	10938
912.062	10831
912.176	10976
912.291	10957
912.405	10999
912.519	11204
912.633	11170
912.748	11067
912.862	11048
912.976	10793
913.09	10771
913.204	10839
913.318	10885
913.431	10923
913.545	10911
913.659	10946
913.772	10919
913.886	10831
914	10626
914.113	10911
914.226	10873
914.34	10854
914.453	10641
914.566	10790
914.68	10694
914.793	10653
914.906	10485
915.019	10485
915.132	10363
915.245	10417
915.358	10531
915.47	10489
915.583	10402
915.696	10451
915.809	10611
915.921	10615
916.034	10421
916.146	10402
916.259	10360
916.371	10523
916.483	10481
916.595	10409
916.708	10371
916.82	10455
916.932	10432
917.044	10322
917.156	10356
917.268	10306
917.38	10314
917.491	10333
917.603	10360
917.715	10398
917.826	10382
917.938	10299
918.049	10150
918.161	10356
918.272	10455
918.384	10440
918.495	10371
918.606	10196
918.717	10128
918.828	10147
918.939	10253
919.05	10055
919.161	10150
919.272	10010
919.383	10044
919.494	10200
919.604	10459
919.715	10223
919.826	10147
919.936	10173
920.047	10230
920.157	10215
920.267	10386
920.378	10207
920.488	10181
920.598	10352
920.708	10592
920.818	10398
920.928	10402
921.038	10573
921.148	10500
921.258	10223
921.368	10112
921.477	10128
921.587	10044
921.697	9968
921.806	10059
921.916	9937
922.025	9819
922.134	9766
922.244	9747
922.353	9770
922.462	9625
922.571	9595
922.68	9450
922.789	9443
922.898	9477
923.007	9386
923.116	9466
923.224	9477
923.333	9367
923.442	9310
923.55	9291
923.659	9321
923.767	9382
923.876	9351
923.984	9382
924.092	9329
924.201	9325
924.309	9336
924.417	9321
924.525	9214
924.633	9214
924.741	10071
924.849	9176
924.956	9233
925.064	9062
925.172	9032
925.279	9066
925.387	9093
925.494	9119
925.602	9230
925.709	9211
925.816	9066
925.924	9135
926.031	9218
926.138	9127
926.245	9203
926.352	9032
926.459	9131
926.566	9203
926.673	9039
926.779	8990
926.886	8921
926.993	8800
927.099	8857
927.206	8815
927.312	8823
927.419	8826
927.525	8826
927.631	8845
927.737	8686
927.843	8773
927.95	8598
928.056	8758
928.162	8693
928.267	8758
928.373	9424
928.479	8845
928.585	8594
928.69	8769
928.796	8712
928.901	8617
929.007	8480
929.112	8632
929.218	8594
929.323	8556
929.428	8522
929.533	8629
929.638	8530
929.743	8533
929.848	8640
929.953	8598
930.058	8457
930.163	8286
930.267	8358
930.372	8473
930.477	8275
930.581	8560
930.685	8415
930.79	8210
930.894	8221
930.998	8195
931.103	8393
931.207	8069
931.311	7978
931.415	7955
931.519	7780
931.623	7753
