Data from test_V78500241_589.txt Node
Date: Fri Mar 25 14:37:49 CST 2022
User: usil
Spectrometer: V785-0024
Trigger mode: 0
Integration Time (sec): 4.000000E-1
Scans to average: 1
Nonlinearity correction enabled: false
Boxcar width: 0
Storing dark spectrum: false
XAxis mode: Wavelengths
Number of Pixels in Spectrum: 1024
>>>>>Begin Spectral Data<<<<<
801.071	27892
801.214	27930
801.356	27625
801.499	27481
801.641	27272
801.783	27298
801.926	27382
802.068	27294
802.211	27047
802.353	26948
802.496	26864
802.638	26701
802.78	26914
802.923	26731
803.065	26739
803.208	26765
803.35	26712
803.492	26826
803.635	26910
803.777	26739
803.919	26880
804.061	27157
804.204	27017
804.346	26872
804.488	26815
804.63	26952
804.773	26910
804.915	27058
805.057	27085
805.199	27047
805.341	27275
805.483	27291
805.626	27195
805.768	27188
805.91	27344
806.052	27401
806.194	27450
806.336	27751
806.478	27675
806.62	27991
806.762	28223
806.904	28421
807.046	28965
807.188	29006
807.33	29254
807.472	29699
807.614	30201
807.756	30547
807.898	31358
808.04	32366
808.182	33743
808.324	35307
808.465	37350
808.607	39233
808.749	41189
808.891	42334
809.033	42342
809.174	41277
809.316	39393
809.458	37038
809.6	34892
809.741	33165
809.883	31883
810.025	31148
810.166	30357
810.308	30026
810.45	29512
810.591	29086
810.733	28816
810.875	28409
811.016	28166
811.158	27922
811.299	28010
811.441	28070
811.582	28021
811.724	27713
811.865	27717
812.007	27618
812.148	27504
812.29	27538
812.431	27561
812.573	27770
812.714	27797
812.855	27865
812.997	27926
813.138	28044
813.279	27842
813.421	27705
813.562	27705
813.703	27454
813.845	27389
813.986	27165
814.127	26815
814.268	26708
814.41	26674
814.551	26651
814.692	26587
814.833	26602
814.974	26499
815.115	26507
815.256	26347
815.397	26362
815.539	26343
815.68	26328
815.821	26301
815.962	26180
816.103	26191
816.244	25997
816.385	26001
816.526	25909
816.666	25738
816.807	25537
816.948	25674
817.089	25609
817.23	25518
817.371	25506
817.512	25525
817.653	25540
817.793	25411
817.934	25449
818.075	25445
818.216	25358
818.356	25396
818.497	25381
818.638	25312
818.778	25274
818.919	25183
819.06	25228
819.2	25194
819.341	25369
819.481	25354
819.622	25563
819.762	25704
819.903	25704
820.043	25571
820.184	25521
820.324	25453
820.465	25415
820.605	25468
820.746	25236
820.886	25194
821.026	25335
821.167	25190
821.307	25297
821.447	25434
821.588	25145
821.728	24996
821.868	24844
822.008	24692
822.149	24650
822.289	24570
822.429	24399
822.569	24247
822.709	24327
822.849	24270
822.99	24060
823.13	24060
823.27	24076
823.41	23931
823.55	23821
823.69	23805
823.83	23885
823.97	23843
824.11	23729
824.25	23615
824.389	23604
824.529	23741
824.669	23710
824.809	23676
824.949	23623
825.089	23718
825.228	23627
825.368	23543
825.508	23376
825.648	23493
825.787	23406
825.927	23623
826.067	23345
826.206	23307
826.346	23425
826.485	23391
826.625	23372
826.765	23524
826.904	23414
827.044	23265
827.183	23151
827.323	23140
827.462	23117
827.601	23037
827.741	23159
827.88	23022
828.02	22987
828.159	23018
828.298	23098
828.437	23022
828.577	22866
828.716	23151
828.855	22828
828.994	22763
829.134	22824
829.273	22645
829.412	22653
829.551	22687
829.69	22702
829.829	22668
829.968	22786
830.107	22744
830.246	22656
830.385	22767
830.524	22554
830.663	22466
830.802	22443
830.941	22325
831.08	22204
831.219	22440
831.357	22375
831.496	22455
831.635	22303
831.774	22211
831.913	22234
832.051	22280
832.19	22013
832.329	22276
832.467	22010
832.606	22006
832.744	22158
832.883	22169
833.022	22063
833.16	22223
833.299	22306
833.437	22287
833.576	22607
833.714	22626
833.852	22672
833.991	22809
834.129	22778
834.267	22725
834.406	22710
834.544	22702
834.682	22626
834.821	22565
834.959	22607
835.097	22375
835.235	22428
835.373	22185
835.511	22188
835.65	22086
835.788	22093
835.926	21869
836.064	21800
836.202	21846
836.34	21979
836.478	21880
836.615	21804
836.753	21865
836.891	21964
837.029	21800
837.167	21724
837.305	21854
837.443	21595
837.58	21717
837.718	21720
837.856	21667
837.993	21633
838.131	21682
838.269	21420
838.406	21492
838.544	21416
838.681	21264
838.819	21393
838.956	21142
839.094	20982
839.231	21074
839.369	21252
839.506	21458
839.643	21363
839.781	20963
839.918	20979
840.055	21085
840.193	20891
840.33	20975
840.467	20967
840.604	20887
840.742	21161
840.879	20906
841.016	20807
841.153	20887
841.29	21009
841.427	21009
841.564	20975
841.701	20990
841.838	20902
841.975	20823
842.112	20941
842.249	20845
842.385	20724
842.522	20891
842.659	20796
842.796	20746
842.933	20830
843.069	20716
843.206	20609
843.343	20830
843.479	20743
843.616	20769
843.752	20670
843.889	20830
844.025	20834
844.162	20587
844.298	20842
844.435	21009
844.571	21013
844.708	21325
844.844	21660
844.98	21793
845.117	22253
845.253	22767
845.389	23745
845.525	26062
845.661	29585
845.798	34063
845.934	37578
846.07	38819
846.206	38084
846.342	35147
846.478	30814
846.614	26864
846.75	24369
846.886	22733
847.022	21949
847.158	21363
847.294	20906
847.429	20826
847.565	20549
847.701	20693
847.837	20111
847.972	19982
848.108	20081
848.244	20035
848.379	19917
848.515	19723
848.65	19666
848.786	19666
848.921	19658
849.057	19757
849.192	19662
849.328	19632
849.463	19715
849.598	19586
849.734	19518
849.869	19540
850.004	19377
850.14	19373
850.275	19259
850.41	19358
850.545	19289
850.68	19293
850.815	19365
850.95	19251
851.085	19434
851.22	19480
851.355	19362
851.49	19377
851.625	19297
851.76	19247
851.895	19270
852.03	19244
852.165	19270
852.299	19335
852.434	19514
852.569	19381
852.703	19373
852.838	19445
852.973	19502
853.107	19495
853.242	19327
853.376	19240
853.511	19076
853.645	19339
853.78	19499
853.914	19278
854.048	19403
854.183	19331
854.317	19502
854.451	19499
854.585	19362
854.72	19369
854.854	19514
854.988	19251
855.122	19228
855.256	19190
855.39	19270
855.524	19373
855.658	19240
855.792	19285
855.926	19209
856.06	19228
856.194	19274
856.327	19206
856.461	19069
856.595	19126
856.729	19061
856.862	19270
856.996	19179
857.13	19141
857.263	19289
857.397	19236
857.53	19114
857.664	19145
857.797	19187
857.931	19274
858.064	19145
858.197	19160
858.331	19072
858.464	19023
858.597	18825
858.731	18996
858.864	19046
858.997	18996
859.13	19084
859.263	19069
859.396	19133
859.529	18954
859.662	19072
859.795	18905
859.928	19084
860.061	19065
860.194	19057
860.327	19012
860.46	19137
860.592	19015
860.725	19152
860.858	19137
860.99	19088
861.123	18859
861.256	18916
861.388	18894
861.521	19693
861.653	18913
861.786	18882
861.918	18840
862.05	18954
862.183	18932
862.315	19019
862.447	19118
862.58	19023
862.712	18585
862.844	18700
862.976	18875
863.108	18734
863.24	19114
863.372	18616
863.504	18684
863.636	18734
863.768	18715
863.9	18601
864.032	18620
864.164	18604
864.296	18726
864.428	18806
864.559	18848
864.691	18669
864.823	18684
864.954	18715
865.086	18570
865.217	18616
865.349	18536
865.48	18654
865.612	18631
865.743	18631
865.875	18658
866.006	18490
866.137	18555
866.269	18616
866.4	18536
866.531	18467
866.662	18544
866.793	18475
866.924	18528
867.055	18475
867.186	18623
867.317	18365
867.448	18388
867.579	18471
867.71	18502
867.841	18433
867.972	18570
868.103	18486
868.233	18597
868.364	18509
868.495	18658
868.625	18707
868.756	18859
868.886	18798
869.017	18867
869.147	18943
869.278	18958
869.408	18837
869.539	18715
869.669	18905
869.799	18947
869.929	19050
870.06	18901
870.19	19171
870.32	19179
870.45	19080
870.58	19259
870.71	19400
870.84	19247
870.97	19320
871.1	19221
871.23	19403
871.36	19411
871.489	19350
871.619	19510
871.749	19449
871.879	19548
872.008	19582
872.138	19533
872.267	19400
872.397	19495
872.526	19301
872.656	19316
872.785	19430
872.915	19567
873.044	19575
873.173	19620
873.303	19681
873.432	19753
873.561	19723
873.69	19655
873.819	19647
873.948	19795
874.077	19719
874.206	19651
874.335	19727
874.464	19833
874.593	20020
874.722	19978
874.851	20142
874.979	20054
875.108	20206
875.237	20180
875.365	20092
875.494	20202
875.623	20355
875.751	20229
875.88	20259
876.008	20484
876.136	20423
876.265	20701
876.393	20887
876.521	20963
876.65	20895
876.778	20895
876.906	20971
877.034	20963
877.162	21017
877.29	20929
877.418	21074
877.546	21230
877.674	21154
877.802	21275
877.93	21428
878.058	21462
878.185	21519
878.313	21622
878.441	22006
878.568	22150
878.696	22493
878.824	23121
878.951	23798
879.079	24905
879.206	26336
879.333	27496
879.461	28569
879.588	29315
879.715	29490
879.842	28839
879.97	27466
880.097	26115
880.224	24966
880.351	24220
880.478	23668
880.605	23235
880.732	23090
880.859	23109
880.986	22873
881.112	22778
881.239	22611
881.366	22481
881.493	22417
881.619	22318
881.746	22333
881.872	22284
881.999	22360
882.125	22348
882.252	22398
882.378	22550
882.505	22485
882.631	22318
882.757	22257
882.883	22306
883.01	22192
883.136	22253
883.262	22120
883.388	22093
883.514	22036
883.64	22211
883.766	22177
883.892	22078
884.018	22040
884.143	22261
884.269	22265
884.395	22006
884.52	21907
884.646	21956
884.772	21835
884.897	21816
885.023	21983
885.148	21964
885.274	22013
885.399	21922
885.524	21778
885.65	21629
885.775	21534
885.9	21511
886.025	21583
886.15	21386
886.275	21214
886.4	20986
886.525	21047
886.65	20906
886.775	20864
886.9	20944
887.025	21001
887.149	20899
887.274	20541
887.399	20389
887.523	20370
887.648	20259
887.773	20157
887.897	20157
888.021	20107
888.146	20039
888.27	20115
888.395	20100
888.519	20001
888.643	19967
888.767	20043
888.891	19875
889.015	19765
889.139	19753
889.263	19723
889.387	19738
889.511	19837
889.635	19658
889.759	19609
889.883	19358
890.006	19609
890.13	19533
890.254	19308
890.377	19381
890.501	19225
890.624	19190
890.748	19289
890.871	19107
890.995	18878
891.118	18852
891.241	18973
891.364	18897
891.488	18993
891.611	18901
891.734	18878
891.857	18852
891.98	18916
892.103	18928
892.226	18814
892.349	18741
892.471	18566
892.594	18711
892.717	18802
892.839	18696
892.962	18654
893.085	18722
893.207	18730
893.33	18414
893.452	18566
893.575	18654
893.697	18498
893.819	18616
893.941	18722
894.064	18612
894.186	18445
894.308	18441
894.43	18589
894.552	18612
894.674	18498
894.796	18414
894.918	18490
895.04	18391
895.161	18597
895.283	18464
895.405	18251
895.526	18304
895.648	18365
895.769	18441
895.891	18353
896.012	18475
896.134	18471
896.255	18426
896.376	18369
896.498	18445
896.619	18372
896.74	18346
896.861	18422
896.982	18722
897.103	18871
897.224	18555
897.345	18578
897.466	18486
897.587	18620
897.708	18677
897.828	18574
897.949	18517
898.07	18483
898.19	18445
898.311	18479
898.431	18570
898.552	18631
898.672	18616
898.792	18555
898.913	18528
899.033	18502
899.153	18285
899.273	18254
899.393	18346
899.513	18342
899.633	18380
899.753	18273
899.873	18308
899.993	18311
900.113	18319
900.232	18213
900.352	18251
900.472	18178
900.591	18057
900.711	18098
900.83	18091
900.95	18220
901.069	18304
901.189	18106
901.308	17908
901.427	17771
901.546	17786
901.665	17699
901.784	17703
901.904	17630
902.023	17535
902.141	17410
902.26	17227
902.379	17360
902.498	17185
902.617	17018
902.735	17269
902.854	17102
902.973	17022
903.091	16828
903.21	16927
903.328	16824
903.446	16790
903.565	16729
903.683	16710
903.801	16561
903.919	16596
904.038	16558
904.156	16322
904.274	16413
904.392	16402
904.51	16325
904.627	16310
904.745	16402
904.863	16470
904.981	16280
905.098	15979
905.216	16002
905.334	16040
905.451	16093
905.569	15956
905.686	16010
905.803	15968
905.921	15835
906.038	15934
906.155	15800
906.272	15656
906.389	15743
906.506	15641
906.623	15557
906.74	15530
906.857	15397
906.974	15382
907.091	15652
907.208	15610
907.324	15580
907.441	15462
907.557	15252
907.674	15256
907.79	15119
907.907	15241
908.023	15237
908.139	15188
908.256	15241
908.372	15085
908.488	15157
908.604	14933
908.72	14918
908.836	14921
908.952	14914
909.068	14899
909.184	15097
909.3	14986
909.415	14872
909.531	14910
909.647	14758
909.762	14667
909.878	14541
909.993	14689
910.108	14583
910.224	14682
910.339	14655
910.454	14476
910.57	14518
910.685	14385
910.8	14693
910.915	14545
911.03	14514
911.145	14324
911.259	14263
911.374	14294
911.489	14233
911.604	14123
911.718	14031
911.833	13944
911.947	13799
912.062	13932
912.176	14043
912.291	14046
912.405	14035
912.519	14229
912.633	14233
912.748	14134
912.862	13989
912.976	13875
913.09	13696
913.204	13791
913.318	13811
913.431	13852
913.545	13917
913.659	14043
913.772	13753
913.886	13628
914	13708
914.113	13807
914.226	13757
914.34	13734
914.453	13552
914.566	13719
914.68	13563
914.793	13518
914.906	13415
915.019	13388
915.132	13331
915.245	13365
915.358	13392
915.47	13377
915.583	13392
915.696	13491
915.809	13506
915.921	13487
916.034	13308
916.146	13251
916.259	13369
916.371	13453
916.483	13407
916.595	13365
916.708	13392
916.82	13346
916.932	13270
917.044	13278
917.156	13209
917.268	13171
917.38	13266
917.491	13076
917.603	13217
917.715	13285
917.826	13187
917.938	12947
918.049	13012
918.161	13114
918.272	13209
918.384	13236
918.495	13084
918.606	12932
918.717	12878
918.828	12882
918.939	12905
919.05	12776
919.161	12840
919.272	12665
919.383	12722
919.494	12894
919.604	13084
919.715	12840
919.826	12722
919.936	12776
920.047	12958
920.157	12810
920.267	12943
920.378	12829
920.488	12798
920.598	13019
920.708	13240
920.818	13084
920.928	13091
921.038	13118
921.148	13084
921.258	12772
921.368	12760
921.477	12646
921.587	12608
921.697	12612
921.806	12597
921.916	12464
922.025	12289
922.134	12384
922.244	12254
922.353	12372
922.462	12114
922.571	12159
922.68	11916
922.789	11984
922.898	11961
923.007	11824
923.116	12019
923.224	11855
923.333	11851
923.442	11809
923.55	11748
923.659	11779
923.767	11904
923.876	11733
923.984	11885
924.092	11691
924.201	11779
924.309	11729
924.417	11748
924.525	11680
924.633	11592
924.741	12350
924.849	11505
924.956	11581
925.064	11444
925.172	11395
925.279	11463
925.387	11429
925.494	11512
925.602	11581
925.709	11429
925.816	11398
925.924	11391
926.031	11497
926.138	11410
926.245	11520
926.352	11353
926.459	11429
926.566	11493
926.673	11315
926.779	11204
926.886	11216
926.993	11121
927.099	11041
927.206	10953
927.312	10980
927.419	11105
927.525	11079
927.631	11128
927.737	10930
927.843	10896
927.95	10858
928.056	10942
928.162	10908
928.267	10957
928.373	11505
928.479	10976
928.585	10763
928.69	10835
928.796	10911
928.901	10771
929.007	10645
929.112	10805
929.218	10771
929.323	10740
929.428	10649
929.533	10759
929.638	10599
929.743	10649
929.848	10725
929.953	10641
930.058	10516
930.163	10386
930.267	10440
930.372	10516
930.477	10417
930.581	10569
930.685	10371
930.79	10295
930.894	10249
930.998	10265
931.103	10382
931.207	10093
931.311	9949
931.415	9918
931.519	9701
931.623	9732
