Data from test_V78500241_1579.txt Node
Date: Fri Mar 25 14:44:42 CST 2022
User: usil
Spectrometer: V785-0024
Trigger mode: 0
Integration Time (sec): 4.000000E-1
Scans to average: 1
Nonlinearity correction enabled: false
Boxcar width: 0
Storing dark spectrum: false
XAxis mode: Wavelengths
Number of Pixels in Spectrum: 1024
>>>>>Begin Spectral Data<<<<<
801.071	22489
801.214	22318
801.356	22124
801.499	21861
801.641	21751
801.783	21751
801.926	21892
802.068	21656
802.211	21671
802.353	21576
802.496	21397
802.638	21298
802.78	21294
802.923	21165
803.065	20929
803.208	21093
803.35	21100
803.492	21157
803.635	21302
803.777	21058
803.919	21169
804.061	21462
804.204	21245
804.346	21085
804.488	20948
804.63	21108
804.773	20963
804.915	21055
805.057	21256
805.199	21055
805.341	21020
805.483	21192
805.626	21123
805.768	21017
805.91	21108
806.052	20967
806.194	20906
806.336	21093
806.478	20902
806.62	21013
806.762	21150
806.904	21222
807.046	21348
807.188	21363
807.33	21370
807.472	21523
807.614	21195
807.756	21340
807.898	21294
808.04	21230
808.182	21123
808.324	21157
808.465	21184
808.607	21488
808.749	21507
808.891	21717
809.033	21701
809.174	21660
809.316	21538
809.458	21492
809.6	21488
809.741	21587
809.883	21572
810.025	21686
810.166	21610
810.308	21682
810.45	21603
810.591	21447
810.733	21340
810.875	21157
811.016	21184
811.158	20971
811.299	21085
811.441	21393
811.582	21351
811.724	21359
811.865	21138
812.007	21348
812.148	21195
812.29	21367
812.431	21431
812.573	21530
812.714	21526
812.855	21587
812.997	21724
813.138	21876
813.279	21766
813.421	21690
813.562	21538
813.703	21367
813.845	21325
813.986	20994
814.127	20864
814.268	20727
814.41	20838
814.551	20826
814.692	20792
814.833	20708
814.974	20762
815.115	20758
815.256	20571
815.397	20526
815.539	20724
815.68	20465
815.821	20450
815.962	20587
816.103	20450
816.244	20301
816.385	20233
816.526	20256
816.666	20096
816.807	19989
816.948	19902
817.089	20050
817.23	19932
817.371	19982
817.512	19898
817.653	19959
817.793	19928
817.934	19921
818.075	19894
818.216	19928
818.356	19788
818.497	19746
818.638	19586
818.778	19556
818.919	19655
819.06	19632
819.2	19609
819.341	19715
819.481	19753
819.622	19856
819.762	20054
819.903	20012
820.043	19982
820.184	20020
820.324	19887
820.465	20058
820.605	19845
820.746	19928
820.886	19871
821.026	19883
821.167	19826
821.307	19879
821.447	19788
821.588	19750
821.728	19582
821.868	19388
822.008	19304
822.149	19270
822.289	19324
822.429	19057
822.569	18981
822.709	18920
822.849	18837
822.99	18791
823.13	18795
823.27	18730
823.41	18669
823.55	18494
823.69	18570
823.83	18578
823.97	18350
824.11	18296
824.25	18445
824.389	18262
824.529	18350
824.669	18319
824.809	18467
824.949	18388
825.089	18395
825.228	18262
825.368	18167
825.508	18057
825.648	18182
825.787	18144
825.927	18148
826.067	18030
826.206	18060
826.346	18117
826.485	18087
826.625	18072
826.765	18136
826.904	18045
827.044	17817
827.183	17802
827.323	17824
827.462	17840
827.601	17836
827.741	17866
827.88	17828
828.02	17604
828.159	17760
828.298	17836
828.437	17802
828.577	17741
828.716	17939
828.855	17756
828.994	17604
829.134	17429
829.273	17642
829.412	17558
829.551	17558
829.69	17429
829.829	17505
829.968	17551
830.107	17634
830.246	17512
830.385	17406
830.524	17577
830.663	17208
830.802	17284
830.941	17155
831.08	17052
831.219	17307
831.357	17277
831.496	17433
831.635	17212
831.774	17060
831.913	16953
832.051	16930
832.19	16904
832.329	16991
832.467	16866
832.606	16683
832.744	16862
832.883	16733
833.022	16763
833.16	16778
833.299	16816
833.437	16938
833.576	16786
833.714	16858
833.852	16919
833.991	16949
834.129	17025
834.267	16942
834.406	16938
834.544	16889
834.682	16877
834.821	16839
834.959	17124
835.097	16881
835.235	16923
835.373	16911
835.511	16869
835.65	16847
835.788	16729
835.926	16584
836.064	16611
836.202	16687
836.34	16721
836.478	16934
836.615	16748
836.753	16797
836.891	16892
837.029	16744
837.167	16702
837.305	16687
837.443	16755
837.58	16546
837.718	16637
837.856	16725
837.993	16668
838.131	16577
838.269	16542
838.406	16607
838.544	16569
838.681	16276
838.819	16314
838.956	16219
839.094	16219
839.231	16120
839.369	16360
839.506	16538
839.643	16363
839.781	16318
839.918	16055
840.055	16310
840.193	16143
840.33	16143
840.467	16143
840.604	16204
840.742	16375
840.879	16006
841.016	16071
841.153	16067
841.29	16261
841.427	16150
841.564	16143
841.701	16196
841.838	16204
841.975	16086
842.112	16078
842.249	16021
842.385	15827
842.522	16181
842.659	15960
842.796	15835
842.933	15972
843.069	15880
843.206	15865
843.343	15918
843.479	15903
843.616	15842
843.752	15724
843.889	15637
844.025	15850
844.162	15637
844.298	15793
844.435	15800
844.571	15675
844.708	15880
844.844	15816
844.98	15827
845.117	15857
845.253	15705
845.389	15599
845.525	15732
845.661	15755
845.798	15591
845.934	15694
846.07	15557
846.206	15667
846.342	15816
846.478	15584
846.614	15431
846.75	15287
846.886	15268
847.022	15340
847.158	15355
847.294	15325
847.429	15344
847.565	15241
847.701	15526
847.837	15028
847.972	15013
848.108	15089
848.244	15066
848.379	14914
848.515	14910
848.65	14914
848.786	14830
848.921	14982
849.057	14914
849.192	15112
849.328	14944
849.463	14910
849.598	14796
849.734	14811
849.869	14868
850.004	14682
850.14	14796
850.275	14686
850.41	14636
850.545	14541
850.68	14667
850.815	14610
850.95	14625
851.085	14838
851.22	14819
851.355	14735
851.49	14598
851.625	14583
851.76	14583
851.895	14473
852.03	14560
852.165	14602
852.299	14689
852.434	14804
852.569	14701
852.703	14678
852.838	14682
852.973	14838
853.107	14762
853.242	14518
853.376	14480
853.511	14419
853.645	14450
853.78	14651
853.914	14568
854.048	14556
854.183	14431
854.317	14590
854.451	14701
854.585	14492
854.72	14507
854.854	14545
854.988	14495
855.122	14587
855.256	14351
855.39	14469
855.524	14670
855.658	14450
855.792	14457
855.926	14644
856.06	14617
856.194	14659
856.327	14518
856.461	14419
856.595	14545
856.729	14568
856.862	14613
856.996	14526
857.13	14590
857.263	14644
857.397	14682
857.53	14503
857.664	14541
857.797	14583
857.931	14648
858.064	14594
858.197	14640
858.331	14526
858.464	14431
858.597	14465
858.731	14514
858.864	14568
858.997	14461
859.13	14533
859.263	14617
859.396	14590
859.529	14476
859.662	14370
859.795	14446
859.928	14556
860.061	14712
860.194	14686
860.327	14518
860.46	14552
860.592	14583
860.725	14613
860.858	14610
860.99	14556
861.123	14400
861.256	14434
861.388	14507
861.521	15279
861.653	14381
861.786	14282
861.918	14351
862.05	14461
862.183	14518
862.315	14526
862.447	14488
862.58	14431
862.712	14362
862.844	14218
862.976	14362
863.108	14454
863.24	14823
863.372	14195
863.504	14309
863.636	14267
863.768	14305
863.9	14290
864.032	14275
864.164	14336
864.296	14305
864.428	14404
864.559	14370
864.691	14351
864.823	14267
864.954	14389
865.086	14305
865.217	14362
865.349	14176
865.48	14324
865.612	14244
865.743	14381
865.875	14294
866.006	14225
866.137	14263
866.269	14237
866.4	14282
866.531	14237
866.662	14183
866.793	14301
866.924	14259
867.055	14278
867.186	14252
867.317	14229
867.448	14073
867.579	14092
867.71	14092
867.841	14218
867.972	14229
868.103	14282
868.233	14218
868.364	14313
868.495	14408
868.625	14526
868.756	14552
868.886	14423
869.017	14526
869.147	14610
869.278	14655
869.408	14610
869.539	14556
869.669	14545
869.799	14575
869.929	14655
870.06	14670
870.19	14864
870.32	14777
870.45	14838
870.58	14937
870.71	14956
870.84	15043
870.97	14857
871.1	14861
871.23	15104
871.36	15093
871.489	14971
871.619	15032
871.749	15055
871.879	15169
872.008	15264
872.138	14990
872.267	15108
872.397	14921
872.526	14952
872.656	14925
872.785	14933
872.915	15222
873.044	15161
873.173	15093
873.303	15051
873.432	15093
873.561	15142
873.69	15142
873.819	15169
873.948	15336
874.077	15188
874.206	15104
874.335	15138
874.464	15325
874.593	15469
874.722	15397
874.851	15485
874.979	15454
875.108	15458
875.237	15424
875.365	15408
875.494	15492
875.623	15515
875.751	15523
875.88	15488
876.008	15629
876.136	15648
876.265	15785
876.393	16029
876.521	15941
876.65	16040
876.778	15892
876.906	15816
877.034	15926
877.162	15823
877.29	15827
877.418	15850
877.546	15964
877.674	15918
877.802	15895
877.93	15846
878.058	15861
878.185	15808
878.313	15884
878.441	15937
878.568	15656
878.696	15888
878.824	15991
878.951	15979
879.079	16093
879.206	16249
879.333	16124
879.461	15941
879.588	15991
879.715	16124
879.842	16249
879.97	15975
880.097	15785
880.224	15793
880.351	15816
880.478	15842
880.605	15774
880.732	15816
880.859	16010
880.986	15675
881.112	15842
881.239	15595
881.366	15580
881.493	15450
881.619	15401
881.746	15443
881.872	15401
881.999	15382
882.125	15401
882.252	15469
882.378	15363
882.505	15454
882.631	15256
882.757	15218
882.883	15211
883.01	15214
883.136	15070
883.262	15005
883.388	15123
883.514	15226
883.64	15241
883.766	15165
883.892	15100
884.018	14979
884.143	15256
884.269	15222
884.395	15077
884.52	15036
884.646	14868
884.772	14902
884.897	14781
885.023	14937
885.148	14967
885.274	15036
885.399	15039
885.524	14990
885.65	15020
885.775	14979
885.9	14861
886.025	15070
886.15	14902
886.275	14849
886.4	14739
886.525	14921
886.65	14845
886.775	14883
886.9	15043
887.025	15214
887.149	14982
887.274	14724
887.399	14697
887.523	14678
887.648	14648
887.773	14636
887.897	14830
888.021	14853
888.146	14693
888.27	14864
888.395	14773
888.519	14811
888.643	14788
888.767	14849
888.891	14636
889.015	14568
889.139	14602
889.263	14495
889.387	14594
889.511	14819
889.635	14693
889.759	14556
889.883	14514
890.006	14670
890.13	14708
890.254	14530
890.377	14541
890.501	14431
890.624	14412
890.748	14507
890.871	14434
890.995	14195
891.118	14195
891.241	14290
891.364	14252
891.488	14511
891.611	14267
891.734	14290
891.857	14309
891.98	14389
892.103	14385
892.226	14343
892.349	14275
892.471	14107
892.594	14282
892.717	14347
892.839	14286
892.962	14317
893.085	14412
893.207	14259
893.33	14225
893.452	14199
893.575	14305
893.697	14282
893.819	14374
893.941	14545
894.064	14480
894.186	14278
894.308	14225
894.43	14355
894.552	14465
894.674	14400
894.796	14256
894.918	14317
895.04	14252
895.161	14503
895.283	14317
895.405	14263
895.526	14423
895.648	14427
895.769	14400
895.891	14374
896.012	14522
896.134	14446
896.255	14476
896.376	14434
896.498	14450
896.619	14579
896.74	14450
896.861	14511
896.982	14819
897.103	14880
897.224	14651
897.345	14644
897.466	14629
897.587	14670
897.708	14811
897.828	14788
897.949	14689
898.07	14613
898.19	14663
898.311	14811
898.431	14689
898.552	14800
898.672	14918
898.792	14868
898.913	14872
899.033	14724
899.153	14629
899.273	14598
899.393	14648
899.513	14610
899.633	14659
899.753	14746
899.873	14537
899.993	14674
900.113	14659
900.232	14743
900.352	14674
900.472	14556
900.591	14556
900.711	14560
900.83	14404
900.95	14648
901.069	14739
901.189	14552
901.308	14153
901.427	14092
901.546	14324
901.665	14233
901.784	14358
901.904	14069
902.023	14035
902.141	13814
902.26	13723
902.379	13932
902.498	13784
902.617	13734
902.735	13871
902.854	13795
902.973	13696
903.091	13453
903.21	13521
903.328	13415
903.446	13411
903.565	13441
903.683	13316
903.801	13297
903.919	13190
904.038	13255
904.156	13133
904.274	13206
904.392	13149
904.51	13053
904.627	13141
904.745	13160
904.863	13209
904.981	12973
905.098	12814
905.216	12802
905.334	12863
905.451	12894
905.569	12825
905.686	12920
905.803	12817
905.921	12612
906.038	12829
906.155	12642
906.272	12566
906.389	12559
906.506	12437
906.623	12334
906.74	12460
906.857	12346
906.974	12376
907.091	12494
907.208	12517
907.324	12456
907.441	12258
907.557	12201
907.674	12171
907.79	12045
907.907	12091
908.023	12228
908.139	12213
908.256	12163
908.372	12053
908.488	12015
908.604	11954
908.72	11958
908.836	11866
908.952	11885
909.068	11931
909.184	11973
909.3	11984
909.415	11912
909.531	11950
909.647	11764
909.762	11646
909.878	11604
909.993	11703
910.108	11676
910.224	11638
910.339	11748
910.454	11661
910.57	11581
910.685	11501
910.8	11843
910.915	11733
911.03	11524
911.145	11444
911.259	11349
911.374	11292
911.489	11299
911.604	11296
911.718	11124
911.833	11170
911.947	11018
912.062	10896
912.176	11090
912.291	11128
912.405	11178
912.519	11315
912.633	11284
912.748	11201
912.862	11185
912.976	10915
913.09	10934
913.204	10930
913.318	11029
913.431	11102
913.545	11064
913.659	11079
913.772	10999
913.886	10919
914	10877
914.113	10961
914.226	11003
914.34	10923
914.453	10847
914.566	10946
914.68	10797
914.793	10850
914.906	10698
915.019	10535
915.132	10504
915.245	10630
915.358	10618
915.47	10649
915.583	10615
915.696	10683
915.809	10717
915.921	10759
916.034	10611
916.146	10550
916.259	10516
916.371	10634
916.483	10702
916.595	10527
916.708	10531
916.82	10546
916.932	10558
917.044	10493
917.156	10550
917.268	10481
917.38	10428
917.491	10474
917.603	10428
917.715	10489
917.826	10565
917.938	10538
918.049	10409
918.161	10436
918.272	10630
918.384	10577
918.495	10447
918.606	10314
918.717	10207
918.828	10375
918.939	10318
919.05	10223
919.161	10284
919.272	10150
919.383	10299
919.494	10360
919.604	10546
919.715	10318
919.826	10192
919.936	10272
920.047	10424
920.157	10356
920.267	10565
920.378	10363
920.488	10363
920.598	10508
920.708	10721
920.818	10565
920.928	10592
921.038	10691
921.148	10649
921.258	10379
921.368	10261
921.477	10158
921.587	10204
921.697	10059
921.806	10215
921.916	10063
922.025	9926
922.134	9842
922.244	9812
922.353	9907
922.462	9804
922.571	9743
922.68	9629
922.789	9561
922.898	9633
923.007	9587
923.116	9629
923.224	9557
923.333	9614
923.442	9538
923.55	9496
923.659	9504
923.767	9561
923.876	9408
923.984	9595
924.092	9435
924.201	9492
924.309	9466
924.417	9477
924.525	9351
924.633	9416
924.741	10337
924.849	9218
924.956	9386
925.064	9176
925.172	9214
925.279	9268
925.387	9241
925.494	9260
925.602	9310
925.709	9336
925.816	9154
925.924	9272
926.031	9351
926.138	9245
926.245	9291
926.352	9211
926.459	9298
926.566	9325
926.673	9199
926.779	9074
926.886	9074
926.993	8975
927.099	8899
927.206	8868
927.312	8899
927.419	8986
927.525	8956
927.631	9013
927.737	8883
927.843	8861
927.95	8731
928.056	8823
928.162	8906
928.267	8929
928.373	9466
928.479	8979
928.585	8701
928.69	8872
928.796	8853
928.901	8777
929.007	8674
929.112	8777
929.218	8811
929.323	8648
929.428	8697
929.533	8807
929.638	8686
929.743	8606
929.848	8686
929.953	8598
930.058	8549
930.163	8389
930.267	8454
930.372	8568
930.477	8393
930.581	8621
930.685	8476
930.79	8263
930.894	8381
930.998	8358
931.103	8488
931.207	8161
931.311	8103
931.415	8077
931.519	7902
931.623	7917
