Data from test_V78500241_980.txt Node
Date: Fri Mar 25 14:40:32 CST 2022
User: usil
Spectrometer: V785-0024
Trigger mode: 0
Integration Time (sec): 4.000000E-1
Scans to average: 1
Nonlinearity correction enabled: false
Boxcar width: 0
Storing dark spectrum: false
XAxis mode: Wavelengths
Number of Pixels in Spectrum: 1024
>>>>>Begin Spectral Data<<<<<
801.071	23334
801.214	23197
801.356	22847
801.499	22850
801.641	22630
801.783	22725
801.926	22733
802.068	22500
802.211	22440
802.353	22390
802.496	22200
802.638	22070
802.78	22067
802.923	21994
803.065	22002
803.208	22131
803.35	22040
803.492	21934
803.635	22086
803.777	22029
803.919	22074
804.061	22322
804.204	22226
804.346	22029
804.488	21884
804.63	21888
804.773	21869
804.915	21918
805.057	22101
805.199	21922
805.341	21960
805.483	21987
805.626	22017
805.768	21915
805.91	22010
806.052	21964
806.194	21937
806.336	22120
806.478	21941
806.62	22120
806.762	22192
806.904	22413
807.046	22607
807.188	22466
807.33	22459
807.472	22599
807.614	22538
807.756	22706
807.898	22584
808.04	22626
808.182	22603
808.324	22953
808.465	23231
808.607	23710
808.749	23977
808.891	23908
809.033	24133
809.174	23939
809.316	23611
809.458	23395
809.6	23079
809.741	22949
809.883	23029
810.025	22877
810.166	22793
810.308	22752
810.45	22569
810.591	22592
810.733	22341
810.875	22325
811.016	22215
811.158	22204
811.299	22375
811.441	22413
811.582	22432
811.724	22158
811.865	22063
812.007	22219
812.148	22124
812.29	22200
812.431	22185
812.573	22580
812.714	22622
812.855	22702
812.997	22752
813.138	23033
813.279	22824
813.421	22706
813.562	22679
813.703	22504
813.845	22314
813.986	22059
814.127	21854
814.268	21770
814.41	21854
814.551	21690
814.692	21823
814.833	21762
814.974	21622
815.115	21720
815.256	21466
815.397	21526
815.539	21671
815.68	21610
815.821	21397
815.962	21549
816.103	21408
816.244	21279
816.385	21173
816.526	21207
816.666	20910
816.807	20773
816.948	20861
817.089	20937
817.23	21017
817.371	20891
817.512	20929
817.653	20838
817.793	20781
817.934	20762
818.075	20880
818.216	20739
818.356	20834
818.497	20636
818.638	20438
818.778	20587
818.919	20560
819.06	20480
819.2	20617
819.341	20731
819.481	20697
819.622	20838
819.762	21062
819.903	20960
820.043	20952
820.184	20758
820.324	20891
820.465	20861
820.605	20811
820.746	20750
820.886	20644
821.026	20868
821.167	20746
821.307	20853
821.447	20754
821.588	20609
821.728	20583
821.868	20298
822.008	20233
822.149	20267
822.289	20122
822.429	19974
822.569	19757
822.709	19913
822.849	19731
822.99	19738
823.13	19704
823.27	19689
823.41	19472
823.55	19422
823.69	19449
823.83	19518
823.97	19384
824.11	19244
824.25	19228
824.389	19263
824.529	19339
824.669	19327
824.809	19259
824.949	19457
825.089	19297
825.228	19247
825.368	19027
825.508	19027
825.648	19129
825.787	19080
825.927	19076
826.067	18993
826.206	19053
826.346	19076
826.485	19061
826.625	19019
826.765	19217
826.904	19137
827.044	18852
827.183	18802
827.323	18661
827.462	18650
827.601	18760
827.741	18734
827.88	18776
828.02	18578
828.159	18772
828.298	18745
828.437	18738
828.577	18521
828.716	18924
828.855	18696
828.994	18471
829.134	18475
829.273	18445
829.412	18418
829.551	18456
829.69	18445
829.829	18555
829.968	18570
830.107	18452
830.246	18528
830.385	18353
830.524	18414
830.663	18285
830.802	18251
830.941	18057
831.08	18133
831.219	18102
831.357	18186
831.496	18311
831.635	18102
831.774	18007
831.913	17908
832.051	17931
832.19	17893
832.329	17977
832.467	17802
832.606	17771
832.744	17733
832.883	17843
833.022	17813
833.16	17855
833.299	17714
833.437	17802
833.576	17866
833.714	17817
833.852	17912
833.991	17847
834.129	17996
834.267	17973
834.406	17866
834.544	17882
834.682	17847
834.821	17859
834.959	17950
835.097	17805
835.235	17885
835.373	17870
835.511	17821
835.65	17710
835.788	17608
835.926	17665
836.064	17539
836.202	17455
836.34	17748
836.478	17691
836.615	17657
836.753	17699
836.891	17726
837.029	17790
837.167	17630
837.305	17687
837.443	17600
837.58	17471
837.718	17634
837.856	17543
837.993	17356
838.131	17543
838.269	17585
838.406	17482
838.544	17379
838.681	17174
838.819	17197
838.956	17109
839.094	17170
839.231	17090
839.369	17159
839.506	17570
839.643	17372
839.781	17143
839.918	17083
840.055	17003
840.193	17052
840.33	17014
840.467	16949
840.604	17117
840.742	17292
840.879	16942
841.016	16892
841.153	16995
841.29	17155
841.427	17029
841.564	17060
841.701	17079
841.838	16949
841.975	16953
842.112	16805
842.249	16805
842.385	16679
842.522	17029
842.659	16801
842.796	16858
842.933	16805
843.069	16736
843.206	16809
843.343	16816
843.479	16854
843.616	16881
843.752	16550
843.889	16744
844.025	16683
844.162	16561
844.298	16763
844.435	16603
844.571	16668
844.708	16809
844.844	16805
844.98	16889
845.117	16839
845.253	16767
845.389	16885
845.525	17037
845.661	17402
845.798	17710
845.934	18159
846.07	18289
846.206	18365
846.342	18102
846.478	17497
846.614	16866
846.75	16546
846.886	16489
847.022	16440
847.158	16325
847.294	16284
847.429	16253
847.565	16128
847.701	16371
847.837	15922
847.972	15964
848.108	15918
848.244	15941
848.379	15751
848.515	15739
848.65	15755
848.786	15785
848.921	15755
849.057	15842
849.192	15861
849.328	15793
849.463	15812
849.598	15701
849.734	15610
849.869	15526
850.004	15572
850.14	15557
850.275	15488
850.41	15416
850.545	15408
850.68	15462
850.815	15496
850.95	15340
851.085	15606
851.22	15504
851.355	15454
851.49	15466
851.625	15519
851.76	15458
851.895	15336
852.03	15462
852.165	15481
852.299	15595
852.434	15526
852.569	15595
852.703	15504
852.838	15591
852.973	15641
853.107	15701
853.242	15523
853.376	15374
853.511	15310
853.645	15355
853.78	15454
853.914	15275
854.048	15351
854.183	15332
854.317	15325
854.451	15526
854.585	15408
854.72	15515
854.854	15408
854.988	15351
855.122	15431
855.256	15302
855.39	15374
855.524	15370
855.658	15416
855.792	15241
855.926	15355
856.06	15393
856.194	15374
856.327	15386
856.461	15374
856.595	15306
856.729	15370
856.862	15363
856.996	15370
857.13	15435
857.263	15488
857.397	15481
857.53	15450
857.664	15348
857.797	15477
857.931	15428
858.064	15431
858.197	15416
858.331	15378
858.464	15294
858.597	15298
858.731	15351
858.864	15340
858.997	15260
859.13	15367
859.263	15382
859.396	15473
859.529	15378
859.662	15230
859.795	15291
859.928	15374
860.061	15401
860.194	15523
860.327	15374
860.46	15344
860.592	15401
860.725	15473
860.858	15374
860.99	15298
861.123	15313
861.256	15218
861.388	15291
861.521	16048
861.653	15192
861.786	15043
861.918	15268
862.05	15256
862.183	15283
862.315	15321
862.447	15401
862.58	15291
862.712	15100
862.844	15123
862.976	15089
863.108	15188
863.24	15557
863.372	14994
863.504	15211
863.636	15165
863.768	15203
863.9	15142
864.032	15024
864.164	15047
864.296	15157
864.428	15123
864.559	15135
864.691	15214
864.823	15207
864.954	15123
865.086	15108
865.217	15051
865.349	15028
865.48	15119
865.612	15142
865.743	15161
865.875	15013
866.006	15104
866.137	15058
866.269	15116
866.4	15058
866.531	14944
866.662	14971
866.793	15032
866.924	15070
867.055	14982
867.186	15157
867.317	15066
867.448	14963
867.579	14998
867.71	14963
867.841	14960
867.972	15070
868.103	15097
868.233	15043
868.364	15116
868.495	15146
868.625	15211
868.756	15435
868.886	15207
869.017	15332
869.147	15401
869.278	15386
869.408	15344
869.539	15325
869.669	15359
869.799	15294
869.929	15469
870.06	15481
870.19	15614
870.32	15591
870.45	15580
870.58	15755
870.71	15812
870.84	15743
870.97	15690
871.1	15701
871.23	15915
871.36	15945
871.489	15778
871.619	15949
871.749	15983
871.879	16002
872.008	16029
872.138	15968
872.267	15865
872.397	15876
872.526	15781
872.656	15667
872.785	15800
872.915	15884
873.044	16074
873.173	15816
873.303	16006
873.432	15983
873.561	16139
873.69	15918
873.819	15911
873.948	16055
874.077	15949
874.206	15979
874.335	16029
874.464	16139
874.593	16303
874.722	16135
874.851	16303
874.979	16367
875.108	16348
875.237	16386
875.365	16200
875.494	16226
875.623	16424
875.751	16253
875.88	16226
876.008	16436
876.136	16500
876.265	16702
876.393	16923
876.521	16733
876.65	16847
876.778	16786
876.906	16755
877.034	16725
877.162	16668
877.29	16634
877.418	16717
877.546	16782
877.674	16767
877.802	16733
877.93	16767
878.058	16752
878.185	16740
878.313	16850
878.441	16801
878.568	16748
878.696	16862
878.824	16957
878.951	17117
879.079	17197
879.206	17551
879.333	17558
879.461	17634
879.588	17752
879.715	17832
879.842	17794
879.97	17471
880.097	17102
880.224	16911
880.351	16930
880.478	16938
880.605	16824
880.732	16828
880.859	16984
880.986	16873
881.112	16771
881.239	16611
881.366	16489
881.493	16542
881.619	16409
881.746	16371
881.872	16413
881.999	16409
882.125	16329
882.252	16466
882.378	16413
882.505	16580
882.631	16303
882.757	16188
882.883	16337
883.01	16188
883.136	16105
883.262	16124
883.388	16116
883.514	16261
883.64	16257
883.766	16204
883.892	15994
884.018	16071
884.143	16238
884.269	16234
884.395	15960
884.52	15979
884.646	15907
884.772	15819
884.897	15873
885.023	15945
885.148	16040
885.274	16059
885.399	16082
885.524	15918
885.65	15983
885.775	15949
885.9	15785
886.025	16067
886.15	15903
886.275	15857
886.4	15759
886.525	15732
886.65	15888
886.775	15800
886.9	15964
887.025	16086
887.149	15903
887.274	15633
887.399	15663
887.523	15652
887.648	15538
887.773	15424
887.897	15660
888.021	15576
888.146	15603
888.27	15629
888.395	15888
888.519	15675
888.643	15652
888.767	15561
888.891	15428
889.015	15370
889.139	15473
889.263	15408
889.387	15576
889.511	15599
889.635	15553
889.759	15454
889.883	15370
890.006	15462
890.13	15458
890.254	15264
890.377	15370
890.501	15272
890.624	15195
890.748	15233
890.871	15173
890.995	15077
891.118	15138
891.241	15062
891.364	15116
891.488	15131
891.611	15047
891.734	15039
891.857	15150
891.98	15123
892.103	15157
892.226	15043
892.349	15066
892.471	15055
892.594	14960
892.717	15127
892.839	15005
892.962	15020
893.085	15085
893.207	15131
893.33	14880
893.452	14921
893.575	15146
893.697	15043
893.819	15207
893.941	15332
894.064	15150
894.186	14986
894.308	15032
894.43	15135
894.552	15142
894.674	15211
894.796	14979
894.918	15043
895.04	14975
895.161	15142
895.283	15104
895.405	15104
895.526	15104
895.648	15154
895.769	15089
895.891	15093
896.012	15230
896.134	15211
896.255	15116
896.376	15116
896.498	15116
896.619	15195
896.74	15203
896.861	15176
896.982	15466
897.103	15606
897.224	15416
897.345	15492
897.466	15310
897.587	15420
897.708	15572
897.828	15519
897.949	15435
898.07	15268
898.19	15386
898.311	15576
898.431	15367
898.552	15500
898.672	15606
898.792	15652
898.913	15488
899.033	15473
899.153	15359
899.273	15287
899.393	15367
899.513	15351
899.633	15382
899.753	15408
899.873	15188
899.993	15405
900.113	15348
900.232	15294
900.352	15363
900.472	15211
900.591	15184
900.711	15165
900.83	15138
900.95	15367
901.069	15313
901.189	15195
901.308	14952
901.427	14960
901.546	14895
901.665	14979
901.784	14826
901.904	14796
902.023	14587
902.141	14461
902.26	14434
902.379	14526
902.498	14499
902.617	14431
902.735	14492
902.854	14389
902.973	14381
903.091	14058
903.21	14126
903.328	14145
903.446	14035
903.565	13986
903.683	13951
903.801	13875
903.919	13982
904.038	13940
904.156	13772
904.274	13841
904.392	13712
904.51	13765
904.627	13807
904.745	13708
904.863	13799
904.981	13502
905.098	13457
905.216	13480
905.334	13540
905.451	13422
905.569	13445
905.686	13339
905.803	13396
905.921	13179
906.038	13384
906.155	13301
906.272	13183
906.389	13168
906.506	12928
906.623	12947
906.74	12981
906.857	12897
906.974	12947
907.091	13061
907.208	13274
907.324	13076
907.441	12928
907.557	12825
907.674	12795
907.79	12650
907.907	12620
908.023	12760
908.139	12646
908.256	12662
908.372	12707
908.488	12525
908.604	12521
908.72	12483
908.836	12502
908.952	12498
909.068	12521
909.184	12623
909.3	12532
909.415	12521
909.531	12372
909.647	12277
909.762	12171
909.878	12194
909.993	12277
910.108	12292
910.224	12262
910.339	12209
910.454	12178
910.57	12019
910.685	12133
910.8	12338
910.915	12270
911.03	12072
911.145	11965
911.259	11946
911.374	11942
911.489	11912
911.604	11783
911.718	11661
911.833	11661
911.947	11589
912.062	11539
912.176	11634
912.291	11619
912.405	11547
912.519	11813
912.633	11946
912.748	11722
912.862	11741
912.976	11558
913.09	11436
913.204	11505
913.318	11509
913.431	11581
913.545	11600
913.659	11638
913.772	11505
913.886	11455
914	11356
914.113	11448
914.226	11573
914.34	11444
914.453	11383
914.566	11520
914.68	11315
914.793	11334
914.906	11197
915.019	11075
915.132	11064
915.245	11071
915.358	11174
915.47	11132
915.583	11185
915.696	11189
915.809	11337
915.921	11376
916.034	11140
916.146	11113
916.259	11037
916.371	11174
916.483	11201
916.595	11090
916.708	11064
916.82	11048
916.932	11048
917.044	11121
917.156	11037
917.268	10946
917.38	10957
917.491	10953
917.603	10930
917.715	11006
917.826	11056
917.938	10980
918.049	10744
918.161	10972
918.272	11094
918.384	11083
918.495	10881
918.606	10793
918.717	10759
918.828	10839
918.939	10866
919.05	10721
919.161	10725
919.272	10565
919.383	10725
919.494	10793
919.604	10900
919.715	10885
919.826	10698
919.936	10763
920.047	10866
920.157	10889
920.267	10949
920.378	10900
920.488	10748
920.598	11037
920.708	11128
920.818	11025
920.928	11033
921.038	11151
921.148	11102
921.258	10820
921.368	10782
921.477	10694
921.587	10618
921.697	10573
921.806	10637
921.916	10512
922.025	10356
922.134	10375
922.244	10299
922.353	10493
922.462	10299
922.571	10265
922.68	10040
922.789	10055
922.898	10048
923.007	9987
923.116	10128
923.224	10036
923.333	10082
923.442	10006
923.55	9972
923.659	9968
923.767	10036
923.876	9915
923.984	10059
924.092	9854
924.201	9991
924.309	9888
924.417	9880
924.525	9892
924.633	9854
924.741	10862
924.849	9717
924.956	9831
925.064	9682
925.172	9648
925.279	9580
925.387	9694
925.494	9698
925.602	9895
925.709	9819
925.816	9641
925.924	9679
926.031	9747
926.138	9701
926.245	9785
926.352	9580
926.459	9778
926.566	9797
926.673	9705
926.779	9572
926.886	9542
926.993	9393
927.099	9450
927.206	9348
927.312	9344
927.419	9462
927.525	9386
927.631	9450
927.737	9329
927.843	9268
927.95	9214
928.056	9249
928.162	9287
928.267	9287
928.373	9804
928.479	9355
928.585	9112
928.69	9233
928.796	9298
928.901	9188
929.007	9070
929.112	9195
929.218	9195
929.323	9081
929.428	9112
929.533	9184
929.638	9108
929.743	9100
929.848	9116
929.953	9077
930.058	9001
930.163	8823
930.267	8899
930.372	8986
930.477	8849
930.581	9028
930.685	8925
930.79	8754
930.894	8815
930.998	8758
931.103	8941
931.207	8575
931.311	8484
931.415	8465
931.519	8290
931.623	8282
