Data from test_V78500241_327.txt Node
Date: Fri Mar 25 14:35:59 CST 2022
User: usil
Spectrometer: V785-0024
Trigger mode: 0
Integration Time (sec): 4.000000E-1
Scans to average: 1
Nonlinearity correction enabled: false
Boxcar width: 0
Storing dark spectrum: false
XAxis mode: Wavelengths
Number of Pixels in Spectrum: 1024
>>>>>Begin Spectral Data<<<<<
801.071	26982
801.214	26921
801.356	26663
801.499	26609
801.641	26393
801.783	26355
801.926	26351
802.068	26404
802.211	26263
802.353	26290
802.496	26164
802.638	26092
802.78	25966
802.923	26024
803.065	25784
803.208	25913
803.35	25902
803.492	26050
803.635	26092
803.777	25997
803.919	26031
804.061	26419
804.204	25845
804.346	25898
804.488	25852
804.63	25871
804.773	25890
804.915	25936
805.057	26005
805.199	26043
805.341	26016
805.483	26050
805.626	26069
805.768	25936
805.91	25951
806.052	25993
806.194	25856
806.336	26157
806.478	26043
806.62	26088
806.762	26062
806.904	26153
807.046	26484
807.188	26434
807.33	26324
807.472	26389
807.614	26309
807.756	26343
807.898	26119
808.04	26096
808.182	26119
808.324	26183
808.465	26214
808.607	26358
808.749	26522
808.891	26564
809.033	26667
809.174	26644
809.316	26442
809.458	26530
809.6	26423
809.741	26537
809.883	26571
810.025	26667
810.166	26693
810.308	26705
810.45	26705
810.591	26552
810.733	26476
810.875	26408
811.016	26286
811.158	26278
811.299	26248
811.441	26492
811.582	26545
811.724	26431
811.865	26301
812.007	26336
812.148	26385
812.29	26358
812.431	26400
812.573	26708
812.714	26678
812.855	26697
812.997	26902
813.138	26887
813.279	26758
813.421	26750
813.562	26849
813.703	26514
813.845	26488
813.986	26077
814.127	26005
814.268	25978
814.41	25928
814.551	25712
814.692	26020
814.833	25807
814.974	25849
815.115	25883
815.256	25639
815.397	25704
815.539	25712
815.68	25723
815.821	25491
815.962	25742
816.103	25540
816.244	25563
816.385	25365
816.526	25369
816.666	25080
816.807	24909
816.948	25019
817.089	25072
817.23	25103
817.371	25042
817.512	24966
817.653	25027
817.793	24966
817.934	25019
818.075	25042
818.216	24951
818.356	25000
818.497	24798
818.638	24654
818.778	24635
818.919	24658
819.06	24707
819.2	24814
819.341	24970
819.481	24833
819.622	25027
819.762	25217
819.903	25190
820.043	25129
820.184	25027
820.324	25038
820.465	25088
820.605	24992
820.746	24958
820.886	24825
821.026	24886
821.167	24798
821.307	25019
821.447	24882
821.588	24802
821.728	24635
821.868	24433
822.008	24388
822.149	24330
822.289	24323
822.429	23992
822.569	24068
822.709	24038
822.849	23847
822.99	23866
823.13	23676
823.27	23657
823.41	23596
823.55	23642
823.69	23623
823.83	23505
823.97	23501
824.11	23395
824.25	23334
824.389	23322
824.529	23334
824.669	23261
824.809	23448
824.949	23425
825.089	23299
825.228	23341
825.368	23227
825.508	23231
825.648	23216
825.787	23067
825.927	23242
826.067	23185
826.206	23056
826.346	23296
826.485	23242
826.625	23098
826.765	23220
826.904	23098
827.044	22885
827.183	22831
827.323	22858
827.462	22968
827.601	22881
827.741	22778
827.88	22850
828.02	22828
828.159	22687
828.298	22858
828.437	22786
828.577	22675
828.716	22896
828.855	22717
828.994	22409
829.134	22637
829.273	22557
829.412	22508
829.551	22519
829.69	22474
829.829	22386
829.968	22550
830.107	22554
830.246	22519
830.385	22424
830.524	22314
830.663	22325
830.802	22200
830.941	21960
831.08	22002
831.219	22177
831.357	22154
831.496	22246
831.635	22131
831.774	22006
831.913	21911
832.051	21892
832.19	21816
832.329	21972
832.467	21682
832.606	21671
832.744	21686
832.883	21629
833.022	21698
833.16	21629
833.299	21667
833.437	21671
833.576	21728
833.714	21732
833.852	21770
833.991	21823
834.129	21759
834.267	21835
834.406	21629
834.544	21762
834.682	21736
834.821	21564
834.959	21918
835.097	21606
835.235	21625
835.373	21698
835.511	21679
835.65	21629
835.788	21564
835.926	21439
836.064	21443
836.202	21515
836.34	21515
836.478	21644
836.615	21519
836.753	21542
836.891	21625
837.029	21637
837.167	21538
837.305	21515
837.443	21412
837.58	21435
837.718	21507
837.856	21564
837.993	21329
838.131	21370
838.269	21252
838.406	21351
838.544	21233
838.681	21043
838.819	20948
838.956	20785
839.094	20838
839.231	20944
839.369	21013
839.506	21287
839.643	20990
839.781	20853
839.918	20792
840.055	20872
840.193	20785
840.33	20724
840.467	20788
840.604	20834
840.742	20925
840.879	20575
841.016	20727
841.153	20682
841.29	20853
841.427	20750
841.564	20777
841.701	20701
841.838	20644
841.975	20549
842.112	20667
842.249	20541
842.385	20419
842.522	20716
842.659	20522
842.796	20423
842.933	20480
843.069	20351
843.206	20461
843.343	20617
843.479	20450
843.616	20549
843.752	20343
843.889	20199
844.025	20252
844.162	20218
844.298	20355
844.435	20244
844.571	20130
844.708	20267
844.844	20457
844.98	20351
845.117	20362
845.253	20168
845.389	20084
845.525	20191
845.661	20199
845.798	19959
845.934	20225
846.07	20005
846.206	20103
846.342	20149
846.478	20020
846.614	19746
846.75	19799
846.886	19643
847.022	19849
847.158	19674
847.294	19818
847.429	19731
847.565	19666
847.701	19928
847.837	19422
847.972	19449
848.108	19529
848.244	19464
848.379	19312
848.515	19247
848.65	19335
848.786	19278
848.921	19255
849.057	19396
849.192	19400
849.328	19274
849.463	19285
849.598	19251
849.734	19198
849.869	19148
850.004	19000
850.14	19076
850.275	18958
850.41	18916
850.545	18939
850.68	19034
850.815	18966
850.95	18947
851.085	19099
851.22	19118
851.355	18878
851.49	18970
851.625	18954
851.76	18973
851.895	18989
852.03	18840
852.165	18970
852.299	19012
852.434	19095
852.569	19114
852.703	18970
852.838	19034
852.973	19057
853.107	19027
853.242	18886
853.376	18837
853.511	18582
853.645	18730
853.78	18867
853.914	18867
854.048	18642
854.183	18897
854.317	18802
854.451	18901
854.585	18806
854.72	18802
854.854	18848
854.988	18688
855.122	18741
855.256	18639
855.39	18810
855.524	18875
855.658	18859
855.792	18783
855.926	18817
856.06	18798
856.194	18916
856.327	18779
856.461	18741
856.595	18703
856.729	18859
856.862	18901
856.996	18806
857.13	18829
857.263	18825
857.397	18966
857.53	18783
857.664	18848
857.797	18787
857.931	18901
858.064	18768
858.197	18859
858.331	18753
858.464	18692
858.597	18692
858.731	18810
858.864	18711
858.997	18772
859.13	18795
859.263	18798
859.396	18856
859.529	18772
859.662	18635
859.795	18639
859.928	18715
860.061	18962
860.194	18859
860.327	18779
860.46	18798
860.592	18844
860.725	18817
860.858	18791
860.99	18726
861.123	18589
861.256	18631
861.388	18814
861.521	19396
861.653	18559
861.786	18642
861.918	18726
862.05	18635
862.183	18821
862.315	18806
862.447	18817
862.58	18722
862.712	18536
862.844	18422
862.976	18513
863.108	18521
863.24	18810
863.372	18464
863.504	18422
863.636	18566
863.768	18475
863.9	18502
864.032	18380
864.164	18452
864.296	18361
864.428	18616
864.559	18513
864.691	18506
864.823	18365
864.954	18479
865.086	18365
865.217	18353
865.349	18300
865.48	18285
865.612	18308
865.743	18464
865.875	18407
866.006	18437
866.137	18262
866.269	18323
866.4	18319
866.531	18296
866.662	18292
866.793	18308
866.924	18330
867.055	18346
867.186	18334
867.317	18285
867.448	18159
867.579	18300
867.71	18186
867.841	18216
867.972	18346
868.103	18338
868.233	18266
868.364	18273
868.495	18395
868.625	18486
868.756	18620
868.886	18467
869.017	18555
869.147	18726
869.278	18707
869.408	18570
869.539	18483
869.669	18612
869.799	18646
869.929	18814
870.06	18677
870.19	18795
870.32	18798
870.45	18856
870.58	18970
870.71	18973
870.84	19019
870.97	19053
871.1	18871
871.23	19129
871.36	19091
871.489	19015
871.619	19072
871.749	19042
871.879	19148
872.008	19206
872.138	19050
872.267	19099
872.397	18943
872.526	18939
872.656	18996
872.785	19034
872.915	19278
873.044	19282
873.173	19213
873.303	19118
873.432	19175
873.561	19331
873.69	19228
873.819	19194
873.948	19217
874.077	19069
874.206	19107
874.335	19194
874.464	19179
874.593	19468
874.722	19373
874.851	19373
874.979	19460
875.108	19415
875.237	19453
875.365	19403
875.494	19430
875.623	19559
875.751	19274
875.88	19525
876.008	19483
876.136	19632
876.265	19868
876.393	19917
876.521	19822
876.65	19940
876.778	19837
876.906	19753
877.034	19830
877.162	19757
877.29	19811
877.418	19868
877.546	19830
877.674	19887
877.802	19841
877.93	19860
878.058	19807
878.185	19723
878.313	19818
878.441	19871
878.568	19677
878.696	19822
878.824	19925
878.951	19947
879.079	19986
879.206	20134
879.333	20024
879.461	19883
879.588	19898
879.715	19955
879.842	20130
879.97	19879
880.097	19674
880.224	19662
880.351	19685
880.478	19582
880.605	19696
880.732	19693
880.859	19906
880.986	19830
881.112	19681
881.239	19628
881.366	19426
881.493	19346
881.619	19331
881.746	19392
881.872	19221
881.999	19285
882.125	19285
882.252	19339
882.378	19289
882.505	19354
882.631	19156
882.757	19141
882.883	19247
883.01	18970
883.136	19053
883.262	18973
883.388	18886
883.514	19103
883.64	19004
883.766	18924
883.892	18829
884.018	18920
884.143	19069
884.269	19004
884.395	18817
884.52	18757
884.646	18806
884.772	18764
884.897	18665
885.023	18768
885.148	18776
885.274	18829
885.399	18840
885.524	18677
885.65	18677
885.775	18798
885.9	18684
886.025	18810
886.15	18730
886.275	18597
886.4	18582
886.525	18589
886.65	18483
886.775	18604
886.9	18825
887.025	18863
887.149	18825
887.274	18483
887.399	18479
887.523	18410
887.648	18338
887.773	18311
887.897	18532
888.021	18506
888.146	18350
888.27	18513
888.395	18585
888.519	18475
888.643	18486
888.767	18357
888.891	18391
889.015	18258
889.139	18452
889.263	18205
889.387	18319
889.511	18521
889.635	18346
889.759	18239
889.883	18239
890.006	18254
890.13	18289
890.254	18167
890.377	18216
890.501	17984
890.624	18057
890.748	18030
890.871	17935
890.995	17882
891.118	17775
891.241	17889
891.364	17824
891.488	17942
891.611	17874
891.734	17832
891.857	17996
891.98	17851
892.103	17939
892.226	17901
892.349	17847
892.471	17691
892.594	17847
892.717	17843
892.839	17840
892.962	17836
893.085	17942
893.207	17931
893.33	17680
893.452	17760
893.575	17935
893.697	17718
893.819	18015
893.941	17984
894.064	17901
894.186	17847
894.308	17691
894.43	17965
894.552	18057
894.674	17904
894.796	17813
894.918	17843
895.04	17741
895.161	17950
895.283	17870
895.405	17874
895.526	17817
895.648	17798
895.769	17855
895.891	17897
896.012	17961
896.134	17927
896.255	17882
896.376	17866
896.498	17912
896.619	17942
896.74	17885
896.861	17882
896.982	18239
897.103	18460
897.224	18232
897.345	18216
897.466	18266
897.587	18243
897.708	18281
897.828	18117
897.949	18197
898.07	17950
898.19	18003
898.311	18266
898.431	18041
898.552	18121
898.672	18095
898.792	18136
898.913	18152
899.033	17984
899.153	17855
899.273	17805
899.393	17904
899.513	17939
899.633	17954
899.753	17996
899.873	17927
899.993	17878
900.113	17779
900.232	17882
900.352	17855
900.472	17623
900.591	17745
900.711	17764
900.83	17672
900.95	17809
901.069	17745
901.189	17687
901.308	17436
901.427	17280
901.546	17406
901.665	17417
901.784	17364
901.904	17174
902.023	17147
902.141	16915
902.26	16900
902.379	16938
902.498	16968
902.617	16805
902.735	16866
902.854	16892
902.973	16679
903.091	16481
903.21	16527
903.328	16550
903.446	16440
903.565	16493
903.683	16333
903.801	16242
903.919	16341
904.038	16295
904.156	16124
904.274	16352
904.392	16131
904.51	16181
904.627	16265
904.745	16128
904.863	16207
904.981	15998
905.098	15861
905.216	15903
905.334	15865
905.451	15899
905.569	15789
905.686	15812
905.803	15816
905.921	15610
906.038	15762
906.155	15690
906.272	15511
906.389	15584
906.506	15363
906.623	15321
906.74	15340
906.857	15237
906.974	15203
907.091	15469
907.208	15481
907.324	15313
907.441	15233
907.557	15154
907.674	15104
907.79	15001
907.907	14994
908.023	14990
908.139	14967
908.256	15104
908.372	14880
908.488	15047
908.604	14883
908.72	14708
908.836	14731
908.952	14727
909.068	14769
909.184	14868
909.3	14750
909.415	14826
909.531	14708
909.647	14442
909.762	14492
909.878	14579
909.993	14522
910.108	14511
910.224	14412
910.339	14393
910.454	14389
910.57	14328
910.685	14240
910.8	14457
910.915	14454
911.03	14286
911.145	14164
911.259	14123
911.374	14126
911.489	14065
911.604	13989
911.718	13868
911.833	13830
911.947	13708
912.062	13708
912.176	13871
912.291	13917
912.405	13868
912.519	14016
912.633	14088
912.748	13887
912.862	13772
912.976	13624
913.09	13597
913.204	13647
913.318	13715
913.431	13791
913.545	13776
913.659	13731
913.772	13639
913.886	13506
914	13563
914.113	13643
914.226	13655
914.34	13529
914.453	13434
914.566	13544
914.68	13445
914.793	13396
914.906	13259
915.019	13179
915.132	13152
915.245	13145
915.358	13137
915.47	13217
915.583	13202
915.696	13228
915.809	13362
915.921	13362
916.034	13099
916.146	13091
916.259	13080
916.371	13168
916.483	13141
916.595	13031
916.708	13046
916.82	13008
916.932	13042
917.044	13061
917.156	12962
917.268	12943
917.38	12939
917.491	12943
917.603	12905
917.715	12962
917.826	13023
917.938	12897
918.049	12757
918.161	12939
918.272	12947
918.384	12958
918.495	12947
918.606	12795
918.717	12700
918.828	12734
918.939	12741
919.05	12639
919.161	12696
919.272	12479
919.383	12616
919.494	12768
919.604	12810
919.715	12715
919.826	12639
919.936	12673
920.047	12753
920.157	12627
920.267	12863
920.378	12783
920.488	12642
920.598	12905
920.708	12867
920.818	12791
920.928	12829
921.038	12916
921.148	12863
921.258	12623
921.368	12555
921.477	12471
921.587	12490
921.697	12350
921.806	12460
921.916	12426
922.025	12125
922.134	12091
922.244	12133
922.353	12030
922.462	11950
922.571	11912
922.68	11813
922.789	11813
922.898	11748
923.007	11699
923.116	11771
923.224	11786
923.333	11733
923.442	11710
923.55	11592
923.659	11562
923.767	11714
923.876	11611
923.984	11680
924.092	11436
924.201	11657
924.309	11516
924.417	11566
924.525	11520
924.633	11520
924.741	12258
924.849	11337
924.956	11471
925.064	11345
925.172	11155
925.279	11258
925.387	11296
925.494	11261
925.602	11398
925.709	11410
925.816	11159
925.924	11242
926.031	11280
926.138	11280
926.245	11284
926.352	11178
926.459	11284
926.566	11368
926.673	11166
926.779	11075
926.886	11128
926.993	10968
927.099	10953
927.206	10858
927.312	10744
927.419	10881
927.525	10866
927.631	10991
927.737	10900
927.843	10774
927.95	10626
928.056	10675
928.162	10831
928.267	10854
928.373	11326
928.479	10923
928.585	10611
928.69	10733
928.796	10869
928.901	10702
929.007	10561
929.112	10561
929.218	10599
929.323	10485
929.428	10451
929.533	10653
929.638	10470
929.743	10493
929.848	10432
929.953	10546
930.058	10386
930.163	10333
930.267	10253
930.372	10367
930.477	10192
930.581	10375
930.685	10211
930.79	10093
930.894	10215
930.998	10109
931.103	10211
931.207	9888
931.311	9835
931.415	9774
931.519	9454
931.623	9564
