Data from test_V78500241_3214.txt Node
Date: Fri Mar 25 14:56:05 CST 2022
User: usil
Spectrometer: V785-0024
Trigger mode: 0
Integration Time (sec): 4.000000E-1
Scans to average: 1
Nonlinearity correction enabled: false
Boxcar width: 0
Storing dark spectrum: false
XAxis mode: Wavelengths
Number of Pixels in Spectrum: 1024
>>>>>Begin Spectral Data<<<<<
801.071	22040
801.214	21892
801.356	21557
801.499	21549
801.641	21477
801.783	21397
801.926	21450
802.068	21268
802.211	21272
802.353	21165
802.496	20994
802.638	20861
802.78	20838
802.923	20777
803.065	20617
803.208	20598
803.35	20731
803.492	20800
803.635	20872
803.777	20785
803.919	20758
804.061	20971
804.204	20758
804.346	20750
804.488	20545
804.63	20743
804.773	20594
804.915	20663
805.057	20659
805.199	20552
805.341	20663
805.483	20739
805.626	20724
805.768	20526
805.91	20629
806.052	20678
806.194	20415
806.336	20800
806.478	20488
806.62	20568
806.762	20727
806.904	20788
807.046	20948
807.188	21100
807.33	20883
807.472	21051
807.614	20982
807.756	20807
807.898	20712
808.04	20735
808.182	20602
808.324	20689
808.465	20621
808.607	20838
808.749	21001
808.891	20979
809.033	21146
809.174	20998
809.316	20925
809.458	20960
809.6	20906
809.741	21077
809.883	21009
810.025	21116
810.166	21047
810.308	21161
810.45	21013
810.591	21085
810.733	20876
810.875	20868
811.016	20697
811.158	20735
811.299	20739
811.441	20830
811.582	20781
811.724	20727
811.865	20773
812.007	20720
812.148	20727
812.29	20796
812.431	20849
812.573	21036
812.714	21058
812.855	21233
812.997	21291
813.138	21538
813.279	21272
813.421	21214
813.562	21123
813.703	20899
813.845	20853
813.986	20617
814.127	20358
814.268	20301
814.41	20301
814.551	20294
814.692	20290
814.833	20210
814.974	20218
815.115	20427
815.256	20149
815.397	20084
815.539	20100
815.68	20035
815.821	20005
815.962	20092
816.103	19974
816.244	19898
816.385	19765
816.526	19708
816.666	19556
816.807	19369
816.948	19506
817.089	19540
817.23	19453
817.371	19384
817.512	19419
817.653	19350
817.793	19263
817.934	19388
818.075	19483
818.216	19434
818.356	19350
818.497	19270
818.638	19107
818.778	19137
818.919	19053
819.06	19110
819.2	19251
819.341	19304
819.481	19327
819.622	19327
819.762	19643
819.903	19472
820.043	19445
820.184	19506
820.324	19350
820.465	19460
820.605	19415
820.746	19350
820.886	19293
821.026	19331
821.167	19346
821.307	19441
821.447	19282
821.588	19225
821.728	19065
821.868	18928
822.008	18757
822.149	18894
822.289	18791
822.429	18532
822.569	18517
822.709	18475
822.849	18395
822.99	18220
823.13	18327
823.27	18289
823.41	18178
823.55	18041
823.69	18030
823.83	18068
823.97	18041
824.11	17821
824.25	17863
824.389	17901
824.529	17901
824.669	17874
824.809	18022
824.949	17847
825.089	17950
825.228	17904
825.368	17623
825.508	17535
825.648	17577
825.787	17642
825.927	17764
826.067	17672
826.206	17589
826.346	17680
826.485	17638
826.625	17630
826.765	17718
826.904	17634
827.044	17383
827.183	17360
827.323	17315
827.462	17448
827.601	17326
827.741	17387
827.88	17318
828.02	17170
828.159	17277
828.298	17284
828.437	17341
828.577	17280
828.716	17356
828.855	17239
828.994	17124
829.134	17086
829.273	17121
829.412	17006
829.551	16915
829.69	17079
829.829	17083
829.968	17208
830.107	17178
830.246	17121
830.385	16961
830.524	16946
830.663	16904
830.802	16839
830.941	16774
831.08	16717
831.219	16862
831.357	16778
831.496	16942
831.635	16645
831.774	16672
831.913	16493
832.051	16428
832.19	16481
832.329	16413
832.467	16390
832.606	16424
832.744	16390
832.883	16310
833.022	16394
833.16	16382
833.299	16485
833.437	16421
833.576	16447
833.714	16394
833.852	16462
833.991	16379
834.129	16550
834.267	16596
834.406	16459
834.544	16443
834.682	16436
834.821	16508
834.959	16630
835.097	16424
835.235	16504
835.373	16440
835.511	16565
835.65	16303
835.788	16390
835.926	16192
836.064	16109
836.202	16215
836.34	16363
836.478	16405
836.615	16322
836.753	16367
836.891	16527
837.029	16356
837.167	16253
837.305	16257
837.443	16337
837.58	16150
837.718	16306
837.856	16314
837.993	16215
838.131	16230
838.269	16150
838.406	16116
838.544	16150
838.681	15892
838.819	15937
838.956	15709
839.094	15705
839.231	15835
839.369	15949
839.506	16215
839.643	15972
839.781	15808
839.918	15793
840.055	15797
840.193	15686
840.33	15823
840.467	15701
840.604	15880
840.742	15926
840.879	15606
841.016	15728
841.153	15694
841.29	15865
841.427	15857
841.564	15785
841.701	15724
841.838	15690
841.975	15622
842.112	15739
842.249	15538
842.385	15507
842.522	15724
842.659	15545
842.796	15526
842.933	15526
843.069	15534
843.206	15515
843.343	15690
843.479	15599
843.616	15545
843.752	15351
843.889	15317
844.025	15462
844.162	15317
844.298	15458
844.435	15264
844.571	15195
844.708	15344
844.844	15504
844.98	15469
845.117	15515
845.253	15287
845.389	15214
845.525	15279
845.661	15233
845.798	15146
845.934	15214
846.07	15074
846.206	15146
846.342	15272
846.478	15070
846.614	14960
846.75	14868
846.886	14880
847.022	14914
847.158	14925
847.294	14944
847.429	14891
847.565	14861
847.701	15176
847.837	14636
847.972	14644
848.108	14674
848.244	14765
848.379	14587
848.515	14507
848.65	14480
848.786	14552
848.921	14446
849.057	14651
849.192	14590
849.328	14617
849.463	14514
849.598	14434
849.734	14442
849.869	14457
850.004	14324
850.14	14317
850.275	14336
850.41	14187
850.545	14256
850.68	14290
850.815	14286
850.95	14313
851.085	14461
851.22	14355
851.355	14343
851.49	14229
851.625	14157
851.76	14275
851.895	14195
852.03	14115
852.165	14218
852.299	14328
852.434	14320
852.569	14332
852.703	14275
852.838	14366
852.973	14381
853.107	14377
853.242	14210
853.376	14176
853.511	14115
853.645	14039
853.78	14221
853.914	14195
854.048	14119
854.183	14153
854.317	14172
854.451	14313
854.585	14191
854.72	14153
854.854	14290
854.988	14084
855.122	14172
855.256	13967
855.39	14149
855.524	14202
855.658	14229
855.792	14161
855.926	14221
856.06	14210
856.194	14347
856.327	14069
856.461	14111
856.595	14092
856.729	14142
856.862	14275
856.996	14180
857.13	14218
857.263	14286
857.397	14240
857.53	14221
857.664	14328
857.797	14240
857.931	14259
858.064	14206
858.197	14294
858.331	14161
858.464	14142
858.597	14073
858.731	14168
858.864	14130
858.997	14107
859.13	14202
859.263	14172
859.396	14275
859.529	14168
859.662	14130
859.795	14123
859.928	14123
860.061	14362
860.194	14415
860.327	14107
860.46	14183
860.592	14263
860.725	14370
860.858	14161
860.99	14206
861.123	14096
861.256	14100
861.388	14107
861.521	14853
861.653	14001
861.786	13947
861.918	13928
862.05	14001
862.183	14107
862.315	14244
862.447	14161
862.58	14100
862.712	13963
862.844	13879
862.976	13993
863.108	14027
863.24	14393
863.372	13818
863.504	14039
863.636	13883
863.768	14024
863.9	13894
864.032	13940
864.164	13955
864.296	13993
864.428	14077
864.559	14130
864.691	14046
864.823	14001
864.954	14058
865.086	13959
865.217	13940
865.349	13868
865.48	13940
865.612	13925
865.743	14031
865.875	13959
866.006	13856
866.137	13917
866.269	13833
866.4	13917
866.531	13879
866.662	13871
866.793	13978
866.924	13826
867.055	13913
867.186	13909
867.317	13833
867.448	13841
867.579	13887
867.71	13826
867.841	13875
867.972	13875
868.103	13871
868.233	13936
868.364	13898
868.495	14012
868.625	14199
868.756	14248
868.886	14107
869.017	14092
869.147	14259
869.278	14294
869.408	14210
869.539	14069
869.669	14187
869.799	14221
869.929	14332
870.06	14328
870.19	14446
870.32	14507
870.45	14537
870.58	14731
870.71	14606
870.84	14613
870.97	14549
871.1	14594
871.23	14800
871.36	14750
871.489	14750
871.619	14689
871.749	14655
871.879	14792
872.008	14921
872.138	14712
872.267	14712
872.397	14674
872.526	14655
872.656	14564
872.785	14617
872.915	14712
873.044	14849
873.173	14849
873.303	14830
873.432	14868
873.561	14823
873.69	14891
873.819	14826
873.948	14899
874.077	14880
874.206	14804
874.335	14838
874.464	14921
874.593	15127
874.722	15058
874.851	15188
874.979	15119
875.108	15165
875.237	15116
875.365	15009
875.494	15176
875.623	15272
875.751	15142
875.88	15252
876.008	15310
876.136	15298
876.265	15549
876.393	15747
876.521	15656
876.65	15641
876.778	15633
876.906	15519
877.034	15481
877.162	15545
877.29	15515
877.418	15507
877.546	15667
877.674	15580
877.802	15576
877.93	15587
878.058	15515
878.185	15424
878.313	15515
878.441	15515
878.568	15435
878.696	15500
878.824	15584
878.951	15648
879.079	15717
879.206	15884
879.333	15762
879.461	15663
879.588	15644
879.715	15728
879.842	15915
879.97	15705
880.097	15367
880.224	15393
880.351	15447
880.478	15363
880.605	15454
880.732	15378
880.859	15648
880.986	15424
881.112	15386
881.239	15405
881.366	15222
881.493	15032
881.619	15051
881.746	15077
881.872	15024
881.999	15184
882.125	15058
882.252	15218
882.378	15085
882.505	15176
882.631	15036
882.757	14842
882.883	14861
883.01	14883
883.136	14819
883.262	14765
883.388	14705
883.514	14868
883.64	14941
883.766	14842
883.892	14644
884.018	14811
884.143	14944
884.269	14948
884.395	14632
884.52	14575
884.646	14708
884.772	14469
884.897	14488
885.023	14625
885.148	14632
885.274	14834
885.399	14667
885.524	14636
885.65	14610
885.775	14594
885.9	14651
886.025	14788
886.15	14697
886.275	14556
886.4	14492
886.525	14522
886.65	14457
886.775	14571
886.9	14712
887.025	14811
887.149	14636
887.274	14339
887.399	14465
887.523	14457
887.648	14332
887.773	14400
887.897	14473
888.021	14347
888.146	14427
888.27	14457
888.395	14552
888.519	14469
888.643	14537
888.767	14473
888.891	14351
889.015	14282
889.139	14423
889.263	14244
889.387	14450
889.511	14492
889.635	14305
889.759	14358
889.883	14309
890.006	14282
890.13	14389
890.254	14187
890.377	14168
890.501	14050
890.624	14077
890.748	14176
890.871	13959
890.995	13883
891.118	13967
891.241	14024
891.364	13970
891.488	14008
891.611	14016
891.734	13955
891.857	14012
891.98	14008
892.103	14111
892.226	14062
892.349	13951
892.471	13814
892.594	13989
892.717	13974
892.839	14020
892.962	14046
893.085	14020
893.207	14054
893.33	13906
893.452	13940
893.575	13974
893.697	13913
893.819	14149
893.941	14248
894.064	14172
894.186	13890
894.308	13947
894.43	14168
894.552	14252
894.674	14054
894.796	13970
894.918	14024
895.04	14005
895.161	14142
895.283	14187
895.405	14103
895.526	14107
895.648	14107
895.769	14130
895.891	14081
896.012	14195
896.134	14157
896.255	14119
896.376	14039
896.498	14145
896.619	14202
896.74	14214
896.861	14252
896.982	14530
897.103	14655
897.224	14473
897.345	14476
897.466	14286
897.587	14423
897.708	14568
897.828	14480
897.949	14499
898.07	14271
898.19	14400
898.311	14598
898.431	14473
898.552	14511
898.672	14602
898.792	14636
898.913	14644
899.033	14427
899.153	14393
899.273	14301
899.393	14298
899.513	14313
899.633	14278
899.753	14377
899.873	14336
899.993	14393
900.113	14393
900.232	14343
900.352	14400
900.472	14347
900.591	14229
900.711	14240
900.83	14191
900.95	14317
901.069	14286
901.189	14202
901.308	14020
901.427	13940
901.546	13932
901.665	13883
901.784	13978
901.904	13757
902.023	13788
902.141	13556
902.26	13457
902.379	13544
902.498	13487
902.617	13384
902.735	13544
902.854	13548
902.973	13411
903.091	13320
903.21	13217
903.328	13213
903.446	13183
903.565	13069
903.683	12993
903.801	12970
903.919	12954
904.038	13057
904.156	12920
904.274	13012
904.392	12825
904.51	12844
904.627	12871
904.745	12924
904.863	12909
904.981	12639
905.098	12521
905.216	12513
905.334	12612
905.451	12620
905.569	12551
905.686	12570
905.803	12547
905.921	12353
906.038	12513
906.155	12346
906.272	12194
906.389	12315
906.506	12224
906.623	12235
906.74	12114
906.857	12091
906.974	12133
907.091	12213
907.208	12365
907.324	12159
907.441	12136
907.557	11916
907.674	12003
907.79	11824
907.907	11809
908.023	11920
908.139	11923
908.256	11760
908.372	11866
908.488	11805
908.604	11737
908.72	11642
908.836	11623
908.952	11684
909.068	11653
909.184	11691
909.3	11691
909.415	11771
909.531	11779
909.647	11436
909.762	11459
909.878	11448
909.993	11414
910.108	11429
910.224	11364
910.339	11474
910.454	11311
910.57	11280
910.685	11201
910.8	11554
910.915	11505
911.03	11288
911.145	11151
911.259	11178
911.374	11147
911.489	11045
911.604	11033
911.718	10885
911.833	10892
911.947	10767
912.062	10778
912.176	10812
912.291	10862
912.405	10923
912.519	11079
912.633	11056
912.748	10927
912.862	10923
912.976	10729
913.09	10763
913.204	10786
913.318	10778
913.431	10885
913.545	10881
913.659	10919
913.772	10736
913.886	10649
914	10622
914.113	10710
914.226	10759
914.34	10797
914.453	10550
914.566	10698
914.68	10584
914.793	10607
914.906	10379
915.019	10413
915.132	10318
915.245	10421
915.358	10459
915.47	10428
915.583	10493
915.696	10489
915.809	10519
915.921	10641
916.034	10447
916.146	10299
916.259	10363
916.371	10386
916.483	10466
916.595	10360
916.708	10337
916.82	10375
916.932	10291
917.044	10379
917.156	10295
917.268	10284
917.38	10185
917.491	10261
917.603	10234
917.715	10371
917.826	10325
917.938	10242
918.049	10124
918.161	10253
918.272	10371
918.384	10409
918.495	10272
918.606	10112
918.717	10051
918.828	10112
918.939	10196
919.05	10048
919.161	10044
919.272	9915
919.383	10002
919.494	10192
919.604	10382
919.715	10162
919.826	10063
919.936	10120
920.047	10219
920.157	10196
920.267	10196
920.378	10219
920.488	10154
920.598	10367
920.708	10493
920.818	10428
920.928	10348
921.038	10474
921.148	10462
921.258	10185
921.368	10059
921.477	10006
921.587	9998
921.697	9842
921.806	10093
921.916	9903
922.025	9709
922.134	9736
922.244	9660
922.353	9835
922.462	9625
922.571	9477
922.68	9408
922.789	9336
922.898	9370
923.007	9359
923.116	9439
923.224	9450
923.333	9401
923.442	9351
923.55	9249
923.659	9336
923.767	9431
923.876	9306
923.984	9363
924.092	9199
924.201	9344
924.309	9241
924.417	9306
924.525	9264
924.633	9253
924.741	10135
924.849	9085
924.956	9169
925.064	9039
925.172	9001
925.279	8952
925.387	9104
925.494	9032
925.602	9184
925.709	9074
925.816	9024
925.924	9077
926.031	9188
926.138	9055
926.245	9135
926.352	8998
926.459	9173
926.566	9116
926.673	9013
926.779	8937
926.886	8933
926.993	8819
927.099	8769
927.206	8746
927.312	8777
927.419	8792
927.525	8788
927.631	8838
927.737	8731
927.843	8644
927.95	8552
928.056	8663
928.162	8705
928.267	8743
928.373	9214
928.479	8807
928.585	8499
928.69	8621
928.796	8663
928.901	8571
929.007	8396
929.112	8579
929.218	8583
929.323	8571
929.428	8556
929.533	8617
929.638	8362
929.743	8415
929.848	8533
929.953	8499
930.058	8442
930.163	8221
930.267	8237
930.372	8381
930.477	8187
930.581	8541
930.685	8427
930.79	8164
930.894	8275
930.998	8107
931.103	8377
931.207	8039
931.311	7932
931.415	7879
931.519	7753
931.623	7708
