Data from test_V78500241_2411.txt Node
Date: Fri Mar 25 14:50:30 CST 2022
User: usil
Spectrometer: V785-0024
Trigger mode: 0
Integration Time (sec): 4.000000E-1
Scans to average: 1
Nonlinearity correction enabled: false
Boxcar width: 0
Storing dark spectrum: false
XAxis mode: Wavelengths
Number of Pixels in Spectrum: 1024
>>>>>Begin Spectral Data<<<<<
801.071	22150
801.214	21994
801.356	21808
801.499	21686
801.641	21450
801.783	21553
801.926	21393
802.068	21500
802.211	21317
802.353	21268
802.496	21131
802.638	21036
802.78	21013
802.923	20910
803.065	20792
803.208	20743
803.35	20853
803.492	20967
803.635	20845
803.777	20686
803.919	20868
804.061	21237
804.204	20838
804.346	20834
804.488	20716
804.63	20716
804.773	20640
804.915	20667
805.057	20823
805.199	20750
805.341	20857
805.483	20842
805.626	20754
805.768	20670
805.91	20735
806.052	20762
806.194	20693
806.336	20864
806.478	20693
806.62	20636
806.762	20853
806.904	20910
807.046	21165
807.188	21020
807.33	21161
807.472	21032
807.614	21032
807.756	20960
807.898	20777
808.04	20815
808.182	20823
808.324	20925
808.465	20857
808.607	21055
808.749	21131
808.891	21207
809.033	21283
809.174	21127
809.316	21100
809.458	21142
809.6	21062
809.741	21195
809.883	21119
810.025	21184
810.166	21192
810.308	21249
810.45	21226
810.591	21062
810.733	21017
810.875	20838
811.016	20876
811.158	20788
811.299	20967
811.441	21051
811.582	20948
811.724	20918
811.865	20811
812.007	20792
812.148	20811
812.29	21024
812.431	20990
812.573	21096
812.714	21241
812.855	21462
812.997	21545
813.138	21622
813.279	21504
813.421	21515
813.562	21401
813.703	21093
813.845	20971
813.986	20739
814.127	20659
814.268	20545
814.41	20454
814.551	20362
814.692	20446
814.833	20355
814.974	20408
815.115	20396
815.256	20305
815.397	20248
815.539	20252
815.68	20275
815.821	20039
815.962	20149
816.103	20031
816.244	20027
816.385	19921
816.526	19791
816.666	19742
816.807	19616
816.948	19616
817.089	19666
817.23	19628
817.371	19521
817.512	19521
817.653	19544
817.793	19480
817.934	19590
818.075	19544
818.216	19544
818.356	19476
818.497	19419
818.638	19164
818.778	19316
818.919	19289
819.06	19244
819.2	19426
819.341	19365
819.481	19559
819.622	19582
819.762	19731
819.903	19719
820.043	19559
820.184	19521
820.324	19514
820.465	19651
820.605	19495
820.746	19567
820.886	19373
821.026	19453
821.167	19487
821.307	19639
821.447	19468
821.588	19293
821.728	19122
821.868	19164
822.008	18928
822.149	18962
822.289	18993
822.429	18627
822.569	18555
822.709	18639
822.849	18479
822.99	18448
823.13	18388
823.27	18414
823.41	18220
823.55	18220
823.69	18296
823.83	18197
823.97	18106
824.11	18068
824.25	18007
824.389	18022
824.529	18083
824.669	17874
824.809	17939
824.949	18125
825.089	18060
825.228	18049
825.368	17699
825.508	17927
825.648	17863
825.787	17843
825.927	17824
826.067	17775
826.206	17840
826.346	17847
826.485	17821
826.625	17764
826.765	17950
826.904	17710
827.044	17577
827.183	17467
827.323	17490
827.462	17577
827.601	17482
827.741	17448
827.88	17486
828.02	17315
828.159	17436
828.298	17570
828.437	17589
828.577	17600
828.716	17649
828.855	17406
828.994	17220
829.134	17189
829.273	17258
829.412	17200
829.551	17197
829.69	17155
829.829	17292
829.968	17353
830.107	17330
830.246	17200
830.385	17227
830.524	17124
830.663	17018
830.802	16911
830.941	16915
831.08	16752
831.219	16900
831.357	16942
831.496	17064
831.635	16759
831.774	16801
831.913	16771
832.051	16607
832.19	16679
832.329	16679
832.467	16417
832.606	16497
832.744	16527
832.883	16622
833.022	16459
833.16	16535
833.299	16481
833.437	16531
833.576	16481
833.714	16531
833.852	16485
833.991	16561
834.129	16561
834.267	16687
834.406	16630
834.544	16626
834.682	16497
834.821	16569
834.959	16748
835.097	16466
835.235	16656
835.373	16641
835.511	16554
835.65	16542
835.788	16443
835.926	16481
836.064	16276
836.202	16360
836.34	16447
836.478	16542
836.615	16417
836.753	16504
836.891	16542
837.029	16550
837.167	16413
837.305	16432
837.443	16386
837.58	16371
837.718	16295
837.856	16379
837.993	16219
838.131	16337
838.269	16230
838.406	16177
838.544	16219
838.681	16097
838.819	16006
838.956	15876
839.094	15857
839.231	15903
839.369	16067
839.506	16291
839.643	16226
839.781	15876
839.918	15823
840.055	15926
840.193	15842
840.33	15857
840.467	15960
840.604	15934
840.742	16109
840.879	15800
841.016	15770
841.153	15823
841.29	15956
841.427	15926
841.564	15873
841.701	15865
841.838	15717
841.975	15759
842.112	15797
842.249	15656
842.385	15660
842.522	15804
842.659	15652
842.796	15561
842.933	15633
843.069	15625
843.206	15515
843.343	15892
843.479	15679
843.616	15755
843.752	15564
843.889	15496
844.025	15728
844.162	15473
844.298	15481
844.435	15428
844.571	15382
844.708	15519
844.844	15545
844.98	15564
845.117	15538
845.253	15469
845.389	15313
845.525	15424
845.661	15336
845.798	15192
845.934	15359
846.07	15207
846.206	15363
846.342	15431
846.478	15203
846.614	15005
846.75	15028
846.886	14990
847.022	15081
847.158	15066
847.294	15009
847.429	15043
847.565	14925
847.701	15245
847.837	14773
847.972	14838
848.108	14899
848.244	14792
848.379	14689
848.515	14640
848.65	14571
848.786	14583
848.921	14705
849.057	14674
849.192	14705
849.328	14625
849.463	14632
849.598	14610
849.734	14533
849.869	14484
850.004	14309
850.14	14450
850.275	14442
850.41	14324
850.545	14301
850.68	14362
850.815	14419
850.95	14412
851.085	14545
851.22	14503
851.355	14396
851.49	14301
851.625	14282
851.76	14408
851.895	14370
852.03	14244
852.165	14358
852.299	14362
852.434	14408
852.569	14446
852.703	14393
852.838	14450
852.973	14495
853.107	14522
853.242	14294
853.376	14290
853.511	14050
853.645	14271
853.78	14396
853.914	14237
854.048	14210
854.183	14210
854.317	14317
854.451	14442
854.585	14275
854.72	14191
854.854	14320
854.988	14187
855.122	14138
855.256	14180
855.39	14145
855.524	14317
855.658	14286
855.792	14309
855.926	14343
856.06	14374
856.194	14355
856.327	14214
856.461	14240
856.595	14199
856.729	14301
856.862	14328
856.996	14320
857.13	14358
857.263	14355
857.397	14328
857.53	14309
857.664	14332
857.797	14419
857.931	14442
858.064	14336
858.197	14415
858.331	14199
858.464	14240
858.597	14142
858.731	14259
858.864	14142
858.997	14218
859.13	14313
859.263	14431
859.396	14351
859.529	14248
859.662	14149
859.795	14161
859.928	14286
860.061	14377
860.194	14522
860.327	14248
860.46	14252
860.592	14377
860.725	14412
860.858	14404
860.99	14294
861.123	14084
861.256	14225
861.388	14305
861.521	14899
861.653	14172
861.786	14218
861.918	14084
862.05	14195
862.183	14229
862.315	14237
862.447	14317
862.58	14233
862.712	14012
862.844	13967
862.976	14077
863.108	14096
863.24	14419
863.372	13947
863.504	14050
863.636	14016
863.768	14039
863.9	13959
864.032	13932
864.164	14065
864.296	14092
864.428	14191
864.559	14172
864.691	14096
864.823	14138
864.954	14005
865.086	14069
865.217	14020
865.349	13906
865.48	13955
865.612	14058
865.743	14183
865.875	14073
866.006	14016
866.137	14092
866.269	14054
866.4	13986
866.531	13936
866.662	14027
866.793	14012
866.924	13974
867.055	14062
867.186	14027
867.317	13986
867.448	13997
867.579	13906
867.71	13936
867.841	13913
867.972	14001
868.103	14016
868.233	13978
868.364	13993
868.495	14103
868.625	14176
868.756	14366
868.886	14161
869.017	14332
869.147	14370
869.278	14434
869.408	14275
869.539	14290
869.669	14282
869.799	14351
869.929	14362
870.06	14305
870.19	14537
870.32	14552
870.45	14629
870.58	14689
870.71	14712
870.84	14731
870.97	14663
871.1	14629
871.23	14758
871.36	14800
871.489	14678
871.619	14819
871.749	14804
871.879	14804
872.008	14887
872.138	14910
872.267	14826
872.397	14735
872.526	14743
872.656	14708
872.785	14731
872.915	14906
873.044	14944
873.173	14925
873.303	14895
873.432	15001
873.561	14921
873.69	14982
873.819	14956
873.948	14971
874.077	14998
874.206	14929
874.335	14906
874.464	15089
874.593	15169
874.722	15173
874.851	15241
874.979	15302
875.108	15275
875.237	15180
875.365	15100
875.494	15176
875.623	15218
875.751	15112
875.88	15287
876.008	15336
876.136	15504
876.265	15595
876.393	15785
876.521	15808
876.65	15705
876.778	15713
876.906	15671
877.034	15584
877.162	15526
877.29	15625
877.418	15701
877.546	15622
877.674	15618
877.802	15739
877.93	15717
878.058	15679
878.185	15545
878.313	15629
878.441	15618
878.568	15473
878.696	15625
878.824	15679
878.951	15724
879.079	15812
879.206	15998
879.333	15808
879.461	15743
879.588	15675
879.715	15911
879.842	15884
879.97	15736
880.097	15496
880.224	15500
880.351	15568
880.478	15549
880.605	15523
880.732	15622
880.859	15743
880.986	15542
881.112	15504
881.239	15462
881.366	15272
881.493	15135
881.619	15161
881.746	15176
881.872	15192
881.999	15154
882.125	15146
882.252	15245
882.378	15226
882.505	15241
882.631	15020
882.757	14929
882.883	15001
883.01	14921
883.136	14918
883.262	14811
883.388	14807
883.514	15077
883.64	15039
883.766	14918
883.892	14899
884.018	14887
884.143	14990
884.269	15119
884.395	14693
884.52	14693
884.646	14617
884.772	14640
884.897	14507
885.023	14686
885.148	14701
885.274	14918
885.399	14739
885.524	14781
885.65	14705
885.775	14667
885.9	14743
886.025	14804
886.15	14697
886.275	14777
886.4	14670
886.525	14590
886.65	14518
886.775	14629
886.9	14785
887.025	14921
887.149	14674
887.274	14492
887.399	14450
887.523	14431
887.648	14446
887.773	14366
887.897	14537
888.021	14636
888.146	14438
888.27	14632
888.395	14610
888.519	14476
888.643	14495
888.767	14590
888.891	14450
889.015	14355
889.139	14355
889.263	14351
889.387	14389
889.511	14549
889.635	14526
889.759	14408
889.883	14320
890.006	14404
890.13	14366
890.254	14301
890.377	14252
890.501	14233
890.624	14161
890.748	14244
890.871	14103
890.995	14046
891.118	14012
891.241	14027
891.364	14020
891.488	14183
891.611	13974
891.734	14092
891.857	14100
891.98	14130
892.103	14077
892.226	14172
892.349	14005
892.471	13974
892.594	14145
892.717	14119
892.839	14020
892.962	14130
893.085	14164
893.207	14111
893.33	13989
893.452	13997
893.575	14149
893.697	14043
893.819	14199
893.941	14336
894.064	14103
894.186	14008
894.308	14069
894.43	14161
894.552	14313
894.674	14214
894.796	14027
894.918	14031
895.04	14115
895.161	14142
895.283	14157
895.405	14054
895.526	14183
895.648	14157
895.769	14267
895.891	14244
896.012	14393
896.134	14237
896.255	14267
896.376	14240
896.498	14210
896.619	14248
896.74	14248
896.861	14328
896.982	14560
897.103	14731
897.224	14514
897.345	14530
897.466	14381
897.587	14438
897.708	14712
897.828	14621
897.949	14381
898.07	14415
898.19	14461
898.311	14594
898.431	14556
898.552	14568
898.672	14727
898.792	14686
898.913	14632
899.033	14545
899.153	14434
899.273	14339
899.393	14522
899.513	14434
899.633	14503
899.753	14461
899.873	14336
899.993	14533
900.113	14457
900.232	14415
900.352	14351
900.472	14400
900.591	14271
900.711	14305
900.83	14278
900.95	14522
901.069	14465
901.189	14168
901.308	14024
901.427	14035
901.546	13909
901.665	13970
901.784	13947
901.904	13814
902.023	13818
902.141	13628
902.26	13548
902.379	13651
902.498	13540
902.617	13597
902.735	13693
902.854	13483
902.973	13499
903.091	13377
903.21	13297
903.328	13304
903.446	13198
903.565	13072
903.683	13152
903.801	12996
903.919	13168
904.038	13110
904.156	13004
904.274	12981
904.392	12890
904.51	12970
904.627	12989
904.745	13034
904.863	13019
904.981	12757
905.098	12635
905.216	12635
905.334	12772
905.451	12654
905.569	12616
905.686	12547
905.803	12673
905.921	12467
906.038	12551
906.155	12471
906.272	12429
906.389	12323
906.506	12254
906.623	12205
906.74	12182
906.857	12095
906.974	12121
907.091	12228
907.208	12323
907.324	12270
907.441	12175
907.557	12015
907.674	12102
907.79	11988
907.907	11942
908.023	11923
908.139	11969
908.256	11958
908.372	11889
908.488	11824
908.604	11745
908.72	11786
908.836	11684
908.952	11649
909.068	11699
909.184	11790
909.3	11684
909.415	11748
909.531	11699
909.647	11528
909.762	11566
909.878	11452
909.993	11547
910.108	11539
910.224	11417
910.339	11501
910.454	11440
910.57	11356
910.685	11349
910.8	11520
910.915	11539
911.03	11307
911.145	11208
911.259	11166
911.374	11231
911.489	11151
911.604	11090
911.718	10980
911.833	10927
911.947	10869
912.062	10793
912.176	10995
912.291	10976
912.405	11003
912.519	11185
912.633	11090
912.748	11045
912.862	10919
912.976	10812
913.09	10698
913.204	10812
913.318	10847
913.431	10900
913.545	10911
913.659	10976
913.772	10862
913.886	10679
914	10649
914.113	10782
914.226	10908
914.34	10797
914.453	10637
914.566	10733
914.68	10637
914.793	10672
914.906	10474
915.019	10512
915.132	10466
915.245	10432
915.358	10459
915.47	10470
915.583	10508
915.696	10546
915.809	10599
915.921	10550
916.034	10459
916.146	10421
916.259	10371
916.371	10432
916.483	10512
916.595	10367
916.708	10398
916.82	10371
916.932	10379
917.044	10470
917.156	10371
917.268	10318
917.38	10169
917.491	10227
917.603	10230
917.715	10348
917.826	10386
917.938	10280
918.049	10150
918.161	10329
918.272	10440
918.384	10474
918.495	10348
918.606	10204
918.717	10078
918.828	10173
918.939	10265
919.05	10093
919.161	10120
919.272	9994
919.383	10017
919.494	10215
919.604	10402
919.715	10188
919.826	10207
919.936	10158
920.047	10253
920.157	10192
920.267	10466
920.378	10291
920.488	10173
920.598	10398
920.708	10546
920.818	10382
920.928	10447
921.038	10558
921.148	10535
921.258	10219
921.368	10128
921.477	10086
921.587	10078
921.697	9949
921.806	10051
921.916	9926
922.025	9789
922.134	9778
922.244	9728
922.353	9774
922.462	9587
922.571	9599
922.68	9507
922.789	9466
922.898	9496
923.007	9359
923.116	9481
923.224	9431
923.333	9378
923.442	9344
923.55	9241
923.659	9329
923.767	9378
923.876	9329
923.984	9348
924.092	9260
924.201	9367
924.309	9313
924.417	9302
924.525	9169
924.633	9249
924.741	10010
924.849	9036
924.956	9264
925.064	9081
925.172	9028
925.279	9097
925.387	9119
925.494	9097
925.602	9146
925.709	9218
925.816	9089
925.924	9207
926.031	9188
926.138	9119
926.245	9188
926.352	9005
926.459	9135
926.566	9245
926.673	9112
926.779	8956
926.886	8956
926.993	8838
927.099	8899
927.206	8857
927.312	8746
927.419	8872
927.525	8853
927.631	8952
927.737	8807
927.843	8785
927.95	8594
928.056	8659
928.162	8686
928.267	8750
928.373	9363
928.479	8883
928.585	8606
928.69	8674
928.796	8678
928.901	8648
929.007	8495
929.112	8644
929.218	8602
929.323	8556
929.428	8488
929.533	8629
929.638	8492
929.743	8469
929.848	8545
929.953	8495
930.058	8438
930.163	8328
930.267	8313
930.372	8461
930.477	8290
930.581	8568
930.685	8332
930.79	8263
930.894	8271
930.998	8282
931.103	8404
931.207	8092
931.311	8020
931.415	7967
931.519	7712
931.623	7734
