Data from test_V78500241_1109.txt Node
Date: Fri Mar 25 14:41:26 CST 2022
User: usil
Spectrometer: V785-0024
Trigger mode: 0
Integration Time (sec): 4.000000E-1
Scans to average: 1
Nonlinearity correction enabled: false
Boxcar width: 0
Storing dark spectrum: false
XAxis mode: Wavelengths
Number of Pixels in Spectrum: 1024
>>>>>Begin Spectral Data<<<<<
801.071	22656
801.214	22577
801.356	22238
801.499	22131
801.641	22128
801.783	21968
801.926	22101
802.068	21987
802.211	21907
802.353	21789
802.496	21580
802.638	21462
802.78	21606
802.923	21431
803.065	21279
803.208	21370
803.35	21348
803.492	21466
803.635	21481
803.777	21329
803.919	21447
804.061	21663
804.204	21572
804.346	21260
804.488	21260
804.63	21302
804.773	21142
804.915	21321
805.057	21363
805.199	21249
805.341	21340
805.483	21351
805.626	21332
805.768	21294
805.91	21192
806.052	21310
806.194	21226
806.336	21408
806.478	21344
806.62	21169
806.762	21370
806.904	21412
807.046	21709
807.188	21671
807.33	21720
807.472	21675
807.614	21667
807.756	21652
807.898	21553
808.04	21561
808.182	21557
808.324	21473
808.465	21641
808.607	21831
808.749	21964
808.891	22128
809.033	22230
809.174	22078
809.316	22006
809.458	21838
809.6	21934
809.741	21892
809.883	21907
810.025	21972
810.166	21937
810.308	21838
810.45	21892
810.591	21762
810.733	21637
810.875	21507
811.016	21450
811.158	21492
811.299	21526
811.441	21599
811.582	21675
811.724	21538
811.865	21370
812.007	21424
812.148	21542
812.29	21618
812.431	21751
812.573	21816
812.714	21884
812.855	21968
812.997	22150
813.138	22116
813.279	22105
813.421	21983
813.562	21956
813.703	21736
813.845	21762
813.986	21393
814.127	21127
814.268	21116
814.41	21112
814.551	20967
814.692	21135
814.833	21032
814.974	21001
815.115	20971
815.256	20845
815.397	20944
815.539	20895
815.68	20682
815.821	20727
815.962	20899
816.103	20826
816.244	20549
816.385	20587
816.526	20575
816.666	20278
816.807	20168
816.948	20366
817.089	20282
817.23	20393
817.371	20149
817.512	20142
817.653	20229
817.793	20122
817.934	20256
818.075	20278
818.216	20168
818.356	20107
818.497	19963
818.638	19970
818.778	19868
818.919	19883
819.06	19944
819.2	19936
819.341	20134
819.481	20138
819.622	20145
819.762	20423
819.903	20282
820.043	20252
820.184	20081
820.324	20195
820.465	20294
820.605	20199
820.746	20191
820.886	20073
821.026	20081
821.167	20069
821.307	20176
821.447	20126
821.588	19951
821.728	19887
821.868	19731
822.008	19529
822.149	19582
822.289	19502
822.429	19297
822.569	19221
822.709	19236
822.849	19069
822.99	19053
823.13	18943
823.27	19061
823.41	18817
823.55	18852
823.69	18951
823.83	18791
823.97	18859
824.11	18608
824.25	18696
824.389	18677
824.529	18639
824.669	18646
824.809	18920
824.949	18795
825.089	18791
825.228	18623
825.368	18460
825.508	18407
825.648	18369
825.787	18494
825.927	18532
826.067	18384
826.206	18418
826.346	18483
826.485	18445
826.625	18346
826.765	18475
826.904	18448
827.044	18182
827.183	18209
827.323	18030
827.462	18106
827.601	18174
827.741	18064
827.88	18117
828.02	18011
828.159	18114
828.298	18140
828.437	18194
828.577	18083
828.716	18315
828.855	18117
828.994	17870
829.134	17855
829.273	17996
829.412	17714
829.551	17832
829.69	17832
829.829	17942
829.968	17923
830.107	17946
830.246	17863
830.385	17748
830.524	17726
830.663	17604
830.802	17642
830.941	17562
831.08	17509
831.219	17592
831.357	17748
831.496	17714
831.635	17528
831.774	17425
831.913	17277
832.051	17318
832.19	17414
832.329	17315
832.467	17231
832.606	17170
832.744	17086
832.883	17208
833.022	17170
833.16	17147
833.299	17258
833.437	17288
833.576	17296
833.714	17296
833.852	17303
833.991	17235
834.129	17292
834.267	17299
834.406	17296
834.544	17273
834.682	17353
834.821	17223
834.959	17414
835.097	17284
835.235	17318
835.373	17258
835.511	17402
835.65	17208
835.788	17117
835.926	16980
836.064	17045
836.202	17014
836.34	17231
836.478	17208
836.615	17159
836.753	17151
836.891	17162
837.029	17197
837.167	17124
837.305	17132
837.443	17048
837.58	16984
837.718	16991
837.856	17067
837.993	16927
838.131	17060
838.269	16938
838.406	16919
838.544	16934
838.681	16694
838.819	16641
838.956	16485
839.094	16580
839.231	16558
839.369	16740
839.506	16828
839.643	16672
839.781	16497
839.918	16470
840.055	16664
840.193	16512
840.33	16512
840.467	16561
840.604	16611
840.742	16706
840.879	16424
841.016	16500
841.153	16348
841.29	16580
841.427	16550
841.564	16538
841.701	16599
841.838	16516
841.975	16519
842.112	16379
842.249	16337
842.385	16310
842.522	16424
842.659	16421
842.796	16356
842.933	16215
843.069	16325
843.206	16314
843.343	16352
843.479	16329
843.616	16360
843.752	16185
843.889	16120
844.025	16268
844.162	16093
844.298	16204
844.435	16124
844.571	16002
844.708	16242
844.844	16265
844.98	16238
845.117	16223
845.253	16101
845.389	16074
845.525	16105
845.661	16078
845.798	16242
845.934	16344
846.07	16276
846.206	16341
846.342	16344
846.478	16074
846.614	15960
846.75	15831
846.886	15751
847.022	15690
847.158	15717
847.294	15675
847.429	15755
847.565	15667
847.701	15930
847.837	15397
847.972	15374
848.108	15557
848.244	15389
848.379	15359
848.515	15382
848.65	15241
848.786	15264
848.921	15268
849.057	15332
849.192	15374
849.328	15317
849.463	15340
849.598	15294
849.734	15195
849.869	15104
850.004	15043
850.14	15135
850.275	14975
850.41	14914
850.545	15028
850.68	15024
850.815	15013
850.95	14971
851.085	15093
851.22	15119
851.355	14956
851.49	15032
851.625	14948
851.76	15119
851.895	14925
852.03	14872
852.165	15039
852.299	15020
852.434	15104
852.569	15043
852.703	15116
852.838	15131
852.973	15077
853.107	15146
853.242	15017
853.376	14967
853.511	14746
853.645	14861
853.78	15028
853.914	14921
854.048	14731
854.183	14720
854.317	14876
854.451	15066
854.585	14857
854.72	14910
854.854	14880
854.988	14746
855.122	14842
855.256	14777
855.39	14857
855.524	14937
855.658	14880
855.792	14937
855.926	15001
856.06	14929
856.194	15013
856.327	14857
856.461	14849
856.595	14845
856.729	14883
856.862	15039
856.996	14868
857.13	15013
857.263	14998
857.397	15009
857.53	14883
857.664	14921
857.797	14986
857.931	14956
858.064	14960
858.197	14990
858.331	14834
858.464	14804
858.597	14800
858.731	14956
858.864	14864
858.997	14895
859.13	14830
859.263	14830
859.396	14986
859.529	14849
859.662	14842
859.795	14807
859.928	14918
860.061	14998
860.194	15146
860.327	14941
860.46	14861
860.592	15047
860.725	14998
860.858	14956
860.99	14838
861.123	14853
861.256	14754
861.388	14845
861.521	15591
861.653	14785
861.786	14663
861.918	14731
862.05	14807
862.183	14845
862.315	14990
862.447	14857
862.58	14693
862.712	14640
862.844	14610
862.976	14697
863.108	14674
863.24	15180
863.372	14670
863.504	14606
863.636	14594
863.768	14705
863.9	14693
864.032	14549
864.164	14590
864.296	14682
864.428	14708
864.559	14777
864.691	14610
864.823	14758
864.954	14701
865.086	14746
865.217	14674
865.349	14693
865.48	14648
865.612	14678
865.743	14804
865.875	14636
866.006	14606
866.137	14541
866.269	14663
866.4	14636
866.531	14636
866.662	14495
866.793	14560
866.924	14583
867.055	14659
867.186	14629
867.317	14526
867.448	14518
867.579	14590
867.71	14571
867.841	14533
867.972	14583
868.103	14651
868.233	14602
868.364	14651
868.495	14602
868.625	14876
868.756	14899
868.886	14769
869.017	14834
869.147	14887
869.278	14967
869.408	14857
869.539	14785
869.669	14899
869.799	14807
869.929	15009
870.06	14975
870.19	15237
870.32	15218
870.45	15180
870.58	15211
870.71	15355
870.84	15351
870.97	15306
871.1	15252
871.23	15370
871.36	15488
871.489	15416
871.619	15382
871.749	15462
871.879	15447
872.008	15603
872.138	15439
872.267	15447
872.397	15405
872.526	15321
872.656	15226
872.785	15363
872.915	15511
873.044	15458
873.173	15530
873.303	15515
873.432	15633
873.561	15584
873.69	15530
873.819	15656
873.948	15759
874.077	15633
874.206	15443
874.335	15557
874.464	15675
874.593	15789
874.722	15819
874.851	15831
874.979	15918
875.108	15884
875.237	15873
875.365	15800
875.494	15857
875.623	15857
875.751	15823
875.88	15911
876.008	15930
876.136	16093
876.265	16265
876.393	16462
876.521	16356
876.65	16322
876.778	16238
876.906	16150
877.034	16284
877.162	16169
877.29	16207
877.418	16162
877.546	16284
877.674	16310
877.802	16246
877.93	16363
878.058	16253
878.185	16181
878.313	16257
878.441	16276
878.568	16097
878.696	16204
878.824	16219
878.951	16322
879.079	16493
879.206	16634
879.333	16500
879.461	16474
879.588	16622
879.715	16656
879.842	16538
879.97	16493
880.097	16147
880.224	16196
880.351	16200
880.478	16158
880.605	16139
880.732	16029
880.859	16360
880.986	16147
881.112	16131
881.239	15949
881.366	15812
881.493	15793
881.619	15682
881.746	15804
881.872	15770
881.999	15793
882.125	15694
882.252	15827
882.378	15880
882.505	15861
882.631	15778
882.757	15629
882.883	15766
883.01	15614
883.136	15500
883.262	15549
883.388	15397
883.514	15625
883.64	15736
883.766	15515
883.892	15420
884.018	15473
884.143	15545
884.269	15698
884.395	15363
884.52	15272
884.646	15325
884.772	15268
884.897	15226
885.023	15351
885.148	15374
885.274	15378
885.399	15454
885.524	15317
885.65	15294
885.775	15401
885.9	15317
886.025	15344
886.15	15367
886.275	15184
886.4	15142
886.525	15218
886.65	15279
886.775	15142
886.9	15374
887.025	15443
887.149	15218
887.274	15097
887.399	15093
887.523	15055
887.648	15100
887.773	15001
887.897	15207
888.021	15169
888.146	15051
888.27	15214
888.395	15218
888.519	15199
888.643	15070
888.767	15165
888.891	15047
889.015	14944
889.139	14975
889.263	14914
889.387	15005
889.511	15135
889.635	15051
889.759	14880
889.883	14986
890.006	15020
890.13	14967
890.254	14838
890.377	14868
890.501	14697
890.624	14636
890.748	14754
890.871	14651
890.995	14530
891.118	14579
891.241	14602
891.364	14678
891.488	14823
891.611	14701
891.734	14621
891.857	14678
891.98	14712
892.103	14705
892.226	14697
892.349	14625
892.471	14507
892.594	14651
892.717	14613
892.839	14579
892.962	14632
893.085	14629
893.207	14640
893.33	14461
893.452	14617
893.575	14659
893.697	14602
893.819	14758
893.941	14918
894.064	14731
894.186	14571
894.308	14621
894.43	14674
894.552	14765
894.674	14724
894.796	14610
894.918	14655
895.04	14571
895.161	14773
895.283	14716
895.405	14655
895.526	14655
895.648	14754
895.769	14781
895.891	14716
896.012	14750
896.134	14872
896.255	14777
896.376	14811
896.498	14804
896.619	14811
896.74	14807
896.861	14769
896.982	15214
897.103	15150
897.224	15074
897.345	15093
897.466	14948
897.587	15036
897.708	15138
897.828	14971
897.949	14967
898.07	14902
898.19	15051
898.311	15154
898.431	15131
898.552	15085
898.672	15192
898.792	15195
898.913	15108
899.033	15097
899.153	14971
899.273	14788
899.393	15017
899.513	15028
899.633	15032
899.753	15032
899.873	14902
899.993	15017
900.113	14880
900.232	14963
900.352	15024
900.472	14880
900.591	14758
900.711	14872
900.83	14712
900.95	14868
901.069	14891
901.189	14705
901.308	14571
901.427	14404
901.546	14492
901.665	14446
901.784	14564
901.904	14400
902.023	14218
902.141	14084
902.26	14069
902.379	14157
902.498	13959
902.617	13955
902.735	14031
902.854	14134
902.973	14043
903.091	13803
903.21	13780
903.328	13750
903.446	13658
903.565	13548
903.683	13620
903.801	13597
903.919	13571
904.038	13567
904.156	13430
904.274	13483
904.392	13327
904.51	13350
904.627	13434
904.745	13407
904.863	13495
904.981	13206
905.098	13069
905.216	13156
905.334	13145
905.451	13133
905.569	13091
905.686	13274
905.803	13046
905.921	12875
906.038	12954
906.155	12943
906.272	12779
906.389	12859
906.506	12696
906.623	12692
906.74	12658
906.857	12544
906.974	12631
907.091	12711
907.208	12795
907.324	12688
907.441	12639
907.557	12464
907.674	12441
907.79	12296
907.907	12330
908.023	12452
908.139	12456
908.256	12369
908.372	12338
908.488	12399
908.604	12213
908.72	12136
908.836	12251
908.952	12144
909.068	12209
909.184	12270
909.3	12163
909.415	12235
909.531	12171
909.647	12003
909.762	11984
909.878	11809
909.993	11992
910.108	11946
910.224	11954
910.339	11836
910.454	11851
910.57	11729
910.685	11745
910.8	12102
910.915	11923
911.03	11813
911.145	11695
911.259	11630
911.374	11619
911.489	11638
911.604	11551
911.718	11376
911.833	11436
911.947	11318
912.062	11258
912.176	11337
912.291	11337
912.405	11345
912.519	11505
912.633	11596
912.748	11497
912.862	11429
912.976	11223
913.09	11185
913.204	11258
913.318	11277
913.431	11322
913.545	11299
913.659	11376
913.772	11155
913.886	11159
914	11162
914.113	11189
914.226	11258
914.34	11201
914.453	11075
914.566	11189
914.68	11098
914.793	11121
914.906	10923
915.019	10877
915.132	10793
915.245	10892
915.358	10961
915.47	10858
915.583	10915
915.696	10915
915.809	11045
915.921	11025
916.034	10934
916.146	10816
916.259	10843
916.371	10839
916.483	10767
916.595	10714
916.708	10774
916.82	10816
916.932	10740
917.044	10752
917.156	10755
917.268	10637
917.38	10721
917.491	10660
917.603	10790
917.715	10771
917.826	10812
917.938	10641
918.049	10622
918.161	10653
918.272	10850
918.384	10801
918.495	10740
918.606	10554
918.717	10489
918.828	10538
918.939	10497
919.05	10436
919.161	10531
919.272	10375
919.383	10382
919.494	10561
919.604	10771
919.715	10538
919.826	10466
919.936	10550
920.047	10626
920.157	10577
920.267	10729
920.378	10558
920.488	10603
920.598	10778
920.708	10900
920.818	10763
920.928	10824
921.038	10889
921.148	10968
921.258	10649
921.368	10504
921.477	10478
921.587	10413
921.697	10299
921.806	10474
921.916	10291
922.025	10135
922.134	10074
922.244	10109
922.353	10158
922.462	10025
922.571	9972
922.68	9850
922.789	9778
922.898	9793
923.007	9747
923.116	9808
923.224	9736
923.333	9751
923.442	9686
923.55	9652
923.659	9709
923.767	9751
923.876	9633
923.984	9743
924.092	9584
924.201	9694
924.309	9682
924.417	9679
924.525	9587
924.633	9652
924.741	10516
924.849	9523
924.956	9523
925.064	9424
925.172	9340
925.279	9511
925.387	9526
925.494	9428
925.602	9526
925.709	9519
925.816	9431
925.924	9393
926.031	9553
926.138	9443
926.245	9439
926.352	9389
926.459	9496
926.566	9538
926.673	9370
926.779	9283
926.886	9253
926.993	9165
927.099	9150
927.206	9112
927.312	9169
927.419	9154
927.525	9097
927.631	9203
927.737	9104
927.843	9036
927.95	8876
928.056	9005
928.162	8998
928.267	9112
928.373	9656
928.479	9188
928.585	8887
928.69	9062
928.796	9009
928.901	8944
929.007	8773
929.112	8925
929.218	8902
929.323	8868
929.428	8807
929.533	8944
929.638	8735
929.743	8849
929.848	8811
929.953	8838
930.058	8796
930.163	8530
930.267	8606
930.372	8712
930.477	8621
930.581	8891
930.685	8705
930.79	8549
930.894	8575
930.998	8495
931.103	8663
931.207	8389
931.311	8305
931.415	8153
931.519	8046
931.623	8062
