Data from test_V78500241_1680.txt Node
Date: Fri Mar 25 14:45:24 CST 2022
User: usil
Spectrometer: V785-0024
Trigger mode: 0
Integration Time (sec): 4.000000E-1
Scans to average: 1
Nonlinearity correction enabled: false
Boxcar width: 0
Storing dark spectrum: false
XAxis mode: Wavelengths
Number of Pixels in Spectrum: 1024
>>>>>Begin Spectral Data<<<<<
801.071	22352
801.214	22154
801.356	22010
801.499	21903
801.641	21774
801.783	21682
801.926	21568
802.068	21663
802.211	21458
802.353	21473
802.496	21275
802.638	21165
802.78	21116
802.923	21081
803.065	20990
803.208	21070
803.35	20921
803.492	21017
803.635	21055
803.777	20937
803.919	21112
804.061	21340
804.204	21104
804.346	20910
804.488	20952
804.63	21055
804.773	20861
804.915	21024
805.057	20994
805.199	20845
805.341	21085
805.483	21108
805.626	20967
805.768	20880
805.91	20948
806.052	20971
806.194	20800
806.336	21051
806.478	20990
806.62	20895
806.762	21013
806.904	21112
807.046	21237
807.188	21397
807.33	21237
807.472	21287
807.614	21043
807.756	21203
807.898	20982
808.04	20979
808.182	21066
808.324	21123
808.465	20956
808.607	21214
808.749	21370
808.891	21363
809.033	21614
809.174	21389
809.316	21420
809.458	21279
809.6	21112
809.741	21397
809.883	21397
810.025	21515
810.166	21481
810.308	21416
810.45	21317
810.591	21367
810.733	21275
810.875	21207
811.016	21001
811.158	21116
811.299	21135
811.441	21245
811.582	21169
811.724	21066
811.865	21055
812.007	21043
812.148	21032
812.29	21089
812.431	21275
812.573	21481
812.714	21507
812.855	21507
812.997	21720
813.138	21812
813.279	21732
813.421	21682
813.562	21500
813.703	21454
813.845	21252
813.986	20910
814.127	20925
814.268	20739
814.41	20739
814.551	20518
814.692	20838
814.833	20598
814.974	20549
815.115	20571
815.256	20495
815.397	20587
815.539	20393
815.68	20442
815.821	20347
815.962	20377
816.103	20309
816.244	20183
816.385	20149
816.526	20069
816.666	20031
816.807	19708
816.948	19982
817.089	20054
817.23	19887
817.371	19761
817.512	19731
817.653	19811
817.793	19799
817.934	19666
818.075	19913
818.216	19670
818.356	19651
818.497	19514
818.638	19327
818.778	19464
818.919	19430
819.06	19445
819.2	19582
819.341	19559
819.481	19643
819.622	19746
819.762	20058
819.903	19818
820.043	19898
820.184	19689
820.324	19742
820.465	19852
820.605	19811
820.746	19651
820.886	19715
821.026	19734
821.167	19632
821.307	19799
821.447	19681
821.588	19567
821.728	19468
821.868	19282
822.008	19118
822.149	19053
822.289	19160
822.429	18939
822.569	18798
822.709	18878
822.849	18681
822.99	18669
823.13	18574
823.27	18696
823.41	18502
823.55	18388
823.69	18399
823.83	18578
823.97	18330
824.11	18296
824.25	18300
824.389	18163
824.529	18220
824.669	18178
824.809	18327
824.949	18266
825.089	18239
825.228	18190
825.368	18060
825.508	18030
825.648	18015
825.787	18034
825.927	18102
826.067	17942
826.206	17965
826.346	17958
826.485	18019
826.625	17961
826.765	18095
826.904	17988
827.044	17786
827.183	17745
827.323	17661
827.462	17775
827.601	17672
827.741	17699
827.88	17623
828.02	17585
828.159	17562
828.298	17775
828.437	17710
828.577	17592
828.716	17836
828.855	17710
828.994	17387
829.134	17395
829.273	17543
829.412	17387
829.551	17353
829.69	17482
829.829	17524
829.968	17547
830.107	17471
830.246	17429
830.385	17421
830.524	17311
830.663	17288
830.802	17181
830.941	17105
831.08	17029
831.219	17102
831.357	17143
831.496	17242
831.635	17048
831.774	16976
831.913	16896
832.051	16812
832.19	16923
832.329	16923
832.467	16835
832.606	16786
832.744	16694
832.883	16694
833.022	16763
833.16	16805
833.299	16820
833.437	16805
833.576	16698
833.714	16824
833.852	16767
833.991	16881
834.129	16915
834.267	16843
834.406	16843
834.544	16812
834.682	16733
834.821	16790
834.959	16889
835.097	16721
835.235	16957
835.373	16843
835.511	16782
835.65	16755
835.788	16675
835.926	16569
836.064	16455
836.202	16565
836.34	16694
836.478	16672
836.615	16687
836.753	16664
836.891	16801
837.029	16744
837.167	16702
837.305	16546
837.443	16584
837.58	16512
837.718	16645
837.856	16523
837.993	16497
838.131	16481
838.269	16428
838.406	16573
838.544	16455
838.681	16310
838.819	16166
838.956	16067
839.094	16067
839.231	16219
839.369	16268
839.506	16489
839.643	16375
839.781	16158
839.918	15934
840.055	16143
840.193	16105
840.33	16017
840.467	16143
840.604	16017
840.742	16276
840.879	15949
841.016	15979
841.153	16051
841.29	16166
841.427	16093
841.564	16109
841.701	16116
841.838	15994
841.975	16025
842.112	16082
842.249	15888
842.385	15854
842.522	16006
842.659	15884
842.796	15823
842.933	15884
843.069	15778
843.206	15876
843.343	15850
843.479	15899
843.616	15876
843.752	15751
843.889	15679
844.025	15823
844.162	15553
844.298	15793
844.435	15618
844.571	15610
844.708	15785
844.844	15804
844.98	15854
845.117	15770
845.253	15625
845.389	15504
845.525	15595
845.661	15603
845.798	15378
845.934	15568
846.07	15511
846.206	15542
846.342	15637
846.478	15496
846.614	15256
846.75	15275
846.886	15112
847.022	15317
847.158	15138
847.294	15176
847.429	15275
847.565	15157
847.701	15443
847.837	14971
847.972	14937
848.108	15074
848.244	15005
848.379	14941
848.515	14838
848.65	14804
848.786	14834
848.921	14750
849.057	14979
849.192	14872
849.328	14739
849.463	14807
849.598	14769
849.734	14716
849.869	14705
850.004	14632
850.14	14636
850.275	14571
850.41	14488
850.545	14579
850.68	14457
850.815	14655
850.95	14545
851.085	14781
851.22	14762
851.355	14545
851.49	14526
851.625	14606
851.76	14587
851.895	14473
852.03	14514
852.165	14522
852.299	14583
852.434	14594
852.569	14579
852.703	14560
852.838	14648
852.973	14705
853.107	14678
853.242	14594
853.376	14454
853.511	14400
853.645	14328
853.78	14530
853.914	14503
854.048	14374
854.183	14431
854.317	14415
854.451	14678
854.585	14446
854.72	14408
854.854	14480
854.988	14275
855.122	14370
855.256	14267
855.39	14412
855.524	14552
855.658	14533
855.792	14454
855.926	14454
856.06	14469
856.194	14606
856.327	14457
856.461	14438
856.595	14415
856.729	14351
856.862	14541
856.996	14495
857.13	14507
857.263	14537
857.397	14537
857.53	14461
857.664	14476
857.797	14518
857.931	14571
858.064	14564
858.197	14511
858.331	14541
858.464	14396
858.597	14298
858.731	14400
858.864	14476
858.997	14412
859.13	14427
859.263	14404
859.396	14526
859.529	14454
859.662	14400
859.795	14434
859.928	14511
860.061	14621
860.194	14659
860.327	14530
860.46	14434
860.592	14617
860.725	14552
860.858	14526
860.99	14438
861.123	14377
861.256	14343
861.388	14400
861.521	14990
861.653	14332
861.786	14271
861.918	14366
862.05	14389
862.183	14419
862.315	14434
862.447	14415
862.58	14419
862.712	14252
862.844	14252
862.976	14298
863.108	14267
863.24	14644
863.372	14103
863.504	14202
863.636	14206
863.768	14252
863.9	14282
864.032	14111
864.164	14214
864.296	14256
864.428	14328
864.559	14294
864.691	14309
864.823	14290
864.954	14263
865.086	14271
865.217	14164
865.349	14039
865.48	14199
865.612	14210
865.743	14309
865.875	14233
866.006	14172
866.137	14240
866.269	14244
866.4	14229
866.531	14145
866.662	14050
866.793	14084
866.924	14248
867.055	14161
867.186	14176
867.317	14130
867.448	14115
867.579	14069
867.71	14172
867.841	14199
867.972	14191
868.103	14225
868.233	14199
868.364	14168
868.495	14244
868.625	14393
868.756	14545
868.886	14396
869.017	14419
869.147	14530
869.278	14587
869.408	14473
869.539	14442
869.669	14492
869.799	14446
869.929	14526
870.06	14629
870.19	14849
870.32	14773
870.45	14861
870.58	14899
870.71	14956
870.84	14933
870.97	14842
871.1	14811
871.23	14982
871.36	15089
871.489	14864
871.619	14982
871.749	15055
871.879	15074
872.008	15211
872.138	15043
872.267	15036
872.397	14929
872.526	14796
872.656	14948
872.785	14887
872.915	15100
873.044	15138
873.173	15020
873.303	15169
873.432	15024
873.561	15195
873.69	15066
873.819	15100
873.948	15180
874.077	15138
874.206	15131
874.335	15093
874.464	15317
874.593	15439
874.722	15306
874.851	15443
874.979	15466
875.108	15496
875.237	15424
875.365	15389
875.494	15351
875.623	15488
875.751	15332
875.88	15500
876.008	15572
876.136	15629
876.265	15838
876.393	15918
876.521	15869
876.65	15876
876.778	15857
876.906	15838
877.034	15880
877.162	15812
877.29	15747
877.418	15789
877.546	15808
877.674	15907
877.802	15751
877.93	15831
878.058	15823
878.185	15667
878.313	15793
878.441	15808
878.568	15717
878.696	15629
878.824	15994
878.951	15964
879.079	16036
879.206	15994
879.333	15945
879.461	15884
879.588	15987
879.715	15983
879.842	16074
879.97	15960
880.097	15690
880.224	15671
880.351	15739
880.478	15709
880.605	15663
880.732	15690
880.859	15922
880.986	15663
881.112	15682
881.239	15622
881.366	15572
881.493	15310
881.619	15348
881.746	15329
881.872	15351
881.999	15306
882.125	15283
882.252	15393
882.378	15325
882.505	15504
882.631	15135
882.757	15157
882.883	15211
883.01	15226
883.136	15074
883.262	15104
883.388	14998
883.514	15249
883.64	15203
883.766	15028
883.892	14925
884.018	14937
884.143	15070
884.269	15237
884.395	14921
884.52	14849
884.646	14823
884.772	14724
884.897	14727
885.023	14933
885.148	14941
885.274	15058
885.399	15005
885.524	14887
885.65	14861
885.775	14853
885.9	14845
886.025	14880
886.15	14857
886.275	14724
886.4	14845
886.525	14937
886.65	14845
886.775	14701
886.9	14960
887.025	15039
887.149	14963
887.274	14625
887.399	14632
887.523	14621
887.648	14682
887.773	14598
887.897	14746
888.021	14682
888.146	14678
888.27	14743
888.395	14743
888.519	14701
888.643	14727
888.767	14777
888.891	14526
889.015	14438
889.139	14537
889.263	14492
889.387	14686
889.511	14777
889.635	14648
889.759	14484
889.883	14499
890.006	14518
890.13	14739
890.254	14377
890.377	14492
890.501	14298
890.624	14366
890.748	14446
890.871	14355
890.995	14183
891.118	14153
891.241	14153
891.364	14259
891.488	14252
891.611	14286
891.734	14252
891.857	14286
891.98	14267
892.103	14221
892.226	14233
892.349	14248
892.471	14027
892.594	14134
892.717	14134
892.839	14256
892.962	14377
893.085	14240
893.207	14259
893.33	14153
893.452	14142
893.575	14309
893.697	14206
893.819	14381
893.941	14526
894.064	14309
894.186	14183
894.308	14278
894.43	14396
894.552	14408
894.674	14374
894.796	14176
894.918	14271
895.04	14320
895.161	14320
895.283	14343
895.405	14256
895.526	14298
895.648	14404
895.769	14370
895.891	14339
896.012	14434
896.134	14434
896.255	14385
896.376	14389
896.498	14461
896.619	14450
896.74	14389
896.861	14503
896.982	14815
897.103	14902
897.224	14644
897.345	14575
897.466	14701
897.587	14716
897.708	14773
897.828	14705
897.949	14621
898.07	14625
898.19	14648
898.311	14876
898.431	14659
898.552	14701
898.672	14872
898.792	14807
898.913	14804
899.033	14659
899.153	14655
899.273	14499
899.393	14488
899.513	14686
899.633	14636
899.753	14590
899.873	14583
899.993	14648
900.113	14640
900.232	14678
900.352	14556
900.472	14476
900.591	14518
900.711	14552
900.83	14339
900.95	14499
901.069	14579
901.189	14415
901.308	14187
901.427	14195
901.546	14187
901.665	14142
901.784	14168
901.904	14039
902.023	13959
902.141	13738
902.26	13803
902.379	13769
902.498	13723
902.617	13769
902.735	13830
902.854	13655
902.973	13696
903.091	13506
903.21	13388
903.328	13373
903.446	13369
903.565	13327
903.683	13320
903.801	13137
903.919	13373
904.038	13164
904.156	13126
904.274	13225
904.392	13076
904.51	13114
904.627	13076
904.745	13156
904.863	13156
904.981	12947
905.098	12787
905.216	12787
905.334	12890
905.451	12863
905.569	12711
905.686	12726
905.803	12806
905.921	12536
906.038	12673
906.155	12570
906.272	12483
906.389	12521
906.506	12384
906.623	12258
906.74	12407
906.857	12300
906.974	12319
907.091	12376
907.208	12464
907.324	12369
907.441	12251
907.557	12171
907.674	12068
907.79	12083
907.907	12117
908.023	12136
908.139	12121
908.256	12015
908.372	12098
908.488	12019
908.604	11920
908.72	11832
908.836	11893
908.952	11828
909.068	11863
909.184	11973
909.3	11851
909.415	11939
909.531	11897
909.647	11657
909.762	11566
909.878	11657
909.993	11646
910.108	11634
910.224	11570
910.339	11581
910.454	11539
910.57	11467
910.685	11376
910.8	11741
910.915	11703
911.03	11543
911.145	11288
911.259	11250
911.374	11410
911.489	11269
911.604	11231
911.718	11124
911.833	11193
911.947	10980
912.062	10976
912.176	11105
912.291	11067
912.405	11094
912.519	11258
912.633	11315
912.748	11102
912.862	11102
912.976	10847
913.09	10786
913.204	10908
913.318	10938
913.431	11121
913.545	11083
913.659	11132
913.772	11003
913.886	10896
914	10854
914.113	10911
914.226	10957
914.34	10930
914.453	10801
914.566	10942
914.68	10812
914.793	10801
914.906	10622
915.019	10580
915.132	10546
915.245	10603
915.358	10561
915.47	10558
915.583	10584
915.696	10596
915.809	10630
915.921	10740
916.034	10577
916.146	10443
916.259	10485
916.371	10592
916.483	10554
916.595	10424
916.708	10599
916.82	10493
916.932	10558
917.044	10554
917.156	10478
917.268	10405
917.38	10504
917.491	10424
917.603	10402
917.715	10516
917.826	10523
917.938	10348
918.049	10253
918.161	10398
918.272	10573
918.384	10504
918.495	10363
918.606	10238
918.717	10284
918.828	10246
918.939	10341
919.05	10272
919.161	10265
919.272	10139
919.383	10109
919.494	10390
919.604	10580
919.715	10261
919.826	10147
919.936	10341
920.047	10348
920.157	10329
920.267	10508
920.378	10337
920.488	10394
920.598	10512
920.708	10702
920.818	10519
920.928	10481
921.038	10668
921.148	10645
921.258	10398
921.368	10287
921.477	10188
921.587	10143
921.697	10040
921.806	10272
921.916	9968
922.025	9888
922.134	9941
922.244	9835
922.353	9838
922.462	9857
922.571	9663
922.68	9492
922.789	9488
922.898	9515
923.007	9447
923.116	9564
923.224	9511
923.333	9523
923.442	9367
923.55	9526
923.659	9397
923.767	9553
923.876	9416
923.984	9466
924.092	9408
924.201	9454
924.309	9420
924.417	9408
924.525	9389
924.633	9443
924.741	10299
924.849	9241
924.956	9363
925.064	9161
925.172	9142
925.279	9165
925.387	9218
925.494	9253
925.602	9298
925.709	9306
925.816	9127
925.924	9195
926.031	9279
926.138	9154
926.245	9275
926.352	9058
926.459	9268
926.566	9298
926.673	9116
926.779	9077
926.886	9062
926.993	8914
927.099	8902
927.206	8937
927.312	8853
927.419	9028
927.525	8971
927.631	8971
927.737	8902
927.843	8796
927.95	8735
928.056	8773
928.162	8796
928.267	8998
928.373	9386
928.479	8910
928.585	8674
928.69	8834
928.796	8899
928.901	8697
929.007	8610
929.112	8716
929.218	8686
929.323	8640
929.428	8617
929.533	8746
929.638	8636
929.743	8667
929.848	8655
929.953	8651
930.058	8541
930.163	8393
930.267	8461
930.372	8552
930.477	8332
930.581	8644
930.685	8514
930.79	8347
930.894	8427
930.998	8423
931.103	8533
931.207	8138
931.311	8065
931.415	8012
931.519	7868
931.623	7856
