Data from test_V78500241_2872.txt Node
Date: Fri Mar 25 14:53:42 CST 2022
User: usil
Spectrometer: V785-0024
Trigger mode: 0
Integration Time (sec): 4.000000E-1
Scans to average: 1
Nonlinearity correction enabled: false
Boxcar width: 0
Storing dark spectrum: false
XAxis mode: Wavelengths
Number of Pixels in Spectrum: 1024
>>>>>Begin Spectral Data<<<<<
801.071	22017
801.214	21869
801.356	21576
801.499	21534
801.641	21496
801.783	21481
801.926	21447
802.068	21367
802.211	21336
802.353	21188
802.496	21093
802.638	20880
802.78	20960
802.923	20796
803.065	20819
803.208	20693
803.35	20880
803.492	20845
803.635	20902
803.777	20796
803.919	20674
804.061	20963
804.204	20861
804.346	20731
804.488	20640
804.63	20735
804.773	20625
804.915	20716
805.057	20849
805.199	20648
805.341	20697
805.483	20716
805.626	20743
805.768	20594
805.91	20792
806.052	20594
806.194	20560
806.336	20792
806.478	20636
806.62	20667
806.762	20705
806.904	20899
807.046	21039
807.188	21009
807.33	21017
807.472	20944
807.614	20785
807.756	20918
807.898	20758
808.04	20781
808.182	20853
808.324	20739
808.465	20781
808.607	20952
808.749	21066
808.891	21180
809.033	21146
809.174	21024
809.316	20937
809.458	21020
809.6	21013
809.741	21104
809.883	21165
810.025	21199
810.166	21291
810.308	21203
810.45	21112
810.591	21089
810.733	20925
810.875	20902
811.016	20716
811.158	20735
811.299	20872
811.441	20960
811.582	20902
811.724	20731
811.865	20735
812.007	20925
812.148	20796
812.29	20765
812.431	20933
812.573	21028
812.714	21310
812.855	21336
812.997	21389
813.138	21435
813.279	21439
813.421	21340
813.562	21268
813.703	21119
813.845	20967
813.986	20625
814.127	20568
814.268	20427
814.41	20355
814.551	20415
814.692	20385
814.833	20313
814.974	20324
815.115	20309
815.256	20252
815.397	20324
815.539	20187
815.68	20126
815.821	20043
815.962	20149
816.103	20024
816.244	19932
816.385	19864
816.526	19791
816.666	19552
816.807	19537
816.948	19643
817.089	19578
817.23	19628
817.371	19540
817.512	19373
817.653	19495
817.793	19464
817.934	19441
818.075	19453
818.216	19430
818.356	19388
818.497	19392
818.638	19114
818.778	19148
818.919	19133
819.06	19209
819.2	19301
819.341	19407
819.481	19445
819.622	19438
819.762	19655
819.903	19601
820.043	19563
820.184	19480
820.324	19434
820.465	19540
820.605	19567
820.746	19441
820.886	19324
821.026	19472
821.167	19400
821.307	19563
821.447	19381
821.588	19228
821.728	19148
821.868	19034
822.008	18909
822.149	18886
822.289	18764
822.429	18620
822.569	18559
822.709	18525
822.849	18334
822.99	18437
823.13	18350
823.27	18228
823.41	18129
823.55	18057
823.69	18205
823.83	18140
823.97	18045
824.11	18003
824.25	17866
824.389	17855
824.529	18019
824.669	17935
824.809	17961
824.949	17973
825.089	17939
825.228	17908
825.368	17767
825.508	17695
825.648	17680
825.787	17813
825.927	17824
826.067	17737
826.206	17676
826.346	17623
826.485	17733
826.625	17646
826.765	17668
826.904	17729
827.044	17585
827.183	17539
827.323	17436
827.462	17414
827.601	17391
827.741	17292
827.88	17387
828.02	17356
828.159	17440
828.298	17463
828.437	17528
828.577	17315
828.716	17558
828.855	17345
828.994	17124
829.134	17147
829.273	17216
829.412	17075
829.551	17018
829.69	17128
829.829	17178
829.968	17197
830.107	17239
830.246	17204
830.385	17094
830.524	16995
830.663	16976
830.802	16927
830.941	16721
831.08	16763
831.219	16828
831.357	16748
831.496	17006
831.635	16733
831.774	16649
831.913	16653
832.051	16618
832.19	16485
832.329	16603
832.467	16417
832.606	16443
832.744	16363
832.883	16436
833.022	16417
833.16	16535
833.299	16466
833.437	16508
833.576	16630
833.714	16462
833.852	16630
833.991	16497
834.129	16611
834.267	16516
834.406	16470
834.544	16489
834.682	16489
834.821	16535
834.959	16691
835.097	16409
835.235	16645
835.373	16478
835.511	16523
835.65	16413
835.788	16341
835.926	16287
836.064	16204
836.202	16268
836.34	16402
836.478	16584
836.615	16322
836.753	16451
836.891	16504
837.029	16402
837.167	16318
837.305	16382
837.443	16333
837.58	16265
837.718	16371
837.856	16344
837.993	16120
838.131	16219
838.269	16204
838.406	16124
838.544	16097
838.681	16067
838.819	15964
838.956	15804
839.094	15819
839.231	15918
839.369	15930
839.506	16207
839.643	16036
839.781	15907
839.918	15759
840.055	15831
840.193	15865
840.33	15876
840.467	15838
840.604	15865
840.742	15987
840.879	15709
841.016	15656
841.153	15736
841.29	15903
841.427	15941
841.564	15846
841.701	15926
841.838	15819
841.975	15686
842.112	15743
842.249	15584
842.385	15614
842.522	15762
842.659	15641
842.796	15591
842.933	15652
843.069	15545
843.206	15515
843.343	15800
843.479	15576
843.616	15603
843.752	15447
843.889	15329
844.025	15603
844.162	15393
844.298	15450
844.435	15374
844.571	15401
844.708	15363
844.844	15561
844.98	15564
845.117	15534
845.253	15420
845.389	15340
845.525	15230
845.661	15245
845.798	15104
845.934	15233
846.07	15283
846.206	15138
846.342	15355
846.478	15116
846.614	15066
846.75	14883
846.886	14921
847.022	15032
847.158	15017
847.294	14975
847.429	14994
847.565	14941
847.701	15070
847.837	14674
847.972	14663
848.108	14880
848.244	14716
848.379	14514
848.515	14568
848.65	14594
848.786	14454
848.921	14476
849.057	14602
849.192	14644
849.328	14560
849.463	14552
849.598	14632
849.734	14495
849.869	14499
850.004	14370
850.14	14358
850.275	14377
850.41	14134
850.545	14275
850.68	14244
850.815	14298
850.95	14301
851.085	14556
851.22	14408
851.355	14336
851.49	14301
851.625	14187
851.76	14244
851.895	14244
852.03	14180
852.165	14313
852.299	14278
852.434	14473
852.569	14305
852.703	14290
852.838	14427
852.973	14457
853.107	14454
853.242	14328
853.376	14221
853.511	14073
853.645	14195
853.78	14336
853.914	14225
854.048	14081
854.183	14191
854.317	14301
854.451	14358
854.585	14206
854.72	14221
854.854	14313
854.988	14130
855.122	14180
855.256	14069
855.39	14187
855.524	14244
855.658	14252
855.792	14187
855.926	14248
856.06	14256
856.194	14366
856.327	14191
856.461	14142
856.595	14111
856.729	14225
856.862	14298
856.996	14153
857.13	14294
857.263	14229
857.397	14381
857.53	14233
857.664	14199
857.797	14244
857.931	14278
858.064	14225
858.197	14313
858.331	14115
858.464	14111
858.597	14065
858.731	14202
858.864	14191
858.997	14138
859.13	14187
859.263	14221
859.396	14206
859.529	14153
859.662	14084
859.795	14176
859.928	14191
860.061	14294
860.194	14499
860.327	14248
860.46	14244
860.592	14294
860.725	14339
860.858	14336
860.99	14221
861.123	14191
861.256	14142
861.388	14240
861.521	14750
861.653	14012
861.786	14012
861.918	14119
862.05	14161
862.183	14134
862.315	14145
862.447	14187
862.58	14240
862.712	13963
862.844	13993
862.976	14088
863.108	14111
863.24	14454
863.372	13902
863.504	13989
863.636	14046
863.768	14058
863.9	13989
864.032	13841
864.164	13967
864.296	14073
864.428	14126
864.559	14020
864.691	13993
864.823	14054
864.954	13898
865.086	14035
865.217	13974
865.349	13883
865.48	14043
865.612	13879
865.743	14126
865.875	13974
866.006	13898
866.137	13970
866.269	13932
866.4	13944
866.531	13928
866.662	13868
866.793	13928
866.924	13925
867.055	13963
867.186	13997
867.317	13947
867.448	13837
867.579	13875
867.71	13826
867.841	13883
867.972	13890
868.103	13978
868.233	14008
868.364	13963
868.495	14001
868.625	14210
868.756	14259
868.886	14050
869.017	14195
869.147	14294
869.278	14347
869.408	14176
869.539	14290
869.669	14317
869.799	14191
869.929	14351
870.06	14259
870.19	14526
870.32	14427
870.45	14537
870.58	14602
870.71	14659
870.84	14667
870.97	14583
871.1	14571
871.23	14746
871.36	14777
871.489	14697
871.619	14792
871.749	14792
871.879	14792
872.008	14941
872.138	14830
872.267	14785
872.397	14716
872.526	14689
872.656	14663
872.785	14632
872.915	14781
873.044	14906
873.173	14891
873.303	14929
873.432	14857
873.561	14925
873.69	14838
873.819	14834
873.948	14864
874.077	14933
874.206	14868
874.335	14834
874.464	14994
874.593	15089
874.722	15165
874.851	15146
874.979	15245
875.108	15188
875.237	15138
875.365	15100
875.494	15150
875.623	15180
875.751	15108
875.88	15180
876.008	15325
876.136	15382
876.265	15587
876.393	15690
876.521	15660
876.65	15732
876.778	15576
876.906	15526
877.034	15488
877.162	15534
877.29	15587
877.418	15576
877.546	15542
877.674	15618
877.802	15625
877.93	15606
878.058	15504
878.185	15564
878.313	15648
878.441	15534
878.568	15477
878.696	15511
878.824	15580
878.951	15682
879.079	15778
879.206	15972
879.333	15781
879.461	15614
879.588	15736
879.715	15705
879.842	15865
879.97	15656
880.097	15393
880.224	15439
880.351	15496
880.478	15389
880.605	15374
880.732	15466
880.859	15580
880.986	15542
881.112	15443
881.239	15443
881.366	15272
881.493	15085
881.619	15157
881.746	15066
881.872	15081
881.999	15081
882.125	15058
882.252	15211
882.378	15135
882.505	15218
882.631	14975
882.757	14929
882.883	14998
883.01	14891
883.136	14895
883.262	14762
883.388	14697
883.514	14941
883.64	15043
883.766	14899
883.892	14689
884.018	14727
884.143	14857
884.269	14971
884.395	14739
884.52	14545
884.646	14594
884.772	14625
884.897	14495
885.023	14583
885.148	14735
885.274	14739
885.399	14746
885.524	14617
885.65	14644
885.775	14640
885.9	14629
886.025	14689
886.15	14667
886.275	14583
886.4	14499
886.525	14537
886.65	14575
886.775	14533
886.9	14667
887.025	14811
887.149	14575
887.274	14465
887.399	14282
887.523	14362
887.648	14419
887.773	14317
887.897	14480
888.021	14450
888.146	14385
888.27	14530
888.395	14590
888.519	14533
888.643	14514
888.767	14526
888.891	14362
889.015	14317
889.139	14385
889.263	14248
889.387	14484
889.511	14476
889.635	14404
889.759	14294
889.883	14374
890.006	14336
890.13	14446
890.254	14221
890.377	14191
890.501	14202
890.624	14077
890.748	14324
890.871	14024
890.995	13917
891.118	13936
891.241	14008
891.364	13997
891.488	14119
891.611	14001
891.734	14054
891.857	14016
891.98	13940
892.103	14065
892.226	14008
892.349	14046
892.471	13860
892.594	13959
892.717	14073
892.839	13989
892.962	14039
893.085	14100
893.207	14096
893.33	13852
893.452	13967
893.575	14077
893.697	13986
893.819	14221
893.941	14240
894.064	14157
894.186	14073
894.308	14005
894.43	14065
894.552	14218
894.674	14157
894.796	13959
894.918	14012
895.04	14092
895.161	14126
895.283	14081
895.405	14077
895.526	14073
895.648	14161
895.769	14183
895.891	14157
896.012	14244
896.134	14278
896.255	14168
896.376	14199
896.498	14176
896.619	14218
896.74	14210
896.861	14320
896.982	14552
897.103	14613
897.224	14533
897.345	14377
897.466	14457
897.587	14400
897.708	14457
897.828	14469
897.949	14389
898.07	14385
898.19	14427
898.311	14651
898.431	14492
898.552	14575
898.672	14602
898.792	14644
898.913	14560
899.033	14484
899.153	14408
899.273	14267
899.393	14393
899.513	14408
899.633	14328
899.753	14446
899.873	14351
899.993	14465
900.113	14336
900.232	14469
900.352	14396
900.472	14271
900.591	14206
900.711	14362
900.83	14123
900.95	14259
901.069	14309
901.189	14157
901.308	14027
901.427	13955
901.546	14001
901.665	14046
901.784	13955
901.904	13879
902.023	13708
902.141	13563
902.26	13556
902.379	13666
902.498	13491
902.617	13510
902.735	13430
902.854	13571
902.973	13483
903.091	13217
903.21	13240
903.328	13274
903.446	13228
903.565	13057
903.683	13042
903.801	12993
903.919	13034
904.038	13038
904.156	12909
904.274	13004
904.392	12817
904.51	12852
904.627	12833
904.745	12913
904.863	12973
904.981	12764
905.098	12551
905.216	12570
905.334	12616
905.451	12677
905.569	12521
905.686	12635
905.803	12642
905.921	12506
906.038	12544
906.155	12445
906.272	12315
906.389	12372
906.506	12095
906.623	12216
906.74	12205
906.857	12148
906.974	12079
907.091	12182
907.208	12334
907.324	12254
907.441	12076
907.557	11923
907.674	11882
907.79	11908
907.907	11916
908.023	12019
908.139	11920
908.256	11942
908.372	11847
908.488	11840
908.604	11718
908.72	11733
908.836	11786
908.952	11745
909.068	11680
909.184	11752
909.3	11695
909.415	11775
909.531	11676
909.647	11524
909.762	11497
909.878	11429
909.993	11455
910.108	11429
910.224	11436
910.339	11463
910.454	11368
910.57	11307
910.685	11201
910.8	11592
910.915	11402
911.03	11307
911.145	11181
911.259	11242
911.374	11113
911.489	11033
911.604	11064
911.718	10911
911.833	10923
911.947	10816
912.062	10721
912.176	11018
912.291	10930
912.405	10949
912.519	11094
912.633	11006
912.748	10942
912.862	10953
912.976	10763
913.09	10714
913.204	10774
913.318	10767
913.431	10904
913.545	10908
913.659	10919
913.772	10824
913.886	10710
914	10675
914.113	10755
914.226	10854
914.34	10774
914.453	10584
914.566	10778
914.68	10626
914.793	10622
914.906	10459
915.019	10402
915.132	10284
915.245	10424
915.358	10436
915.47	10519
915.583	10428
915.696	10554
915.809	10569
915.921	10569
916.034	10462
916.146	10386
916.259	10348
916.371	10481
916.483	10424
916.595	10379
916.708	10367
916.82	10371
916.932	10341
917.044	10306
917.156	10375
917.268	10287
917.38	10322
917.491	10322
917.603	10287
917.715	10367
917.826	10424
917.938	10272
918.049	10131
918.161	10318
918.272	10356
918.384	10386
918.495	10230
918.606	10166
918.717	10051
918.828	10082
918.939	10162
919.05	10017
919.161	10101
919.272	9884
919.383	10006
919.494	10249
919.604	10325
919.715	10150
919.826	10067
919.936	10116
920.047	10230
920.157	10162
920.267	10451
920.378	10242
920.488	10158
920.598	10360
920.708	10493
920.818	10398
920.928	10367
921.038	10504
921.148	10485
921.258	10223
921.368	10101
921.477	10029
921.587	9979
921.697	9903
921.806	10093
921.916	9884
922.025	9732
922.134	9652
922.244	9682
922.353	9816
922.462	9603
922.571	9561
922.68	9526
922.789	9397
922.898	9504
923.007	9386
923.116	9447
923.224	9408
923.333	9382
923.442	9249
923.55	9275
923.659	9332
923.767	9336
923.876	9226
923.984	9481
924.092	9260
924.201	9359
924.309	9325
924.417	9363
924.525	9272
924.633	9226
924.741	10200
924.849	9070
924.956	9165
925.064	9104
925.172	8994
925.279	9055
925.387	9062
925.494	9119
925.602	9180
925.709	9199
925.816	9024
925.924	9051
926.031	9161
926.138	9104
926.245	9161
926.352	9070
926.459	9138
926.566	9146
926.673	9039
926.779	8998
926.886	8994
926.993	8807
927.099	8746
927.206	8731
927.312	8746
927.419	8796
927.525	8834
927.631	8872
927.737	8746
927.843	8724
927.95	8579
928.056	8708
928.162	8735
928.267	8716
928.373	9253
928.479	8712
928.585	8530
928.69	8655
928.796	8708
928.901	8545
929.007	8442
929.112	8564
929.218	8541
929.323	8499
929.428	8503
929.533	8640
929.638	8461
929.743	8457
929.848	8579
929.953	8503
930.058	8385
930.163	8267
930.267	8206
930.372	8393
930.477	8279
930.581	8469
930.685	8347
930.79	8248
930.894	8275
930.998	8202
931.103	8358
931.207	8012
931.311	8012
931.415	7856
931.519	7807
931.623	7636
