Data from test_V78500241_3486.txt Node
Date: Fri Mar 25 14:57:59 CST 2022
User: usil
Spectrometer: V785-0024
Trigger mode: 0
Integration Time (sec): 4.000000E-1
Scans to average: 1
Nonlinearity correction enabled: false
Boxcar width: 0
Storing dark spectrum: false
XAxis mode: Wavelengths
Number of Pixels in Spectrum: 1024
>>>>>Begin Spectral Data<<<<<
801.071	21953
801.214	21892
801.356	21717
801.499	21492
801.641	21428
801.783	21306
801.926	21462
802.068	21233
802.211	21127
802.353	21028
802.496	20880
802.638	20853
802.78	20853
802.923	20750
803.065	20606
803.208	20632
803.35	20640
803.492	20697
803.635	20765
803.777	20674
803.919	20636
804.061	21028
804.204	20644
804.346	20530
804.488	20518
804.63	20636
804.773	20549
804.915	20454
805.057	20613
805.199	20476
805.341	20560
805.483	20640
805.626	20621
805.768	20419
805.91	20522
806.052	20533
806.194	20522
806.336	20590
806.478	20484
806.62	20419
806.762	20621
806.904	20701
807.046	20975
807.188	20815
807.33	20746
807.472	20891
807.614	20773
807.756	20648
807.898	20648
808.04	20606
808.182	20545
808.324	20602
808.465	20670
808.607	20891
808.749	20914
808.891	20910
809.033	21005
809.174	20880
809.316	20735
809.458	20910
809.6	20845
809.741	21005
809.883	20883
810.025	21051
810.166	21032
810.308	21036
810.45	20971
810.591	20815
810.733	20792
810.875	20575
811.016	20511
811.158	20514
811.299	20640
811.441	20777
811.582	20739
811.724	20549
811.865	20568
812.007	20606
812.148	20571
812.29	20716
812.431	20857
812.573	21085
812.714	20952
812.855	21005
812.997	21180
813.138	21351
813.279	21195
813.421	21211
813.562	21043
813.703	20815
813.845	20792
813.986	20446
814.127	20248
814.268	20294
814.41	20240
814.551	20138
814.692	20256
814.833	20012
814.974	20183
815.115	20157
815.256	19852
815.397	20065
815.539	19967
815.68	19898
815.821	19917
815.962	20035
816.103	19921
816.244	19776
816.385	19700
816.526	19742
816.666	19407
816.807	19320
816.948	19362
817.089	19445
817.23	19411
817.371	19228
817.512	19297
817.653	19270
817.793	19251
817.934	19346
818.075	19426
818.216	19415
818.356	19274
818.497	19179
818.638	18932
818.778	18970
818.919	18935
819.06	18981
819.2	19209
819.341	19263
819.481	19171
819.622	19365
819.762	19472
819.903	19426
820.043	19457
820.184	19289
820.324	19202
820.465	19377
820.605	19343
820.746	19419
820.886	19122
821.026	19282
821.167	19282
821.307	19217
821.447	19160
821.588	19122
821.728	18939
821.868	18844
822.008	18726
822.149	18661
822.289	18654
822.429	18448
822.569	18357
822.709	18315
822.849	18247
822.99	18148
823.13	18163
823.27	18148
823.41	18068
823.55	17950
823.69	18057
823.83	18019
823.97	17912
824.11	17786
824.25	17767
824.389	17794
824.529	17904
824.669	17821
824.809	17870
824.949	17821
825.089	17809
825.228	17878
825.368	17684
825.508	17638
825.648	17649
825.787	17627
825.927	17623
826.067	17566
826.206	17467
826.346	17589
826.485	17493
826.625	17497
826.765	17630
826.904	17600
827.044	17356
827.183	17364
827.323	17235
827.462	17417
827.601	17299
827.741	17246
827.88	17216
828.02	17132
828.159	17189
828.298	17239
828.437	17395
828.577	17239
828.716	17353
828.855	17261
828.994	17033
829.134	17022
829.273	17048
829.412	16980
829.551	16999
829.69	16995
829.829	17143
829.968	17136
830.107	17056
830.246	17041
830.385	17010
830.524	16881
830.663	16774
830.802	16782
830.941	16774
831.08	16577
831.219	16740
831.357	16729
831.496	16957
831.635	16649
831.774	16607
831.913	16497
832.051	16432
832.19	16459
832.329	16466
832.467	16371
832.606	16325
832.744	16219
832.883	16303
833.022	16333
833.16	16344
833.299	16219
833.437	16451
833.576	16348
833.714	16443
833.852	16462
833.991	16386
834.129	16451
834.267	16554
834.406	16363
834.544	16405
834.682	16360
834.821	16318
834.959	16550
835.097	16398
835.235	16500
835.373	16493
835.511	16508
835.65	16299
835.788	16284
835.926	16109
836.064	16059
836.202	16192
836.34	16337
836.478	16436
836.615	16238
836.753	16306
836.891	16443
837.029	16325
837.167	16310
837.305	16261
837.443	16215
837.58	16154
837.718	16226
837.856	16261
837.993	16135
838.131	16177
838.269	16097
838.406	16128
838.544	16109
838.681	15816
838.819	15915
838.956	15766
839.094	15759
839.231	15766
839.369	15812
839.506	16147
839.643	16021
839.781	15705
839.918	15747
840.055	15789
840.193	15823
840.33	15709
840.467	15660
840.604	15766
840.742	15994
840.879	15652
841.016	15686
841.153	15656
841.29	15918
841.427	15835
841.564	15766
841.701	15770
841.838	15648
841.975	15576
842.112	15759
842.249	15553
842.385	15534
842.522	15622
842.659	15538
842.796	15644
842.933	15492
843.069	15469
843.206	15538
843.343	15587
843.479	15652
843.616	15538
843.752	15302
843.889	15298
844.025	15473
844.162	15336
844.298	15492
844.435	15287
844.571	15348
844.708	15344
844.844	15420
844.98	15534
845.117	15439
845.253	15260
845.389	15294
845.525	15294
845.661	15230
845.798	15173
845.934	15157
846.07	14971
846.206	15131
846.342	15230
846.478	15199
846.614	14899
846.75	14845
846.886	14796
847.022	14979
847.158	14880
847.294	14960
847.429	14910
847.565	14815
847.701	15135
847.837	14712
847.972	14632
848.108	14674
848.244	14693
848.379	14473
848.515	14454
848.65	14404
848.786	14473
848.921	14526
849.057	14526
849.192	14621
849.328	14400
849.463	14465
849.598	14533
849.734	14332
849.869	14457
850.004	14161
850.14	14313
850.275	14267
850.41	14176
850.545	14248
850.68	14256
850.815	14305
850.95	14271
851.085	14415
851.22	14313
851.355	14248
851.49	14256
851.625	14218
851.76	14191
851.895	14130
852.03	14153
852.165	14267
852.299	14248
852.434	14294
852.569	14278
852.703	14309
852.838	14351
852.973	14408
853.107	14347
853.242	14256
853.376	14221
853.511	13978
853.645	14149
853.78	14256
853.914	14164
854.048	14164
854.183	14126
854.317	14115
854.451	14275
854.585	14164
854.72	14115
854.854	14256
854.988	14088
855.122	14195
855.256	13955
855.39	14176
855.524	14195
855.658	14199
855.792	14168
855.926	14153
856.06	14176
856.194	14256
856.327	14107
856.461	14115
856.595	14084
856.729	14088
856.862	14199
856.996	14176
857.13	14195
857.263	14244
857.397	14275
857.53	14043
857.664	14161
857.797	14149
857.931	14218
858.064	14138
858.197	14206
858.331	14134
858.464	14020
858.597	13940
858.731	14077
858.864	14126
858.997	14115
859.13	14191
859.263	14237
859.396	14199
859.529	14119
859.662	14058
859.795	14050
859.928	14149
860.061	14305
860.194	14317
860.327	14149
860.46	14096
860.592	14233
860.725	14248
860.858	14267
860.99	14084
861.123	14065
861.256	13959
861.388	14119
861.521	14941
861.653	13940
861.786	13909
861.918	13951
862.05	14043
862.183	14024
862.315	14077
862.447	14123
862.58	14092
862.712	13906
862.844	13898
862.976	13963
863.108	13868
863.24	14347
863.372	13921
863.504	13928
863.636	13837
863.768	13986
863.9	13936
864.032	13807
864.164	13898
864.296	14012
864.428	14046
864.559	13989
864.691	13932
864.823	14031
864.954	13830
865.086	13940
865.217	13856
865.349	13871
865.48	13951
865.612	13902
865.743	14035
865.875	13868
866.006	13909
866.137	13795
866.269	13936
866.4	13917
866.531	13833
866.662	13837
866.793	13890
866.924	13833
867.055	13898
867.186	13833
867.317	13837
867.448	13811
867.579	13826
867.71	13811
867.841	13772
867.972	13928
868.103	13928
868.233	13925
868.364	13871
868.495	14077
868.625	14107
868.756	14263
868.886	13970
869.017	14111
869.147	14282
869.278	14145
869.408	14157
869.539	14157
869.669	14229
869.799	14206
869.929	14282
870.06	14202
870.19	14434
870.32	14473
870.45	14480
870.58	14575
870.71	14667
870.84	14712
870.97	14533
871.1	14552
871.23	14754
871.36	14777
871.489	14537
871.619	14815
871.749	14697
871.879	14762
872.008	14883
872.138	14792
872.267	14701
872.397	14556
872.526	14480
872.656	14598
872.785	14594
872.915	14727
873.044	14727
873.173	14701
873.303	14819
873.432	14845
873.561	14990
873.69	14743
873.819	14906
873.948	14792
874.077	14880
874.206	14826
874.335	14819
874.464	14975
874.593	15146
874.722	15039
874.851	15252
874.979	15279
875.108	15146
875.237	15009
875.365	15013
875.494	15112
875.623	15157
875.751	15074
875.88	15138
876.008	15245
876.136	15321
876.265	15481
876.393	15720
876.521	15538
876.65	15545
876.778	15424
876.906	15530
877.034	15500
877.162	15450
877.29	15511
877.418	15618
877.546	15557
877.674	15462
877.802	15564
877.93	15622
878.058	15519
878.185	15416
878.313	15584
878.441	15519
878.568	15420
878.696	15545
878.824	15431
878.951	15599
879.079	15736
879.206	15835
879.333	15778
879.461	15526
879.588	15690
879.715	15675
879.842	15804
879.97	15580
880.097	15298
880.224	15386
880.351	15386
880.478	15389
880.605	15298
880.732	15466
880.859	15694
880.986	15370
881.112	15424
881.239	15264
881.366	15100
881.493	15119
881.619	14963
881.746	15066
881.872	14971
881.999	14998
882.125	15108
882.252	15138
882.378	15112
882.505	15195
882.631	15032
882.757	14815
882.883	14880
883.01	14826
883.136	14861
883.262	14758
883.388	14765
883.514	14868
883.64	14876
883.766	14845
883.892	14689
884.018	14754
884.143	14861
884.269	14948
884.395	14632
884.52	14507
884.646	14667
884.772	14454
884.897	14415
885.023	14602
885.148	14606
885.274	14739
885.399	14743
885.524	14564
885.65	14613
885.775	14598
885.9	14499
886.025	14674
886.15	14625
886.275	14526
886.4	14488
886.525	14552
886.65	14530
886.775	14564
886.9	14651
887.025	14849
887.149	14659
887.274	14393
887.399	14377
887.523	14412
887.648	14229
887.773	14347
887.897	14381
888.021	14400
888.146	14366
888.27	14526
888.395	14552
888.519	14427
888.643	14511
888.767	14488
888.891	14286
889.015	14240
889.139	14301
889.263	14278
889.387	14358
889.511	14419
889.635	14412
889.759	14275
889.883	14233
890.006	14301
890.13	14328
890.254	14275
890.377	14328
890.501	13970
890.624	13936
890.748	14168
890.871	13982
890.995	13898
891.118	13898
891.241	14039
891.364	13978
891.488	14024
891.611	13887
891.734	13986
891.857	14016
891.98	14043
892.103	14050
892.226	14050
892.349	13944
892.471	13807
892.594	13936
892.717	13913
892.839	13921
892.962	13940
893.085	14069
893.207	14024
893.33	13925
893.452	13875
893.575	13970
893.697	13944
893.819	14153
893.941	14199
894.064	14149
894.186	13890
894.308	13841
894.43	14092
894.552	14195
894.674	14157
894.796	13951
894.918	13947
895.04	13993
895.161	14077
895.283	14123
895.405	13970
895.526	14084
895.648	14123
895.769	14191
895.891	14054
896.012	14256
896.134	14145
896.255	14123
896.376	14001
896.498	14138
896.619	14218
896.74	14073
896.861	14218
896.982	14533
897.103	14617
897.224	14381
897.345	14358
897.466	14393
897.587	14412
897.708	14511
897.828	14400
897.949	14396
898.07	14263
898.19	14362
898.311	14598
898.431	14313
898.552	14514
898.672	14537
898.792	14568
898.913	14564
899.033	14374
899.153	14423
899.273	14161
899.393	14355
899.513	14355
899.633	14427
899.753	14248
899.873	14309
899.993	14358
900.113	14294
900.232	14488
900.352	14351
900.472	14240
900.591	14100
900.711	14161
900.83	14199
900.95	14309
901.069	14339
901.189	14252
901.308	14005
901.427	13723
901.546	13902
901.665	13978
901.784	13913
901.904	13795
902.023	13662
902.141	13548
902.26	13407
902.379	13483
902.498	13499
902.617	13434
902.735	13521
902.854	13434
902.973	13369
903.091	13228
903.21	13198
903.328	13168
903.446	13042
903.565	13053
903.683	13050
903.801	12894
903.919	12928
904.038	13015
904.156	12897
904.274	12989
904.392	12848
904.51	12776
904.627	12916
904.745	12920
904.863	12920
904.981	12597
905.098	12479
905.216	12528
905.334	12604
905.451	12498
905.569	12585
905.686	12612
905.803	12490
905.921	12464
906.038	12525
906.155	12372
906.272	12304
906.389	12258
906.506	12091
906.623	12209
906.74	11969
906.857	12106
906.974	12003
907.091	12171
907.208	12315
907.324	12167
907.441	11977
907.557	11824
907.674	11878
907.79	11897
907.907	11859
908.023	11916
908.139	11946
908.256	11878
908.372	11809
908.488	11752
908.604	11699
908.72	11630
908.836	11600
908.952	11592
909.068	11653
909.184	11767
909.3	11619
909.415	11665
909.531	11657
909.647	11440
909.762	11444
909.878	11402
909.993	11448
910.108	11406
910.224	11395
910.339	11372
910.454	11349
910.57	11258
910.685	11132
910.8	11429
910.915	11402
911.03	11223
911.145	11155
911.259	11045
911.374	11136
911.489	10999
911.604	11022
911.718	10965
911.833	10900
911.947	10831
912.062	10710
912.176	10892
912.291	10949
912.405	10828
912.519	11045
912.633	11052
912.748	10946
912.862	10892
912.976	10752
913.09	10702
913.204	10668
913.318	10717
913.431	10923
913.545	10809
913.659	10900
913.772	10786
913.886	10653
914	10637
914.113	10733
914.226	10759
914.34	10698
914.453	10592
914.566	10656
914.68	10516
914.793	10558
914.906	10459
915.019	10386
915.132	10337
915.245	10348
915.358	10398
915.47	10398
915.583	10375
915.696	10455
915.809	10523
915.921	10542
916.034	10371
916.146	10306
916.259	10310
916.371	10440
916.483	10413
916.595	10322
916.708	10276
916.82	10272
916.932	10310
917.044	10295
917.156	10333
917.268	10223
917.38	10223
917.491	10238
917.603	10211
917.715	10265
917.826	10310
917.938	10128
918.049	10147
918.161	10246
918.272	10421
918.384	10394
918.495	10249
918.606	10093
918.717	10006
918.828	10150
918.939	10109
919.05	10051
919.161	10090
919.272	9918
919.383	9915
919.494	10131
919.604	10341
919.715	10185
919.826	10101
919.936	10173
920.047	10158
920.157	10131
920.267	10284
920.378	10188
920.488	10124
920.598	10303
920.708	10474
920.818	10276
920.928	10306
921.038	10519
921.148	10421
921.258	10196
921.368	10097
921.477	9994
921.587	9945
921.697	9903
921.806	10029
921.916	9941
922.025	9819
922.134	9690
922.244	9614
922.353	9728
922.462	9564
922.571	9458
922.68	9393
922.789	9393
922.898	9382
923.007	9329
923.116	9424
923.224	9420
923.333	9412
923.442	9348
923.55	9272
923.659	9169
923.767	9313
923.876	9161
923.984	9291
924.092	9199
924.201	9283
924.309	9272
924.417	9298
924.525	9222
924.633	9283
924.741	10143
924.849	9028
924.956	9195
925.064	8937
925.172	8979
925.279	8948
925.387	9039
925.494	9047
925.602	9157
925.709	9165
925.816	8944
925.924	9055
926.031	9146
926.138	9058
926.245	9062
926.352	8975
926.459	9104
926.566	9184
926.673	8967
926.779	8883
926.886	8849
926.993	8811
927.099	8705
927.206	8754
927.312	8781
927.419	8811
927.525	8731
927.631	8800
927.737	8708
927.843	8640
927.95	8571
928.056	8674
928.162	8735
928.267	8727
928.373	9363
928.479	8746
928.585	8556
928.69	8636
928.796	8655
928.901	8617
929.007	8476
929.112	8575
929.218	8541
929.323	8484
929.428	8503
929.533	8629
929.638	8480
929.743	8396
929.848	8530
929.953	8537
930.058	8279
930.163	8191
930.267	8298
930.372	8347
930.477	8248
930.581	8434
930.685	8336
930.79	8172
930.894	8244
930.998	8126
931.103	8320
931.207	7978
931.311	7947
931.415	7788
931.519	7734
931.623	7738
