Data from test_V78500241_3144.txt Node
Date: Fri Mar 25 14:55:36 CST 2022
User: usil
Spectrometer: V785-0024
Trigger mode: 0
Integration Time (sec): 4.000000E-1
Scans to average: 1
Nonlinearity correction enabled: false
Boxcar width: 0
Storing dark spectrum: false
XAxis mode: Wavelengths
Number of Pixels in Spectrum: 1024
>>>>>Begin Spectral Data<<<<<
801.071	22063
801.214	21861
801.356	21656
801.499	21595
801.641	21466
801.783	21416
801.926	21504
802.068	21332
802.211	21340
802.353	21291
802.496	20971
802.638	20933
802.78	20918
802.923	20872
803.065	20754
803.208	20746
803.35	20712
803.492	20788
803.635	20796
803.777	20750
803.919	20773
804.061	21028
804.204	20762
804.346	20697
804.488	20625
804.63	20701
804.773	20651
804.915	20693
805.057	20830
805.199	20674
805.341	20819
805.483	20952
805.626	20773
805.768	20689
805.91	20705
806.052	20617
806.194	20526
806.336	20754
806.478	20632
806.62	20556
806.762	20765
806.904	20678
807.046	21112
807.188	20963
807.33	21024
807.472	21058
807.614	20937
807.756	20963
807.898	20807
808.04	20720
808.182	20644
808.324	20830
808.465	20804
808.607	20819
808.749	21077
808.891	21085
809.033	21123
809.174	21131
809.316	21047
809.458	21096
809.6	20929
809.741	20933
809.883	21036
810.025	21096
810.166	21245
810.308	21119
810.45	21070
810.591	21093
810.733	20990
810.875	20777
811.016	20731
811.158	20621
811.299	20925
811.441	20941
811.582	20834
811.724	20857
811.865	20796
812.007	20689
812.148	20739
812.29	20838
812.431	20948
812.573	20998
812.714	21211
812.855	21241
812.997	21454
813.138	21507
813.279	21492
813.421	21329
813.562	21188
813.703	21077
813.845	20826
813.986	20663
814.127	20476
814.268	20400
814.41	20229
814.551	20415
814.692	20393
814.833	20229
814.974	20275
815.115	20343
815.256	20221
815.397	20267
815.539	20240
815.68	20058
815.821	19959
815.962	20081
816.103	19909
816.244	19875
816.385	19757
816.526	19753
816.666	19613
816.807	19445
816.948	19578
817.089	19506
817.23	19457
817.371	19464
817.512	19346
817.653	19346
817.793	19510
817.934	19415
818.075	19476
818.216	19499
818.356	19377
818.497	19312
818.638	19095
818.778	19137
818.919	19274
819.06	19152
819.2	19346
819.341	19335
819.481	19316
819.622	19529
819.762	19639
819.903	19521
820.043	19464
820.184	19419
820.324	19438
820.465	19415
820.605	19384
820.746	19426
820.886	19289
821.026	19438
821.167	19320
821.307	19483
821.447	19544
821.588	19148
821.728	19095
821.868	18928
822.008	18833
822.149	18859
822.289	18791
822.429	18635
822.569	18486
822.709	18494
822.849	18475
822.99	18319
823.13	18327
823.27	18296
823.41	18152
823.55	18076
823.69	18216
823.83	18213
823.97	18053
824.11	17870
824.25	17889
824.389	17874
824.529	17954
824.669	17847
824.809	18038
824.949	17939
825.089	17996
825.228	18011
825.368	17726
825.508	17646
825.648	17661
825.787	17748
825.927	17699
826.067	17634
826.206	17520
826.346	17813
826.485	17695
826.625	17649
826.765	17828
826.904	17695
827.044	17425
827.183	17353
827.323	17360
827.462	17490
827.601	17292
827.741	17425
827.88	17353
828.02	17303
828.159	17417
828.298	17311
828.437	17448
828.577	17372
828.716	17436
828.855	17208
828.994	17113
829.134	17121
829.273	17117
829.412	17037
829.551	17041
829.69	17029
829.829	17022
829.968	17220
830.107	17269
830.246	17151
830.385	17113
830.524	17003
830.663	16908
830.802	16889
830.941	16786
831.08	16748
831.219	16748
831.357	16885
831.496	16900
831.635	16797
831.774	16702
831.913	16603
832.051	16516
832.19	16470
832.329	16569
832.467	16470
832.606	16455
832.744	16322
832.883	16565
833.022	16390
833.16	16417
833.299	16348
833.437	16417
833.576	16485
833.714	16466
833.852	16451
833.991	16447
834.129	16611
834.267	16634
834.406	16447
834.544	16485
834.682	16428
834.821	16550
834.959	16592
835.097	16516
835.235	16603
835.373	16462
835.511	16500
835.65	16337
835.788	16246
835.926	16177
836.064	16169
836.202	16287
836.34	16341
836.478	16500
836.615	16394
836.753	16382
836.891	16462
837.029	16322
837.167	16344
837.305	16402
837.443	16299
837.58	16230
837.718	16318
837.856	16135
837.993	16230
838.131	16249
838.269	16196
838.406	16272
838.544	16071
838.681	15975
838.819	16074
838.956	15823
839.094	15838
839.231	15835
839.369	15991
839.506	16215
839.643	16116
839.781	15819
839.918	15774
840.055	15743
840.193	15720
840.33	15759
840.467	15838
840.604	15934
840.742	15975
840.879	15751
841.016	15698
841.153	15663
841.29	15911
841.427	15819
841.564	15861
841.701	15785
841.838	15759
841.975	15698
842.112	15816
842.249	15679
842.385	15580
842.522	15739
842.659	15504
842.796	15519
842.933	15534
843.069	15580
843.206	15561
843.343	15568
843.479	15591
843.616	15606
843.752	15351
843.889	15325
844.025	15485
844.162	15374
844.298	15500
844.435	15382
844.571	15317
844.708	15367
844.844	15515
844.98	15515
845.117	15523
845.253	15199
845.389	15138
845.525	15359
845.661	15256
845.798	15138
845.934	15302
846.07	15157
846.206	15184
846.342	15317
846.478	15100
846.614	14914
846.75	14971
846.886	14967
847.022	15020
847.158	14941
847.294	15058
847.429	14861
847.565	14963
847.701	15188
847.837	14750
847.972	14636
848.108	14705
848.244	14731
848.379	14526
848.515	14480
848.65	14571
848.786	14522
848.921	14590
849.057	14632
849.192	14674
849.328	14602
849.463	14568
849.598	14427
849.734	14408
849.869	14469
850.004	14374
850.14	14313
850.275	14317
850.41	14199
850.545	14221
850.68	14305
850.815	14332
850.95	14183
851.085	14514
851.22	14404
851.355	14271
851.49	14256
851.625	14317
851.76	14313
851.895	14294
852.03	14214
852.165	14271
852.299	14347
852.434	14400
852.569	14263
852.703	14309
852.838	14324
852.973	14530
853.107	14461
853.242	14221
853.376	14225
853.511	14043
853.645	14126
853.78	14309
853.914	14191
854.048	14248
854.183	14161
854.317	14244
854.451	14343
854.585	14142
854.72	14069
854.854	14149
854.988	14077
855.122	14111
855.256	14027
855.39	14111
855.524	14271
855.658	14180
855.792	14195
855.926	14191
856.06	14172
856.194	14240
856.327	14164
856.461	14069
856.595	14115
856.729	14145
856.862	14172
856.996	14267
857.13	14229
857.263	14298
857.397	14305
857.53	14240
857.664	14218
857.797	14161
857.931	14237
858.064	14176
858.197	14309
858.331	14161
858.464	14130
858.597	14138
858.731	14142
858.864	14161
858.997	14084
859.13	14263
859.263	14199
859.396	14214
859.529	14149
859.662	14161
859.795	14119
859.928	14172
860.061	14263
860.194	14339
860.327	14180
860.46	14183
860.592	14199
860.725	14332
860.858	14324
860.99	14256
861.123	14043
861.256	14043
861.388	14180
861.521	14902
861.653	14111
861.786	13989
861.918	14081
862.05	14126
862.183	14107
862.315	14145
862.447	14210
862.58	14134
862.712	13917
862.844	13890
862.976	13932
863.108	13967
863.24	14237
863.372	13894
863.504	13986
863.636	13963
863.768	14027
863.9	13989
864.032	13769
864.164	13864
864.296	14088
864.428	14012
864.559	14001
864.691	14039
864.823	14058
864.954	14008
865.086	13989
865.217	13890
865.349	13898
865.48	13868
865.612	13902
865.743	14008
865.875	13936
866.006	13875
866.137	13906
866.269	13936
866.4	13925
866.531	13944
866.662	13879
866.793	13944
866.924	13864
867.055	13959
867.186	14035
867.317	13951
867.448	13864
867.579	13883
867.71	13887
867.841	13791
867.972	13959
868.103	13921
868.233	13963
868.364	13959
868.495	14031
868.625	14229
868.756	14377
868.886	14092
869.017	14202
869.147	14172
869.278	14389
869.408	14275
869.539	14221
869.669	14313
869.799	14191
869.929	14278
870.06	14248
870.19	14431
870.32	14408
870.45	14530
870.58	14537
870.71	14785
870.84	14735
870.97	14560
871.1	14602
871.23	14727
871.36	14746
871.489	14769
871.619	14731
871.749	14777
871.879	14762
872.008	14914
872.138	14781
872.267	14750
872.397	14598
872.526	14644
872.656	14575
872.785	14610
872.915	14830
873.044	14960
873.173	14868
873.303	14800
873.432	14853
873.561	14845
873.69	14815
873.819	14807
873.948	14979
874.077	14819
874.206	14758
874.335	14895
874.464	14982
874.593	15138
874.722	15058
874.851	15207
874.979	15154
875.108	15233
875.237	15089
875.365	15142
875.494	15100
875.623	15184
875.751	15116
875.88	15207
876.008	15272
876.136	15397
876.265	15534
876.393	15717
876.521	15694
876.65	15557
876.778	15663
876.906	15523
877.034	15507
877.162	15568
877.29	15545
877.418	15648
877.546	15572
877.674	15572
877.802	15511
877.93	15519
878.058	15526
878.185	15488
878.313	15515
878.441	15553
878.568	15393
878.696	15622
878.824	15507
878.951	15671
879.079	15713
879.206	15922
879.333	15679
879.461	15682
879.588	15686
879.715	15774
879.842	15975
879.97	15641
880.097	15443
880.224	15466
880.351	15435
880.478	15386
880.605	15420
880.732	15294
880.859	15610
880.986	15462
881.112	15496
881.239	15428
881.366	15252
881.493	15176
881.619	15047
881.746	15154
881.872	15127
881.999	14982
882.125	15131
882.252	15119
882.378	15154
882.505	15264
882.631	15009
882.757	14914
882.883	14918
883.01	14906
883.136	14868
883.262	14739
883.388	14705
883.514	14967
883.64	14956
883.766	14800
883.892	14716
884.018	14712
884.143	14937
884.269	14956
884.395	14674
884.52	14533
884.646	14587
884.772	14503
884.897	14469
885.023	14598
885.148	14727
885.274	14682
885.399	14648
885.524	14598
885.65	14651
885.775	14613
885.9	14530
886.025	14667
886.15	14716
886.275	14583
886.4	14495
886.525	14640
886.65	14434
886.775	14545
886.9	14678
887.025	14861
887.149	14571
887.274	14484
887.399	14393
887.523	14385
887.648	14358
887.773	14298
887.897	14442
888.021	14541
888.146	14347
888.27	14606
888.395	14579
888.519	14457
888.643	14492
888.767	14541
888.891	14347
889.015	14263
889.139	14309
889.263	14252
889.387	14423
889.511	14492
889.635	14419
889.759	14317
889.883	14301
890.006	14408
890.13	14408
890.254	14210
890.377	14275
890.501	14046
890.624	14134
890.748	14195
890.871	14084
890.995	13936
891.118	13871
891.241	14069
891.364	13993
891.488	14134
891.611	14016
891.734	14081
891.857	14065
891.98	14012
892.103	14119
892.226	13970
892.349	13963
892.471	13890
892.594	13868
892.717	14062
892.839	14027
892.962	14024
893.085	14149
893.207	14012
893.33	13898
893.452	13913
893.575	14020
893.697	13955
893.819	14134
893.941	14187
894.064	14103
894.186	13989
894.308	13928
894.43	14130
894.552	14168
894.674	14138
894.796	14020
894.918	14092
895.04	14119
895.161	14130
895.283	14103
895.405	13997
895.526	14256
895.648	14161
895.769	14164
895.891	14149
896.012	14252
896.134	14191
896.255	14149
896.376	14164
896.498	14275
896.619	14229
896.74	14161
896.861	14225
896.982	14495
897.103	14712
897.224	14431
897.345	14389
897.466	14404
897.587	14408
897.708	14689
897.828	14442
897.949	14415
898.07	14305
898.19	14431
898.311	14590
898.431	14488
898.552	14499
898.672	14556
898.792	14579
898.913	14610
899.033	14549
899.153	14423
899.273	14317
899.393	14419
899.513	14393
899.633	14377
899.753	14427
899.873	14385
899.993	14362
900.113	14351
900.232	14370
900.352	14298
900.472	14294
900.591	14191
900.711	14271
900.83	14187
900.95	14450
901.069	14438
901.189	14191
901.308	13978
901.427	13993
901.546	13845
901.665	13928
901.784	14024
901.904	13757
902.023	13666
902.141	13556
902.26	13460
902.379	13613
902.498	13639
902.617	13468
902.735	13537
902.854	13491
902.973	13426
903.091	13221
903.21	13145
903.328	13320
903.446	13190
903.565	13103
903.683	13095
903.801	12932
903.919	13050
904.038	12951
904.156	12890
904.274	12909
904.392	12852
904.51	12878
904.627	12848
904.745	12905
904.863	13004
904.981	12646
905.098	12456
905.216	12475
905.334	12658
905.451	12574
905.569	12650
905.686	12665
905.803	12494
905.921	12388
906.038	12540
906.155	12353
906.272	12296
906.389	12346
906.506	12232
906.623	12228
906.74	12076
906.857	12117
906.974	12110
907.091	12251
907.208	12285
907.324	12163
907.441	12144
907.557	11893
907.674	11931
907.79	11904
907.907	11878
908.023	11950
908.139	12003
908.256	11870
908.372	11863
908.488	11790
908.604	11611
908.72	11646
908.836	11680
908.952	11688
909.068	11733
909.184	11775
909.3	11600
909.415	11672
909.531	11710
909.647	11516
909.762	11444
909.878	11444
909.993	11459
910.108	11368
910.224	11429
910.339	11459
910.454	11391
910.57	11341
910.685	11204
910.8	11551
910.915	11486
911.03	11330
911.145	11151
911.259	11170
911.374	11109
911.489	11151
911.604	11022
911.718	10858
911.833	11018
911.947	10809
912.062	10793
912.176	10881
912.291	10843
912.405	11033
912.519	11010
912.633	11090
912.748	10976
912.862	10919
912.976	10828
913.09	10653
913.204	10694
913.318	10774
913.431	10869
913.545	10866
913.659	10885
913.772	10809
913.886	10649
914	10637
914.113	10793
914.226	10774
914.34	10729
914.453	10584
914.566	10637
914.68	10554
914.793	10584
914.906	10371
915.019	10341
915.132	10360
915.245	10402
915.358	10371
915.47	10329
915.583	10386
915.696	10402
915.809	10470
915.921	10577
916.034	10440
916.146	10314
916.259	10386
916.371	10554
916.483	10447
916.595	10341
916.708	10379
916.82	10272
916.932	10314
917.044	10265
917.156	10310
917.268	10341
917.38	10265
917.491	10246
917.603	10242
917.715	10280
917.826	10360
917.938	10223
918.049	10207
918.161	10284
918.272	10409
918.384	10329
918.495	10295
918.606	10166
918.717	10116
918.828	10162
918.939	10131
919.05	10116
919.161	10090
919.272	9964
919.383	10006
919.494	10234
919.604	10329
919.715	10162
919.826	10017
919.936	10150
920.047	10284
920.157	10185
920.267	10322
920.378	10272
920.488	10188
920.598	10386
920.708	10500
920.818	10402
920.928	10356
921.038	10466
921.148	10535
921.258	10268
921.368	10219
921.477	10101
921.587	10067
921.697	9918
921.806	10078
921.916	9903
922.025	9774
922.134	9770
922.244	9690
922.353	9800
922.462	9644
922.571	9625
922.68	9397
922.789	9401
922.898	9408
923.007	9397
923.116	9443
923.224	9397
923.333	9397
923.442	9473
923.55	9332
923.659	9283
923.767	9359
923.876	9306
923.984	9401
924.092	9294
924.201	9275
924.309	9340
924.417	9313
924.525	9275
924.633	9275
924.741	10196
924.849	9093
924.956	9291
925.064	9100
925.172	9074
925.279	9043
925.387	9085
925.494	9135
925.602	9230
925.709	9222
925.816	9036
925.924	9119
926.031	9192
926.138	9074
926.245	9157
926.352	9081
926.459	9222
926.566	9188
926.673	9024
926.779	9001
926.886	8975
926.993	8834
927.099	8796
927.206	8834
927.312	8766
927.419	8838
927.525	8834
927.631	8834
927.737	8758
927.843	8708
927.95	8594
928.056	8693
928.162	8655
928.267	8792
928.373	9268
928.479	8842
928.585	8632
928.69	8735
928.796	8716
928.901	8663
929.007	8514
929.112	8625
929.218	8632
929.323	8503
929.428	8587
929.533	8644
929.638	8492
929.743	8545
929.848	8602
929.953	8583
930.058	8393
930.163	8290
930.267	8332
930.372	8461
930.477	8263
930.581	8636
930.685	8336
930.79	8301
930.894	8362
930.998	8168
931.103	8450
931.207	8077
931.311	7997
931.415	7978
931.519	7769
931.623	7799
