Data from test_V78500241_1372.txt Node
Date: Fri Mar 25 14:43:16 CST 2022
User: usil
Spectrometer: V785-0024
Trigger mode: 0
Integration Time (sec): 4.000000E-1
Scans to average: 1
Nonlinearity correction enabled: false
Boxcar width: 0
Storing dark spectrum: false
XAxis mode: Wavelengths
Number of Pixels in Spectrum: 1024
>>>>>Begin Spectral Data<<<<<
801.071	22432
801.214	22497
801.356	21987
801.499	21884
801.641	21797
801.783	21831
801.926	21915
802.068	21641
802.211	21675
802.353	21557
802.496	21393
802.638	21241
802.78	21313
802.923	21363
803.065	21184
803.208	21036
803.35	21173
803.492	21108
803.635	21325
803.777	21005
803.919	21207
804.061	21652
804.204	21294
804.346	21096
804.488	20971
804.63	21051
804.773	21001
804.915	21100
805.057	21264
805.199	21108
805.341	21157
805.483	21119
805.626	21150
805.768	20960
805.91	21165
806.052	21108
806.194	20895
806.336	21154
806.478	21108
806.62	20944
806.762	21184
806.904	21245
807.046	21515
807.188	21443
807.33	21477
807.472	21515
807.614	21332
807.756	21351
807.898	21321
808.04	21203
808.182	21458
808.324	21367
808.465	21336
808.607	21637
808.749	21808
808.891	21724
809.033	21941
809.174	21743
809.316	21545
809.458	21663
809.6	21576
809.741	21553
809.883	21572
810.025	21724
810.166	21641
810.308	21663
810.45	21526
810.591	21481
810.733	21431
810.875	21241
811.016	21119
811.158	21058
811.299	21252
811.441	21447
811.582	21363
811.724	21317
811.865	21252
812.007	21264
812.148	21195
812.29	21367
812.431	21363
812.573	21526
812.714	21492
812.855	21808
812.997	21778
813.138	21888
813.279	21895
813.421	21781
813.562	21675
813.703	21568
813.845	21447
813.986	21222
814.127	20845
814.268	20979
814.41	20845
814.551	20773
814.692	20861
814.833	20735
814.974	20727
815.115	20800
815.256	20644
815.397	20636
815.539	20629
815.68	20533
815.821	20454
815.962	20606
816.103	20457
816.244	20408
816.385	20267
816.526	20256
816.666	20096
816.807	19959
816.948	20138
817.089	20077
817.23	20027
817.371	19932
817.512	19986
817.653	19970
817.793	19989
817.934	19890
818.075	19951
818.216	19887
818.356	19917
818.497	19750
818.638	19521
818.778	19658
818.919	19681
819.06	19670
819.2	19704
819.341	19822
819.481	19833
819.622	20008
819.762	20100
819.903	20138
820.043	19944
820.184	19959
820.324	19944
820.465	20016
820.605	19940
820.746	19959
820.886	19822
821.026	19799
821.167	19849
821.307	19860
821.447	19890
821.588	19670
821.728	19582
821.868	19487
822.008	19316
822.149	19331
822.289	19225
822.429	19080
822.569	19088
822.709	18981
822.849	18745
822.99	18760
823.13	18772
823.27	18817
823.41	18555
823.55	18654
823.69	18734
823.83	18726
823.97	18509
824.11	18334
824.25	18372
824.389	18395
824.529	18429
824.669	18384
824.809	18486
824.949	18525
825.089	18429
825.228	18334
825.368	18178
825.508	18266
825.648	18258
825.787	18243
825.927	18174
826.067	18098
826.206	18194
826.346	18228
826.485	18186
826.625	18117
826.765	18346
826.904	18167
827.044	17882
827.183	17901
827.323	17874
827.462	18064
827.601	17893
827.741	17939
827.88	17965
828.02	17802
828.159	17851
828.298	17878
828.437	17996
828.577	17885
828.716	17901
828.855	17790
828.994	17657
829.134	17672
829.273	17638
829.412	17623
829.551	17566
829.69	17554
829.829	17703
829.968	17695
830.107	17604
830.246	17745
830.385	17619
830.524	17497
830.663	17471
830.802	17490
830.941	17315
831.08	17189
831.219	17280
831.357	17265
831.496	17615
831.635	17258
831.774	17284
831.913	17006
832.051	17132
832.19	17060
832.329	17025
832.467	16949
832.606	16900
832.744	17083
832.883	16930
833.022	16927
833.16	17025
833.299	17079
833.437	16927
833.576	16968
833.714	17048
833.852	17162
833.991	16953
834.129	17064
834.267	17124
834.406	17086
834.544	17124
834.682	16976
834.821	16930
834.959	17098
835.097	16999
835.235	17094
835.373	17052
835.511	17067
835.65	16904
835.788	16934
835.926	16839
836.064	16702
836.202	16725
836.34	16930
836.478	17071
836.615	16923
836.753	16942
836.891	16896
837.029	16904
837.167	16873
837.305	16900
837.443	16778
837.58	16736
837.718	16797
837.856	16862
837.993	16786
838.131	16774
838.269	16615
838.406	16691
838.544	16596
838.681	16394
838.819	16386
838.956	16371
839.094	16306
839.231	16371
839.369	16527
839.506	16691
839.643	16497
839.781	16276
839.918	16181
840.055	16344
840.193	16333
840.33	16249
840.467	16333
840.604	16405
840.742	16569
840.879	16147
841.016	16261
841.153	16177
841.29	16409
841.427	16325
841.564	16322
841.701	16363
841.838	16272
841.975	16158
842.112	16295
842.249	16074
842.385	16196
842.522	16291
842.659	16124
842.796	16086
842.933	16002
843.069	15987
843.206	16036
843.343	16150
843.479	16143
843.616	16128
843.752	15949
843.889	15895
844.025	15895
844.162	15903
844.298	16071
844.435	15804
844.571	15903
844.708	15991
844.844	16040
844.98	16105
845.117	15937
845.253	15876
845.389	15869
845.525	15941
845.661	15945
845.798	15880
845.934	16059
846.07	15979
846.206	16090
846.342	16090
846.478	15842
846.614	15606
846.75	15549
846.886	15473
847.022	15564
847.158	15416
847.294	15488
847.429	15534
847.565	15412
847.701	15736
847.837	15325
847.972	15237
848.108	15340
848.244	15321
848.379	15100
848.515	14971
848.65	15017
848.786	14990
848.921	15001
849.057	15093
849.192	15058
849.328	15070
849.463	15097
849.598	14967
849.734	14914
849.869	14948
850.004	14781
850.14	14792
850.275	14883
850.41	14777
850.545	14754
850.68	14800
850.815	14815
850.95	14853
851.085	14975
851.22	14815
851.355	14762
851.49	14826
851.625	14830
851.76	14815
851.895	14583
852.03	14727
852.165	14807
852.299	14796
852.434	14944
852.569	14811
852.703	14883
852.838	14960
852.973	14921
853.107	14952
853.242	14651
853.376	14720
853.511	14518
853.645	14716
853.78	14758
853.914	14727
854.048	14743
854.183	14701
854.317	14674
854.451	14929
854.585	14720
854.72	14545
854.854	14765
854.988	14693
855.122	14621
855.256	14564
855.39	14762
855.524	14807
855.658	14682
855.792	14678
855.926	14773
856.06	14777
856.194	14743
856.327	14613
856.461	14629
856.595	14667
856.729	14625
856.862	14762
856.996	14663
857.13	14819
857.263	14720
857.397	14861
857.53	14640
857.664	14648
857.797	14762
857.931	14727
858.064	14792
858.197	14849
858.331	14739
858.464	14651
858.597	14560
858.731	14598
858.864	14651
858.997	14590
859.13	14682
859.263	14804
859.396	14708
859.529	14682
859.662	14606
859.795	14663
859.928	14686
860.061	14872
860.194	14826
860.327	14606
860.46	14701
860.592	14739
860.725	14781
860.858	14773
860.99	14724
861.123	14674
861.256	14552
861.388	14697
861.521	15272
861.653	14575
861.786	14461
861.918	14530
862.05	14625
862.183	14610
862.315	14644
862.447	14708
862.58	14568
862.712	14473
862.844	14499
862.976	14590
863.108	14419
863.24	14815
863.372	14362
863.504	14484
863.636	14438
863.768	14575
863.9	14473
864.032	14320
864.164	14457
864.296	14541
864.428	14545
864.559	14511
864.691	14594
864.823	14522
864.954	14381
865.086	14537
865.217	14431
865.349	14438
865.48	14480
865.612	14396
865.743	14606
865.875	14393
866.006	14358
866.137	14507
866.269	14465
866.4	14381
866.531	14374
866.662	14252
866.793	14385
866.924	14423
867.055	14400
867.186	14294
867.317	14313
867.448	14404
867.579	14442
867.71	14320
867.841	14320
867.972	14370
868.103	14408
868.233	14457
868.364	14431
868.495	14571
868.625	14682
868.756	14739
868.886	14705
869.017	14659
869.147	14746
869.278	14800
869.408	14663
869.539	14708
869.669	14765
869.799	14727
869.929	14686
870.06	14785
870.19	15028
870.32	14944
870.45	15009
870.58	15017
870.71	15138
870.84	15142
870.97	15047
871.1	15028
871.23	15218
871.36	15249
871.489	15138
871.619	15157
871.749	15218
871.879	15294
872.008	15317
872.138	15188
872.267	15245
872.397	15108
872.526	15165
872.656	15070
872.785	15135
872.915	15283
873.044	15378
873.173	15214
873.303	15325
873.432	15408
873.561	15336
873.69	15294
873.819	15260
873.948	15344
874.077	15279
874.206	15291
874.335	15363
874.464	15466
874.593	15610
874.722	15553
874.851	15603
874.979	15660
875.108	15572
875.237	15656
875.365	15587
875.494	15652
875.623	15781
875.751	15511
875.88	15610
876.008	15793
876.136	15846
876.265	16059
876.393	16226
876.521	16112
876.65	16112
876.778	16158
876.906	15922
877.034	15945
877.162	16032
877.29	16006
877.418	15953
877.546	15983
877.674	16059
877.802	16093
877.93	16040
878.058	16048
878.185	15945
878.313	15998
878.441	16059
878.568	15949
878.696	15983
878.824	16017
878.951	16139
879.079	16257
879.206	16402
879.333	16314
879.461	16249
879.588	16276
879.715	16329
879.842	16462
879.97	16226
880.097	15991
880.224	15846
880.351	16044
880.478	15857
880.605	15953
880.732	15994
880.859	16090
880.986	15934
881.112	15835
881.239	15800
881.366	15762
881.493	15679
881.619	15572
881.746	15549
881.872	15599
881.999	15500
882.125	15545
882.252	15595
882.378	15553
882.505	15694
882.631	15492
882.757	15355
882.883	15496
883.01	15340
883.136	15325
883.262	15294
883.388	15138
883.514	15268
883.64	15351
883.766	15310
883.892	15211
884.018	15264
884.143	15447
884.269	15458
884.395	15066
884.52	15100
884.646	15074
884.772	15017
884.897	14982
885.023	15127
885.148	15070
885.274	15195
885.399	15150
885.524	15104
885.65	15058
885.775	15100
885.9	15081
886.025	15192
886.15	15180
886.275	15032
886.4	14925
886.525	15013
886.65	15017
886.775	15039
886.9	15161
887.025	15218
887.149	15138
887.274	14914
887.399	14982
887.523	14834
887.648	14872
887.773	14834
887.897	14956
888.021	14876
888.146	14910
888.27	15047
888.395	15055
888.519	14941
888.643	14941
888.767	14937
888.891	14807
889.015	14682
889.139	14781
889.263	14724
889.387	14834
889.511	14914
889.635	14880
889.759	14674
889.883	14750
890.006	14815
890.13	14796
890.254	14705
890.377	14659
890.501	14552
890.624	14575
890.748	14644
890.871	14518
890.995	14408
891.118	14385
891.241	14400
891.364	14434
891.488	14511
891.611	14442
891.734	14465
891.857	14473
891.98	14492
892.103	14484
892.226	14488
892.349	14412
892.471	14332
892.594	14320
892.717	14423
892.839	14377
892.962	14446
893.085	14423
893.207	14381
893.33	14336
893.452	14396
893.575	14541
893.697	14393
893.819	14541
893.941	14682
894.064	14461
894.186	14442
894.308	14442
894.43	14617
894.552	14621
894.674	14549
894.796	14465
894.918	14389
895.04	14473
895.161	14560
895.283	14495
895.405	14431
895.526	14537
895.648	14476
895.769	14545
895.891	14579
896.012	14560
896.134	14575
896.255	14613
896.376	14552
896.498	14571
896.619	14560
896.74	14640
896.861	14602
896.982	14864
897.103	15097
897.224	14838
897.345	14883
897.466	14758
897.587	14807
897.708	14914
897.828	14895
897.949	14731
898.07	14686
898.19	14849
898.311	15005
898.431	14853
898.552	14872
898.672	14998
898.792	14975
898.913	15017
899.033	14785
899.153	14765
899.273	14667
899.393	14724
899.513	14754
899.633	14834
899.753	14727
899.873	14712
899.993	14804
900.113	14777
900.232	14853
900.352	14762
900.472	14682
900.591	14514
900.711	14708
900.83	14629
900.95	14739
901.069	14781
901.189	14514
901.308	14434
901.427	14267
901.546	14320
901.665	14275
901.784	14393
901.904	14168
902.023	14062
902.141	13917
902.26	13868
902.379	13936
902.498	13902
902.617	13822
902.735	13917
902.854	13879
902.973	13841
903.091	13556
903.21	13468
903.328	13525
903.446	13540
903.565	13426
903.683	13499
903.801	13453
903.919	13430
904.038	13381
904.156	13221
904.274	13362
904.392	13190
904.51	13171
904.627	13255
904.745	13343
904.863	13415
904.981	13012
905.098	13012
905.216	12928
905.334	13004
905.451	12882
905.569	12894
905.686	12977
905.803	12981
905.921	12745
906.038	12890
906.155	12844
906.272	12627
906.389	12589
906.506	12513
906.623	12570
906.74	12563
906.857	12456
906.974	12395
907.091	12528
907.208	12604
907.324	12616
907.441	12376
907.557	12235
907.674	12292
907.79	12194
907.907	12315
908.023	12300
908.139	12171
908.256	12220
908.372	12171
908.488	12163
908.604	12057
908.72	11901
908.836	11973
908.952	12015
909.068	12053
909.184	12053
909.3	11996
909.415	12019
909.531	12026
909.647	11828
909.762	11794
909.878	11866
909.993	11805
910.108	11748
910.224	11699
910.339	11741
910.454	11649
910.57	11577
910.685	11493
910.8	11878
910.915	11832
911.03	11672
911.145	11509
911.259	11471
911.374	11474
911.489	11417
911.604	11421
911.718	11227
911.833	11231
911.947	11174
912.062	11086
912.176	11083
912.291	11212
912.405	11258
912.519	11471
912.633	11497
912.748	11288
912.862	11353
912.976	11045
913.09	10980
913.204	11159
913.318	11014
913.431	11311
913.545	11151
913.659	11208
913.772	11117
913.886	11010
914	11003
914.113	11010
914.226	11185
914.34	11064
914.453	10930
914.566	11117
914.68	10968
914.793	10877
914.906	10721
915.019	10694
915.132	10645
915.245	10683
915.358	10698
915.47	10733
915.583	10733
915.696	10831
915.809	10850
915.921	10900
916.034	10710
916.146	10664
916.259	10611
916.371	10767
916.483	10698
916.595	10626
916.708	10694
916.82	10698
916.932	10672
917.044	10584
917.156	10592
917.268	10596
917.38	10500
917.491	10531
917.603	10554
917.715	10592
917.826	10607
917.938	10481
918.049	10447
918.161	10546
918.272	10714
918.384	10599
918.495	10580
918.606	10512
918.717	10333
918.828	10375
918.939	10481
919.05	10329
919.161	10363
919.272	10242
919.383	10284
919.494	10542
919.604	10618
919.715	10394
919.826	10360
919.936	10428
920.047	10500
920.157	10474
920.267	10580
920.378	10466
920.488	10424
920.598	10626
920.708	10820
920.818	10656
920.928	10607
921.038	10771
921.148	10744
921.258	10474
921.368	10367
921.477	10280
921.587	10310
921.697	10143
921.806	10322
921.916	10173
922.025	10097
922.134	10006
922.244	9968
922.353	10025
922.462	9869
922.571	9876
922.68	9667
922.789	9648
922.898	9682
923.007	9694
923.116	9717
923.224	9648
923.333	9694
923.442	9595
923.55	9561
923.659	9591
923.767	9580
923.876	9450
923.984	9587
924.092	9424
924.201	9538
924.309	9473
924.417	9485
924.525	9466
924.633	9481
924.741	10459
924.849	9287
924.956	9431
925.064	9298
925.172	9211
925.279	9230
925.387	9310
925.494	9306
925.602	9439
925.709	9439
925.816	9214
925.924	9294
926.031	9386
926.138	9325
926.245	9348
926.352	9283
926.459	9393
926.566	9393
926.673	9218
926.779	9192
926.886	9142
926.993	9043
927.099	9017
927.206	8963
927.312	8990
927.419	9066
927.525	9062
927.631	9055
927.737	8921
927.843	8941
927.95	8823
928.056	8796
928.162	8929
928.267	8933
928.373	9584
928.479	9043
928.585	8781
928.69	8918
928.796	8971
928.901	8792
929.007	8727
929.112	8769
929.218	8762
929.323	8743
929.428	8693
929.533	8868
929.638	8617
929.743	8621
929.848	8750
929.953	8720
930.058	8727
930.163	8488
930.267	8522
930.372	8682
930.477	8507
930.581	8697
930.685	8541
930.79	8454
930.894	8488
930.998	8488
931.103	8537
931.207	8210
931.311	8172
931.415	8088
931.519	7951
931.623	7955
