Data from test_V78500241_387.txt Node
Date: Fri Mar 25 14:36:25 CST 2022
User: usil
Spectrometer: V785-0024
Trigger mode: 0
Integration Time (sec): 4.000000E-1
Scans to average: 1
Nonlinearity correction enabled: false
Boxcar width: 0
Storing dark spectrum: false
XAxis mode: Wavelengths
Number of Pixels in Spectrum: 1024
>>>>>Begin Spectral Data<<<<<
801.071	26712
801.214	26564
801.356	26488
801.499	26347
801.641	26149
801.783	25963
801.926	26084
802.068	26199
802.211	25982
802.353	25951
802.496	25925
802.638	25738
802.78	25822
802.923	25742
803.065	25624
803.208	25635
803.35	25719
803.492	25814
803.635	25788
803.777	25772
803.919	25734
804.061	26016
804.204	25651
804.346	25670
804.488	25586
804.63	25696
804.773	25567
804.915	25635
805.057	25841
805.199	25704
805.341	25685
805.483	25772
805.626	25788
805.768	25582
805.91	25639
806.052	25727
806.194	25567
806.336	25906
806.478	25883
806.62	25704
806.762	25852
806.904	26020
807.046	26176
807.188	25986
807.33	26020
807.472	26199
807.614	26111
807.756	25940
807.898	25989
808.04	25772
808.182	25993
808.324	25982
808.465	25776
808.607	25966
808.749	26126
808.891	26332
809.033	26320
809.174	26290
809.316	26134
809.458	26252
809.6	26100
809.741	26168
809.883	26218
810.025	26434
810.166	26290
810.308	26275
810.45	26332
810.591	26271
810.733	26073
810.875	26005
811.016	26024
811.158	26001
811.299	26084
811.441	26286
811.582	26191
811.724	26043
811.865	25944
812.007	25944
812.148	25917
812.29	26088
812.431	26134
812.573	26191
812.714	26423
812.855	26453
812.997	26663
813.138	26750
813.279	26785
813.421	26495
813.562	26476
813.703	26298
813.845	26202
813.986	25978
814.127	25776
814.268	25681
814.41	25765
814.551	25677
814.692	25635
814.833	25548
814.974	25537
815.115	25548
815.256	25411
815.397	25430
815.539	25491
815.68	25362
815.821	25358
815.962	25426
816.103	25293
816.244	25263
816.385	25187
816.526	24928
816.666	24939
816.807	24802
816.948	24802
817.089	24802
817.23	24665
817.371	24593
817.512	24608
817.653	24696
817.793	24688
817.934	24654
818.075	24734
818.216	24715
818.356	24681
818.497	24642
818.638	24426
818.778	24380
818.919	24384
819.06	24467
819.2	24570
819.341	24513
819.481	24620
819.622	24791
819.762	24958
819.903	24833
820.043	24829
820.184	24673
820.324	24730
820.465	24867
820.605	24665
820.746	24589
820.886	24517
821.026	24703
821.167	24665
821.307	24749
821.447	24585
821.588	24460
821.728	24407
821.868	24270
822.008	24076
822.149	24136
822.289	23977
822.429	23882
822.569	23764
822.709	23729
822.849	23524
822.99	23554
823.13	23547
823.27	23478
823.41	23292
823.55	23143
823.69	23337
823.83	23280
823.97	23189
824.11	23075
824.25	23140
824.389	23124
824.529	23197
824.669	23056
824.809	23151
824.949	23033
825.089	23136
825.228	23064
825.368	22949
825.508	22889
825.648	22991
825.787	22835
825.927	22862
826.067	22858
826.206	22820
826.346	22831
826.485	22740
826.625	22904
826.765	23052
826.904	22824
827.044	22656
827.183	22573
827.323	22424
827.462	22588
827.601	22512
827.741	22615
827.88	22535
828.02	22379
828.159	22527
828.298	22653
828.437	22527
828.577	22413
828.716	22557
828.855	22375
828.994	22314
829.134	22253
829.273	22200
829.412	22215
829.551	22131
829.69	22226
829.829	22173
829.968	22261
830.107	22356
830.246	22150
830.385	22219
830.524	22150
830.663	21926
830.802	21937
830.941	21724
831.08	21846
831.219	21842
831.357	21937
831.496	22074
831.635	21717
831.774	21705
831.913	21698
832.051	21660
832.19	21591
832.329	21564
832.467	21462
832.606	21496
832.744	21367
832.883	21549
833.022	21469
833.16	21420
833.299	21420
833.437	21454
833.576	21469
833.714	21580
833.852	21553
833.991	21576
834.129	21686
834.267	21488
834.406	21469
834.544	21431
834.682	21443
834.821	21405
834.959	21462
835.097	21317
835.235	21329
835.373	21469
835.511	21393
835.65	21348
835.788	21275
835.926	21070
836.064	21123
836.202	21013
836.34	21363
836.478	21450
836.615	21245
836.753	21283
836.891	21378
837.029	21249
837.167	21279
837.305	21237
837.443	21199
837.58	21074
837.718	21173
837.856	21195
837.993	21112
838.131	21142
838.269	21085
838.406	21036
838.544	21020
838.681	20830
838.819	20849
838.956	20655
839.094	20655
839.231	20682
839.369	20804
839.506	20918
839.643	20819
839.781	20590
839.918	20514
840.055	20594
840.193	20541
840.33	20347
840.467	20533
840.604	20530
840.742	20811
840.879	20374
841.016	20545
841.153	20332
841.29	20514
841.427	20503
841.564	20465
841.701	20480
841.838	20408
841.975	20419
842.112	20381
842.249	20271
842.385	20096
842.522	20377
842.659	20313
842.796	20206
842.933	20259
843.069	20130
843.206	20172
843.343	20320
843.479	20218
843.616	20191
843.752	19917
843.889	19909
844.025	20035
844.162	20073
844.298	20168
844.435	19909
844.571	19871
844.708	19989
844.844	20180
844.98	20062
845.117	20054
845.253	19849
845.389	19959
845.525	19837
845.661	19913
845.798	19666
845.934	19856
846.07	19700
846.206	19868
846.342	19917
846.478	19864
846.614	19613
846.75	19480
846.886	19468
847.022	19525
847.158	19514
847.294	19472
847.429	19476
847.565	19453
847.701	19658
847.837	19148
847.972	19179
848.108	19206
848.244	19137
848.379	19038
848.515	18985
848.65	19091
848.786	19038
848.921	19095
849.057	19118
849.192	19137
849.328	18966
849.463	19004
849.598	19057
849.734	18924
849.869	18798
850.004	18920
850.14	18798
850.275	18719
850.41	18635
850.545	18726
850.68	18650
850.815	18806
850.95	18738
851.085	18928
851.22	18837
851.355	18787
851.49	18639
851.625	18669
851.76	18719
851.895	18597
852.03	18631
852.165	18715
852.299	18681
852.434	18806
852.569	18772
852.703	18757
852.838	18730
852.973	18821
853.107	18867
853.242	18661
853.376	18566
853.511	18479
853.645	18597
853.78	18661
853.914	18604
854.048	18532
854.183	18388
854.317	18555
854.451	18616
854.585	18566
854.72	18566
854.854	18509
854.988	18452
855.122	18506
855.256	18399
855.39	18642
855.524	18574
855.658	18555
855.792	18677
855.926	18574
856.06	18494
856.194	18604
856.327	18486
856.461	18452
856.595	18414
856.729	18547
856.862	18673
856.996	18475
857.13	18506
857.263	18711
857.397	18589
857.53	18563
857.664	18563
857.797	18559
857.931	18597
858.064	18544
858.197	18650
858.331	18429
858.464	18441
858.597	18361
858.731	18521
858.864	18418
858.997	18441
859.13	18490
859.263	18418
859.396	18585
859.529	18475
859.662	18448
859.795	18426
859.928	18456
860.061	18692
860.194	18692
860.327	18559
860.46	18517
860.592	18673
860.725	18566
860.858	18616
860.99	18513
861.123	18429
861.256	18467
861.388	18490
861.521	19244
861.653	18277
861.786	18369
861.918	18334
862.05	18517
862.183	18582
862.315	18506
862.447	18536
862.58	18483
862.712	18357
862.844	18285
862.976	18262
863.108	18262
863.24	18673
863.372	18292
863.504	18330
863.636	18285
863.768	18308
863.9	18232
864.032	18216
864.164	18144
864.296	18315
864.428	18395
864.559	18273
864.691	18353
864.823	18289
864.954	18216
865.086	18285
865.217	18155
865.349	18152
865.48	18205
865.612	18209
865.743	18281
865.875	18163
866.006	18072
866.137	18243
866.269	18171
866.4	18121
866.531	18235
866.662	18174
866.793	18144
866.924	18178
867.055	18121
867.186	18087
867.317	18121
867.448	18049
867.579	18060
867.71	18125
867.841	18022
867.972	18129
868.103	18110
868.233	18178
868.364	18083
868.495	18190
868.625	18372
868.756	18445
868.886	18194
869.017	18281
869.147	18433
869.278	18346
869.408	18372
869.539	18300
869.669	18380
869.799	18426
869.929	18410
870.06	18502
870.19	18597
870.32	18650
870.45	18711
870.58	18665
870.71	18764
870.84	18760
870.97	18673
871.1	18764
871.23	18852
871.36	18886
871.489	18783
871.619	18954
871.749	18863
871.879	18947
872.008	19152
872.138	18875
872.267	18878
872.397	18730
872.526	18779
872.656	18840
872.785	18829
872.915	18890
873.044	19133
873.173	19012
873.303	19000
873.432	19031
873.561	19042
873.69	18996
873.819	19042
873.948	19038
874.077	18996
874.206	18901
874.335	19148
874.464	19046
874.593	19187
874.722	19103
874.851	19255
874.979	19240
875.108	19221
875.237	19179
875.365	19141
875.494	19206
875.623	19438
875.751	19244
875.88	19304
876.008	19324
876.136	19384
876.265	19635
876.393	19761
876.521	19681
876.65	19723
876.778	19761
876.906	19563
877.034	19594
877.162	19609
877.29	19609
877.418	19578
877.546	19643
877.674	19609
877.802	19685
877.93	19548
878.058	19628
878.185	19540
878.313	19620
878.441	19635
878.568	19441
878.696	19586
878.824	19658
878.951	19601
879.079	19856
879.206	20012
879.333	19955
879.461	19696
879.588	19784
879.715	19852
879.842	19932
879.97	19635
880.097	19464
880.224	19422
880.351	19396
880.478	19441
880.605	19540
880.732	19396
880.859	19670
880.986	19510
881.112	19422
881.239	19396
881.366	19289
881.493	19194
881.619	19145
881.746	19137
881.872	19133
881.999	19057
882.125	19034
882.252	18989
882.378	19198
882.505	19168
882.631	19031
882.757	18996
882.883	18924
883.01	18882
883.136	18867
883.262	18703
883.388	18730
883.514	18878
883.64	18939
883.766	18749
883.892	18604
884.018	18707
884.143	18871
884.269	18954
884.395	18616
884.52	18582
884.646	18563
884.772	18479
884.897	18456
885.023	18506
885.148	18589
885.274	18654
885.399	18661
885.524	18544
885.65	18513
885.775	18517
885.9	18547
886.025	18536
886.15	18589
886.275	18445
886.4	18437
886.525	18525
886.65	18418
886.775	18384
886.9	18665
887.025	18604
887.149	18486
887.274	18330
887.399	18330
887.523	18384
887.648	18319
887.773	18205
887.897	18433
888.021	18311
888.146	18289
888.27	18433
888.395	18353
888.519	18254
888.643	18239
888.767	18338
888.891	18224
889.015	18117
889.139	18201
889.263	18045
889.387	18258
889.511	18171
889.635	18182
889.759	18003
889.883	18030
890.006	18095
890.13	18262
890.254	18064
890.377	17939
890.501	17893
890.624	17882
890.748	18007
890.871	17779
890.995	17707
891.118	17638
891.241	17687
891.364	17737
891.488	17771
891.611	17608
891.734	17703
891.857	17802
891.98	17729
892.103	17687
892.226	17699
892.349	17684
892.471	17497
892.594	17687
892.717	17661
892.839	17649
892.962	17646
893.085	17722
893.207	17680
893.33	17444
893.452	17589
893.575	17729
893.697	17668
893.819	17863
893.941	17931
894.064	17794
894.186	17585
894.308	17661
894.43	17813
894.552	17710
894.674	17684
894.796	17707
894.918	17630
895.04	17627
895.161	17737
895.283	17752
895.405	17638
895.526	17581
895.648	17630
895.769	17714
895.891	17885
896.012	17980
896.134	17745
896.255	17695
896.376	17745
896.498	17745
896.619	17821
896.74	17832
896.861	17824
896.982	18144
897.103	18216
897.224	18026
897.345	17927
897.466	17992
897.587	17973
897.708	18095
897.828	17931
897.949	17946
898.07	17824
898.19	17904
898.311	18053
898.431	17950
898.552	18057
898.672	18152
898.792	18007
898.913	18026
899.033	17729
899.153	17699
899.273	17714
899.393	17752
899.513	17756
899.633	17824
899.753	17745
899.873	17714
899.993	17786
900.113	17805
900.232	17767
900.352	17748
900.472	17505
900.591	17661
900.711	17520
900.83	17482
900.95	17764
901.069	17764
901.189	17463
901.308	17303
901.427	17189
901.546	17212
901.665	17242
901.784	17292
901.904	17162
902.023	17003
902.141	16740
902.26	16584
902.379	16843
902.498	16748
902.617	16592
902.735	16782
902.854	16694
902.973	16588
903.091	16455
903.21	16299
903.328	16398
903.446	16421
903.565	16223
903.683	16318
903.801	16124
903.919	16261
904.038	16272
904.156	16017
904.274	16059
904.392	15953
904.51	15956
904.627	16017
904.745	15941
904.863	15964
904.981	15884
905.098	15762
905.216	15698
905.334	15682
905.451	15656
905.569	15641
905.686	15660
905.803	15724
905.921	15363
906.038	15477
906.155	15507
906.272	15386
906.389	15382
906.506	15184
906.623	15154
906.74	15287
906.857	15055
906.974	15066
907.091	15272
907.208	15344
907.324	15329
907.441	15233
907.557	14899
907.674	14933
907.79	14849
907.907	14918
908.023	15047
908.139	14880
908.256	14914
908.372	14724
908.488	14754
908.604	14727
908.72	14590
908.836	14610
908.952	14689
909.068	14632
909.184	14689
909.3	14632
909.415	14670
909.531	14613
909.647	14419
909.762	14286
909.878	14332
909.993	14366
910.108	14366
910.224	14305
910.339	14305
910.454	14195
910.57	14172
910.685	14123
910.8	14374
910.915	14374
911.03	14191
911.145	14016
911.259	14054
911.374	14012
911.489	13830
911.604	13902
911.718	13780
911.833	13727
911.947	13674
912.062	13624
912.176	13712
912.291	13700
912.405	13689
912.519	13803
912.633	13875
912.748	13685
912.862	13700
912.976	13636
913.09	13445
913.204	13552
913.318	13453
913.431	13639
913.545	13620
913.659	13757
913.772	13571
913.886	13346
914	13293
914.113	13445
914.226	13639
914.34	13396
914.453	13263
914.566	13476
914.68	13449
914.793	13274
914.906	13114
915.019	13065
915.132	13034
915.245	13057
915.358	13099
915.47	12996
915.583	13095
915.696	13088
915.809	13160
915.921	13247
916.034	13015
916.146	12985
916.259	12920
916.371	13129
916.483	12958
916.595	12920
916.708	12901
916.82	13000
916.932	12821
917.044	12924
917.156	12890
917.268	12764
917.38	12791
917.491	12806
917.603	12875
917.715	12867
917.826	12890
917.938	12749
918.049	12677
918.161	12798
918.272	12897
918.384	12901
918.495	12859
918.606	12589
918.717	12521
918.828	12627
918.939	12574
919.05	12464
919.161	12521
919.272	12388
919.383	12422
919.494	12597
919.604	12726
919.715	12639
919.826	12509
919.936	12479
920.047	12536
920.157	12650
920.267	12802
920.378	12517
920.488	12528
920.598	12810
920.708	12943
920.818	12703
920.928	12715
921.038	12886
921.148	12833
921.258	12471
921.368	12483
921.477	12308
921.587	12372
921.697	12273
921.806	12426
921.916	12167
922.025	12041
922.134	11954
922.244	11954
922.353	12007
922.462	11904
922.571	11798
922.68	11680
922.789	11653
922.898	11699
923.007	11608
923.116	11657
923.224	11611
923.333	11703
923.442	11482
923.55	11478
923.659	11459
923.767	11596
923.876	11414
923.984	11505
924.092	11364
924.201	11414
924.309	11501
924.417	11467
924.525	11349
924.633	11448
924.741	12232
924.849	11189
924.956	11330
925.064	11185
925.172	11105
925.279	11143
925.387	11254
925.494	11250
925.602	11296
925.709	11201
925.816	11162
925.924	11189
926.031	11204
926.138	11155
926.245	11178
926.352	11060
926.459	11197
926.566	11280
926.673	11113
926.779	11098
926.886	10995
926.993	10843
927.099	10843
927.206	10782
927.312	10744
927.419	10881
927.525	10790
927.631	10816
927.737	10733
927.843	10634
927.95	10615
928.056	10637
928.162	10698
928.267	10691
928.373	11376
928.479	10774
928.585	10500
928.69	10645
928.796	10687
928.901	10440
929.007	10421
929.112	10512
929.218	10542
929.323	10512
929.428	10500
929.533	10550
929.638	10344
929.743	10447
929.848	10489
929.953	10459
930.058	10325
930.163	10120
930.267	10291
930.372	10249
930.477	10188
930.581	10417
930.685	10169
930.79	10139
930.894	10101
930.998	10135
931.103	10143
931.207	9857
931.311	9781
931.415	9690
931.519	9485
931.623	9511
