Data from test_V78500241_802.txt Node
Date: Fri Mar 25 14:39:18 CST 2022
User: usil
Spectrometer: V785-0024
Trigger mode: 0
Integration Time (sec): 4.000000E-1
Scans to average: 1
Nonlinearity correction enabled: false
Boxcar width: 0
Storing dark spectrum: false
XAxis mode: Wavelengths
Number of Pixels in Spectrum: 1024
>>>>>Begin Spectral Data<<<<<
801.071	26495
801.214	26332
801.356	26016
801.499	26001
801.641	25837
801.783	25868
801.926	25807
802.068	25632
802.211	25407
802.353	25445
802.496	25396
802.638	25187
802.78	25350
802.923	25270
803.065	25095
803.208	25259
803.35	25255
803.492	25236
803.635	25441
803.777	25122
803.919	25331
804.061	25613
804.204	25445
804.346	25362
804.488	25365
804.63	25392
804.773	25369
804.915	25533
805.057	25696
805.199	25590
805.341	25757
805.483	25852
805.626	25822
805.768	25811
805.91	25989
806.052	26183
806.194	25963
806.336	26423
806.478	26400
806.62	26446
806.762	26826
806.904	27020
807.046	27576
807.188	27793
807.33	28097
807.472	28573
807.614	29197
807.756	29984
807.898	30764
808.04	31788
808.182	33488
808.324	35547
808.465	37906
808.607	40596
808.749	42909
808.891	44240
809.033	44374
809.174	42943
809.316	40748
809.458	38016
809.6	35341
809.741	33169
809.883	31441
810.025	30266
810.166	29440
810.308	28831
810.45	28204
810.591	28032
810.733	27389
810.875	27154
811.016	26785
811.158	26606
811.299	26731
811.441	26617
811.582	26507
811.724	26183
811.865	26069
812.007	26073
812.148	25986
812.29	25978
812.431	26065
812.573	26107
812.714	26305
812.855	26267
812.997	26396
813.138	26465
813.279	26358
813.421	26229
813.562	26039
813.703	25898
813.845	25784
813.986	25434
814.127	25217
814.268	25042
814.41	24970
814.551	24935
814.692	25168
814.833	24905
814.974	24745
815.115	24920
815.256	24719
815.397	24677
815.539	24677
815.68	24715
815.821	24620
815.962	24623
816.103	24517
816.244	24315
816.385	24296
816.526	24209
816.666	23939
816.807	23904
816.948	23988
817.089	24079
817.23	23965
817.371	23809
817.512	23855
817.653	23805
817.793	23691
817.934	23760
818.075	23893
818.216	23756
818.356	23745
818.497	23619
818.638	23425
818.778	23573
818.919	23455
819.06	23554
819.2	23680
819.341	23741
819.481	23756
819.622	23821
819.762	23901
819.903	23946
820.043	23729
820.184	23756
820.324	23809
820.465	23935
820.605	23714
820.746	23695
820.886	23604
821.026	23630
821.167	23623
821.307	23581
821.447	23501
821.588	23383
821.728	23379
821.868	23094
822.008	23010
822.149	22930
822.289	22904
822.429	22706
822.569	22478
822.709	22637
822.849	22386
822.99	22382
823.13	22276
823.27	22394
823.41	22200
823.55	22128
823.69	22219
823.83	22303
823.97	21983
824.11	21987
824.25	22010
824.389	21781
824.529	22063
824.669	21991
824.809	22006
824.949	21922
825.089	22017
825.228	21953
825.368	21804
825.508	21633
825.648	21831
825.787	21705
825.927	21701
826.067	21739
826.206	21747
826.346	21770
826.485	21686
826.625	21690
826.765	21743
826.904	21652
827.044	21378
827.183	21454
827.323	21443
827.462	21431
827.601	21401
827.741	21393
827.88	21481
828.02	21203
828.159	21435
828.298	21367
828.437	21477
828.577	21340
828.716	21469
828.855	21389
828.994	21123
829.134	21085
829.273	21256
829.412	21119
829.551	21051
829.69	20994
829.829	21074
829.968	21157
830.107	21100
830.246	21024
830.385	21013
830.524	20864
830.663	20921
830.802	20724
830.941	20670
831.08	20552
831.219	20785
831.357	20823
831.496	20838
831.635	20693
831.774	20571
831.913	20644
832.051	20469
832.19	20473
832.329	20552
832.467	20579
832.606	20469
832.744	20434
832.883	20533
833.022	20621
833.16	20663
833.299	20785
833.437	20941
833.576	20948
833.714	21081
833.852	21180
833.991	21306
834.129	21359
834.267	21405
834.406	21256
834.544	21291
834.682	21176
834.821	21058
834.959	21058
835.097	20746
835.235	20845
835.373	20701
835.511	20606
835.65	20415
835.788	20446
835.926	20290
836.064	20252
836.202	20218
836.34	20415
836.478	20324
836.615	20256
836.753	20320
836.891	20275
837.029	20240
837.167	20187
837.305	20183
837.443	20081
837.58	20046
837.718	20096
837.856	20062
837.993	20027
838.131	20107
838.269	19799
838.406	19936
838.544	19807
838.681	19795
838.819	19620
838.956	19590
839.094	19632
839.231	19616
839.369	19548
839.506	19879
839.643	19613
839.781	19556
839.918	19483
840.055	19460
840.193	19506
840.33	19350
840.467	19354
840.604	19525
840.742	19734
840.879	19255
841.016	19373
841.153	19400
841.29	19491
841.427	19518
841.564	19396
841.701	19415
841.838	19411
841.975	19324
842.112	19384
842.249	19247
842.385	19122
842.522	19453
842.659	19304
842.796	19228
842.933	19259
843.069	19358
843.206	19259
843.343	19514
843.479	19422
843.616	19388
843.752	19145
843.889	19175
844.025	19426
844.162	19236
844.298	19480
844.435	19578
844.571	19677
844.708	19959
844.844	20263
844.98	20640
845.117	21024
845.253	21823
845.389	23151
845.525	26035
845.661	30452
845.798	35699
845.934	40059
846.07	41783
846.206	40752
846.342	37114
846.478	31548
846.614	26967
846.75	23786
846.886	21915
847.022	20891
847.158	20134
847.294	19696
847.429	19441
847.565	19244
847.701	19365
847.837	18897
847.972	18642
848.108	18715
848.244	18570
848.379	18441
848.515	18311
848.65	18194
848.786	18197
848.921	18292
849.057	18327
849.192	18304
849.328	18319
849.463	18201
849.598	18136
849.734	18121
849.869	18087
850.004	17916
850.14	18019
850.275	17904
850.41	17821
850.545	17916
850.68	17897
850.815	17760
850.95	17802
851.085	18060
851.22	17942
851.355	17885
851.49	17809
851.625	17870
851.76	17893
851.895	17836
852.03	17764
852.165	17859
852.299	18015
852.434	17965
852.569	17969
852.703	17939
852.838	17973
852.973	18155
853.107	18140
853.242	18019
853.376	17973
853.511	17847
853.645	17843
853.78	18091
853.914	18087
854.048	18022
854.183	17939
854.317	18140
854.451	18251
854.585	18041
854.72	17984
854.854	18190
854.988	17882
855.122	17984
855.256	17714
855.39	17790
855.524	17908
855.658	17882
855.792	17813
855.926	17866
856.06	17809
856.194	17954
856.327	17672
856.461	17699
856.595	17668
856.729	17790
856.862	17767
856.996	17684
857.13	17672
857.263	17809
857.397	17817
857.53	17649
857.664	17703
857.797	17863
857.931	17764
858.064	17634
858.197	17798
858.331	17703
858.464	17532
858.597	17482
858.731	17676
858.864	17589
858.997	17619
859.13	17570
859.263	17627
859.396	17672
859.529	17562
859.662	17581
859.795	17433
859.928	17604
860.061	17623
860.194	17710
860.327	17649
860.46	17615
860.592	17710
860.725	17687
860.858	17726
860.99	17486
861.123	17429
861.256	17516
861.388	17570
861.521	18072
861.653	17459
861.786	17337
861.918	17326
862.05	17452
862.183	17600
862.315	17528
862.447	17547
862.58	17528
862.712	17288
862.844	17280
862.976	17356
863.108	17345
863.24	17794
863.372	17235
863.504	17284
863.636	17254
863.768	17292
863.9	17220
864.032	17185
864.164	17212
864.296	17277
864.428	17436
864.559	17261
864.691	17303
864.823	17288
864.954	17269
865.086	17261
865.217	17250
865.349	17189
865.48	17151
865.612	17258
865.743	17398
865.875	17246
866.006	17204
866.137	17166
866.269	17193
866.4	17147
866.531	17079
866.662	17140
866.793	17109
866.924	17102
867.055	17288
867.186	17140
867.317	17071
867.448	17060
867.579	17117
867.71	17105
867.841	17140
867.972	17128
868.103	17128
868.233	17102
868.364	17235
868.495	17261
868.625	17425
868.756	17490
868.886	17303
869.017	17398
869.147	17448
869.278	17532
869.408	17383
869.539	17353
869.669	17410
869.799	17486
869.929	17520
870.06	17543
870.19	17718
870.32	17779
870.45	17840
870.58	17863
870.71	17916
870.84	17923
870.97	17855
871.1	17901
871.23	18159
871.36	18121
871.489	18076
871.619	18045
871.749	18091
871.879	18114
872.008	18174
872.138	18205
872.267	18148
872.397	18034
872.526	18026
872.656	17980
872.785	18045
872.915	18296
873.044	18323
873.173	18243
873.303	18296
873.432	18247
873.561	18311
873.69	18380
873.819	18369
873.948	18410
874.077	18445
874.206	18319
874.335	18422
874.464	18665
874.593	18673
874.722	18639
874.851	18787
874.979	18909
875.108	18920
875.237	18844
875.365	18890
875.494	18848
875.623	18958
875.751	18939
875.88	18954
876.008	19263
876.136	19179
876.265	19586
876.393	19723
876.521	19696
876.65	19742
876.778	19750
876.906	19734
877.034	19727
877.162	19784
877.29	19791
877.418	20020
877.546	20062
877.674	20111
877.802	20164
877.93	20332
878.058	20332
878.185	20594
878.313	20785
878.441	21036
878.568	21199
878.696	21728
878.824	22470
878.951	23368
879.079	24665
879.206	26278
879.333	27922
879.461	29269
879.588	30095
879.715	30277
879.842	29311
879.97	27975
880.097	26191
880.224	24935
880.351	23866
880.478	23178
880.605	22698
880.732	22478
880.859	22462
880.986	22112
881.112	21911
881.239	21751
881.366	21774
881.493	21774
881.619	21530
881.746	21591
881.872	21625
881.999	21576
882.125	21728
882.252	21876
882.378	21876
882.505	21937
882.631	21854
882.757	21743
882.883	21644
883.01	21603
883.136	21568
883.262	21481
883.388	21469
883.514	21568
883.64	21644
883.766	21507
883.892	21332
884.018	21310
884.143	21572
884.269	21713
884.395	21363
884.52	21370
884.646	21237
884.772	21279
884.897	21173
885.023	21340
885.148	21378
885.274	21447
885.399	21313
885.524	21100
885.65	21116
885.775	20895
885.9	20800
886.025	20800
886.15	20655
886.275	20385
886.4	20339
886.525	20191
886.65	20183
886.775	20126
886.9	20100
887.025	20180
887.149	19795
887.274	19605
887.399	19529
887.523	19476
887.648	19228
887.773	19312
887.897	19400
888.021	19335
888.146	19133
888.27	19175
888.395	19122
888.519	19129
888.643	18996
888.767	19076
888.891	18867
889.015	18741
889.139	18760
889.263	18612
889.387	18726
889.511	18749
889.635	18734
889.759	18563
889.883	18566
890.006	18601
890.13	18585
890.254	18532
890.377	18315
890.501	18155
890.624	18136
890.748	18296
890.871	18072
890.995	17912
891.118	17847
891.241	17954
891.364	17935
891.488	18007
891.611	17828
891.734	17771
891.857	17863
891.98	17722
892.103	17859
892.226	17676
892.349	17733
892.471	17509
892.594	17668
892.717	17642
892.839	17524
892.962	17604
893.085	17547
893.207	17558
893.33	17334
893.452	17406
893.575	17467
893.697	17471
893.819	17646
893.941	17646
894.064	17566
894.186	17292
894.308	17334
894.43	17406
894.552	17395
894.674	17318
894.796	17197
894.918	17273
895.04	17288
895.161	17322
895.283	17372
895.405	17193
895.526	17269
895.648	17258
895.769	17284
895.891	17345
896.012	17318
896.134	17239
896.255	17303
896.376	17280
896.498	17242
896.619	17288
896.74	17193
896.861	17299
896.982	17535
897.103	17577
897.224	17455
897.345	17490
897.466	17334
897.587	17463
897.708	17585
897.828	17391
897.949	17318
898.07	17216
898.19	17341
898.311	17543
898.431	17334
898.552	17535
898.672	17452
898.792	17535
898.913	17516
899.033	17360
899.153	17315
899.273	17128
899.393	17273
899.513	17345
899.633	17235
899.753	17159
899.873	17098
899.993	17273
900.113	17227
900.232	17299
900.352	17185
900.472	17064
900.591	16938
900.711	17102
900.83	16938
900.95	17094
901.069	17124
901.189	16927
901.308	16793
901.427	16634
901.546	16672
901.665	16641
901.784	16641
901.904	16424
902.023	16306
902.141	16318
902.26	16109
902.379	16196
902.498	16109
902.617	16021
902.735	16192
902.854	16025
902.973	15991
903.091	15812
903.21	15717
903.328	15774
903.446	15652
903.565	15587
903.683	15644
903.801	15454
903.919	15557
904.038	15530
904.156	15443
904.274	15428
904.392	15348
904.51	15355
904.627	15260
904.745	15359
904.863	15367
904.981	15104
905.098	15009
905.216	14982
905.334	15005
905.451	14910
905.569	14948
905.686	15020
905.803	14876
905.921	14727
906.038	14849
906.155	14796
906.272	14731
906.389	14621
906.506	14552
906.623	14560
906.74	14545
906.857	14377
906.974	14495
907.091	14568
907.208	14644
907.324	14499
907.441	14374
907.557	14176
907.674	14164
907.79	14275
907.907	14164
908.023	14286
908.139	14172
908.256	14202
908.372	14050
908.488	14153
908.604	13970
908.72	13883
908.836	13947
908.952	13826
909.068	13890
909.184	13974
909.3	14054
909.415	14035
909.531	13871
909.647	13696
909.762	13738
909.878	13632
909.993	13738
910.108	13628
910.224	13670
910.339	13624
910.454	13529
910.57	13575
910.685	13441
910.8	13757
910.915	13639
911.03	13529
911.145	13377
911.259	13354
911.374	13362
911.489	13285
911.604	13244
911.718	13076
911.833	13133
911.947	13019
912.062	12954
912.176	13015
912.291	13091
912.405	13099
912.519	13228
912.633	13206
912.748	13183
912.862	12985
912.976	12867
913.09	12821
913.204	12935
913.318	12958
913.431	13042
913.545	12905
913.659	13042
913.772	12951
913.886	12783
914	12856
914.113	12943
914.226	12894
914.34	12905
914.453	12684
914.566	12871
914.68	12673
914.793	12738
914.906	12597
915.019	12498
915.132	12448
915.245	12471
915.358	12528
915.47	12555
915.583	12563
915.696	12536
915.809	12627
915.921	12764
916.034	12350
916.146	12395
916.259	12456
916.371	12429
916.483	12525
916.595	12410
916.708	12483
916.82	12399
916.932	12426
917.044	12445
917.156	12407
917.268	12308
917.38	12384
917.491	12239
917.603	12300
917.715	12350
917.826	12330
917.938	12152
918.049	12136
918.161	12182
918.272	12353
918.384	12327
918.495	12209
918.606	12095
918.717	12030
918.828	12060
918.939	12083
919.05	11961
919.161	12026
919.272	11897
919.383	11897
919.494	12022
919.604	12224
919.715	12140
919.826	12041
919.936	12019
920.047	12068
920.157	12072
920.267	12182
920.378	12095
920.488	12049
920.598	12194
920.708	12304
920.818	12235
920.928	12182
921.038	12365
921.148	12281
921.258	12038
921.368	11916
921.477	11870
921.587	11748
921.697	11600
921.806	11851
921.916	11707
922.025	11573
922.134	11665
922.244	11436
922.353	11474
922.462	11341
922.571	11341
922.68	11189
922.789	11178
922.898	11102
923.007	11201
923.116	11201
923.224	11113
923.333	11124
923.442	11029
923.55	10995
923.659	10965
923.767	11124
923.876	10938
923.984	11094
924.092	10965
924.201	10949
924.309	10930
924.417	10957
924.525	10987
924.633	10847
924.741	11859
924.849	10710
924.956	10885
925.064	10691
925.172	10668
925.279	10698
925.387	10656
925.494	10774
925.602	10839
925.709	10759
925.816	10546
925.924	10717
926.031	10702
926.138	10763
926.245	10771
926.352	10668
926.459	10763
926.566	10778
926.673	10535
926.779	10538
926.886	10485
926.993	10405
927.099	10390
927.206	10325
927.312	10291
927.419	10424
927.525	10375
927.631	10443
927.737	10230
927.843	10162
927.95	10200
928.056	10154
928.162	10215
928.267	10310
928.373	10900
928.479	10356
928.585	10112
928.69	10112
928.796	10219
928.901	10082
929.007	9964
929.112	10059
929.218	10192
929.323	10051
929.428	10013
929.533	10071
929.638	9941
929.743	9945
929.848	10071
929.953	10006
930.058	9857
930.163	9819
930.267	9755
930.372	9903
930.477	9644
930.581	9956
930.685	9808
930.79	9648
930.894	9698
930.998	9629
931.103	9751
931.207	9443
931.311	9370
931.415	9378
931.519	9081
931.623	9070
