Data from test_V78500241_1690.txt Node
Date: Fri Mar 25 14:45:28 CST 2022
User: usil
Spectrometer: V785-0024
Trigger mode: 0
Integration Time (sec): 4.000000E-1
Scans to average: 1
Nonlinearity correction enabled: false
Boxcar width: 0
Storing dark spectrum: false
XAxis mode: Wavelengths
Number of Pixels in Spectrum: 1024
>>>>>Begin Spectral Data<<<<<
801.071	22249
801.214	22086
801.356	21968
801.499	21770
801.641	21530
801.783	21606
801.926	21671
802.068	21519
802.211	21545
802.353	21313
802.496	21256
802.638	21123
802.78	21116
802.923	21009
803.065	20971
803.208	20914
803.35	20960
803.492	21028
803.635	21051
803.777	20906
803.919	21028
804.061	21408
804.204	21081
804.346	20979
804.488	20804
804.63	20925
804.773	20796
804.915	20944
805.057	21017
805.199	20941
805.341	20963
805.483	21047
805.626	20998
805.768	20842
805.91	20876
806.052	20941
806.194	20842
806.336	21020
806.478	20826
806.62	20739
806.762	20887
806.904	21039
807.046	21325
807.188	21127
807.33	21165
807.472	21367
807.614	21116
807.756	21207
807.898	21142
808.04	20960
808.182	21039
808.324	21043
808.465	21093
808.607	21279
808.749	21325
808.891	21473
809.033	21443
809.174	21359
809.316	21272
809.458	21416
809.6	21291
809.741	21237
809.883	21363
810.025	21439
810.166	21504
810.308	21462
810.45	21397
810.591	21321
810.733	21214
810.875	21104
811.016	20990
811.158	20925
811.299	21020
811.441	21195
811.582	21161
811.724	21055
811.865	20990
812.007	20929
812.148	21051
812.29	21066
812.431	21275
812.573	21332
812.714	21321
812.855	21435
812.997	21694
813.138	21679
813.279	21629
813.421	21595
813.562	21504
813.703	21249
813.845	21180
813.986	20952
814.127	20796
814.268	20632
814.41	20617
814.551	20522
814.692	20632
814.833	20568
814.974	20590
815.115	20446
815.256	20457
815.397	20480
815.539	20606
815.68	20362
815.821	20366
815.962	20362
816.103	20366
816.244	20153
816.385	19978
816.526	20107
816.666	19913
816.807	19807
816.948	19791
817.089	19879
817.23	19818
817.371	19734
817.512	19757
817.653	19624
817.793	19719
817.934	19753
818.075	19849
818.216	19761
818.356	19662
818.497	19563
818.638	19502
818.778	19411
818.919	19426
819.06	19457
819.2	19449
819.341	19727
819.481	19552
819.622	19712
819.762	19955
819.903	19833
820.043	19761
820.184	19723
820.324	19696
820.465	19833
820.605	19689
820.746	19734
820.886	19582
821.026	19613
821.167	19567
821.307	19753
821.447	19689
821.588	19438
821.728	19373
821.868	19350
822.008	19129
822.149	19114
822.289	19103
822.429	18867
822.569	18715
822.709	18711
822.849	18566
822.99	18654
823.13	18551
823.27	18570
823.41	18467
823.55	18399
823.69	18441
823.83	18445
823.97	18342
824.11	18171
824.25	18136
824.389	18186
824.529	18327
824.669	18083
824.809	18273
824.949	18353
825.089	18300
825.228	18155
825.368	18091
825.508	18041
825.648	18045
825.787	18053
825.927	17920
826.067	17904
826.206	17912
826.346	17946
826.485	17958
826.625	17859
826.765	18106
826.904	18003
827.044	17798
827.183	17691
827.323	17665
827.462	17714
827.601	17642
827.741	17764
827.88	17619
828.02	17551
828.159	17589
828.298	17733
828.437	17665
828.577	17600
828.716	17809
828.855	17596
828.994	17600
829.134	17376
829.273	17440
829.412	17261
829.551	17337
829.69	17280
829.829	17318
829.968	17459
830.107	17486
830.246	17467
830.385	17406
830.524	17246
830.663	17231
830.802	17128
830.941	16934
831.08	16938
831.219	17136
831.357	17086
831.496	17311
831.635	16987
831.774	17048
831.913	16858
832.051	16767
832.19	16778
832.329	16820
832.467	16812
832.606	16641
832.744	16698
832.883	16824
833.022	16656
833.16	16702
833.299	16679
833.437	16774
833.576	16767
833.714	16809
833.852	16812
833.991	16763
834.129	16835
834.267	16866
834.406	16752
834.544	16774
834.682	16755
834.821	16774
834.959	16923
835.097	16706
835.235	16824
835.373	16717
835.511	16713
835.65	16729
835.788	16649
835.926	16611
836.064	16481
836.202	16485
836.34	16641
836.478	16706
836.615	16752
836.753	16702
836.891	16702
837.029	16645
837.167	16626
837.305	16645
837.443	16569
837.58	16519
837.718	16527
837.856	16516
837.993	16436
838.131	16577
838.269	16443
838.406	16424
838.544	16386
838.681	16211
838.819	16196
838.956	16169
839.094	16025
839.231	16128
839.369	16268
839.506	16428
839.643	16360
839.781	16143
839.918	16116
840.055	16044
840.193	16166
840.33	16086
840.467	16010
840.604	16109
840.742	16242
840.879	15994
841.016	15972
841.153	15956
841.29	16265
841.427	16139
841.564	16139
841.701	16086
841.838	15964
841.975	16013
842.112	15934
842.249	15827
842.385	15831
842.522	16029
842.659	15972
842.796	15682
842.933	15857
843.069	15880
843.206	15804
843.343	15903
843.479	15865
843.616	15808
843.752	15694
843.889	15576
844.025	15774
844.162	15709
844.298	15728
844.435	15538
844.571	15561
844.708	15660
844.844	15838
844.98	15736
845.117	15861
845.253	15618
845.389	15450
845.525	15603
845.661	15576
845.798	15325
845.934	15629
846.07	15481
846.206	15584
846.342	15599
846.478	15405
846.614	15252
846.75	15123
846.886	15127
847.022	15245
847.158	15146
847.294	15207
847.429	15218
847.565	15188
847.701	15412
847.837	14982
847.972	14929
848.108	15066
848.244	14941
848.379	14826
848.515	14845
848.65	14724
848.786	14792
848.921	14861
849.057	14845
849.192	14933
849.328	14845
849.463	14838
849.598	14731
849.734	14750
849.869	14716
850.004	14610
850.14	14655
850.275	14434
850.41	14530
850.545	14431
850.68	14480
850.815	14514
850.95	14522
851.085	14720
851.22	14594
851.355	14579
851.49	14568
851.625	14583
851.76	14606
851.895	14499
852.03	14492
852.165	14560
852.299	14625
852.434	14587
852.569	14617
852.703	14564
852.838	14625
852.973	14708
853.107	14674
853.242	14564
853.376	14488
853.511	14248
853.645	14377
853.78	14602
853.914	14442
854.048	14469
854.183	14396
854.317	14412
854.451	14511
854.585	14381
854.72	14377
854.854	14495
854.988	14271
855.122	14381
855.256	14385
855.39	14396
855.524	14613
855.658	14514
855.792	14480
855.926	14530
856.06	14457
856.194	14514
856.327	14347
856.461	14404
856.595	14347
856.729	14404
856.862	14533
856.996	14541
857.13	14579
857.263	14571
857.397	14701
857.53	14400
857.664	14552
857.797	14598
857.931	14648
858.064	14571
858.197	14549
858.331	14423
858.464	14450
858.597	14473
858.731	14465
858.864	14427
858.997	14434
859.13	14412
859.263	14473
859.396	14484
859.529	14442
859.662	14431
859.795	14438
859.928	14484
860.061	14648
860.194	14644
860.327	14545
860.46	14507
860.592	14549
860.725	14590
860.858	14610
860.99	14454
861.123	14332
861.256	14473
861.388	14473
861.521	15066
861.653	14377
861.786	14324
861.918	14339
862.05	14408
862.183	14431
862.315	14438
862.447	14549
862.58	14431
862.712	14183
862.844	14282
862.976	14313
863.108	14259
863.24	14758
863.372	14145
863.504	14286
863.636	14229
863.768	14278
863.9	14328
864.032	14263
864.164	14187
864.296	14343
864.428	14393
864.559	14370
864.691	14366
864.823	14393
864.954	14336
865.086	14263
865.217	14237
865.349	14187
865.48	14267
865.612	14206
865.743	14374
865.875	14199
866.006	14168
866.137	14248
866.269	14252
866.4	14221
866.531	14278
866.662	14195
866.793	14233
866.924	14221
867.055	14202
867.186	14134
867.317	14206
867.448	14073
867.579	14149
867.71	14081
867.841	14073
867.972	14244
868.103	14164
868.233	14180
868.364	14278
868.495	14263
868.625	14549
868.756	14526
868.886	14320
869.017	14454
869.147	14651
869.278	14617
869.408	14427
869.539	14423
869.669	14571
869.799	14457
869.929	14568
870.06	14644
870.19	14804
870.32	14849
870.45	14864
870.58	14868
870.71	15024
870.84	14937
870.97	14849
871.1	14819
871.23	15112
871.36	15138
871.489	15024
871.619	15070
871.749	14982
871.879	15154
872.008	15222
872.138	15062
872.267	15066
872.397	14948
872.526	14944
872.656	14902
872.785	14914
872.915	15123
873.044	15138
873.173	15043
873.303	15043
873.432	15142
873.561	15260
873.69	15131
873.819	15150
873.948	15157
874.077	15077
874.206	15070
874.335	15180
874.464	15321
874.593	15332
874.722	15336
874.851	15496
874.979	15485
875.108	15466
875.237	15359
875.365	15332
875.494	15412
875.623	15458
875.751	15329
875.88	15431
876.008	15622
876.136	15656
876.265	15869
876.393	15888
876.521	15972
876.65	15953
876.778	15800
876.906	15861
877.034	15850
877.162	15728
877.29	15785
877.418	15823
877.546	15934
877.674	15915
877.802	15774
877.93	15857
878.058	15709
878.185	15808
878.313	15804
878.441	15865
878.568	15774
878.696	15789
878.824	15915
878.951	15911
879.079	16082
879.206	16223
879.333	16078
879.461	15945
879.588	16017
879.715	16055
879.842	16143
879.97	15926
880.097	15709
880.224	15667
880.351	15797
880.478	15762
880.605	15701
880.732	15774
880.859	15873
880.986	15789
881.112	15675
881.239	15656
881.366	15454
881.493	15313
881.619	15256
881.746	15287
881.872	15454
881.999	15218
882.125	15233
882.252	15420
882.378	15450
882.505	15485
882.631	15313
882.757	15169
882.883	15173
883.01	15165
883.136	15104
883.262	14998
883.388	14963
883.514	15218
883.64	15150
883.766	15058
883.892	14979
884.018	15070
884.143	15146
884.269	15313
884.395	14937
884.52	14826
884.646	14830
884.772	14811
884.897	14823
885.023	14815
885.148	14914
885.274	15123
885.399	15043
885.524	14918
885.65	14853
885.775	14834
885.9	14842
886.025	14979
886.15	14895
886.275	14754
886.4	14758
886.525	14785
886.65	14800
886.775	14834
886.9	15058
887.025	15058
887.149	14838
887.274	14651
887.399	14697
887.523	14682
887.648	14632
887.773	14602
887.897	14727
888.021	14712
888.146	14712
888.27	14769
888.395	14754
888.519	14727
888.643	14720
888.767	14693
888.891	14678
889.015	14598
889.139	14587
889.263	14522
889.387	14663
889.511	14701
889.635	14659
889.759	14560
889.883	14488
890.006	14708
890.13	14587
890.254	14469
890.377	14473
890.501	14423
890.624	14381
890.748	14404
890.871	14317
890.995	14180
891.118	14149
891.241	14343
891.364	14267
891.488	14351
891.611	14161
891.734	14309
891.857	14374
891.98	14282
892.103	14332
892.226	14252
892.349	14267
892.471	14157
892.594	14202
892.717	14362
892.839	14145
892.962	14256
893.085	14259
893.207	14202
893.33	14161
893.452	14161
893.575	14271
893.697	14195
893.819	14438
893.941	14457
894.064	14355
894.186	14248
894.308	14225
894.43	14374
894.552	14408
894.674	14400
894.796	14271
894.918	14244
895.04	14286
895.161	14332
895.283	14309
895.405	14191
895.526	14377
895.648	14362
895.769	14396
895.891	14328
896.012	14454
896.134	14473
896.255	14488
896.376	14400
896.498	14507
896.619	14476
896.74	14381
896.861	14545
896.982	14720
897.103	14887
897.224	14769
897.345	14636
897.466	14640
897.587	14697
897.708	14849
897.828	14781
897.949	14610
898.07	14530
898.19	14644
898.311	14815
898.431	14731
898.552	14754
898.672	14834
898.792	14864
898.913	14762
899.033	14636
899.153	14579
899.273	14492
899.393	14686
899.513	14594
899.633	14537
899.753	14549
899.873	14564
899.993	14640
900.113	14564
900.232	14651
900.352	14610
900.472	14564
900.591	14461
900.711	14495
900.83	14427
900.95	14655
901.069	14644
901.189	14473
901.308	14229
901.427	14183
901.546	14134
901.665	14191
901.784	14176
901.904	14001
902.023	13917
902.141	13769
902.26	13769
902.379	13788
902.498	13636
902.617	13719
902.735	13734
902.854	13651
902.973	13651
903.091	13487
903.21	13491
903.328	13422
903.446	13430
903.565	13274
903.683	13297
903.801	13274
903.919	13289
904.038	13145
904.156	13179
904.274	13160
904.392	13072
904.51	13046
904.627	13069
904.745	13129
904.863	13133
904.981	12837
905.098	12791
905.216	12825
905.334	12837
905.451	12802
905.569	12779
905.686	12787
905.803	12848
905.921	12566
906.038	12776
906.155	12620
906.272	12490
906.389	12574
906.506	12437
906.623	12357
906.74	12399
906.857	12376
906.974	12311
907.091	12456
907.208	12464
907.324	12395
907.441	12365
907.557	12079
907.674	12098
907.79	12072
907.907	12022
908.023	12194
908.139	12129
908.256	12125
908.372	11969
908.488	12049
908.604	11855
908.72	11889
908.836	11893
908.952	11893
909.068	11851
909.184	11984
909.3	11874
909.415	12022
909.531	11889
909.647	11608
909.762	11680
909.878	11680
909.993	11657
910.108	11653
910.224	11577
910.339	11615
910.454	11551
910.57	11471
910.685	11425
910.8	11771
910.915	11657
911.03	11638
911.145	11326
911.259	11353
911.374	11398
911.489	11208
911.604	11337
911.718	11147
911.833	11155
911.947	11025
912.062	10942
912.176	11090
912.291	11098
912.405	11060
912.519	11284
912.633	11326
912.748	11136
912.862	11083
912.976	10957
913.09	10740
913.204	10911
913.318	10965
913.431	11071
913.545	11132
913.659	11128
913.772	10953
913.886	10873
914	10797
914.113	10904
914.226	11060
914.34	10995
914.453	10771
914.566	10877
914.68	10793
914.793	10828
914.906	10664
915.019	10584
915.132	10527
915.245	10588
915.358	10622
915.47	10580
915.583	10580
915.696	10618
915.809	10729
915.921	10771
916.034	10634
916.146	10599
916.259	10550
916.371	10683
916.483	10630
916.595	10531
916.708	10565
916.82	10558
916.932	10531
917.044	10546
917.156	10497
917.268	10436
917.38	10409
917.491	10474
917.603	10485
917.715	10516
917.826	10588
917.938	10413
918.049	10249
918.161	10405
918.272	10618
918.384	10531
918.495	10436
918.606	10318
918.717	10265
918.828	10223
918.939	10318
919.05	10257
919.161	10268
919.272	10090
919.383	10109
919.494	10295
919.604	10527
919.715	10253
919.826	10154
919.936	10265
920.047	10409
920.157	10356
920.267	10466
920.378	10409
920.488	10306
920.598	10459
920.708	10626
920.818	10466
920.928	10523
921.038	10679
921.148	10599
921.258	10299
921.368	10192
921.477	10219
921.587	10116
921.697	10078
921.806	10196
921.916	9987
922.025	9884
922.134	9842
922.244	9869
922.353	9930
922.462	9842
922.571	9709
922.68	9644
922.789	9542
922.898	9545
923.007	9511
923.116	9625
923.224	9515
923.333	9545
923.442	9511
923.55	9389
923.659	9450
923.767	9587
923.876	9439
923.984	9557
924.092	9351
924.201	9416
924.309	9454
924.417	9393
924.525	9424
924.633	9439
924.741	10310
924.849	9241
924.956	9310
925.064	9211
925.172	9199
925.279	9226
925.387	9294
925.494	9306
925.602	9435
925.709	9310
925.816	9249
925.924	9260
926.031	9332
926.138	9249
926.245	9283
926.352	9097
926.459	9321
926.566	9378
926.673	9211
926.779	9093
926.886	9119
926.993	9013
927.099	8979
927.206	8979
927.312	8925
927.419	9116
927.525	9020
927.631	8986
927.737	8883
927.843	8868
927.95	8762
928.056	8826
928.162	8853
928.267	8914
928.373	9416
928.479	8883
928.585	8705
928.69	8891
928.796	8853
928.901	8754
929.007	8606
929.112	8807
929.218	8785
929.323	8720
929.428	8648
929.533	8807
929.638	8587
929.743	8629
929.848	8716
929.953	8674
930.058	8488
930.163	8492
930.267	8526
930.372	8583
930.477	8469
930.581	8606
930.685	8495
930.79	8469
930.894	8431
930.998	8385
931.103	8579
931.207	8183
931.311	8100
931.415	8050
931.519	7894
931.623	7845
