Data from test_V78500241_2358.txt Node
Date: Fri Mar 25 14:50:07 CST 2022
User: usil
Spectrometer: V785-0024
Trigger mode: 0
Integration Time (sec): 4.000000E-1
Scans to average: 1
Nonlinearity correction enabled: false
Boxcar width: 0
Storing dark spectrum: false
XAxis mode: Wavelengths
Number of Pixels in Spectrum: 1024
>>>>>Begin Spectral Data<<<<<
801.071	22097
801.214	22040
801.356	21827
801.499	21709
801.641	21462
801.783	21473
801.926	21523
802.068	21439
802.211	21382
802.353	21310
802.496	21100
802.638	21028
802.78	20948
802.923	20845
803.065	20872
803.208	20838
803.35	20929
803.492	21013
803.635	21036
803.777	20872
803.919	20834
804.061	21249
804.204	20895
804.346	20838
804.488	20853
804.63	20868
804.773	20731
804.915	20883
805.057	20811
805.199	20777
805.341	20785
805.483	20800
805.626	20785
805.768	20686
805.91	20800
806.052	20674
806.194	20743
806.336	20948
806.478	20785
806.62	20629
806.762	20887
806.904	21055
807.046	21207
807.188	21211
807.33	21043
807.472	21260
807.614	21043
807.756	21127
807.898	20781
808.04	20842
808.182	20864
808.324	20853
808.465	20853
808.607	21176
808.749	21230
808.891	21230
809.033	21370
809.174	21252
809.316	21112
809.458	21260
809.6	21062
809.741	21169
809.883	21127
810.025	21477
810.166	21348
810.308	21321
810.45	21313
810.591	21184
810.733	21116
810.875	20982
811.016	20918
811.158	20960
811.299	20994
811.441	21036
811.582	21020
811.724	20994
811.865	20804
812.007	20807
812.148	20864
812.29	20967
812.431	21089
812.573	21154
812.714	21382
812.855	21351
812.997	21511
813.138	21671
813.279	21515
813.421	21458
813.562	21435
813.703	21176
813.845	21070
813.986	20849
814.127	20609
814.268	20602
814.41	20606
814.551	20408
814.692	20522
814.833	20446
814.974	20438
815.115	20488
815.256	20347
815.397	20298
815.539	20355
815.68	20187
815.821	20126
815.962	20199
816.103	20172
816.244	20088
816.385	20164
816.526	19841
816.666	19753
816.807	19635
816.948	19818
817.089	19769
817.23	19742
817.371	19776
817.512	19594
817.653	19559
817.793	19464
817.934	19685
818.075	19780
818.216	19693
818.356	19548
818.497	19335
818.638	19240
818.778	19213
818.919	19331
819.06	19403
819.2	19343
819.341	19518
819.481	19525
819.622	19613
819.762	19761
819.903	19639
820.043	19662
820.184	19651
820.324	19590
820.465	19662
820.605	19651
820.746	19518
820.886	19464
821.026	19540
821.167	19362
821.307	19647
821.447	19533
821.588	19400
821.728	19209
821.868	19145
822.008	19023
822.149	19072
822.289	18825
822.429	18757
822.569	18684
822.709	18665
822.849	18464
822.99	18437
823.13	18418
823.27	18422
823.41	18338
823.55	18289
823.69	18311
823.83	18171
823.97	18076
824.11	18098
824.25	18030
824.389	18045
824.529	18144
824.669	18015
824.809	18186
824.949	18053
825.089	18053
825.228	18003
825.368	17843
825.508	17859
825.648	17798
825.787	17882
825.927	17939
826.067	17695
826.206	17737
826.346	17908
826.485	17889
826.625	17760
826.765	17920
826.904	17908
827.044	17589
827.183	17532
827.323	17512
827.462	17642
827.601	17535
827.741	17543
827.88	17486
828.02	17387
828.159	17429
828.298	17512
828.437	17459
828.577	17402
828.716	17600
828.855	17398
828.994	17349
829.134	17159
829.273	17227
829.412	17250
829.551	17090
829.69	17178
829.829	17181
829.968	17337
830.107	17364
830.246	17326
830.385	17246
830.524	17235
830.663	17132
830.802	16961
830.941	16911
831.08	16828
831.219	17048
831.357	16900
831.496	17037
831.635	16816
831.774	16854
831.913	16687
832.051	16755
832.19	16618
832.329	16645
832.467	16546
832.606	16660
832.744	16489
832.883	16550
833.022	16592
833.16	16546
833.299	16603
833.437	16554
833.576	16569
833.714	16675
833.852	16588
833.991	16679
834.129	16721
834.267	16596
834.406	16573
834.544	16702
834.682	16542
834.821	16622
834.959	16809
835.097	16542
835.235	16668
835.373	16752
835.511	16603
835.65	16451
835.788	16500
835.926	16341
836.064	16382
836.202	16242
836.34	16459
836.478	16527
836.615	16394
836.753	16466
836.891	16687
837.029	16504
837.167	16569
837.305	16379
837.443	16554
837.58	16356
837.718	16474
837.856	16424
837.993	16272
838.131	16348
838.269	16284
838.406	16329
838.544	16139
838.681	16063
838.819	16154
838.956	16002
839.094	15892
839.231	15941
839.369	16059
839.506	16284
839.643	16246
839.781	15926
839.918	15880
840.055	15918
840.193	15857
840.33	15953
840.467	15880
840.604	15964
840.742	16116
840.879	15812
841.016	15827
841.153	15823
841.29	16017
841.427	15918
841.564	15850
841.701	16002
841.838	15800
841.975	15838
842.112	15766
842.249	15701
842.385	15595
842.522	15895
842.659	15743
842.796	15622
842.933	15675
843.069	15622
843.206	15656
843.343	15747
843.479	15709
843.616	15724
843.752	15367
843.889	15481
844.025	15660
844.162	15469
844.298	15545
844.435	15500
844.571	15378
844.708	15500
844.844	15660
844.98	15584
845.117	15534
845.253	15443
845.389	15348
845.525	15420
845.661	15412
845.798	15291
845.934	15310
846.07	15157
846.206	15245
846.342	15367
846.478	15283
846.614	15055
846.75	14967
846.886	14979
847.022	15211
847.158	15032
847.294	15020
847.429	15066
847.565	15108
847.701	15275
847.837	14834
847.972	14701
848.108	14941
848.244	14849
848.379	14693
848.515	14655
848.65	14636
848.786	14735
848.921	14629
849.057	14731
849.192	14727
849.328	14682
849.463	14693
849.598	14461
849.734	14602
849.869	14522
850.004	14389
850.14	14431
850.275	14438
850.41	14358
850.545	14355
850.68	14351
850.815	14518
850.95	14336
851.085	14598
851.22	14469
851.355	14305
851.49	14381
851.625	14396
851.76	14309
851.895	14301
852.03	14275
852.165	14381
852.299	14446
852.434	14461
852.569	14438
852.703	14423
852.838	14476
852.973	14545
853.107	14518
853.242	14328
853.376	14290
853.511	14210
853.645	14263
853.78	14355
853.914	14278
854.048	14328
854.183	14138
854.317	14237
854.451	14381
854.585	14233
854.72	14286
854.854	14309
854.988	14244
855.122	14229
855.256	14103
855.39	14328
855.524	14370
855.658	14434
855.792	14286
855.926	14320
856.06	14298
856.194	14313
856.327	14320
856.461	14183
856.595	14278
856.729	14202
856.862	14412
856.996	14320
857.13	14362
857.263	14393
857.397	14328
857.53	14263
857.664	14408
857.797	14400
857.931	14385
858.064	14263
858.197	14389
858.331	14366
858.464	14294
858.597	14153
858.731	14256
858.864	14305
858.997	14313
859.13	14347
859.263	14317
859.396	14362
859.529	14259
859.662	14324
859.795	14202
859.928	14301
860.061	14381
860.194	14396
860.327	14267
860.46	14233
860.592	14419
860.725	14408
860.858	14374
860.99	14210
861.123	14187
861.256	14202
861.388	14195
861.521	14792
861.653	14126
861.786	14164
861.918	14214
862.05	14214
862.183	14263
862.315	14164
862.447	14393
862.58	14282
862.712	14096
862.844	13963
862.976	14134
863.108	14084
863.24	14282
863.372	13928
863.504	14092
863.636	14149
863.768	14096
863.9	14054
864.032	14016
864.164	13986
864.296	14077
864.428	14115
864.559	14145
864.691	14126
864.823	14111
864.954	14088
865.086	14107
865.217	14073
865.349	13974
865.48	14058
865.612	13982
865.743	14103
865.875	14031
866.006	14020
866.137	13997
866.269	14016
866.4	14100
866.531	14046
866.662	13906
866.793	14142
866.924	14088
867.055	14077
867.186	14100
867.317	13909
867.448	13932
867.579	13898
867.71	13989
867.841	13963
867.972	13997
868.103	14161
868.233	14027
868.364	14016
868.495	14145
868.625	14271
868.756	14339
868.886	14195
869.017	14275
869.147	14317
869.278	14427
869.408	14233
869.539	14206
869.669	14396
869.799	14336
869.929	14374
870.06	14396
870.19	14606
870.32	14571
870.45	14636
870.58	14629
870.71	14762
870.84	14746
870.97	14617
871.1	14621
871.23	14868
871.36	14960
871.489	14739
871.619	14910
871.749	14845
871.879	14826
872.008	14956
872.138	14925
872.267	14830
872.397	14796
872.526	14731
872.656	14667
872.785	14674
872.915	14895
873.044	14971
873.173	14941
873.303	14864
873.432	14975
873.561	14986
873.69	14906
873.819	14910
873.948	15036
874.077	14899
874.206	14845
874.335	14994
874.464	14994
874.593	15085
874.722	15180
874.851	15256
874.979	15332
875.108	15241
875.237	15226
875.365	15138
875.494	15230
875.623	15389
875.751	15161
875.88	15283
876.008	15386
876.136	15473
876.265	15736
876.393	15804
876.521	15747
876.65	15717
876.778	15739
876.906	15679
877.034	15595
877.162	15660
877.29	15549
877.418	15679
877.546	15682
877.674	15724
877.802	15667
877.93	15679
878.058	15572
878.185	15462
878.313	15648
878.441	15648
878.568	15564
878.696	15561
878.824	15728
878.951	15671
879.079	15835
879.206	15934
879.333	15816
879.461	15667
879.588	15800
879.715	15876
879.842	15934
879.97	15739
880.097	15553
880.224	15428
880.351	15572
880.478	15447
880.605	15439
880.732	15428
880.859	15671
880.986	15447
881.112	15485
881.239	15397
881.366	15275
881.493	15180
881.619	15180
881.746	15260
881.872	15066
881.999	15176
882.125	15131
882.252	15332
882.378	15161
882.505	15245
882.631	15135
882.757	15020
882.883	15036
883.01	14933
883.136	14861
883.262	14834
883.388	14807
883.514	14979
883.64	15043
883.766	15036
883.892	14788
884.018	14830
884.143	14941
884.269	15089
884.395	14754
884.52	14708
884.646	14686
884.772	14621
884.897	14621
885.023	14655
885.148	14765
885.274	14785
885.399	14765
885.524	14613
885.65	14689
885.775	14739
885.9	14682
886.025	14864
886.15	14769
886.275	14644
886.4	14670
886.525	14708
886.65	14640
886.775	14636
886.9	14731
887.025	14864
887.149	14644
887.274	14503
887.399	14484
887.523	14556
887.648	14454
887.773	14473
887.897	14556
888.021	14495
888.146	14423
888.27	14613
888.395	14602
888.519	14564
888.643	14655
888.767	14598
888.891	14400
889.015	14324
889.139	14400
889.263	14339
889.387	14465
889.511	14644
889.635	14530
889.759	14389
889.883	14442
890.006	14408
890.13	14503
890.254	14275
890.377	14275
890.501	14168
890.624	14069
890.748	14278
890.871	14069
890.995	14088
891.118	14001
891.241	13997
891.364	14092
891.488	14164
891.611	14077
891.734	14145
891.857	14130
891.98	14050
892.103	14187
892.226	14138
892.349	13982
892.471	13925
892.594	14073
892.717	14043
892.839	14043
892.962	14081
893.085	14123
893.207	14062
893.33	13906
893.452	14088
893.575	14111
893.697	14153
893.819	14240
893.941	14256
894.064	14294
894.186	13986
894.308	14035
894.43	14229
894.552	14332
894.674	14183
894.796	13986
894.918	14008
895.04	14183
895.161	14233
895.283	14191
895.405	14145
895.526	14119
895.648	14145
895.769	14221
895.891	14309
896.012	14336
896.134	14256
896.255	14278
896.376	14248
896.498	14240
896.619	14282
896.74	14282
896.861	14309
896.982	14568
897.103	14758
897.224	14575
897.345	14522
897.466	14480
897.587	14533
897.708	14727
897.828	14575
897.949	14533
898.07	14415
898.19	14518
898.311	14602
898.431	14522
898.552	14533
898.672	14750
898.792	14712
898.913	14556
899.033	14533
899.153	14469
899.273	14309
899.393	14492
899.513	14492
899.633	14446
899.753	14514
899.873	14434
899.993	14598
900.113	14366
900.232	14541
900.352	14404
900.472	14389
900.591	14282
900.711	14366
900.83	14275
900.95	14480
901.069	14419
901.189	14301
901.308	14138
901.427	14054
901.546	14035
901.665	14062
901.784	13989
901.904	13982
902.023	13791
902.141	13609
902.26	13540
902.379	13658
902.498	13556
902.617	13460
902.735	13537
902.854	13605
902.973	13525
903.091	13354
903.21	13228
903.328	13289
903.446	13228
903.565	13072
903.683	13217
903.801	13050
903.919	13190
904.038	13088
904.156	13012
904.274	13084
904.392	12989
904.51	12935
904.627	12981
904.745	13080
904.863	12966
904.981	12795
905.098	12665
905.216	12677
905.334	12722
905.451	12719
905.569	12612
905.686	12715
905.803	12635
905.921	12452
906.038	12608
906.155	12513
906.272	12342
906.389	12460
906.506	12289
906.623	12323
906.74	12220
906.857	12091
906.974	12136
907.091	12296
907.208	12300
907.324	12194
907.441	12197
907.557	11950
907.674	12022
907.79	11939
907.907	11847
908.023	12060
908.139	11908
908.256	11942
908.372	11950
908.488	11885
908.604	11756
908.72	11760
908.836	11646
908.952	11775
909.068	11756
909.184	11965
909.3	11718
909.415	11859
909.531	11817
909.647	11471
909.762	11482
909.878	11509
909.993	11551
910.108	11452
910.224	11539
910.339	11490
910.454	11478
910.57	11379
910.685	11421
910.8	11566
910.915	11478
911.03	11436
911.145	11258
911.259	11212
911.374	11235
911.489	11094
911.604	11151
911.718	11033
911.833	10972
911.947	10847
912.062	10752
912.176	10980
912.291	10938
912.405	11006
912.519	11098
912.633	11178
912.748	11056
912.862	10953
912.976	10820
913.09	10672
913.204	10889
913.318	10820
913.431	11048
913.545	10934
913.659	10930
913.772	10942
913.886	10793
914	10725
914.113	10843
914.226	10900
914.34	10820
914.453	10668
914.566	10839
914.68	10672
914.793	10721
914.906	10546
915.019	10360
915.132	10402
915.245	10443
915.358	10542
915.47	10481
915.583	10481
915.696	10523
915.809	10649
915.921	10546
916.034	10470
916.146	10360
916.259	10459
916.371	10493
916.483	10535
916.595	10493
916.708	10474
916.82	10405
916.932	10413
917.044	10405
917.156	10352
917.268	10280
917.38	10287
917.491	10246
917.603	10382
917.715	10367
917.826	10470
917.938	10318
918.049	10242
918.161	10310
918.272	10470
918.384	10371
918.495	10386
918.606	10219
918.717	10116
918.828	10143
918.939	10272
919.05	10177
919.161	10086
919.272	10025
919.383	10120
919.494	10249
919.604	10413
919.715	10246
919.826	10120
919.936	10166
920.047	10276
920.157	10246
920.267	10413
920.378	10276
920.488	10173
920.598	10500
920.708	10436
920.818	10360
920.928	10447
921.038	10535
921.148	10447
921.258	10211
921.368	10185
921.477	10051
921.587	9991
921.697	9873
921.806	10055
921.916	9918
922.025	9873
922.134	9705
922.244	9736
922.353	9812
922.462	9644
922.571	9663
922.68	9477
922.789	9336
922.898	9458
923.007	9469
923.116	9530
923.224	9466
923.333	9492
923.442	9363
923.55	9302
923.659	9435
923.767	9370
923.876	9298
923.984	9450
924.092	9310
924.201	9332
924.309	9351
924.417	9363
924.525	9275
924.633	9332
924.741	10032
924.849	9131
924.956	9283
925.064	9154
925.172	9066
925.279	9039
925.387	9108
925.494	9119
925.602	9260
925.709	9279
925.816	8963
925.924	9104
926.031	9222
926.138	9100
926.245	9142
926.352	9028
926.459	9199
926.566	9245
926.673	9127
926.779	8914
926.886	8952
926.993	8849
927.099	8819
927.206	8720
927.312	8754
927.419	8887
927.525	8845
927.631	8838
927.737	8758
927.843	8701
927.95	8571
928.056	8678
928.162	8705
928.267	8857
928.373	9389
928.479	8849
928.585	8632
928.69	8758
928.796	8670
928.901	8648
929.007	8492
929.112	8621
929.218	8590
929.323	8549
929.428	8484
929.533	8674
929.638	8495
929.743	8530
929.848	8583
929.953	8522
930.058	8492
930.163	8286
930.267	8301
930.372	8423
930.477	8286
930.581	8568
930.685	8434
930.79	8191
930.894	8328
930.998	8183
931.103	8412
931.207	8043
931.311	8005
931.415	7970
931.519	7807
931.623	7693
