Data from test_V78500241_2679.txt Node
Date: Fri Mar 25 14:52:22 CST 2022
User: usil
Spectrometer: V785-0024
Trigger mode: 0
Integration Time (sec): 4.000000E-1
Scans to average: 1
Nonlinearity correction enabled: false
Boxcar width: 0
Storing dark spectrum: false
XAxis mode: Wavelengths
Number of Pixels in Spectrum: 1024
>>>>>Begin Spectral Data<<<<<
801.071	22063
801.214	21960
801.356	21679
801.499	21595
801.641	21462
801.783	21424
801.926	21485
802.068	21317
802.211	21428
802.353	21283
802.496	20823
802.638	20929
802.78	20902
802.923	20697
803.065	20670
803.208	20678
803.35	20655
803.492	20826
803.635	20864
803.777	20792
803.919	20800
804.061	20963
804.204	20670
804.346	20716
804.488	20526
804.63	20697
804.773	20659
804.915	20682
805.057	20693
805.199	20606
805.341	20663
805.483	20788
805.626	20579
805.768	20564
805.91	20571
806.052	20674
806.194	20533
806.336	20800
806.478	20606
806.62	20552
806.762	20686
806.904	20724
807.046	20956
807.188	20986
807.33	20914
807.472	21032
807.614	20861
807.756	20872
807.898	20644
808.04	20708
808.182	20712
808.324	20716
808.465	20708
808.607	20902
808.749	20979
808.891	21108
809.033	21096
809.174	20921
809.316	21043
809.458	21032
809.6	20880
809.741	21055
809.883	21020
810.025	21074
810.166	21096
810.308	21195
810.45	21184
810.591	20994
810.733	20838
810.875	20743
811.016	20629
811.158	20686
811.299	20689
811.441	20857
811.582	20925
811.724	20819
811.865	20701
812.007	20720
812.148	20788
812.29	20800
812.431	20921
812.573	21020
812.714	21096
812.855	21222
812.997	21283
813.138	21416
813.279	21329
813.421	21336
813.562	21039
813.703	21055
813.845	20948
813.986	20590
814.127	20450
814.268	20427
814.41	20343
814.551	20332
814.692	20393
814.833	20119
814.974	20202
815.115	20355
815.256	20130
815.397	20096
815.539	20229
815.68	20058
815.821	19970
815.962	19982
816.103	20054
816.244	19826
816.385	19818
816.526	19704
816.666	19601
816.807	19335
816.948	19510
817.089	19487
817.23	19518
817.371	19518
817.512	19453
817.653	19369
817.793	19445
817.934	19468
818.075	19441
818.216	19422
818.356	19297
818.497	19183
818.638	19027
818.778	19110
818.919	19141
819.06	19183
819.2	19312
819.341	19358
819.481	19251
819.622	19434
819.762	19594
819.903	19491
820.043	19552
820.184	19476
820.324	19487
820.465	19521
820.605	19381
820.746	19362
820.886	19129
821.026	19316
821.167	19335
821.307	19464
821.447	19411
821.588	19187
821.728	19053
821.868	18993
822.008	18886
822.149	18776
822.289	18806
822.429	18574
822.569	18429
822.709	18448
822.849	18334
822.99	18376
823.13	18403
823.27	18174
823.41	18148
823.55	18022
823.69	18095
823.83	18152
823.97	17992
824.11	17843
824.25	17901
824.389	17863
824.529	18098
824.669	17775
824.809	18022
824.949	17908
825.089	17977
825.228	17908
825.368	17703
825.508	17699
825.648	17665
825.787	17764
825.927	17741
826.067	17638
826.206	17570
826.346	17668
826.485	17756
826.625	17687
826.765	17843
826.904	17695
827.044	17448
827.183	17372
827.323	17372
827.462	17402
827.601	17353
827.741	17421
827.88	17349
828.02	17273
828.159	17425
828.298	17330
828.437	17383
828.577	17368
828.716	17486
828.855	17307
828.994	17140
829.134	17086
829.273	17159
829.412	17109
829.551	17064
829.69	17185
829.829	17170
829.968	17143
830.107	17121
830.246	17117
830.385	17029
830.524	17075
830.663	16877
830.802	16869
830.941	16763
831.08	16736
831.219	16812
831.357	16767
831.496	16915
831.635	16752
831.774	16672
831.913	16675
832.051	16622
832.19	16577
832.329	16641
832.467	16443
832.606	16329
832.744	16451
832.883	16280
833.022	16455
833.16	16455
833.299	16504
833.437	16523
833.576	16512
833.714	16451
833.852	16489
833.991	16455
834.129	16626
834.267	16596
834.406	16470
834.544	16504
834.682	16413
834.821	16428
834.959	16561
835.097	16493
835.235	16622
835.373	16489
835.511	16558
835.65	16356
835.788	16413
835.926	16276
836.064	16246
836.202	16299
836.34	16451
836.478	16455
836.615	16432
836.753	16470
836.891	16531
837.029	16504
837.167	16230
837.305	16402
837.443	16322
837.58	16234
837.718	16363
837.856	16318
837.993	16249
838.131	16268
838.269	16181
838.406	16200
838.544	16150
838.681	16048
838.819	15994
838.956	15797
839.094	15819
839.231	15869
839.369	16013
839.506	16249
839.643	16139
839.781	15850
839.918	15808
840.055	15850
840.193	15785
840.33	15838
840.467	15823
840.604	15983
840.742	16185
840.879	15743
841.016	15717
841.153	15789
841.29	16010
841.427	15831
841.564	15876
841.701	15941
841.838	15797
841.975	15739
842.112	15682
842.249	15633
842.385	15545
842.522	15785
842.659	15671
842.796	15625
842.933	15641
843.069	15606
843.206	15584
843.343	15762
843.479	15580
843.616	15766
843.752	15405
843.889	15401
844.025	15496
844.162	15401
844.298	15584
844.435	15519
844.571	15363
844.708	15435
844.844	15660
844.98	15549
845.117	15428
845.253	15313
845.389	15291
845.525	15291
845.661	15252
845.798	15138
845.934	15218
846.07	15093
846.206	15222
846.342	15268
846.478	15214
846.614	14960
846.75	14967
846.886	14849
847.022	15039
847.158	14941
847.294	14994
847.429	15024
847.565	14971
847.701	15226
847.837	14670
847.972	14648
848.108	14937
848.244	14769
848.379	14686
848.515	14598
848.65	14579
848.786	14629
848.921	14617
849.057	14689
849.192	14708
849.328	14606
849.463	14655
849.598	14552
849.734	14537
849.869	14537
850.004	14259
850.14	14412
850.275	14320
850.41	14339
850.545	14324
850.68	14480
850.815	14396
850.95	14317
851.085	14526
851.22	14408
851.355	14366
851.49	14336
851.625	14389
851.76	14347
851.895	14244
852.03	14225
852.165	14313
852.299	14461
852.434	14434
852.569	14423
852.703	14408
852.838	14423
852.973	14549
853.107	14514
853.242	14381
853.376	14332
853.511	14107
853.645	14214
853.78	14454
853.914	14320
854.048	14271
854.183	14263
854.317	14256
854.451	14446
854.585	14233
854.72	14294
854.854	14393
854.988	14164
855.122	14301
855.256	14164
855.39	14313
855.524	14339
855.658	14263
855.792	14294
855.926	14317
856.06	14366
856.194	14309
856.327	14355
856.461	14240
856.595	14259
856.729	14218
856.862	14313
856.996	14275
857.13	14339
857.263	14358
857.397	14339
857.53	14195
857.664	14343
857.797	14290
857.931	14339
858.064	14347
858.197	14408
858.331	14225
858.464	14119
858.597	14202
858.731	14290
858.864	14263
858.997	14183
859.13	14282
859.263	14290
859.396	14434
859.529	14290
859.662	14263
859.795	14157
859.928	14267
860.061	14427
860.194	14476
860.327	14286
860.46	14267
860.592	14313
860.725	14358
860.858	14358
860.99	14233
861.123	14233
861.256	14126
861.388	14305
861.521	14861
861.653	14183
861.786	14039
861.918	14069
862.05	14172
862.183	14172
862.315	14218
862.447	14317
862.58	14134
862.712	14012
862.844	13890
862.976	14134
863.108	14012
863.24	14332
863.372	13955
863.504	14046
863.636	14035
863.768	14123
863.9	14084
864.032	14043
864.164	14058
864.296	14073
864.428	14142
864.559	14092
864.691	14187
864.823	14145
864.954	14107
865.086	14065
865.217	14016
865.349	13875
865.48	14016
865.612	14027
865.743	14130
865.875	14084
866.006	13978
866.137	14016
866.269	13959
866.4	13978
866.531	13944
866.662	13871
866.793	14046
866.924	13963
867.055	14062
867.186	14008
867.317	13932
867.448	13906
867.579	13959
867.71	13967
867.841	13906
867.972	13993
868.103	13989
868.233	14073
868.364	13967
868.495	14084
868.625	14237
868.756	14328
868.886	14130
869.017	14336
869.147	14313
869.278	14370
869.408	14347
869.539	14298
869.669	14396
869.799	14358
869.929	14400
870.06	14389
870.19	14594
870.32	14621
870.45	14560
870.58	14746
870.71	14750
870.84	14727
870.97	14739
871.1	14648
871.23	14811
871.36	14834
871.489	14670
871.619	14864
871.749	14864
871.879	15001
872.008	14998
872.138	14853
872.267	14876
872.397	14743
872.526	14712
872.656	14712
872.785	14651
872.915	14971
873.044	14941
873.173	14918
873.303	14990
873.432	14918
873.561	14975
873.69	14918
873.819	14986
873.948	14883
874.077	14941
874.206	14960
874.335	15055
874.464	15066
874.593	15169
874.722	15131
874.851	15123
874.979	15245
875.108	15272
875.237	15165
875.365	15032
875.494	15173
875.623	15298
875.751	15142
875.88	15302
876.008	15393
876.136	15466
876.265	15610
876.393	15698
876.521	15736
876.65	15679
876.778	15561
876.906	15538
877.034	15504
877.162	15584
877.29	15534
877.418	15770
877.546	15660
877.674	15739
877.802	15667
877.93	15694
878.058	15568
878.185	15595
878.313	15701
878.441	15656
878.568	15420
878.696	15587
878.824	15614
878.951	15759
879.079	15751
879.206	15937
879.333	15800
879.461	15698
879.588	15739
879.715	15918
879.842	15926
879.97	15732
880.097	15496
880.224	15488
880.351	15462
880.478	15584
880.605	15428
880.732	15450
880.859	15667
880.986	15420
881.112	15553
881.239	15389
881.366	15374
881.493	15135
881.619	15119
881.746	15218
881.872	15233
881.999	15108
882.125	15070
882.252	15218
882.378	15169
882.505	15283
882.631	15207
882.757	15097
882.883	15055
883.01	15032
883.136	14902
883.262	14830
883.388	14796
883.514	15005
883.64	14975
883.766	14948
883.892	14777
884.018	14902
884.143	14944
884.269	15013
884.395	14670
884.52	14682
884.646	14697
884.772	14598
884.897	14526
885.023	14705
885.148	14754
885.274	14819
885.399	14743
885.524	14724
885.65	14617
885.775	14705
885.9	14674
886.025	14773
886.15	14785
886.275	14625
886.4	14629
886.525	14602
886.65	14465
886.775	14606
886.9	14750
887.025	14883
887.149	14625
887.274	14514
887.399	14503
887.523	14492
887.648	14374
887.773	14393
887.897	14537
888.021	14617
888.146	14465
888.27	14625
888.395	14617
888.519	14503
888.643	14590
888.767	14606
888.891	14396
889.015	14343
889.139	14377
889.263	14427
889.387	14503
889.511	14488
889.635	14461
889.759	14301
889.883	14389
890.006	14362
890.13	14473
890.254	14347
890.377	14313
890.501	14111
890.624	14100
890.748	14290
890.871	14206
890.995	13989
891.118	13928
891.241	14077
891.364	14119
891.488	14225
891.611	14046
891.734	14058
891.857	14210
891.98	14050
892.103	14092
892.226	14103
892.349	14024
892.471	13986
892.594	14012
892.717	14081
892.839	13997
892.962	14103
893.085	14073
893.207	14043
893.33	13978
893.452	13909
893.575	14130
893.697	14027
893.819	14244
893.941	14290
894.064	14347
894.186	14039
894.308	14138
894.43	14164
894.552	14332
894.674	14244
894.796	14043
894.918	14103
895.04	14035
895.161	14176
895.283	14237
895.405	14123
895.526	14218
895.648	14225
895.769	14164
895.891	14282
896.012	14278
896.134	14278
896.255	14153
896.376	14130
896.498	14168
896.619	14366
896.74	14164
896.861	14400
896.982	14594
897.103	14613
897.224	14507
897.345	14473
897.466	14427
897.587	14454
897.708	14518
897.828	14537
897.949	14396
898.07	14324
898.19	14476
898.311	14617
898.431	14560
898.552	14602
898.672	14659
898.792	14682
898.913	14549
899.033	14473
899.153	14465
899.273	14393
899.393	14427
899.513	14358
899.633	14400
899.753	14564
899.873	14431
899.993	14541
900.113	14385
900.232	14396
900.352	14454
900.472	14381
900.591	14355
900.711	14351
900.83	14263
900.95	14442
901.069	14332
901.189	14240
901.308	14084
901.427	13928
901.546	13890
901.665	14054
901.784	14024
901.904	13727
902.023	13750
902.141	13586
902.26	13578
902.379	13666
902.498	13518
902.617	13491
902.735	13590
902.854	13571
902.973	13468
903.091	13266
903.21	13217
903.328	13289
903.446	13164
903.565	13187
903.683	13065
903.801	12981
903.919	13099
904.038	13091
904.156	12954
904.274	13038
904.392	12970
904.51	12875
904.627	12928
904.745	12966
904.863	12993
904.981	12681
905.098	12509
905.216	12639
905.334	12688
905.451	12604
905.569	12528
905.686	12707
905.803	12589
905.921	12433
906.038	12593
906.155	12445
906.272	12418
906.389	12418
906.506	12247
906.623	12144
906.74	12239
906.857	12098
906.974	12095
907.091	12205
907.208	12441
907.324	12163
907.441	12251
907.557	11961
907.674	11996
907.79	11836
907.907	11908
908.023	12060
908.139	11885
908.256	11878
908.372	11809
908.488	11813
908.604	11752
908.72	11707
908.836	11699
908.952	11710
909.068	11718
909.184	11836
909.3	11828
909.415	11809
909.531	11767
909.647	11497
909.762	11535
909.878	11398
909.993	11547
910.108	11433
910.224	11497
910.339	11490
910.454	11429
910.57	11330
910.685	11334
910.8	11608
910.915	11455
911.03	11383
911.145	11254
911.259	11193
911.374	11235
911.489	11193
911.604	11098
911.718	10915
911.833	10957
911.947	10812
912.062	10839
912.176	10900
912.291	10927
912.405	11006
912.519	11079
912.633	11086
912.748	11033
912.862	10923
912.976	10885
913.09	10793
913.204	10763
913.318	10873
913.431	10938
913.545	10957
913.659	10961
913.772	10786
913.886	10694
914	10748
914.113	10862
914.226	10877
914.34	10790
914.453	10664
914.566	10816
914.68	10584
914.793	10675
914.906	10474
915.019	10413
915.132	10413
915.245	10432
915.358	10519
915.47	10447
915.583	10504
915.696	10493
915.809	10691
915.921	10607
916.034	10413
916.146	10386
916.259	10413
916.371	10497
916.483	10455
916.595	10356
916.708	10363
916.82	10443
916.932	10303
917.044	10363
917.156	10417
917.268	10215
917.38	10306
917.491	10249
917.603	10314
917.715	10424
917.826	10379
917.938	10249
918.049	10223
918.161	10268
918.272	10466
918.384	10462
918.495	10303
918.606	10169
918.717	10150
918.828	10215
918.939	10181
919.05	10090
919.161	10109
919.272	9930
919.383	10013
919.494	10219
919.604	10356
919.715	10177
919.826	10109
919.936	10128
920.047	10261
920.157	10185
920.267	10344
920.378	10215
920.488	10188
920.598	10371
920.708	10459
920.818	10390
920.928	10371
921.038	10489
921.148	10500
921.258	10265
921.368	10166
921.477	10169
921.587	10002
921.697	9941
921.806	9979
921.916	9930
922.025	9854
922.134	9808
922.244	9648
922.353	9766
922.462	9709
922.571	9599
922.68	9443
922.789	9389
922.898	9515
923.007	9393
923.116	9443
923.224	9439
923.333	9412
923.442	9340
923.55	9218
923.659	9344
923.767	9408
923.876	9287
923.984	9397
924.092	9260
924.201	9306
924.309	9317
924.417	9310
924.525	9214
924.633	9241
924.741	10124
924.849	9116
924.956	9184
925.064	9116
925.172	9020
925.279	9081
925.387	9100
925.494	9089
925.602	9218
925.709	9119
925.816	9005
925.924	9081
926.031	9138
926.138	9135
926.245	9112
926.352	8933
926.459	9173
926.566	9211
926.673	9066
926.779	8967
926.886	8929
926.993	8914
927.099	8842
927.206	8720
927.312	8777
927.419	8811
927.525	8781
927.631	8864
927.737	8678
927.843	8705
927.95	8575
928.056	8621
928.162	8724
928.267	8785
928.373	9378
928.479	8781
928.585	8549
928.69	8727
928.796	8750
928.901	8602
929.007	8488
929.112	8705
929.218	8590
929.323	8579
929.428	8457
929.533	8670
929.638	8503
929.743	8499
929.848	8571
929.953	8507
930.058	8457
930.163	8294
930.267	8317
930.372	8469
930.477	8252
930.581	8530
930.685	8408
930.79	8202
930.894	8294
930.998	8233
931.103	8389
931.207	8024
931.311	8020
931.415	7883
931.519	7757
931.623	7795
