Data from test_V78500241_152.txt Node
Date: Fri Mar 25 14:34:46 CST 2022
User: usil
Spectrometer: V785-0024
Trigger mode: 0
Integration Time (sec): 4.000000E-1
Scans to average: 1
Nonlinearity correction enabled: false
Boxcar width: 0
Storing dark spectrum: false
XAxis mode: Wavelengths
Number of Pixels in Spectrum: 1024
>>>>>Begin Spectral Data<<<<<
801.071	29159
801.214	29060
801.356	28767
801.499	28691
801.641	28588
801.783	28618
801.926	28790
802.068	28622
802.211	28481
802.353	28497
802.496	28249
802.638	28257
802.78	28325
802.923	28177
803.065	28253
803.208	28143
803.35	28405
803.492	28443
803.635	28401
803.777	28489
803.919	28363
804.061	28786
804.204	28481
804.346	28344
804.488	28303
804.63	28516
804.773	28280
804.915	28386
805.057	28512
805.199	28497
805.341	28516
805.483	28725
805.626	28611
805.768	28721
805.91	28672
806.052	28706
806.194	28664
806.336	28987
806.478	28862
806.62	28919
806.762	29151
806.904	29334
807.046	29608
807.188	29619
807.33	29840
807.472	30053
807.614	30209
807.756	30391
807.898	30604
808.04	31015
808.182	31651
808.324	32594
808.465	33416
808.607	34390
808.749	35337
808.891	35802
809.033	35832
809.174	35235
809.316	34470
809.458	33332
809.6	32168
809.741	31624
809.883	31050
810.025	30817
810.166	30570
810.308	30243
810.45	29889
810.591	29965
810.733	29566
810.875	29429
811.016	29280
811.158	29075
811.299	29307
811.441	29239
811.582	29307
811.724	29147
811.865	29064
812.007	29006
812.148	29067
812.29	29113
812.431	29067
812.573	29231
812.714	29337
812.855	29452
812.997	29509
813.138	29547
813.279	29452
813.421	29535
813.562	29436
813.703	29265
813.845	29128
813.986	28809
814.127	28713
814.268	28493
814.41	28466
814.551	28390
814.692	28531
814.833	28409
814.974	28314
815.115	28382
815.256	28280
815.397	28036
815.539	28265
815.68	28097
815.821	28036
815.962	28048
816.103	28051
816.244	27766
816.385	27873
816.526	27660
816.666	27614
816.807	27367
816.948	27507
817.089	27504
817.23	27622
817.371	27492
817.512	27591
817.653	27504
817.793	27287
817.934	27355
818.075	27485
818.216	27500
818.356	27397
818.497	27176
818.638	27252
818.778	27180
818.919	27138
819.06	27150
819.2	27252
819.341	27294
819.481	27393
819.622	27462
819.762	27686
819.903	27622
820.043	27458
820.184	27424
820.324	27466
820.465	27466
820.605	27367
820.746	27329
820.886	27264
821.026	27233
821.167	27325
821.307	27344
821.447	27150
821.588	27211
821.728	26971
821.868	26804
822.008	26598
822.149	26697
822.289	26785
822.429	26571
822.569	26400
822.709	26393
822.849	26092
822.99	26168
823.13	26058
823.27	26081
823.41	25898
823.55	25719
823.69	25868
823.83	25913
823.97	25799
824.11	25795
824.25	25552
824.389	25734
824.529	25753
824.669	25753
824.809	25674
824.949	25769
825.089	25814
825.228	25715
825.368	25499
825.508	25601
825.648	25407
825.787	25567
825.927	25540
826.067	25434
826.206	25616
826.346	25479
826.485	25495
826.625	25422
826.765	25552
826.904	25476
827.044	25324
827.183	25156
827.323	25156
827.462	25304
827.601	25141
827.741	25129
827.88	25160
828.02	25152
828.159	25160
828.298	25145
828.437	25152
828.577	25038
828.716	25202
828.855	24928
828.994	24932
829.134	24806
829.273	24734
829.412	24886
829.551	24719
829.69	24932
829.829	24894
829.968	24833
830.107	24897
830.246	24810
830.385	24627
830.524	24802
830.663	24578
830.802	24429
830.941	24452
831.08	24357
831.219	24505
831.357	24513
831.496	24582
831.635	24357
831.774	24213
831.913	24350
832.051	24087
832.19	24163
832.329	24182
832.467	24068
832.606	24041
832.744	24083
832.883	24030
833.022	24190
833.16	24038
833.299	24270
833.437	24213
833.576	24315
833.714	24197
833.852	24433
833.991	24422
834.129	24407
834.267	24483
834.406	24445
834.544	24342
834.682	24311
834.821	24247
834.959	24376
835.097	24174
835.235	24254
835.373	24144
835.511	24224
835.65	23965
835.788	23824
835.926	23813
836.064	23615
836.202	23707
836.34	23920
836.478	23927
836.615	23866
836.753	23783
836.891	23897
837.029	23695
837.167	23828
837.305	23790
837.443	23585
837.58	23589
837.718	23596
837.856	23608
837.993	23493
838.131	23786
838.269	23554
838.406	23509
838.544	23414
838.681	23372
838.819	23185
838.956	23117
839.094	23098
839.231	23178
839.369	23254
839.506	23387
839.643	23303
839.781	23128
839.918	22995
840.055	22991
840.193	22934
840.33	23022
840.467	23136
840.604	22995
840.742	23277
840.879	22854
841.016	22892
841.153	22900
841.29	23048
841.427	23044
841.564	23025
841.701	22911
841.838	22968
841.975	22877
842.112	22835
842.249	22694
842.385	22755
842.522	22949
842.659	22759
842.796	22672
842.933	22557
843.069	22611
843.206	22626
843.343	22820
843.479	22668
843.616	22793
843.752	22584
843.889	22634
844.025	22675
844.162	22546
844.298	22634
844.435	22538
844.571	22550
844.708	22767
844.844	22915
844.98	23090
845.117	23193
845.253	23315
845.389	23790
845.525	24798
845.661	26431
845.798	28280
845.934	29745
846.07	30422
846.206	30194
846.342	29075
846.478	26906
846.614	25148
846.75	23901
846.886	23258
847.022	22854
847.158	22516
847.294	22272
847.429	22173
847.565	22074
847.701	22306
847.837	21705
847.972	21610
848.108	21709
848.244	21686
848.379	21523
848.515	21447
848.65	21469
848.786	21595
848.921	21492
849.057	21625
849.192	21572
849.328	21534
849.463	21389
849.598	21401
849.734	21249
849.869	21252
850.004	21157
850.14	21154
850.275	21268
850.41	21195
850.545	21119
850.68	21135
850.815	21233
850.95	21123
851.085	21306
851.22	21321
851.355	21127
851.49	21119
851.625	21135
851.76	21108
851.895	21020
852.03	21020
852.165	21218
852.299	21176
852.434	21256
852.569	21131
852.703	21154
852.838	21233
852.973	21283
853.107	21306
853.242	21096
853.376	21009
853.511	20891
853.645	21077
853.78	21127
853.914	21081
854.048	21005
854.183	21123
854.317	21089
854.451	21249
854.585	21070
854.72	20914
854.854	21146
854.988	20952
855.122	21043
855.256	20948
855.39	21096
855.524	21116
855.658	21039
855.792	20994
855.926	21005
856.06	21020
856.194	21150
856.327	21047
856.461	20921
856.595	20975
856.729	20883
856.862	21070
856.996	21039
857.13	21020
857.263	20941
857.397	21093
857.53	20872
857.664	20975
857.797	20937
857.931	21009
858.064	20933
858.197	21074
858.331	20956
858.464	20944
858.597	20804
858.731	20754
858.864	20804
858.997	20975
859.13	20941
859.263	20861
859.396	20902
859.529	20876
859.662	20659
859.795	20777
859.928	20941
860.061	21039
860.194	20937
860.327	20925
860.46	20788
860.592	20895
860.725	20952
860.858	20853
860.99	20792
861.123	20796
861.256	20758
861.388	20872
861.521	21557
861.653	20670
861.786	20667
861.918	20788
862.05	20849
862.183	20769
862.315	20891
862.447	21096
862.58	20914
862.712	20663
862.844	20530
862.976	20670
863.108	20571
863.24	20883
863.372	20530
863.504	20530
863.636	20632
863.768	20663
863.9	20609
864.032	20503
864.164	20389
864.296	20568
864.428	20530
864.559	20473
864.691	20606
864.823	20404
864.954	20613
865.086	20632
865.217	20503
865.349	20332
865.48	20507
865.612	20495
865.743	20590
865.875	20518
866.006	20336
866.137	20568
866.269	20408
866.4	20377
866.531	20286
866.662	20476
866.793	20240
866.924	20393
867.055	20423
867.186	20347
867.317	20476
867.448	20282
867.579	20309
867.71	20286
867.841	20377
867.972	20396
868.103	20286
868.233	20370
868.364	20370
868.495	20446
868.625	20476
868.756	20648
868.886	20484
869.017	20651
869.147	20602
869.278	20602
869.408	20727
869.539	20575
869.669	20629
869.799	20705
869.929	20765
870.06	20670
870.19	20853
870.32	20838
870.45	20880
870.58	20994
870.71	21009
870.84	20986
870.97	21028
871.1	21020
871.23	21165
871.36	21047
871.489	21116
871.619	21233
871.749	21310
871.879	21359
872.008	21291
872.138	21294
872.267	21195
872.397	21131
872.526	21070
872.656	21055
872.785	21165
872.915	21199
873.044	21443
873.173	21344
873.303	21325
873.432	21355
873.561	21458
873.69	21222
873.819	21351
873.948	21462
874.077	21351
874.206	21237
874.335	21431
874.464	21561
874.593	21591
874.722	21549
874.851	21720
874.979	21701
875.108	21663
875.237	21606
875.365	21576
875.494	21751
875.623	21705
875.751	21701
875.88	21781
876.008	21911
876.136	22036
876.265	22150
876.393	22257
876.521	22329
876.65	22310
876.778	22257
876.906	22169
877.034	22234
877.162	22185
877.29	22207
877.418	22234
877.546	22375
877.674	22310
877.802	22371
877.93	22462
878.058	22405
878.185	22363
878.313	22557
878.441	22618
878.568	22599
878.696	22748
878.824	23185
878.951	23490
879.079	24102
879.206	24837
879.333	25335
879.461	25632
879.588	26126
879.715	26282
879.842	25982
879.97	25244
880.097	24441
880.224	23821
880.351	23684
880.478	23341
880.605	23109
880.732	23181
880.859	23288
880.986	23075
881.112	23056
881.239	22698
881.366	22759
881.493	22607
881.619	22497
881.746	22493
881.872	22569
881.999	22493
882.125	22352
882.252	22474
882.378	22546
882.505	22615
882.631	22386
882.757	22413
882.883	22386
883.01	22443
883.136	22333
883.262	22105
883.388	22109
883.514	22382
883.64	22314
883.766	22173
883.892	22067
884.018	22147
884.143	22325
884.269	22367
884.395	22048
884.52	21949
884.646	22048
884.772	21873
884.897	21823
885.023	21998
885.148	22063
885.274	22097
885.399	22074
885.524	21865
885.65	21873
885.775	21732
885.9	21720
886.025	21922
886.15	21743
886.275	21553
886.4	21538
886.525	21542
886.65	21336
886.775	21477
886.9	21526
887.025	21515
887.149	21382
887.274	21192
887.399	21176
887.523	21161
887.648	21077
887.773	20937
887.897	21112
888.021	21100
888.146	20963
888.27	21024
888.395	21104
888.519	20994
888.643	21017
888.767	20994
888.891	20819
889.015	20724
889.139	20716
889.263	20511
889.387	20788
889.511	20834
889.635	20659
889.759	20689
889.883	20667
890.006	20609
890.13	20659
890.254	20514
890.377	20530
890.501	20317
890.624	20267
890.748	20377
890.871	20195
890.995	20142
891.118	20043
891.241	20092
891.364	20058
891.488	20126
891.611	20043
891.734	20001
891.857	20054
891.98	20081
892.103	20016
892.226	20073
892.349	19963
892.471	19917
892.594	19963
892.717	19845
892.839	19944
892.962	19921
893.085	19986
893.207	19940
893.33	19643
893.452	19742
893.575	19852
893.697	19799
893.819	19921
893.941	19989
894.064	19936
894.186	19818
894.308	19799
894.43	19830
894.552	19921
894.674	19860
894.796	19723
894.918	19811
895.04	19765
895.161	19868
895.283	19845
895.405	19639
895.526	19845
895.648	19708
895.769	19746
895.891	19761
896.012	19780
896.134	19753
896.255	19845
896.376	19677
896.498	19742
896.619	19734
896.74	19833
896.861	19928
896.982	20062
897.103	20191
897.224	19963
897.345	19963
897.466	19879
897.587	19955
897.708	19947
897.828	20005
897.949	19845
898.07	19712
898.19	19776
898.311	19978
898.431	19898
898.552	19887
898.672	19959
898.792	19906
898.913	19864
899.033	19750
899.153	19609
899.273	19594
899.393	19518
899.513	19704
899.633	19559
899.753	19696
899.873	19605
899.993	19696
900.113	19552
900.232	19544
900.352	19518
900.472	19487
900.591	19320
900.711	19392
900.83	19343
900.95	19441
901.069	19457
901.189	19324
901.308	19027
901.427	18935
901.546	19141
901.665	18962
901.784	19072
901.904	18829
902.023	18738
902.141	18559
902.26	18502
902.379	18525
902.498	18566
902.617	18433
902.735	18475
902.854	18464
902.973	18300
903.091	18174
903.21	18060
903.328	18091
903.446	18003
903.565	17904
903.683	17946
903.801	17866
903.919	17897
904.038	17901
904.156	17748
904.274	17828
904.392	17729
904.51	17642
904.627	17608
904.745	17786
904.863	17691
904.981	17417
905.098	17391
905.216	17345
905.334	17349
905.451	17296
905.569	17288
905.686	17372
905.803	17387
905.921	17079
906.038	17166
906.155	17094
906.272	17041
906.389	17056
906.506	16847
906.623	16793
906.74	16801
906.857	16828
906.974	16786
907.091	16953
907.208	16934
907.324	16900
907.441	16752
907.557	16683
907.674	16558
907.79	16478
907.907	16577
908.023	16497
908.139	16694
908.256	16535
908.372	16394
908.488	16394
908.604	16291
908.72	16280
908.836	16234
908.952	16295
909.068	16257
909.184	16337
909.3	16303
909.415	16261
909.531	16219
909.647	15994
909.762	15979
909.878	15922
909.993	16013
910.108	15861
910.224	15918
910.339	15895
910.454	15854
910.57	15743
910.685	15762
910.8	15994
910.915	15838
911.03	15728
911.145	15576
911.259	15595
911.374	15534
911.489	15454
911.604	15321
911.718	15283
911.833	15397
911.947	15108
912.062	15184
912.176	15256
912.291	15260
912.405	15222
912.519	15458
912.633	15519
912.748	15264
912.862	15230
912.976	15066
913.09	14849
913.204	14982
913.318	15119
913.431	15165
913.545	15123
913.659	15188
913.772	15036
913.886	14963
914	14914
914.113	15024
914.226	14994
914.34	14918
914.453	14842
914.566	14956
914.68	14861
914.793	14708
914.906	14613
915.019	14476
915.132	14522
915.245	14552
915.358	14556
915.47	14511
915.583	14594
915.696	14670
915.809	14610
915.921	14758
916.034	14571
916.146	14488
916.259	14450
916.371	14648
916.483	14488
916.595	14362
916.708	14469
916.82	14461
916.932	14351
917.044	14366
917.156	14332
917.268	14237
917.38	14256
917.491	14320
917.603	14248
917.715	14202
917.826	14324
917.938	14221
918.049	14100
918.161	14103
918.272	14259
918.384	14240
918.495	14081
918.606	13951
918.717	13944
918.828	13982
918.939	13993
919.05	13883
919.161	13947
919.272	13734
919.383	13670
919.494	13913
919.604	14149
919.715	13955
919.826	13826
919.936	13818
920.047	14103
920.157	13909
920.267	14138
920.378	13989
920.488	13913
920.598	14031
920.708	14130
920.818	14046
920.928	14039
921.038	14221
921.148	14069
921.258	13708
921.368	13811
921.477	13575
921.587	13700
921.697	13616
921.806	13769
921.916	13457
922.025	13377
922.134	13285
922.244	13206
922.353	13343
922.462	13156
922.571	13065
922.68	12962
922.789	12947
922.898	13031
923.007	12814
923.116	12932
923.224	12852
923.333	12897
923.442	12745
923.55	12700
923.659	12825
923.767	12783
923.876	12601
923.984	12795
924.092	12715
924.201	12662
924.309	12722
924.417	12696
924.525	12669
924.633	12635
924.741	13540
924.849	12353
924.956	12498
925.064	12414
925.172	12327
925.279	12346
925.387	12414
925.494	12300
925.602	12448
925.709	12410
925.816	12197
925.924	12247
926.031	12452
926.138	12292
926.245	12365
926.352	12201
926.459	12448
926.566	12376
926.673	12216
926.779	12076
926.886	12167
926.993	12045
927.099	11980
927.206	11866
927.312	11920
927.419	12011
927.525	12034
927.631	11973
927.737	11893
927.843	11828
927.95	11630
928.056	11813
928.162	11805
928.267	11840
928.373	12361
928.479	11836
928.585	11737
928.69	11714
928.796	11805
928.901	11570
929.007	11509
929.112	11638
929.218	11577
929.323	11467
929.428	11505
929.533	11646
929.638	11387
929.743	11539
929.848	11474
929.953	11425
930.058	11315
930.163	11246
930.267	11181
930.372	11330
930.477	11071
930.581	11349
930.685	11208
930.79	11045
930.894	10980
930.998	11041
931.103	11128
931.207	10828
931.311	10759
931.415	10706
931.519	10493
931.623	10493
