Data from test_V78500241_1069.txt Node
Date: Fri Mar 25 14:41:09 CST 2022
User: usil
Spectrometer: V785-0024
Trigger mode: 0
Integration Time (sec): 4.000000E-1
Scans to average: 1
Nonlinearity correction enabled: false
Boxcar width: 0
Storing dark spectrum: false
XAxis mode: Wavelengths
Number of Pixels in Spectrum: 1024
>>>>>Begin Spectral Data<<<<<
801.071	22908
801.214	22717
801.356	22402
801.499	22348
801.641	22200
801.783	22135
801.926	22150
802.068	22074
802.211	21994
802.353	21804
802.496	21743
802.638	21526
802.78	21553
802.923	21492
803.065	21462
803.208	21469
803.35	21469
803.492	21576
803.635	21610
803.777	21450
803.919	21523
804.061	21724
804.204	21523
804.346	21382
804.488	21298
804.63	21477
804.773	21344
804.915	21420
805.057	21561
805.199	21359
805.341	21492
805.483	21526
805.626	21454
805.768	21450
805.91	21530
806.052	21424
806.194	21336
806.336	21519
806.478	21412
806.62	21321
806.762	21382
806.904	21549
807.046	21827
807.188	21778
807.33	21903
807.472	21953
807.614	21770
807.756	21960
807.898	21717
808.04	21724
808.182	21789
808.324	21819
808.465	21972
808.607	22253
808.749	22268
808.891	22428
809.033	22561
809.174	22519
809.316	22223
809.458	22249
809.6	22059
809.741	22120
809.883	22143
810.025	22185
810.166	22105
810.308	22002
810.45	22147
810.591	21975
810.733	21842
810.875	21713
811.016	21492
811.158	21557
811.299	21603
811.441	21869
811.582	21793
811.724	21682
811.865	21564
812.007	21675
812.148	21519
812.29	21690
812.431	21781
812.573	21892
812.714	22101
812.855	22013
812.997	22135
813.138	22344
813.279	22246
813.421	22253
813.562	22029
813.703	21899
813.845	21831
813.986	21580
814.127	21351
814.268	21096
814.41	21218
814.551	21195
814.692	21245
814.833	21085
814.974	21142
815.115	21195
815.256	20929
815.397	21013
815.539	20990
815.68	20925
815.821	20815
815.962	20933
816.103	20796
816.244	20693
816.385	20716
816.526	20533
816.666	20461
816.807	20370
816.948	20484
817.089	20450
817.23	20385
817.371	20336
817.512	20294
817.653	20172
817.793	20263
817.934	20377
818.075	20427
818.216	20328
818.356	20286
818.497	20168
818.638	20020
818.778	19978
818.919	20134
819.06	20020
819.2	20122
819.341	20210
819.481	20358
819.622	20419
819.762	20457
819.903	20469
820.043	20385
820.184	20221
820.324	20305
820.465	20351
820.605	20271
820.746	20259
820.886	20107
821.026	20301
821.167	20358
821.307	20347
821.447	20298
821.588	20195
821.728	19982
821.868	19932
822.008	19662
822.149	19723
822.289	19746
822.429	19460
822.569	19434
822.709	19449
822.849	19278
822.99	19225
823.13	19289
823.27	19050
823.41	19057
823.55	18928
823.69	19099
823.83	19061
823.97	18947
824.11	18897
824.25	18840
824.389	18837
824.529	18894
824.669	18779
824.809	18882
824.949	18833
825.089	18897
825.228	18920
825.368	18604
825.508	18589
825.648	18612
825.787	18654
825.927	18669
826.067	18483
826.206	18486
826.346	18635
826.485	18570
826.625	18601
826.765	18570
826.904	18582
827.044	18486
827.183	18391
827.323	18213
827.462	18365
827.601	18304
827.741	18205
827.88	18315
828.02	18148
828.159	18308
828.298	18258
828.437	18251
828.577	18243
828.716	18334
828.855	18270
828.994	18087
829.134	18053
829.273	18019
829.412	17984
829.551	17958
829.69	17965
829.829	17992
829.968	18106
830.107	18106
830.246	18019
830.385	17889
830.524	17889
830.663	17824
830.802	17722
830.941	17505
831.08	17653
831.219	17726
831.357	17676
831.496	17802
831.635	17611
831.774	17516
831.913	17558
832.051	17452
832.19	17459
832.329	17573
832.467	17387
832.606	17288
832.744	17280
832.883	17318
833.022	17334
833.16	17372
833.299	17303
833.437	17425
833.576	17311
833.714	17459
833.852	17448
833.991	17433
834.129	17459
834.267	17425
834.406	17395
834.544	17402
834.682	17512
834.821	17307
834.959	17486
835.097	17303
835.235	17486
835.373	17379
835.511	17341
835.65	17292
835.788	17277
835.926	17025
836.064	17109
836.202	16987
836.34	17307
836.478	17322
836.615	17258
836.753	17185
836.891	17379
837.029	17292
837.167	17258
837.305	17178
837.443	17090
837.58	17159
837.718	17242
837.856	17094
837.993	17086
838.131	17159
838.269	17056
838.406	17102
838.544	16987
838.681	16850
838.819	16805
838.956	16691
839.094	16679
839.231	16824
839.369	16809
839.506	16991
839.643	17018
839.781	16637
839.918	16656
840.055	16611
840.193	16645
840.33	16694
840.467	16725
840.604	16748
840.742	16908
840.879	16531
841.016	16554
841.153	16558
841.29	16771
841.427	16637
841.564	16656
841.701	16653
841.838	16497
841.975	16512
842.112	16561
842.249	16508
842.385	16360
842.522	16679
842.659	16459
842.796	16394
842.933	16459
843.069	16451
843.206	16413
843.343	16489
843.479	16500
843.616	16462
843.752	16204
843.889	16188
844.025	16421
844.162	16101
844.298	16280
844.435	16280
844.571	16135
844.708	16253
844.844	16329
844.98	16371
845.117	16261
845.253	16325
845.389	16173
845.525	16341
845.661	16481
845.798	16462
845.934	16660
846.07	16634
846.206	16710
846.342	16706
846.478	16367
846.614	16029
846.75	15945
846.886	15842
847.022	15941
847.158	15892
847.294	15831
847.429	15762
847.565	15720
847.701	16082
847.837	15488
847.972	15431
848.108	15614
848.244	15584
848.379	15458
848.515	15454
848.65	15313
848.786	15458
848.921	15386
849.057	15473
849.192	15416
849.328	15447
849.463	15378
849.598	15279
849.734	15222
849.869	15283
850.004	15279
850.14	15093
850.275	15138
850.41	15020
850.545	15127
850.68	15138
850.815	15157
850.95	15184
851.085	15237
851.22	15188
851.355	15100
851.49	15085
851.625	15085
851.76	15097
851.895	15028
852.03	14998
852.165	15028
852.299	15226
852.434	15199
852.569	15119
852.703	15123
852.838	15176
852.973	15256
853.107	15199
853.242	15127
853.376	15116
853.511	14975
853.645	15066
853.78	15165
853.914	15032
854.048	14960
854.183	14963
854.317	15055
854.451	15131
854.585	15017
854.72	14952
854.854	15108
854.988	14872
855.122	14880
855.256	14876
855.39	14925
855.524	15142
855.658	15119
855.792	14971
855.926	14998
856.06	15005
856.194	15218
856.327	15062
856.461	14960
856.595	14891
856.729	14941
856.862	15154
856.996	15013
857.13	15036
857.263	15127
857.397	15062
857.53	14948
857.664	15085
857.797	15093
857.931	15116
858.064	14956
858.197	15188
858.331	15039
858.464	14937
858.597	14937
858.731	15024
858.864	14948
858.997	14979
859.13	15058
859.263	15032
859.396	15070
859.529	14998
859.662	14868
859.795	14960
859.928	14929
860.061	15104
860.194	15165
860.327	14994
860.46	15058
860.592	15192
860.725	15077
860.858	15043
860.99	14975
861.123	14933
861.256	14918
861.388	15013
861.521	15557
861.653	14815
861.786	14773
861.918	14853
862.05	14895
862.183	14880
862.315	14963
862.447	15020
862.58	14979
862.712	14716
862.844	14720
862.976	14849
863.108	14887
863.24	15279
863.372	14594
863.504	14804
863.636	14735
863.768	14857
863.9	14724
864.032	14781
864.164	14754
864.296	14811
864.428	14883
864.559	14853
864.691	14868
864.823	14781
864.954	14743
865.086	14880
865.217	14739
865.349	14716
865.48	14746
865.612	14796
865.743	14948
865.875	14785
866.006	14754
866.137	14746
866.269	14716
866.4	14727
866.531	14754
866.662	14682
866.793	14708
866.924	14651
867.055	14788
867.186	14777
867.317	14659
867.448	14689
867.579	14746
867.71	14663
867.841	14663
867.972	14720
868.103	14746
868.233	14773
868.364	14762
868.495	14788
868.625	15001
868.756	15047
868.886	14883
869.017	15085
869.147	15043
869.278	15032
869.408	15112
869.539	15001
869.669	15085
869.799	15047
869.929	15058
870.06	15009
870.19	15264
870.32	15310
870.45	15233
870.58	15302
870.71	15496
870.84	15549
870.97	15420
871.1	15393
871.23	15629
871.36	15500
871.489	15424
871.619	15504
871.749	15587
871.879	15603
872.008	15713
872.138	15504
872.267	15663
872.397	15348
872.526	15370
872.656	15450
872.785	15416
872.915	15629
873.044	15686
873.173	15629
873.303	15618
873.432	15641
873.561	15641
873.69	15667
873.819	15675
873.948	15743
874.077	15641
874.206	15603
874.335	15633
874.464	15622
874.593	15892
874.722	15785
874.851	15972
874.979	15941
875.108	16029
875.237	15949
875.365	15918
875.494	15930
875.623	16021
875.751	16002
875.88	15945
876.008	16063
876.136	16192
876.265	16333
876.393	16455
876.521	16398
876.65	16398
876.778	16363
876.906	16314
877.034	16398
877.162	16367
877.29	16299
877.418	16428
877.546	16402
877.674	16291
877.802	16413
877.93	16287
878.058	16303
878.185	16261
878.313	16379
878.441	16394
878.568	16341
878.696	16447
878.824	16455
878.951	16546
879.079	16687
879.206	16869
879.333	16797
879.461	16759
879.588	16767
879.715	16866
879.842	16923
879.97	16675
880.097	16299
880.224	16291
880.351	16306
880.478	16333
880.605	16318
880.732	16310
880.859	16546
880.986	16333
881.112	16318
881.239	16181
881.366	16105
881.493	15979
881.619	15915
881.746	15930
881.872	15998
881.999	15937
882.125	15941
882.252	16036
882.378	15998
882.505	16090
882.631	15945
882.757	15857
882.883	15804
883.01	15720
883.136	15720
883.262	15530
883.388	15629
883.514	15774
883.64	15644
883.766	15694
883.892	15595
884.018	15694
884.143	15728
884.269	15865
884.395	15545
884.52	15488
884.646	15447
884.772	15408
884.897	15439
885.023	15416
885.148	15530
885.274	15614
885.399	15568
885.524	15450
885.65	15492
885.775	15466
885.9	15367
886.025	15469
886.15	15534
886.275	15359
886.4	15294
886.525	15355
886.65	15370
886.775	15351
886.9	15595
887.025	15553
887.149	15351
887.274	15252
887.399	15294
887.523	15287
887.648	15070
887.773	15116
887.897	15291
888.021	15249
888.146	15184
888.27	15367
888.395	15367
888.519	15268
888.643	15264
888.767	15252
888.891	15085
889.015	15013
889.139	15119
889.263	15112
889.387	15131
889.511	15180
889.635	15249
889.759	14971
889.883	15036
890.006	15112
890.13	15085
890.254	15036
890.377	15028
890.501	14861
890.624	14864
890.748	14876
890.871	14788
890.995	14651
891.118	14670
891.241	14678
891.364	14826
891.488	14849
891.611	14655
891.734	14853
891.857	14804
891.98	14724
892.103	14815
892.226	14746
892.349	14670
892.471	14727
892.594	14678
892.717	14693
892.839	14720
892.962	14750
893.085	14781
893.207	14724
893.33	14568
893.452	14632
893.575	14773
893.697	14712
893.819	14910
893.941	14918
894.064	14857
894.186	14758
894.308	14739
894.43	14800
894.552	14891
894.674	14853
894.796	14674
894.918	14765
895.04	14769
895.161	14746
895.283	14785
895.405	14727
895.526	14754
895.648	14769
895.769	14880
895.891	14861
896.012	14941
896.134	14906
896.255	14868
896.376	14796
896.498	14811
896.619	14921
896.74	14891
896.861	15089
896.982	15207
897.103	15298
897.224	15112
897.345	15039
897.466	15138
897.587	15169
897.708	15260
897.828	15222
897.949	15089
898.07	14925
898.19	15066
898.311	15192
898.431	15146
898.552	15252
898.672	15252
898.792	15260
898.913	15321
899.033	15009
899.153	15070
899.273	15028
899.393	14963
899.513	15077
899.633	15074
899.753	15154
899.873	15032
899.993	15131
900.113	15001
900.232	15005
900.352	15039
900.472	15070
900.591	14925
900.711	15024
900.83	14811
900.95	15028
901.069	14986
901.189	14880
901.308	14602
901.427	14362
901.546	14545
901.665	14629
901.784	14678
901.904	14507
902.023	14320
902.141	14218
902.26	14168
902.379	14191
902.498	14130
902.617	14020
902.735	14187
902.854	14164
902.973	14058
903.091	13940
903.21	13822
903.328	13856
903.446	13822
903.565	13742
903.683	13746
903.801	13571
903.919	13704
904.038	13613
904.156	13510
904.274	13540
904.392	13472
904.51	13388
904.627	13506
904.745	13514
904.863	13605
904.981	13221
905.098	13160
905.216	13213
905.334	13175
905.451	13126
905.569	13145
905.686	13190
905.803	13152
905.921	13042
906.038	13000
906.155	12977
906.272	12897
906.389	12996
906.506	12734
906.623	12719
906.74	12776
906.857	12726
906.974	12703
907.091	12890
907.208	12951
907.324	12852
907.441	12585
907.557	12509
907.674	12479
907.79	12456
907.907	12445
908.023	12563
908.139	12471
908.256	12441
908.372	12391
908.488	12369
908.604	12270
908.72	12224
908.836	12224
908.952	12228
909.068	12262
909.184	12384
909.3	12273
909.415	12277
909.531	12197
909.647	12079
909.762	12003
909.878	12087
909.993	12019
910.108	11904
910.224	11958
910.339	11973
910.454	11950
910.57	11870
910.685	11836
910.8	12068
910.915	12114
911.03	11927
911.145	11760
911.259	11649
911.374	11741
911.489	11684
911.604	11562
911.718	11547
911.833	11570
911.947	11349
912.062	11265
912.176	11459
912.291	11516
912.405	11421
912.519	11688
912.633	11611
912.748	11592
912.862	11467
912.976	11337
913.09	11204
913.204	11288
913.318	11334
913.431	11410
913.545	11539
913.659	11417
913.772	11391
913.886	11204
914	11147
914.113	11345
914.226	11345
914.34	11242
914.453	11105
914.566	11258
914.68	11140
914.793	11155
914.906	10984
915.019	10877
915.132	10885
915.245	10976
915.358	11018
915.47	10900
915.583	10995
915.696	11025
915.809	11018
915.921	11113
916.034	10892
916.146	10911
916.259	10854
916.371	10987
916.483	10995
916.595	10850
916.708	10824
916.82	10873
916.932	10854
917.044	10862
917.156	10831
917.268	10748
917.38	10717
917.491	10771
917.603	10744
917.715	10923
917.826	10828
917.938	10687
918.049	10611
918.161	10717
918.272	10961
918.384	10904
918.495	10812
918.606	10687
918.717	10554
918.828	10740
918.939	10664
919.05	10561
919.161	10599
919.272	10432
919.383	10493
919.494	10679
919.604	10793
919.715	10649
919.826	10550
919.936	10603
920.047	10736
920.157	10714
920.267	10801
920.378	10603
920.488	10573
920.598	10854
920.708	10972
920.818	10877
920.928	10771
921.038	10972
921.148	10968
921.258	10664
921.368	10580
921.477	10451
921.587	10470
921.697	10379
921.806	10485
921.916	10405
922.025	10204
922.134	10211
922.244	10131
922.353	10242
922.462	10032
922.571	10090
922.68	9857
922.789	9846
922.898	9911
923.007	9835
923.116	9934
923.224	9937
923.333	9873
923.442	9701
923.55	9743
923.659	9728
923.767	9823
923.876	9728
923.984	9804
924.092	9682
924.201	9736
924.309	9709
924.417	9690
924.525	9652
924.633	9671
924.741	10546
924.849	9473
924.956	9641
925.064	9530
925.172	9378
925.279	9408
925.387	9507
925.494	9481
925.602	9545
925.709	9603
925.816	9439
925.924	9466
926.031	9606
926.138	9511
926.245	9507
926.352	9416
926.459	9622
926.566	9572
926.673	9435
926.779	9348
926.886	9378
926.993	9230
927.099	9260
927.206	9097
927.312	9180
927.419	9192
927.525	9135
927.631	9260
927.737	9123
927.843	9097
927.95	8906
928.056	9077
928.162	9089
928.267	9119
928.373	9759
928.479	9192
928.585	8990
928.69	9097
928.796	9165
928.901	8971
929.007	8857
929.112	9013
929.218	8952
929.323	8895
929.428	8872
929.533	9043
929.638	8842
929.743	8792
929.848	9005
929.953	8834
930.058	8750
930.163	8674
930.267	8697
930.372	8800
930.477	8621
930.581	8872
930.685	8686
930.79	8606
930.894	8587
930.998	8590
931.103	8758
931.207	8415
931.311	8309
931.415	8290
931.519	8073
931.623	8054
