Data from test_V78500241_1419.txt Node
Date: Fri Mar 25 14:43:35 CST 2022
User: usil
Spectrometer: V785-0024
Trigger mode: 0
Integration Time (sec): 4.000000E-1
Scans to average: 1
Nonlinearity correction enabled: false
Boxcar width: 0
Storing dark spectrum: false
XAxis mode: Wavelengths
Number of Pixels in Spectrum: 1024
>>>>>Begin Spectral Data<<<<<
801.071	22485
801.214	22238
801.356	22013
801.499	22074
801.641	21865
801.783	21698
801.926	21739
802.068	21698
802.211	21720
802.353	21625
802.496	21344
802.638	21321
802.78	21245
802.923	21252
803.065	21108
803.208	21157
803.35	21173
803.492	21279
803.635	21348
803.777	21108
803.919	21199
804.061	21424
804.204	21195
804.346	21005
804.488	20971
804.63	21142
804.773	20975
804.915	21165
805.057	21180
805.199	21070
805.341	21058
805.483	21226
805.626	21085
805.768	21062
805.91	21020
806.052	21142
806.194	20906
806.336	21150
806.478	20998
806.62	21013
806.762	21214
806.904	21195
807.046	21420
807.188	21587
807.33	21389
807.472	21473
807.614	21458
807.756	21439
807.898	21310
808.04	21226
808.182	21214
808.324	21249
808.465	21344
808.607	21534
808.749	21572
808.891	21778
809.033	21835
809.174	21781
809.316	21663
809.458	21717
809.6	21526
809.741	21504
809.883	21526
810.025	21679
810.166	21701
810.308	21675
810.45	21519
810.591	21466
810.733	21424
810.875	21329
811.016	21123
811.158	21123
811.299	21218
811.441	21374
811.582	21431
811.724	21256
811.865	21310
812.007	21249
812.148	21260
812.29	21275
812.431	21382
812.573	21587
812.714	21690
812.855	21656
812.997	21842
813.138	21808
813.279	21953
813.421	21625
813.562	21739
813.703	21481
813.845	21504
813.986	21131
814.127	20952
814.268	20735
814.41	20880
814.551	20769
814.692	20834
814.833	20815
814.974	20648
815.115	20823
815.256	20651
815.397	20621
815.539	20686
815.68	20473
815.821	20522
815.962	20537
816.103	20549
816.244	20252
816.385	20202
816.526	20298
816.666	19940
816.807	19913
816.948	20084
817.089	19989
817.23	20027
817.371	19947
817.512	19894
817.653	19871
817.793	19913
817.934	19871
818.075	19883
818.216	19906
818.356	19883
818.497	19791
818.638	19670
818.778	19658
818.919	19582
819.06	19624
819.2	19738
819.341	19807
819.481	19791
819.622	19963
819.762	20298
819.903	20134
820.043	19986
820.184	19845
820.324	19845
820.465	19947
820.605	19864
820.746	19902
820.886	19788
821.026	19913
821.167	19818
821.307	19932
821.447	19780
821.588	19772
821.728	19670
821.868	19464
822.008	19217
822.149	19297
822.289	19171
822.429	19065
822.569	18989
822.709	19065
822.849	18764
822.99	18825
823.13	18798
823.27	18719
823.41	18688
823.55	18532
823.69	18654
823.83	18707
823.97	18467
824.11	18350
824.25	18471
824.389	18426
824.529	18403
824.669	18380
824.809	18627
824.949	18467
825.089	18566
825.228	18296
825.368	18224
825.508	18087
825.648	18117
825.787	18292
825.927	18273
826.067	18026
826.206	18117
826.346	18205
826.485	18224
826.625	18091
826.765	18296
826.904	18292
827.044	17946
827.183	17912
827.323	17805
827.462	17977
827.601	17958
827.741	17817
827.88	17817
828.02	17695
828.159	17847
828.298	17901
828.437	17897
828.577	17767
828.716	17912
828.855	17798
828.994	17581
829.134	17714
829.273	17634
829.412	17539
829.551	17478
829.69	17573
829.829	17699
829.968	17771
830.107	17634
830.246	17566
830.385	17554
830.524	17490
830.663	17395
830.802	17372
830.941	17166
831.08	17170
831.219	17277
831.357	17261
831.496	17467
831.635	17296
831.774	17250
831.913	17090
832.051	16957
832.19	16965
832.329	16980
832.467	16961
832.606	16927
832.744	16904
832.883	16850
833.022	16965
833.16	16805
833.299	16995
833.437	16930
833.576	16968
833.714	17003
833.852	17006
833.991	16957
834.129	17006
834.267	17006
834.406	17025
834.544	16961
834.682	17006
834.821	16953
834.959	17052
835.097	16991
835.235	17006
835.373	16938
835.511	16915
835.65	16911
835.788	16866
835.926	16679
836.064	16622
836.202	16634
836.34	16873
836.478	17018
836.615	16793
836.753	16824
836.891	16949
837.029	16957
837.167	16805
837.305	16812
837.443	16752
837.58	16611
837.718	16801
837.856	16694
837.993	16717
838.131	16790
838.269	16500
838.406	16596
838.544	16512
838.681	16481
838.819	16398
838.956	16249
839.094	16196
839.231	16276
839.369	16367
839.506	16527
839.643	16485
839.781	16341
839.918	16253
840.055	16219
840.193	16287
840.33	16204
840.467	16303
840.604	16253
840.742	16531
840.879	16101
841.016	16139
841.153	16234
841.29	16462
841.427	16249
841.564	16291
841.701	16230
841.838	16287
841.975	16150
842.112	16253
842.249	16059
842.385	15998
842.522	16325
842.659	16040
842.796	16048
842.933	16112
843.069	15964
843.206	15991
843.343	16055
843.479	16101
843.616	16093
843.752	15770
843.889	15827
844.025	15953
844.162	15785
844.298	15960
844.435	15861
844.571	15838
844.708	16002
844.844	16071
844.98	16071
845.117	16036
845.253	15850
845.389	15797
845.525	15816
845.661	15831
845.798	15850
845.934	15926
846.07	15857
846.206	15975
846.342	16013
846.478	15785
846.614	15564
846.75	15428
846.886	15428
847.022	15526
847.158	15374
847.294	15507
847.429	15458
847.565	15302
847.701	15561
847.837	15104
847.972	15112
848.108	15062
848.244	15138
848.379	14925
848.515	14998
848.65	14982
848.786	15043
848.921	15001
849.057	15119
849.192	14975
849.328	15036
849.463	15081
849.598	14948
849.734	14982
849.869	14807
850.004	14754
850.14	14800
850.275	14800
850.41	14708
850.545	14697
850.68	14769
850.815	14777
850.95	14743
851.085	14941
851.22	14899
851.355	14758
851.49	14762
851.625	14686
851.76	14602
851.895	14708
852.03	14598
852.165	14705
852.299	14769
852.434	14857
852.569	14792
852.703	14811
852.838	14910
852.973	14834
853.107	14845
853.242	14826
853.376	14701
853.511	14514
853.645	14678
853.78	14693
853.914	14579
854.048	14587
854.183	14682
854.317	14571
854.451	14781
854.585	14488
854.72	14564
854.854	14663
854.988	14495
855.122	14621
855.256	14469
855.39	14621
855.524	14648
855.658	14705
855.792	14655
855.926	14705
856.06	14705
856.194	14689
856.327	14644
856.461	14648
856.595	14514
856.729	14564
856.862	14701
856.996	14773
857.13	14667
857.263	14701
857.397	14781
857.53	14663
857.664	14655
857.797	14602
857.931	14769
858.064	14674
858.197	14693
858.331	14712
858.464	14492
858.597	14530
858.731	14568
858.864	14632
858.997	14594
859.13	14598
859.263	14610
859.396	14587
859.529	14545
859.662	14651
859.795	14533
859.928	14667
860.061	14720
860.194	14811
860.327	14648
860.46	14587
860.592	14579
860.725	14712
860.858	14750
860.99	14594
861.123	14511
861.256	14530
861.388	14621
861.521	15401
861.653	14484
861.786	14514
861.918	14560
862.05	14511
862.183	14617
862.315	14606
862.447	14568
862.58	14541
862.712	14473
862.844	14400
862.976	14461
863.108	14408
863.24	14880
863.372	14317
863.504	14324
863.636	14351
863.768	14503
863.9	14446
864.032	14389
864.164	14374
864.296	14313
864.428	14461
864.559	14476
864.691	14648
864.823	14469
864.954	14442
865.086	14332
865.217	14442
865.349	14237
865.48	14427
865.612	14355
865.743	14590
865.875	14434
866.006	14381
866.137	14351
866.269	14427
866.4	14282
866.531	14305
866.662	14259
866.793	14336
866.924	14305
867.055	14320
867.186	14320
867.317	14298
867.448	14290
867.579	14290
867.71	14358
867.841	14301
867.972	14419
868.103	14404
868.233	14434
868.364	14336
868.495	14408
868.625	14552
868.756	14689
868.886	14583
869.017	14560
869.147	14743
869.278	14762
869.408	14682
869.539	14667
869.669	14773
869.799	14705
869.929	14693
870.06	14727
870.19	15024
870.32	14849
870.45	14967
870.58	14952
870.71	15161
870.84	15097
870.97	15066
871.1	15020
871.23	15173
871.36	15135
871.489	15123
871.619	15188
871.749	15249
871.879	15268
872.008	15332
872.138	15275
872.267	15150
872.397	15032
872.526	15001
872.656	15017
872.785	15051
872.915	15336
873.044	15325
873.173	15218
873.303	15241
873.432	15355
873.561	15321
873.69	15249
873.819	15252
873.948	15310
874.077	15336
874.206	15150
874.335	15260
874.464	15332
874.593	15519
874.722	15515
874.851	15690
874.979	15644
875.108	15637
875.237	15580
875.365	15542
875.494	15576
875.623	15705
875.751	15618
875.88	15599
876.008	15667
876.136	15808
876.265	15964
876.393	16048
876.521	16063
876.65	16105
876.778	16025
876.906	15926
877.034	16006
877.162	15979
877.29	15930
877.418	16044
877.546	16048
877.674	15895
877.802	16017
877.93	15926
878.058	15949
878.185	15922
878.313	15934
878.441	15987
878.568	15895
878.696	16078
878.824	16032
878.951	16116
879.079	16272
879.206	16462
879.333	16322
879.461	16105
879.588	16150
879.715	16360
879.842	16405
879.97	16200
880.097	15964
880.224	15888
880.351	15895
880.478	15918
880.605	15823
880.732	15816
880.859	16139
880.986	15823
881.112	15827
881.239	15789
881.366	15766
881.493	15591
881.619	15572
881.746	15454
881.872	15637
881.999	15576
882.125	15507
882.252	15622
882.378	15618
882.505	15595
882.631	15561
882.757	15317
882.883	15397
883.01	15363
883.136	15310
883.262	15264
883.388	15226
883.514	15332
883.64	15294
883.766	15302
883.892	15116
884.018	15180
884.143	15348
884.269	15447
884.395	15070
884.52	14998
884.646	15066
884.772	15051
884.897	15009
885.023	15062
885.148	15062
885.274	15161
885.399	15188
885.524	15058
885.65	15013
885.775	15062
885.9	15043
886.025	15222
886.15	15093
886.275	14960
886.4	14910
886.525	14979
886.65	14952
886.775	14979
886.9	15074
887.025	15195
887.149	14933
887.274	14792
887.399	14872
887.523	14758
887.648	14769
887.773	14758
887.897	14902
888.021	14921
888.146	14773
888.27	15009
888.395	14986
888.519	14929
888.643	14899
888.767	14857
888.891	14838
889.015	14735
889.139	14754
889.263	14648
889.387	14804
889.511	14887
889.635	14769
889.759	14670
889.883	14625
890.006	14743
890.13	14830
890.254	14613
890.377	14682
890.501	14537
890.624	14530
890.748	14564
890.871	14457
890.995	14320
891.118	14305
891.241	14324
891.364	14298
891.488	14541
891.611	14339
891.734	14381
891.857	14412
891.98	14476
892.103	14484
892.226	14492
892.349	14336
892.471	14332
892.594	14267
892.717	14320
892.839	14298
892.962	14377
893.085	14431
893.207	14374
893.33	14233
893.452	14267
893.575	14476
893.697	14427
893.819	14583
893.941	14552
894.064	14518
894.186	14282
894.308	14355
894.43	14450
894.552	14629
894.674	14492
894.796	14408
894.918	14358
895.04	14503
895.161	14495
895.283	14533
895.405	14446
895.526	14469
895.648	14465
895.769	14499
895.891	14579
896.012	14598
896.134	14610
896.255	14670
896.376	14461
896.498	14545
896.619	14617
896.74	14564
896.861	14655
896.982	14952
897.103	15039
897.224	14895
897.345	14826
897.466	14701
897.587	14796
897.708	14857
897.828	14781
897.949	14746
898.07	14769
898.19	14743
898.311	14883
898.431	14800
898.552	14933
898.672	14990
898.792	14986
898.913	14872
899.033	14804
899.153	14686
899.273	14712
899.393	14644
899.513	14739
899.633	14678
899.753	14705
899.873	14769
899.993	14781
900.113	14727
900.232	14811
900.352	14720
900.472	14606
900.591	14590
900.711	14560
900.83	14552
900.95	14670
901.069	14727
901.189	14476
901.308	14358
901.427	14275
901.546	14233
901.665	14339
901.784	14218
901.904	14134
902.023	14115
902.141	13818
902.26	13845
902.379	13978
902.498	13814
902.617	13841
902.735	13932
902.854	13818
902.973	13647
903.091	13643
903.21	13518
903.328	13571
903.446	13388
903.565	13434
903.683	13411
903.801	13297
903.919	13403
904.038	13415
904.156	13145
904.274	13308
904.392	13297
904.51	13293
904.627	13247
904.745	13209
904.863	13225
904.981	12962
905.098	12913
905.216	12947
905.334	12928
905.451	12757
905.569	12814
905.686	12951
905.803	12916
905.921	12760
906.038	12749
906.155	12673
906.272	12608
906.389	12681
906.506	12506
906.623	12486
906.74	12460
906.857	12391
906.974	12319
907.091	12506
907.208	12582
907.324	12578
907.441	12410
907.557	12311
907.674	12289
907.79	12148
907.907	12125
908.023	12327
908.139	12213
908.256	12102
908.372	12083
908.488	12224
908.604	11950
908.72	11950
908.836	11961
908.952	11992
909.068	11935
909.184	12064
909.3	11973
909.415	12057
909.531	11973
909.647	11680
909.762	11688
909.878	11843
909.993	11733
910.108	11722
910.224	11642
910.339	11824
910.454	11756
910.57	11585
910.685	11543
910.8	11874
910.915	11714
911.03	11589
911.145	11535
911.259	11376
911.374	11501
911.489	11372
911.604	11280
911.718	11208
911.833	11261
911.947	11079
912.062	11098
912.176	11132
912.291	11216
912.405	11151
912.519	11356
912.633	11376
912.748	11235
912.862	11178
912.976	11083
913.09	10915
913.204	11075
913.318	11033
913.431	11140
913.545	11121
913.659	11090
913.772	11086
913.886	10919
914	10946
914.113	10930
914.226	11098
914.34	11029
914.453	10904
914.566	11052
914.68	10877
914.793	10839
914.906	10740
915.019	10706
915.132	10675
915.245	10683
915.358	10683
915.47	10748
915.583	10694
915.696	10740
915.809	10801
915.921	10862
916.034	10622
916.146	10596
916.259	10683
916.371	10637
916.483	10714
916.595	10675
916.708	10687
916.82	10618
916.932	10649
917.044	10596
917.156	10615
917.268	10519
917.38	10527
917.491	10485
917.603	10538
917.715	10634
917.826	10687
917.938	10508
918.049	10405
918.161	10527
918.272	10679
918.384	10637
918.495	10596
918.606	10447
918.717	10303
918.828	10455
918.939	10462
919.05	10341
919.161	10360
919.272	10169
919.383	10246
919.494	10455
919.604	10691
919.715	10436
919.826	10375
919.936	10386
920.047	10470
920.157	10421
920.267	10679
920.378	10451
920.488	10428
920.598	10596
920.708	10820
920.818	10584
920.928	10607
921.038	10797
921.148	10733
921.258	10497
921.368	10356
921.477	10352
921.587	10211
921.697	10116
921.806	10325
921.916	10173
922.025	10059
922.134	10002
922.244	9880
922.353	10002
922.462	9953
922.571	9838
922.68	9740
922.789	9679
922.898	9766
923.007	9606
923.116	9747
923.224	9724
923.333	9671
923.442	9595
923.55	9580
923.659	9587
923.767	9717
923.876	9557
923.984	9610
924.092	9500
924.201	9580
924.309	9542
924.417	9599
924.525	9542
924.633	9587
924.741	10497
924.849	9344
924.956	9511
925.064	9291
925.172	9245
925.279	9336
925.387	9367
925.494	9294
925.602	9523
925.709	9443
925.816	9283
925.924	9298
926.031	9393
926.138	9329
926.245	9462
926.352	9233
926.459	9344
926.566	9382
926.673	9298
926.779	9218
926.886	9123
926.993	9131
927.099	9047
927.206	9036
927.312	9036
927.419	9097
927.525	9062
927.631	9047
927.737	8979
927.843	8906
927.95	8876
928.056	8823
928.162	8967
928.267	9017
928.373	9595
928.479	9051
928.585	8823
928.69	8921
928.796	8960
928.901	8834
929.007	8746
929.112	8906
929.218	8826
929.323	8720
929.428	8708
929.533	8857
929.638	8762
929.743	8716
929.848	8754
929.953	8758
930.058	8587
930.163	8461
930.267	8446
930.372	8613
930.477	8484
930.581	8773
930.685	8602
930.79	8480
930.894	8530
930.998	8454
931.103	8625
931.207	8282
931.311	8244
931.415	8126
931.519	7936
931.623	7940
