Data from test_V78500241_2445.txt Node
Date: Fri Mar 25 14:50:44 CST 2022
User: usil
Spectrometer: V785-0024
Trigger mode: 0
Integration Time (sec): 4.000000E-1
Scans to average: 1
Nonlinearity correction enabled: false
Boxcar width: 0
Storing dark spectrum: false
XAxis mode: Wavelengths
Number of Pixels in Spectrum: 1024
>>>>>Begin Spectral Data<<<<<
801.071	22067
801.214	21861
801.356	21770
801.499	21701
801.641	21587
801.783	21370
801.926	21545
802.068	21481
802.211	21477
802.353	21306
802.496	21070
802.638	20986
802.78	20933
802.923	20883
803.065	20788
803.208	20804
803.35	20701
803.492	20963
803.635	20937
803.777	20773
803.919	20986
804.061	21184
804.204	20880
804.346	20705
804.488	20765
804.63	20811
804.773	20727
804.915	20712
805.057	20811
805.199	20693
805.341	20788
805.483	20765
805.626	20739
805.768	20682
805.91	20743
806.052	20754
806.194	20609
806.336	20941
806.478	20632
806.62	20693
806.762	20735
806.904	20914
807.046	21077
807.188	20952
807.33	21062
807.472	21036
807.614	21051
807.756	20990
807.898	20849
808.04	20773
808.182	20777
808.324	20807
808.465	20857
808.607	20883
808.749	21100
808.891	21180
809.033	21306
809.174	21214
809.316	21157
809.458	21081
809.6	21100
809.741	21119
809.883	21123
810.025	21321
810.166	21329
810.308	21260
810.45	21161
810.591	21127
810.733	20994
810.875	20910
811.016	20788
811.158	20678
811.299	20800
811.441	20956
811.582	20986
811.724	20853
811.865	20701
812.007	20868
812.148	20788
812.29	20956
812.431	20876
812.573	21108
812.714	21336
812.855	21287
812.997	21454
813.138	21530
813.279	21378
813.421	21488
813.562	21256
813.703	21176
813.845	20880
813.986	20670
814.127	20568
814.268	20514
814.41	20374
814.551	20343
814.692	20431
814.833	20400
814.974	20408
815.115	20400
815.256	20225
815.397	20202
815.539	20282
815.68	20126
815.821	20073
815.962	20218
816.103	20001
816.244	19936
816.385	19852
816.526	19715
816.666	19746
816.807	19499
816.948	19693
817.089	19635
817.23	19544
817.371	19502
817.512	19533
817.653	19487
817.793	19381
817.934	19499
818.075	19426
818.216	19415
818.356	19495
818.497	19312
818.638	19053
818.778	19251
818.919	19160
819.06	19274
819.2	19289
819.341	19392
819.481	19426
819.622	19514
819.762	19803
819.903	19693
820.043	19537
820.184	19506
820.324	19495
820.465	19548
820.605	19563
820.746	19514
820.886	19354
821.026	19384
821.167	19460
821.307	19567
821.447	19403
821.588	19316
821.728	19198
821.868	19076
822.008	18951
822.149	18852
822.289	18947
822.429	18692
822.569	18623
822.709	18540
822.849	18464
822.99	18403
823.13	18353
823.27	18376
823.41	18266
823.55	18228
823.69	18182
823.83	18171
823.97	18125
824.11	18011
824.25	17954
824.389	18007
824.529	17984
824.669	18049
824.809	18117
824.949	18022
825.089	18041
825.228	17923
825.368	17714
825.508	17824
825.648	17805
825.787	17756
825.927	17878
826.067	17695
826.206	17668
826.346	17733
826.485	17817
826.625	17649
826.765	17836
826.904	17790
827.044	17490
827.183	17497
827.323	17452
827.462	17414
827.601	17383
827.741	17337
827.88	17486
828.02	17284
828.159	17524
828.298	17429
828.437	17463
828.577	17391
828.716	17535
828.855	17410
828.994	17269
829.134	17189
829.273	17231
829.412	17212
829.551	17132
829.69	17140
829.829	17197
829.968	17368
830.107	17174
830.246	17254
830.385	17174
830.524	17037
830.663	16934
830.802	16934
830.941	16748
831.08	16771
831.219	16911
831.357	16900
831.496	17067
831.635	16702
831.774	16843
831.913	16729
832.051	16615
832.19	16630
832.329	16615
832.467	16440
832.606	16481
832.744	16390
832.883	16455
833.022	16512
833.16	16497
833.299	16596
833.437	16481
833.576	16577
833.714	16481
833.852	16596
833.991	16607
834.129	16573
834.267	16554
834.406	16565
834.544	16577
834.682	16561
834.821	16550
834.959	16736
835.097	16565
835.235	16683
835.373	16630
835.511	16489
835.65	16508
835.788	16443
835.926	16352
836.064	16268
836.202	16295
836.34	16466
836.478	16516
836.615	16348
836.753	16440
836.891	16580
837.029	16478
837.167	16424
837.305	16325
837.443	16360
837.58	16333
837.718	16424
837.856	16329
837.993	16280
838.131	16318
838.269	16120
838.406	16341
838.544	16265
838.681	16074
838.819	16082
838.956	15934
839.094	15953
839.231	15857
839.369	16032
839.506	16242
839.643	16128
839.781	15960
839.918	15804
840.055	15720
840.193	15842
840.33	15869
840.467	15823
840.604	15964
840.742	16128
840.879	15732
841.016	15816
841.153	15778
841.29	15972
841.427	15888
841.564	16029
841.701	15861
841.838	15823
841.975	15884
842.112	15759
842.249	15682
842.385	15622
842.522	15846
842.659	15614
842.796	15622
842.933	15667
843.069	15576
843.206	15576
843.343	15770
843.479	15637
843.616	15614
843.752	15496
843.889	15511
844.025	15515
844.162	15412
844.298	15614
844.435	15382
844.571	15408
844.708	15420
844.844	15549
844.98	15572
845.117	15515
845.253	15336
845.389	15283
845.525	15291
845.661	15268
845.798	15233
845.934	15252
846.07	15218
846.206	15245
846.342	15310
846.478	15241
846.614	15127
846.75	15005
846.886	14982
847.022	15047
847.158	15093
847.294	15043
847.429	15024
847.565	14910
847.701	15226
847.837	14830
847.972	14777
848.108	14754
848.244	14811
848.379	14636
848.515	14602
848.65	14606
848.786	14678
848.921	14560
849.057	14590
849.192	14686
849.328	14651
849.463	14575
849.598	14640
849.734	14514
849.869	14358
850.004	14301
850.14	14434
850.275	14370
850.41	14275
850.545	14298
850.68	14301
850.815	14419
850.95	14434
851.085	14499
851.22	14526
851.355	14248
851.49	14317
851.625	14320
851.76	14298
851.895	14259
852.03	14157
852.165	14442
852.299	14347
852.434	14431
852.569	14400
852.703	14396
852.838	14377
852.973	14495
853.107	14488
853.242	14358
853.376	14225
853.511	14111
853.645	14142
853.78	14309
853.914	14301
854.048	14229
854.183	14252
854.317	14180
854.451	14454
854.585	14233
854.72	14210
854.854	14267
854.988	14138
855.122	14168
855.256	14062
855.39	14256
855.524	14336
855.658	14396
855.792	14259
855.926	14320
856.06	14317
856.194	14317
856.327	14313
856.461	14130
856.595	14233
856.729	14145
856.862	14320
856.996	14355
857.13	14298
857.263	14263
857.397	14415
857.53	14214
857.664	14332
857.797	14290
857.931	14336
858.064	14298
858.197	14339
858.331	14355
858.464	14298
858.597	14138
858.731	14195
858.864	14149
858.997	14187
859.13	14195
859.263	14259
859.396	14317
859.529	14206
859.662	14191
859.795	14199
859.928	14290
860.061	14347
860.194	14473
860.327	14309
860.46	14248
860.592	14317
860.725	14423
860.858	14313
860.99	14370
861.123	14199
861.256	14111
861.388	14267
861.521	15020
861.653	14111
861.786	14096
861.918	14073
862.05	14195
862.183	14225
862.315	14278
862.447	14252
862.58	14218
862.712	14119
862.844	13902
862.976	14062
863.108	14058
863.24	14381
863.372	13951
863.504	13989
863.636	13974
863.768	14111
863.9	14062
864.032	13928
864.164	14031
864.296	14092
864.428	14195
864.559	14088
864.691	14096
864.823	14073
864.954	14050
865.086	14020
865.217	14039
865.349	13906
865.48	13955
865.612	13925
865.743	14130
865.875	14027
866.006	13982
866.137	14073
866.269	14062
866.4	13986
866.531	14024
866.662	13928
866.793	14016
866.924	13970
867.055	14027
867.186	14005
867.317	13974
867.448	13928
867.579	13963
867.71	13944
867.841	13925
867.972	14001
868.103	14058
868.233	14008
868.364	13940
868.495	14054
868.625	14259
868.756	14351
868.886	14100
869.017	14199
869.147	14457
869.278	14431
869.408	14298
869.539	14252
869.669	14362
869.799	14358
869.929	14381
870.06	14309
870.19	14480
870.32	14492
870.45	14636
870.58	14590
870.71	14792
870.84	14788
870.97	14648
871.1	14712
871.23	14765
871.36	14986
871.489	14708
871.619	14838
871.749	14861
871.879	14895
872.008	14967
872.138	14838
872.267	14845
872.397	14739
872.526	14762
872.656	14674
872.785	14750
872.915	14845
873.044	14952
873.173	15013
873.303	14994
873.432	15024
873.561	14937
873.69	14929
873.819	14963
873.948	14941
874.077	14952
874.206	14887
874.335	14872
874.464	15070
874.593	15237
874.722	15123
874.851	15233
874.979	15344
875.108	15298
875.237	15203
875.365	15127
875.494	15203
875.623	15291
875.751	15218
875.88	15252
876.008	15393
876.136	15431
876.265	15743
876.393	15911
876.521	15709
876.65	15717
876.778	15671
876.906	15606
877.034	15660
877.162	15652
877.29	15572
877.418	15648
877.546	15584
877.674	15641
877.802	15606
877.93	15561
878.058	15679
878.185	15504
878.313	15648
878.441	15641
878.568	15564
878.696	15576
878.824	15686
878.951	15686
879.079	15778
879.206	15930
879.333	15762
879.461	15713
879.588	15732
879.715	15793
879.842	15930
879.97	15682
880.097	15485
880.224	15466
880.351	15538
880.478	15545
880.605	15466
880.732	15450
880.859	15804
880.986	15496
881.112	15545
881.239	15424
881.366	15222
881.493	15123
881.619	15161
881.746	15123
881.872	15165
881.999	15055
882.125	15093
882.252	15127
882.378	15252
882.505	15298
882.631	15005
882.757	14941
882.883	15058
883.01	14952
883.136	14998
883.262	14758
883.388	14800
883.514	14944
883.64	14960
883.766	14838
883.892	14868
884.018	14864
884.143	14975
884.269	15077
884.395	14705
884.52	14648
884.646	14697
884.772	14644
884.897	14575
885.023	14686
885.148	14785
885.274	14811
885.399	14819
885.524	14659
885.65	14655
885.775	14667
885.9	14689
886.025	14762
886.15	14693
886.275	14621
886.4	14575
886.525	14693
886.65	14610
886.775	14606
886.9	14815
887.025	14845
887.149	14575
887.274	14522
887.399	14518
887.523	14514
887.648	14488
887.773	14396
887.897	14579
888.021	14511
888.146	14412
888.27	14606
888.395	14674
888.519	14514
888.643	14606
888.767	14461
888.891	14404
889.015	14336
889.139	14366
889.263	14396
889.387	14533
889.511	14556
889.635	14514
889.759	14305
889.883	14305
890.006	14343
890.13	14476
890.254	14305
890.377	14202
890.501	14164
890.624	14176
890.748	14240
890.871	14138
890.995	14001
891.118	13955
891.241	14084
891.364	14107
891.488	14161
891.611	14065
891.734	14050
891.857	14153
891.98	14073
892.103	14172
892.226	14157
892.349	13963
892.471	13925
892.594	14016
892.717	14046
892.839	14050
892.962	14027
893.085	14157
893.207	14092
893.33	13906
893.452	14092
893.575	14062
893.697	14012
893.819	14282
893.941	14294
894.064	14218
894.186	14062
894.308	14035
894.43	14221
894.552	14248
894.674	14237
894.796	14115
894.918	14138
895.04	14092
895.161	14225
895.283	14187
895.405	14073
895.526	14149
895.648	14126
895.769	14282
895.891	14214
896.012	14225
896.134	14282
896.255	14366
896.376	14244
896.498	14248
896.619	14362
896.74	14168
896.861	14396
896.982	14590
897.103	14651
897.224	14507
897.345	14511
897.466	14374
897.587	14541
897.708	14701
897.828	14514
897.949	14507
898.07	14442
898.19	14412
898.311	14655
898.431	14518
898.552	14427
898.672	14739
898.792	14678
898.913	14594
899.033	14552
899.153	14549
899.273	14244
899.393	14423
899.513	14442
899.633	14457
899.753	14404
899.873	14476
899.993	14545
900.113	14514
900.232	14412
900.352	14332
900.472	14347
900.591	14259
900.711	14370
900.83	14145
900.95	14415
901.069	14339
901.189	14278
901.308	14050
901.427	14069
901.546	14012
901.665	14058
901.784	14050
901.904	13856
902.023	13799
902.141	13586
902.26	13559
902.379	13704
902.498	13537
902.617	13487
902.735	13601
902.854	13514
902.973	13506
903.091	13289
903.21	13171
903.328	13202
903.446	13129
903.565	13118
903.683	13122
903.801	13072
903.919	13129
904.038	13084
904.156	12916
904.274	13038
904.392	12951
904.51	12935
904.627	12951
904.745	12871
904.863	13050
904.981	12677
905.098	12620
905.216	12559
905.334	12760
905.451	12582
905.569	12616
905.686	12631
905.803	12639
905.921	12429
906.038	12532
906.155	12532
906.272	12323
906.389	12372
906.506	12239
906.623	12292
906.74	12224
906.857	12178
906.974	12095
907.091	12220
907.208	12281
907.324	12270
907.441	12239
907.557	12022
907.674	11954
907.79	11843
907.907	11893
908.023	12079
908.139	11977
908.256	11958
908.372	11916
908.488	11866
908.604	11805
908.72	11707
908.836	11752
908.952	11703
909.068	11714
909.184	11775
909.3	11737
909.415	11748
909.531	11764
909.647	11528
909.762	11581
909.878	11547
909.993	11459
910.108	11501
910.224	11520
910.339	11471
910.454	11493
910.57	11315
910.685	11250
910.8	11554
910.915	11566
911.03	11417
911.145	11197
911.259	11170
911.374	11235
911.489	11018
911.604	11136
911.718	10968
911.833	11037
911.947	10904
912.062	10740
912.176	10949
912.291	10946
912.405	10946
912.519	11166
912.633	11189
912.748	10984
912.862	10968
912.976	10831
913.09	10683
913.204	10828
913.318	10816
913.431	10896
913.545	10904
913.659	10869
913.772	10908
913.886	10668
914	10634
914.113	10782
914.226	10767
914.34	10717
914.453	10660
914.566	10793
914.68	10645
914.793	10653
914.906	10455
915.019	10428
915.132	10481
915.245	10409
915.358	10478
915.47	10462
915.583	10523
915.696	10432
915.809	10634
915.921	10622
916.034	10413
916.146	10417
916.259	10363
916.371	10535
916.483	10481
916.595	10303
916.708	10470
916.82	10421
916.932	10363
917.044	10337
917.156	10424
917.268	10230
917.38	10344
917.491	10303
917.603	10291
917.715	10356
917.826	10451
917.938	10341
918.049	10215
918.161	10261
918.272	10322
918.384	10443
918.495	10272
918.606	10211
918.717	10150
918.828	10158
918.939	10204
919.05	10078
919.161	10154
919.272	9975
919.383	10032
919.494	10185
919.604	10348
919.715	10185
919.826	10128
919.936	10135
920.047	10253
920.157	10238
920.267	10371
920.378	10287
920.488	10204
920.598	10424
920.708	10489
920.818	10402
920.928	10390
921.038	10580
921.148	10512
921.258	10207
921.368	10112
921.477	10044
921.587	10059
921.697	9968
921.806	10074
921.916	9968
922.025	9736
922.134	9778
922.244	9774
922.353	9774
922.462	9625
922.571	9599
922.68	9431
922.789	9408
922.898	9428
923.007	9397
923.116	9492
923.224	9405
923.333	9439
923.442	9325
923.55	9378
923.659	9363
923.767	9332
923.876	9359
923.984	9355
924.092	9249
924.201	9306
924.309	9355
924.417	9272
924.525	9291
924.633	9294
924.741	10010
924.849	9104
924.956	9279
925.064	9062
925.172	8975
925.279	9058
925.387	9157
925.494	9077
925.602	9298
925.709	9184
925.816	9028
925.924	9184
926.031	9241
926.138	9112
926.245	9146
926.352	9077
926.459	9112
926.566	9211
926.673	9043
926.779	9017
926.886	8990
926.993	8906
927.099	8853
927.206	8834
927.312	8785
927.419	8823
927.525	8861
927.631	8883
927.737	8754
927.843	8705
927.95	8564
928.056	8731
928.162	8701
928.267	8792
928.373	9359
928.479	8834
928.585	8606
928.69	8766
928.796	8727
928.901	8629
929.007	8579
929.112	8613
929.218	8644
929.323	8556
929.428	8450
929.533	8636
929.638	8469
929.743	8522
929.848	8598
929.953	8526
930.058	8457
930.163	8279
930.267	8320
930.372	8484
930.477	8279
930.581	8564
930.685	8457
930.79	8275
930.894	8298
930.998	8149
931.103	8400
931.207	8039
931.311	7986
931.415	7913
931.519	7685
931.623	7746
