Data from test_V78500241_3283.txt Node
Date: Fri Mar 25 14:56:34 CST 2022
User: usil
Spectrometer: V785-0024
Trigger mode: 0
Integration Time (sec): 4.000000E-1
Scans to average: 1
Nonlinearity correction enabled: false
Boxcar width: 0
Storing dark spectrum: false
XAxis mode: Wavelengths
Number of Pixels in Spectrum: 1024
>>>>>Begin Spectral Data<<<<<
801.071	21960
801.214	21816
801.356	21568
801.499	21477
801.641	21557
801.783	21260
801.926	21268
802.068	21287
802.211	21317
802.353	21024
802.496	21005
802.638	20765
802.78	20861
802.923	20762
803.065	20670
803.208	20674
803.35	20648
803.492	20834
803.635	20792
803.777	20731
803.919	20823
804.061	21032
804.204	20724
804.346	20636
804.488	20587
804.63	20617
804.773	20492
804.915	20575
805.057	20712
805.199	20590
805.341	20705
805.483	20667
805.626	20621
805.768	20655
805.91	20545
806.052	20552
806.194	20396
806.336	20727
806.478	20549
806.62	20568
806.762	20640
806.904	20857
807.046	20960
807.188	20864
807.33	20967
807.472	20948
807.614	20750
807.756	20792
807.898	20773
808.04	20621
808.182	20651
808.324	20682
808.465	20579
808.607	20830
808.749	20921
808.891	20956
809.033	21173
809.174	20952
809.316	20880
809.458	20876
809.6	20830
809.741	21062
809.883	21055
810.025	20937
810.166	21135
810.308	21108
810.45	21001
810.591	21013
810.733	20861
810.875	20724
811.016	20606
811.158	20480
811.299	20792
811.441	20796
811.582	20887
811.724	20724
811.865	20632
812.007	20625
812.148	20708
812.29	20727
812.431	20838
812.573	21051
812.714	21116
812.855	21096
812.997	21294
813.138	21355
813.279	21237
813.421	21146
813.562	21127
813.703	20941
813.845	20864
813.986	20571
814.127	20320
814.268	20309
814.41	20415
814.551	20290
814.692	20278
814.833	20058
814.974	20218
815.115	20259
815.256	19970
815.397	20001
815.539	20103
815.68	20046
815.821	19856
815.962	19970
816.103	19951
816.244	19830
816.385	19742
816.526	19616
816.666	19601
816.807	19358
816.948	19460
817.089	19495
817.23	19483
817.371	19422
817.512	19358
817.653	19304
817.793	19426
817.934	19373
818.075	19373
818.216	19381
818.356	19316
818.497	19145
818.638	19034
818.778	19080
818.919	18993
819.06	19133
819.2	19168
819.341	19297
819.481	19183
819.622	19282
819.762	19594
819.903	19495
820.043	19434
820.184	19320
820.324	19430
820.465	19415
820.605	19247
820.746	19381
820.886	19179
821.026	19297
821.167	19293
821.307	19278
821.447	19266
821.588	19164
821.728	19183
821.868	18924
822.008	18768
822.149	18722
822.289	18673
822.429	18517
822.569	18346
822.709	18380
822.849	18304
822.99	18315
823.13	18266
823.27	18125
823.41	18098
823.55	18034
823.69	18079
823.83	18030
823.97	17958
824.11	17794
824.25	17828
824.389	17722
824.529	17931
824.669	17832
824.809	17927
824.949	17916
825.089	17927
825.228	17794
825.368	17764
825.508	17554
825.648	17665
825.787	17573
825.927	17737
826.067	17474
826.206	17665
826.346	17577
826.485	17608
826.625	17634
826.765	17760
826.904	17619
827.044	17368
827.183	17353
827.323	17318
827.462	17368
827.601	17299
827.741	17372
827.88	17288
828.02	17231
828.159	17292
828.298	17292
828.437	17330
828.577	17261
828.716	17356
828.855	17254
828.994	17132
829.134	17083
829.273	17060
829.412	16984
829.551	16965
829.69	17056
829.829	17098
829.968	17014
830.107	17117
830.246	17064
830.385	16972
830.524	16968
830.663	16911
830.802	16805
830.941	16668
831.08	16611
831.219	16729
831.357	16691
831.496	16858
831.635	16596
831.774	16603
831.913	16599
832.051	16466
832.19	16459
832.329	16546
832.467	16402
832.606	16356
832.744	16360
832.883	16325
833.022	16280
833.16	16325
833.299	16424
833.437	16424
833.576	16405
833.714	16405
833.852	16493
833.991	16352
834.129	16481
834.267	16538
834.406	16367
834.544	16519
834.682	16443
834.821	16402
834.959	16679
835.097	16417
835.235	16599
835.373	16512
835.511	16428
835.65	16337
835.788	16451
835.926	16185
836.064	16109
836.202	16207
836.34	16409
836.478	16405
836.615	16428
836.753	16474
836.891	16478
837.029	16390
837.167	16371
837.305	16352
837.443	16272
837.58	16169
837.718	16352
837.856	16356
837.993	16284
838.131	16276
838.269	16074
838.406	16226
838.544	16120
838.681	16010
838.819	16021
838.956	15846
839.094	15778
839.231	15747
839.369	15926
839.506	16192
839.643	16093
839.781	15728
839.918	15652
840.055	15827
840.193	15804
840.33	15732
840.467	15812
840.604	15793
840.742	16150
840.879	15759
841.016	15739
841.153	15732
841.29	15922
841.427	15876
841.564	15808
841.701	15876
841.838	15785
841.975	15720
842.112	15690
842.249	15610
842.385	15526
842.522	15751
842.659	15587
842.796	15576
842.933	15591
843.069	15553
843.206	15523
843.343	15663
843.479	15614
843.616	15587
843.752	15412
843.889	15344
844.025	15526
844.162	15332
844.298	15458
844.435	15340
844.571	15287
844.708	15344
844.844	15447
844.98	15572
845.117	15519
845.253	15374
845.389	15287
845.525	15291
845.661	15272
845.798	15081
845.934	15195
846.07	15142
846.206	15230
846.342	15218
846.478	15062
846.614	14990
846.75	15001
846.886	14929
847.022	15017
847.158	14971
847.294	14967
847.429	14895
847.565	14990
847.701	15123
847.837	14762
847.972	14678
848.108	14800
848.244	14743
848.379	14598
848.515	14564
848.65	14507
848.786	14530
848.921	14552
849.057	14598
849.192	14575
849.328	14495
849.463	14602
849.598	14606
849.734	14503
849.869	14476
850.004	14259
850.14	14347
850.275	14404
850.41	14153
850.545	14263
850.68	14351
850.815	14313
850.95	14286
851.085	14537
851.22	14385
851.355	14317
851.49	14339
851.625	14332
851.76	14305
851.895	14214
852.03	14077
852.165	14252
852.299	14374
852.434	14465
852.569	14305
852.703	14267
852.838	14339
852.973	14457
853.107	14492
853.242	14343
853.376	14180
853.511	14103
853.645	14096
853.78	14309
853.914	14229
854.048	14176
854.183	14202
854.317	14149
854.451	14366
854.585	14214
854.72	14142
854.854	14298
854.988	14195
855.122	14134
855.256	14016
855.39	14134
855.524	14180
855.658	14157
855.792	14294
855.926	14248
856.06	14263
856.194	14233
856.327	14244
856.461	14046
856.595	14103
856.729	14103
856.862	14240
856.996	14240
857.13	14206
857.263	14328
857.397	14298
857.53	14180
857.664	14229
857.797	14248
857.931	14271
858.064	14259
858.197	14259
858.331	14168
858.464	14172
858.597	14084
858.731	14164
858.864	14134
858.997	14153
859.13	14176
859.263	14206
859.396	14286
859.529	14164
859.662	14142
859.795	14214
859.928	14256
860.061	14355
860.194	14442
860.327	14225
860.46	14092
860.592	14336
860.725	14320
860.858	14320
860.99	14237
861.123	14142
861.256	14100
861.388	14214
861.521	14895
861.653	14119
861.786	14035
861.918	13986
862.05	14103
862.183	14206
862.315	14244
862.447	14123
862.58	14123
862.712	13963
862.844	13921
862.976	14046
863.108	14005
863.24	14336
863.372	13803
863.504	14024
863.636	13978
863.768	13913
863.9	13974
864.032	13898
864.164	13811
864.296	14008
864.428	14107
864.559	14096
864.691	14043
864.823	14001
864.954	14043
865.086	14027
865.217	13940
865.349	13928
865.48	13963
865.612	13909
865.743	14058
865.875	13974
866.006	13871
866.137	13947
866.269	13993
866.4	13875
866.531	13871
866.662	13860
866.793	13811
866.924	13887
867.055	13963
867.186	13902
867.317	13955
867.448	13868
867.579	13921
867.71	13890
867.841	13940
867.972	13932
868.103	13856
868.233	13993
868.364	13959
868.495	13970
868.625	14164
868.756	14400
868.886	14149
869.017	14134
869.147	14267
869.278	14419
869.408	14183
869.539	14202
869.669	14358
869.799	14240
869.929	14317
870.06	14434
870.19	14473
870.32	14495
870.45	14381
870.58	14598
870.71	14678
870.84	14762
870.97	14556
871.1	14598
871.23	14804
871.36	14720
871.489	14686
871.619	14842
871.749	14826
871.879	14773
872.008	14956
872.138	14716
872.267	14762
872.397	14629
872.526	14640
872.656	14617
872.785	14686
872.915	14868
873.044	14975
873.173	14849
873.303	14902
873.432	14857
873.561	15017
873.69	14785
873.819	14883
873.948	14895
874.077	14910
874.206	14891
874.335	14872
874.464	14941
874.593	15157
874.722	15036
874.851	15184
874.979	15199
875.108	15222
875.237	15123
875.365	15066
875.494	15123
875.623	15207
875.751	15131
875.88	15112
876.008	15329
876.136	15389
876.265	15523
876.393	15720
876.521	15736
876.65	15671
876.778	15542
876.906	15507
877.034	15462
877.162	15393
877.29	15545
877.418	15561
877.546	15641
877.674	15652
877.802	15572
877.93	15637
878.058	15542
878.185	15431
878.313	15549
878.441	15469
878.568	15435
878.696	15477
878.824	15625
878.951	15614
879.079	15770
879.206	15854
879.333	15774
879.461	15751
879.588	15671
879.715	15682
879.842	15785
879.97	15667
880.097	15492
880.224	15462
880.351	15378
880.478	15439
880.605	15336
880.732	15367
880.859	15660
880.986	15367
881.112	15416
881.239	15279
881.366	15203
881.493	15074
881.619	15074
881.746	15104
881.872	15104
881.999	15108
882.125	15009
882.252	15245
882.378	15074
882.505	15317
882.631	15112
882.757	14887
882.883	15005
883.01	14929
883.136	14895
883.262	14788
883.388	14731
883.514	14956
883.64	15028
883.766	14883
883.892	14674
884.018	14773
884.143	14910
884.269	14918
884.395	14712
884.52	14674
884.646	14693
884.772	14556
884.897	14465
885.023	14594
885.148	14678
885.274	14731
885.399	14659
885.524	14636
885.65	14575
885.775	14689
885.9	14575
886.025	14781
886.15	14598
886.275	14568
886.4	14507
886.525	14606
886.65	14545
886.775	14495
886.9	14689
887.025	14861
887.149	14564
887.274	14556
887.399	14328
887.523	14450
887.648	14423
887.773	14415
887.897	14530
888.021	14457
888.146	14248
888.27	14473
888.395	14530
888.519	14522
888.643	14488
888.767	14415
888.891	14400
889.015	14347
889.139	14320
889.263	14248
889.387	14423
889.511	14484
889.635	14404
889.759	14263
889.883	14275
890.006	14442
890.13	14339
890.254	14191
890.377	14294
890.501	14180
890.624	14134
890.748	14210
890.871	14039
890.995	14031
891.118	13864
891.241	14020
891.364	14027
891.488	14214
891.611	13978
891.734	13955
891.857	14024
891.98	14058
892.103	14077
892.226	14123
892.349	14005
892.471	13947
892.594	13982
892.717	13951
892.839	13978
892.962	14046
893.085	14065
893.207	14024
893.33	13883
893.452	13879
893.575	14058
893.697	14031
893.819	14252
893.941	14180
894.064	14176
894.186	13928
894.308	14020
894.43	14126
894.552	14229
894.674	14206
894.796	14043
894.918	14081
895.04	13898
895.161	14145
895.283	14149
895.405	14012
895.526	14103
895.648	14084
895.769	14176
895.891	14214
896.012	14237
896.134	14294
896.255	14164
896.376	14138
896.498	14183
896.619	14336
896.74	14111
896.861	14358
896.982	14461
897.103	14549
897.224	14514
897.345	14408
897.466	14393
897.587	14465
897.708	14564
897.828	14480
897.949	14495
898.07	14370
898.19	14431
898.311	14492
898.431	14450
898.552	14526
898.672	14564
898.792	14556
898.913	14461
899.033	14556
899.153	14408
899.273	14305
899.393	14320
899.513	14457
899.633	14343
899.753	14343
899.873	14351
899.993	14328
900.113	14476
900.232	14393
900.352	14351
900.472	14358
900.591	14187
900.711	14225
900.83	14237
900.95	14450
901.069	14427
901.189	14149
901.308	13970
901.427	13909
901.546	13928
901.665	13959
901.784	14050
901.904	13814
902.023	13727
902.141	13571
902.26	13510
902.379	13575
902.498	13491
902.617	13487
902.735	13449
902.854	13480
902.973	13430
903.091	13343
903.21	13198
903.328	13164
903.446	13156
903.565	13023
903.683	13126
903.801	13050
903.919	13031
904.038	12989
904.156	12878
904.274	13000
904.392	12913
904.51	12993
904.627	12825
904.745	12852
904.863	12973
904.981	12608
905.098	12517
905.216	12612
905.334	12582
905.451	12669
905.569	12570
905.686	12608
905.803	12513
905.921	12418
906.038	12452
906.155	12486
906.272	12323
906.389	12361
906.506	12247
906.623	12133
906.74	12159
906.857	12041
906.974	12148
907.091	12289
907.208	12323
907.324	12213
907.441	12079
907.557	11901
907.674	11973
907.79	11809
907.907	11866
908.023	11992
908.139	11882
908.256	11908
908.372	11764
908.488	11798
908.604	11760
908.72	11585
908.836	11680
908.952	11729
909.068	11684
909.184	11790
909.3	11726
909.415	11771
909.531	11653
909.647	11440
909.762	11509
909.878	11482
909.993	11490
910.108	11387
910.224	11486
910.339	11444
910.454	11417
910.57	11341
910.685	11239
910.8	11501
910.915	11429
911.03	11330
911.145	11147
911.259	11216
911.374	11094
911.489	11128
911.604	11014
911.718	10930
911.833	10984
911.947	10835
912.062	10706
912.176	10904
912.291	10850
912.405	10961
912.519	11181
912.633	11151
912.748	10972
912.862	10923
912.976	10767
913.09	10725
913.204	10744
913.318	10828
913.431	10892
913.545	10824
913.659	10919
913.772	10763
913.886	10740
914	10573
914.113	10793
914.226	10752
914.34	10714
914.453	10577
914.566	10782
914.68	10618
914.793	10618
914.906	10485
915.019	10455
915.132	10421
915.245	10386
915.358	10394
915.47	10512
915.583	10443
915.696	10440
915.809	10519
915.921	10637
916.034	10363
916.146	10291
916.259	10295
916.371	10523
916.483	10402
916.595	10303
916.708	10227
916.82	10356
916.932	10287
917.044	10333
917.156	10325
917.268	10188
917.38	10238
917.491	10173
917.603	10337
917.715	10348
917.826	10325
917.938	10120
918.049	10147
918.161	10173
918.272	10405
918.384	10375
918.495	10261
918.606	10169
918.717	10029
918.828	10135
918.939	10124
919.05	10055
919.161	10166
919.272	9922
919.383	10006
919.494	10230
919.604	10375
919.715	10120
919.826	10036
919.936	10101
920.047	10196
920.157	10162
920.267	10363
920.378	10188
920.488	10185
920.598	10284
920.708	10504
920.818	10249
920.928	10265
921.038	10546
921.148	10558
921.258	10215
921.368	9987
921.477	9994
921.587	9987
921.697	9899
921.806	10021
921.916	9953
922.025	9743
922.134	9724
922.244	9743
922.353	9747
922.462	9576
922.571	9557
922.68	9473
922.789	9332
922.898	9408
923.007	9412
923.116	9500
923.224	9416
923.333	9355
923.442	9306
923.55	9370
923.659	9340
923.767	9393
923.876	9253
923.984	9340
924.092	9222
924.201	9306
924.309	9245
924.417	9313
924.525	9180
924.633	9230
924.741	10211
924.849	9154
924.956	9192
925.064	9032
925.172	8952
925.279	9020
925.387	9123
925.494	9066
925.602	9218
925.709	9123
925.816	9013
925.924	9032
926.031	9135
926.138	9097
926.245	9093
926.352	9005
926.459	9074
926.566	9233
926.673	8956
926.779	8952
926.886	8925
926.993	8773
927.099	8777
927.206	8693
927.312	8834
927.419	8880
927.525	8804
927.631	8750
927.737	8708
927.843	8644
927.95	8564
928.056	8655
928.162	8655
928.267	8686
928.373	9256
928.479	8792
928.585	8598
928.69	8568
928.796	8674
928.901	8560
929.007	8476
929.112	8621
929.218	8533
929.323	8522
929.428	8473
929.533	8667
929.638	8476
929.743	8522
929.848	8549
929.953	8469
930.058	8370
930.163	8240
930.267	8298
930.372	8400
930.477	8218
930.581	8522
930.685	8355
930.79	8275
930.894	8225
930.998	8218
931.103	8351
931.207	8001
931.311	7947
931.415	7837
931.519	7715
931.623	7693
