Data from test_V78500241_1074.txt Node
Date: Fri Mar 25 14:41:11 CST 2022
User: usil
Spectrometer: V785-0024
Trigger mode: 0
Integration Time (sec): 4.000000E-1
Scans to average: 1
Nonlinearity correction enabled: false
Boxcar width: 0
Storing dark spectrum: false
XAxis mode: Wavelengths
Number of Pixels in Spectrum: 1024
>>>>>Begin Spectral Data<<<<<
801.071	22710
801.214	22580
801.356	22504
801.499	22405
801.641	22173
801.783	22070
801.926	22204
802.068	21956
802.211	22006
802.353	21922
802.496	21823
802.638	21595
802.78	21625
802.923	21606
803.065	21370
803.208	21469
803.35	21458
803.492	21698
803.635	21591
803.777	21428
803.919	21500
804.061	21770
804.204	21481
804.346	21469
804.488	21264
804.63	21401
804.773	21344
804.915	21420
805.057	21564
805.199	21511
805.341	21599
805.483	21538
805.626	21447
805.768	21348
805.91	21359
806.052	21428
806.194	21283
806.336	21618
806.478	21488
806.62	21397
806.762	21462
806.904	21637
807.046	21934
807.188	21774
807.33	21812
807.472	21991
807.614	21812
807.756	21915
807.898	21644
808.04	21770
808.182	21751
808.324	21781
808.465	21899
808.607	22188
808.749	22322
808.891	22459
809.033	22550
809.174	22447
809.316	22249
809.458	22249
809.6	22063
809.741	22078
809.883	22010
810.025	22207
810.166	22215
810.308	22025
810.45	22044
810.591	21968
810.733	21880
810.875	21671
811.016	21511
811.158	21507
811.299	21736
811.441	21823
811.582	21861
811.724	21629
811.865	21629
812.007	21641
812.148	21595
812.29	21648
812.431	21850
812.573	21953
812.714	22010
812.855	22177
812.997	22314
813.138	22287
813.279	22398
813.421	22124
813.562	22097
813.703	21975
813.845	21831
813.986	21606
814.127	21363
814.268	21298
814.41	21256
814.551	21214
814.692	21199
814.833	21001
814.974	20971
815.115	21047
815.256	21131
815.397	20914
815.539	21017
815.68	20910
815.821	20914
815.962	20941
816.103	20876
816.244	20773
816.385	20667
816.526	20689
816.666	20385
816.807	20343
816.948	20408
817.089	20522
817.23	20408
817.371	20332
817.512	20393
817.653	20358
817.793	20218
817.934	20377
818.075	20259
818.216	20385
818.356	20214
818.497	20183
818.638	20081
818.778	20035
818.919	20020
819.06	20081
819.2	20161
819.341	20298
819.481	20195
819.622	20313
819.762	20446
819.903	20454
820.043	20358
820.184	20214
820.324	20332
820.465	20469
820.605	20294
820.746	20313
820.886	20214
821.026	20290
821.167	20278
821.307	20324
821.447	20244
821.588	20111
821.728	19890
821.868	19841
822.008	19677
822.149	19734
822.289	19727
822.429	19506
822.569	19369
822.709	19297
822.849	19255
822.99	19187
823.13	19240
823.27	19137
823.41	19072
823.55	18954
823.69	19004
823.83	19084
823.97	18894
824.11	18829
824.25	18787
824.389	18757
824.529	18802
824.669	18798
824.809	18924
824.949	18825
825.089	18848
825.228	18875
825.368	18589
825.508	18604
825.648	18578
825.787	18646
825.927	18574
826.067	18620
826.206	18555
826.346	18650
826.485	18620
826.625	18517
826.765	18673
826.904	18536
827.044	18292
827.183	18334
827.323	18152
827.462	18270
827.601	18308
827.741	18235
827.88	18258
828.02	18136
828.159	18201
828.298	18292
828.437	18178
828.577	18296
828.716	18338
828.855	18171
828.994	18064
829.134	17958
829.273	18087
829.412	17912
829.551	17942
829.69	17942
829.829	18129
829.968	18095
830.107	18125
830.246	17988
830.385	17954
830.524	17946
830.663	17847
830.802	17756
830.941	17699
831.08	17668
831.219	17756
831.357	17687
831.496	17684
831.635	17627
831.774	17604
831.913	17486
832.051	17368
832.19	17474
832.329	17410
832.467	17353
832.606	17341
832.744	17258
832.883	17315
833.022	17303
833.16	17395
833.299	17337
833.437	17345
833.576	17326
833.714	17292
833.852	17376
833.991	17459
834.129	17471
834.267	17554
834.406	17356
834.544	17532
834.682	17395
834.821	17372
834.959	17528
835.097	17360
835.235	17383
835.373	17387
835.511	17379
835.65	17273
835.788	17220
835.926	17143
836.064	17185
836.202	17140
836.34	17223
836.478	17406
836.615	17235
836.753	17326
836.891	17387
837.029	17269
837.167	17204
837.305	17254
837.443	17185
837.58	17079
837.718	17159
837.856	17208
837.993	17060
838.131	17060
838.269	17052
838.406	17018
838.544	17003
838.681	16782
838.819	16790
838.956	16683
839.094	16679
839.231	16694
839.369	16816
839.506	16999
839.643	16900
839.781	16717
839.918	16672
840.055	16782
840.193	16668
840.33	16615
840.467	16599
840.604	16645
840.742	16965
840.879	16622
841.016	16508
841.153	16596
841.29	16752
841.427	16656
841.564	16641
841.701	16596
841.838	16634
841.975	16466
842.112	16519
842.249	16443
842.385	16291
842.522	16618
842.659	16432
842.796	16440
842.933	16413
843.069	16348
843.206	16360
843.343	16455
843.479	16424
843.616	16485
843.752	16196
843.889	16223
844.025	16402
844.162	16196
844.298	16398
844.435	16291
844.571	16177
844.708	16219
844.844	16379
844.98	16375
845.117	16398
845.253	16162
845.389	16177
845.525	16329
845.661	16478
845.798	16462
845.934	16577
846.07	16580
846.206	16675
846.342	16656
846.478	16310
846.614	16002
846.75	15865
846.886	15831
847.022	15941
847.158	15812
847.294	15823
847.429	15873
847.565	15690
847.701	16006
847.837	15561
847.972	15496
848.108	15629
848.244	15538
848.379	15401
848.515	15313
848.65	15359
848.786	15332
848.921	15386
849.057	15485
849.192	15428
849.328	15424
849.463	15412
849.598	15363
849.734	15268
849.869	15112
850.004	15138
850.14	15233
850.275	15108
850.41	15005
850.545	15062
850.68	15074
850.815	15161
850.95	15097
851.085	15332
851.22	15249
851.355	15100
851.49	15039
851.625	15119
851.76	15081
851.895	15028
852.03	15051
852.165	15104
852.299	15108
852.434	15188
852.569	15237
852.703	15203
852.838	15211
852.973	15287
853.107	15325
853.242	14998
853.376	15024
853.511	14925
853.645	14921
853.78	15119
853.914	15017
854.048	15005
854.183	15009
854.317	15020
854.451	15131
854.585	15009
854.72	14937
854.854	15089
854.988	14941
855.122	14910
855.256	14872
855.39	14948
855.524	15074
855.658	15043
855.792	15020
855.926	15051
856.06	15047
856.194	15150
856.327	15058
856.461	14929
856.595	15005
856.729	14902
856.862	15097
856.996	14967
857.13	15123
857.263	15123
857.397	15176
857.53	15108
857.664	15013
857.797	15032
857.931	15119
858.064	14948
858.197	15150
858.331	14952
858.464	15001
858.597	14826
858.731	14979
858.864	14941
858.997	14986
859.13	15047
859.263	14998
859.396	15013
859.529	15039
859.662	14807
859.795	14914
859.928	15058
860.061	15184
860.194	15199
860.327	15020
860.46	15074
860.592	15066
860.725	15116
860.858	15142
860.99	15017
861.123	14857
861.256	14960
861.388	14937
861.521	15747
861.653	14845
861.786	14895
861.918	14823
862.05	14899
862.183	14971
862.315	14937
862.447	14960
862.58	15032
862.712	14777
862.844	14769
862.976	14796
863.108	14785
863.24	15252
863.372	14663
863.504	14712
863.636	14701
863.768	14769
863.9	14758
864.032	14727
864.164	14693
864.296	14659
864.428	14933
864.559	14845
864.691	14842
864.823	14887
864.954	14701
865.086	14769
865.217	14644
865.349	14689
865.48	14785
865.612	14754
865.743	14899
865.875	14849
866.006	14678
866.137	14705
866.269	14655
866.4	14739
866.531	14716
866.662	14606
866.793	14708
866.924	14720
867.055	14746
867.186	14636
867.317	14697
867.448	14629
867.579	14651
867.71	14575
867.841	14606
867.972	14629
868.103	14625
868.233	14746
868.364	14693
868.495	14842
868.625	14891
868.756	15055
868.886	14948
869.017	15051
869.147	15058
869.278	15165
869.408	14979
869.539	14982
869.669	15100
869.799	14967
869.929	15165
870.06	15017
870.19	15298
870.32	15344
870.45	15302
870.58	15363
870.71	15428
870.84	15439
870.97	15431
871.1	15298
871.23	15557
871.36	15591
871.489	15447
871.619	15564
871.749	15572
871.879	15553
872.008	15660
872.138	15644
872.267	15561
872.397	15355
872.526	15363
872.656	15355
872.785	15389
872.915	15584
873.044	15564
873.173	15595
873.303	15637
873.432	15717
873.561	15682
873.69	15644
873.819	15549
873.948	15713
874.077	15584
874.206	15614
874.335	15644
874.464	15789
874.593	15892
874.722	15842
874.851	15949
874.979	15880
875.108	15983
875.237	15953
875.365	15797
875.494	15888
875.623	15994
875.751	15899
875.88	16074
876.008	16071
876.136	16166
876.265	16341
876.393	16451
876.521	16489
876.65	16295
876.778	16337
876.906	16303
877.034	16356
877.162	16344
877.29	16272
877.418	16329
877.546	16253
877.674	16394
877.802	16382
877.93	16341
878.058	16325
878.185	16261
878.313	16268
878.441	16356
878.568	16097
878.696	16344
878.824	16451
878.951	16455
879.079	16649
879.206	16847
879.333	16660
879.461	16694
879.588	16653
879.715	16885
879.842	16892
879.97	16611
880.097	16485
880.224	16291
880.351	16398
880.478	16371
880.605	16261
880.732	16284
880.859	16580
880.986	16230
881.112	16276
881.239	16128
881.366	16086
881.493	16025
881.619	15869
881.746	15907
881.872	15911
881.999	15819
882.125	15865
882.252	15960
882.378	15956
882.505	16067
882.631	15819
882.757	15667
882.883	15759
883.01	15854
883.136	15663
883.262	15587
883.388	15641
883.514	15736
883.64	15838
883.766	15736
883.892	15584
884.018	15526
884.143	15660
884.269	15793
884.395	15473
884.52	15351
884.646	15507
884.772	15408
884.897	15317
885.023	15447
885.148	15561
885.274	15473
885.399	15568
885.524	15401
885.65	15408
885.775	15370
885.9	15393
886.025	15618
886.15	15507
886.275	15408
886.4	15230
886.525	15348
886.65	15310
886.775	15336
886.9	15519
887.025	15629
887.149	15420
887.274	15214
887.399	15233
887.523	15249
887.648	15207
887.773	15131
887.897	15268
888.021	15291
888.146	15199
888.27	15317
888.395	15329
888.519	15195
888.643	15386
888.767	15302
888.891	15089
889.015	15081
889.139	15074
889.263	15036
889.387	15222
889.511	15272
889.635	15214
889.759	14918
889.883	15131
890.006	15032
890.13	15146
890.254	14891
890.377	14963
890.501	14792
890.624	14807
890.748	14891
890.871	14727
890.995	14731
891.118	14583
891.241	14796
891.364	14697
891.488	14826
891.611	14674
891.734	14735
891.857	14781
891.98	14720
892.103	14804
892.226	14762
892.349	14754
892.471	14552
892.594	14743
892.717	14705
892.839	14781
892.962	14815
893.085	14762
893.207	14720
893.33	14602
893.452	14636
893.575	14686
893.697	14708
893.819	14811
893.941	14941
894.064	14826
894.186	14526
894.308	14746
894.43	14830
894.552	14857
894.674	14883
894.796	14655
894.918	14610
895.04	14792
895.161	14880
895.283	14838
895.405	14765
895.526	14785
895.648	14785
895.769	14807
895.891	14796
896.012	14967
896.134	14899
896.255	14849
896.376	14720
896.498	14960
896.619	14925
896.74	14823
896.861	14857
896.982	15214
897.103	15401
897.224	15211
897.345	15066
897.466	15066
897.587	15108
897.708	15252
897.828	15157
897.949	15055
898.07	14975
898.19	15184
898.311	15214
898.431	15154
898.552	15135
898.672	15351
898.792	15195
898.913	15256
899.033	15157
899.153	15055
899.273	14944
899.393	15039
899.513	15051
899.633	14990
899.753	15055
899.873	14937
899.993	15214
900.113	14921
900.232	15074
900.352	14990
900.472	15009
900.591	14887
900.711	14982
900.83	14857
900.95	15055
901.069	15001
901.189	14902
901.308	14663
901.427	14549
901.546	14541
901.665	14549
901.784	14526
901.904	14457
902.023	14393
902.141	14237
902.26	14119
902.379	14164
902.498	14138
902.617	14103
902.735	14138
902.854	14157
902.973	14081
903.091	13894
903.21	13841
903.328	13818
903.446	13780
903.565	13727
903.683	13719
903.801	13632
903.919	13708
904.038	13674
904.156	13411
904.274	13495
904.392	13563
904.51	13426
904.627	13476
904.745	13597
904.863	13613
904.981	13339
905.098	13221
905.216	13164
905.334	13198
905.451	13213
905.569	13198
905.686	13240
905.803	13251
905.921	13015
906.038	13091
906.155	13008
906.272	12890
906.389	12886
906.506	12817
906.623	12829
906.74	12760
906.857	12654
906.974	12589
907.091	12749
907.208	12863
907.324	12776
907.441	12654
907.557	12528
907.674	12570
907.79	12365
907.907	12414
908.023	12551
908.139	12445
908.256	12460
908.372	12395
908.488	12376
908.604	12281
908.72	12178
908.836	12235
908.952	12224
909.068	12224
909.184	12251
909.3	12266
909.415	12296
909.531	12247
909.647	12045
909.762	11999
909.878	11958
909.993	12026
910.108	11935
910.224	11855
910.339	11935
910.454	11977
910.57	11836
910.685	11786
910.8	12022
910.915	12007
911.03	11901
911.145	11760
911.259	11684
911.374	11634
911.489	11577
911.604	11554
911.718	11532
911.833	11459
911.947	11387
912.062	11284
912.176	11512
912.291	11455
912.405	11463
912.519	11596
912.633	11604
912.748	11524
912.862	11455
912.976	11322
913.09	11258
913.204	11185
913.318	11372
913.431	11459
913.545	11414
913.659	11425
913.772	11345
913.886	11242
914	11121
914.113	11223
914.226	11315
914.34	11193
914.453	11128
914.566	11277
914.68	11029
914.793	11162
914.906	10991
915.019	10877
915.132	10873
915.245	10927
915.358	10892
915.47	10942
915.583	10984
915.696	10987
915.809	11037
915.921	11071
916.034	10980
916.146	10881
916.259	10828
916.371	10927
916.483	10919
916.595	10786
916.708	10904
916.82	10919
916.932	10862
917.044	10812
917.156	10797
917.268	10660
917.38	10809
917.491	10683
917.603	10759
917.715	10782
917.826	10828
917.938	10721
918.049	10721
918.161	10672
918.272	10889
918.384	10965
918.495	10778
918.606	10588
918.717	10531
918.828	10618
918.939	10721
919.05	10470
919.161	10641
919.272	10447
919.383	10470
919.494	10672
919.604	10793
919.715	10660
919.826	10481
919.936	10523
920.047	10672
920.157	10660
920.267	10885
920.378	10675
920.488	10596
920.598	10850
920.708	10946
920.818	10801
920.928	10755
921.038	11037
921.148	10885
921.258	10706
921.368	10558
921.477	10462
921.587	10424
921.697	10333
921.806	10508
921.916	10310
922.025	10227
922.134	10200
922.244	10139
922.353	10257
922.462	10025
922.571	9937
922.68	9861
922.789	9838
922.898	9922
923.007	9717
923.116	9899
923.224	9838
923.333	9842
923.442	9686
923.55	9682
923.659	9698
923.767	9785
923.876	9751
923.984	9793
924.092	9625
924.201	9698
924.309	9686
924.417	9808
924.525	9603
924.633	9709
924.741	10577
924.849	9519
924.956	9637
925.064	9492
925.172	9408
925.279	9504
925.387	9469
925.494	9450
925.602	9652
925.709	9519
925.816	9424
925.924	9519
926.031	9644
926.138	9492
926.245	9564
926.352	9488
926.459	9564
926.566	9652
926.673	9462
926.779	9302
926.886	9367
926.993	9237
927.099	9233
927.206	9100
927.312	9192
927.419	9291
927.525	9260
927.631	9332
927.737	9199
927.843	9192
927.95	9039
928.056	9112
928.162	9127
928.267	9131
928.373	9778
928.479	9233
928.585	8998
928.69	9047
928.796	9176
928.901	9093
929.007	8891
929.112	9055
929.218	9024
929.323	8925
929.428	8883
929.533	9104
929.638	8902
929.743	9005
929.848	8979
929.953	8910
930.058	8883
930.163	8693
930.267	8735
930.372	8724
930.477	8720
930.581	8891
930.685	8796
930.79	8610
930.894	8629
930.998	8610
931.103	8762
931.207	8499
931.311	8404
931.415	8267
931.519	8206
931.623	8100
