Data from test_V78500241_1691.txt Node
Date: Fri Mar 25 14:45:29 CST 2022
User: usil
Spectrometer: V785-0024
Trigger mode: 0
Integration Time (sec): 4.000000E-1
Scans to average: 1
Nonlinearity correction enabled: false
Boxcar width: 0
Storing dark spectrum: false
XAxis mode: Wavelengths
Number of Pixels in Spectrum: 1024
>>>>>Begin Spectral Data<<<<<
801.071	22249
801.214	22116
801.356	21915
801.499	21759
801.641	21793
801.783	21644
801.926	21629
802.068	21717
802.211	21485
802.353	21386
802.496	21233
802.638	21165
802.78	20960
802.923	21017
803.065	21024
803.208	20838
803.35	20979
803.492	21085
803.635	21051
803.777	20948
803.919	21074
804.061	21397
804.204	21009
804.346	21017
804.488	20811
804.63	20990
804.773	20899
804.915	20842
805.057	20918
805.199	20910
805.341	20948
805.483	21066
805.626	20979
805.768	20967
805.91	20929
806.052	20853
806.194	20773
806.336	21093
806.478	20960
806.62	20785
806.762	20921
806.904	21036
807.046	21230
807.188	21150
807.33	21275
807.472	21332
807.614	21192
807.756	21199
807.898	21013
808.04	20986
808.182	20902
808.324	20925
808.465	20960
808.607	21241
808.749	21241
808.891	21523
809.033	21473
809.174	21401
809.316	21321
809.458	21329
809.6	21260
809.741	21351
809.883	21412
810.025	21397
810.166	21473
810.308	21507
810.45	21393
810.591	21329
810.733	21173
810.875	21112
811.016	21039
811.158	21032
811.299	21150
811.441	21264
811.582	21180
811.724	21089
811.865	21013
812.007	21039
812.148	21017
812.29	21081
812.431	21207
812.573	21306
812.714	21401
812.855	21530
812.997	21614
813.138	21778
813.279	21724
813.421	21519
813.562	21466
813.703	21241
813.845	21218
813.986	20815
814.127	20769
814.268	20568
814.41	20830
814.551	20617
814.692	20735
814.833	20640
814.974	20476
815.115	20556
815.256	20476
815.397	20396
815.539	20408
815.68	20389
815.821	20259
815.962	20347
816.103	20305
816.244	20218
816.385	20065
816.526	20031
816.666	19894
816.807	19780
816.948	19879
817.089	19856
817.23	19837
817.371	19791
817.512	19681
817.653	19677
817.793	19689
817.934	19784
818.075	19715
818.216	19742
818.356	19689
818.497	19571
818.638	19468
818.778	19400
818.919	19396
819.06	19419
819.2	19556
819.341	19609
819.481	19567
819.622	19715
819.762	19951
819.903	19993
820.043	19769
820.184	19662
820.324	19757
820.465	19780
820.605	19689
820.746	19814
820.886	19582
821.026	19666
821.167	19548
821.307	19826
821.447	19597
821.588	19529
821.728	19388
821.868	19316
822.008	19270
822.149	19168
822.289	19107
822.429	18867
822.569	18795
822.709	18776
822.849	18589
822.99	18665
823.13	18597
823.27	18448
823.41	18376
823.55	18292
823.69	18464
823.83	18517
823.97	18391
824.11	18258
824.25	18254
824.389	18281
824.529	18304
824.669	18220
824.809	18243
824.949	18346
825.089	18251
825.228	18148
825.368	18182
825.508	17992
825.648	17980
825.787	18041
825.927	18007
826.067	17908
826.206	17999
826.346	18038
826.485	17973
826.625	17942
826.765	18064
826.904	18022
827.044	17813
827.183	17752
827.323	17668
827.462	17767
827.601	17558
827.741	17668
827.88	17642
828.02	17604
828.159	17661
828.298	17653
828.437	17798
828.577	17532
828.716	17786
828.855	17638
828.994	17280
829.134	17512
829.273	17512
829.412	17345
829.551	17334
829.69	17311
829.829	17459
829.968	17448
830.107	17463
830.246	17421
830.385	17360
830.524	17303
830.663	17303
830.802	17033
830.941	17010
831.08	16953
831.219	17109
831.357	17136
831.496	17273
831.635	17056
831.774	16896
831.913	16980
832.051	16809
832.19	16725
832.329	16854
832.467	16694
832.606	16607
832.744	16793
832.883	16698
833.022	16607
833.16	16752
833.299	16790
833.437	16759
833.576	16820
833.714	16748
833.852	16744
833.991	16778
834.129	16847
834.267	16885
834.406	16873
834.544	16809
834.682	16767
834.821	16721
834.959	16889
835.097	16752
835.235	16873
835.373	16805
835.511	16858
835.65	16801
835.788	16577
835.926	16565
836.064	16447
836.202	16447
836.34	16687
836.478	16778
836.615	16672
836.753	16626
836.891	16790
837.029	16687
837.167	16535
837.305	16500
837.443	16497
837.58	16489
837.718	16611
837.856	16538
837.993	16455
838.131	16706
838.269	16462
838.406	16451
838.544	16428
838.681	16219
838.819	16169
838.956	16074
839.094	16048
839.231	16048
839.369	16215
839.506	16519
839.643	16215
839.781	16090
839.918	16139
840.055	16177
840.193	16150
840.33	16078
840.467	16029
840.604	16158
840.742	16257
840.879	16025
841.016	15960
841.153	15880
841.29	16143
841.427	16105
841.564	16109
841.701	16025
841.838	16116
841.975	16013
842.112	16025
842.249	15934
842.385	15785
842.522	15994
842.659	15827
842.796	15915
842.933	15774
843.069	15930
843.206	15686
843.343	15945
843.479	15911
843.616	15808
843.752	15652
843.889	15766
844.025	15686
844.162	15557
844.298	15781
844.435	15629
844.571	15618
844.708	15682
844.844	15793
844.98	15728
845.117	15751
845.253	15652
845.389	15481
845.525	15545
845.661	15580
845.798	15504
845.934	15507
846.07	15363
846.206	15595
846.342	15610
846.478	15348
846.614	15298
846.75	15203
846.886	15188
847.022	15275
847.158	15173
847.294	15272
847.429	15241
847.565	15104
847.701	15507
847.837	14944
847.972	14963
848.108	15058
848.244	15024
848.379	14880
848.515	14746
848.65	14804
848.786	14845
848.921	14895
849.057	14796
849.192	14876
849.328	14891
849.463	14857
849.598	14804
849.734	14701
849.869	14636
850.004	14610
850.14	14594
850.275	14480
850.41	14454
850.545	14587
850.68	14499
850.815	14606
850.95	14590
851.085	14743
851.22	14625
851.355	14568
851.49	14583
851.625	14530
851.76	14568
851.895	14473
852.03	14454
852.165	14522
852.299	14644
852.434	14697
852.569	14659
852.703	14583
852.838	14651
852.973	14746
853.107	14750
853.242	14541
853.376	14545
853.511	14415
853.645	14339
853.78	14587
853.914	14450
854.048	14351
854.183	14412
854.317	14454
854.451	14575
854.585	14469
854.72	14469
854.854	14469
854.988	14419
855.122	14393
855.256	14317
855.39	14457
855.524	14583
855.658	14400
855.792	14446
855.926	14499
856.06	14511
856.194	14571
856.327	14415
856.461	14408
856.595	14385
856.729	14389
856.862	14495
856.996	14400
857.13	14503
857.263	14484
857.397	14632
857.53	14400
857.664	14408
857.797	14511
857.931	14461
858.064	14492
858.197	14469
858.331	14385
858.464	14442
858.597	14358
858.731	14412
858.864	14393
858.997	14393
859.13	14514
859.263	14526
859.396	14522
859.529	14457
859.662	14408
859.795	14408
859.928	14385
860.061	14632
860.194	14632
860.327	14404
860.46	14507
860.592	14526
860.725	14575
860.858	14549
860.99	14412
861.123	14282
861.256	14393
861.388	14415
861.521	14994
861.653	14358
861.786	14309
861.918	14412
862.05	14339
862.183	14423
862.315	14423
862.447	14362
862.58	14431
862.712	14225
862.844	14145
862.976	14286
863.108	14259
863.24	14712
863.372	14096
863.504	14168
863.636	14286
863.768	14294
863.9	14290
864.032	14134
864.164	14157
864.296	14275
864.428	14370
864.559	14267
864.691	14271
864.823	14298
864.954	14168
865.086	14218
865.217	14278
865.349	14149
865.48	14214
865.612	14233
865.743	14324
865.875	14176
866.006	14172
866.137	14214
866.269	14126
866.4	14218
866.531	14206
866.662	14218
866.793	14134
866.924	14065
867.055	14305
867.186	14073
867.317	14214
867.448	14081
867.579	14069
867.71	14020
867.841	14123
867.972	14142
868.103	14092
868.233	14256
868.364	14210
868.495	14252
868.625	14473
868.756	14518
868.886	14374
869.017	14507
869.147	14552
869.278	14541
869.408	14442
869.539	14480
869.669	14518
869.799	14514
869.929	14556
870.06	14495
870.19	14731
870.32	14731
870.45	14739
870.58	14902
870.71	14891
870.84	14895
870.97	14883
871.1	14834
871.23	15013
871.36	15074
871.489	14826
871.619	15062
871.749	15028
871.879	14960
872.008	15184
872.138	15032
872.267	15009
872.397	14933
872.526	14842
872.656	14861
872.785	14925
872.915	15051
873.044	15150
873.173	15119
873.303	15131
873.432	15070
873.561	15222
873.69	15131
873.819	15085
873.948	15081
874.077	15070
874.206	15043
874.335	15135
874.464	15260
874.593	15412
874.722	15287
874.851	15431
874.979	15389
875.108	15447
875.237	15408
875.365	15241
875.494	15405
875.623	15526
875.751	15370
875.88	15435
876.008	15580
876.136	15595
876.265	15766
876.393	15953
876.521	15869
876.65	15918
876.778	15915
876.906	15789
877.034	15778
877.162	15808
877.29	15717
877.418	15846
877.546	15823
877.674	15926
877.802	15915
877.93	15797
878.058	15766
878.185	15713
878.313	15827
878.441	15819
878.568	15682
878.696	15717
878.824	15892
878.951	16006
879.079	15983
879.206	16139
879.333	16048
879.461	15991
879.588	16044
879.715	16029
879.842	16067
879.97	15975
880.097	15667
880.224	15720
880.351	15800
880.478	15743
880.605	15736
880.732	15724
880.859	15865
880.986	15694
881.112	15732
881.239	15648
881.366	15523
881.493	15386
881.619	15348
881.746	15332
881.872	15405
881.999	15370
882.125	15344
882.252	15386
882.378	15424
882.505	15492
882.631	15348
882.757	15218
882.883	15237
883.01	15211
883.136	15169
883.262	15043
883.388	15058
883.514	15291
883.64	15252
883.766	15104
883.892	14982
884.018	14929
884.143	15070
884.269	15241
884.395	14975
884.52	14857
884.646	14815
884.772	14785
884.897	14754
885.023	14937
885.148	14960
885.274	15047
885.399	14963
885.524	14902
885.65	14891
885.775	14925
885.9	14857
886.025	15020
886.15	14963
886.275	14876
886.4	14785
886.525	14800
886.65	14792
886.775	14918
886.9	14941
887.025	15100
887.149	14902
887.274	14648
887.399	14678
887.523	14727
887.648	14621
887.773	14598
887.897	14724
888.021	14758
888.146	14598
888.27	14762
888.395	14830
888.519	14746
888.643	14754
888.767	14804
888.891	14613
889.015	14533
889.139	14613
889.263	14514
889.387	14629
889.511	14788
889.635	14697
889.759	14560
889.883	14602
890.006	14610
890.13	14697
890.254	14507
890.377	14454
890.501	14339
890.624	14278
890.748	14396
890.871	14313
890.995	14210
891.118	14214
891.241	14244
891.364	14221
891.488	14358
891.611	14202
891.734	14237
891.857	14347
891.98	14290
892.103	14347
892.226	14275
892.349	14210
892.471	14153
892.594	14233
892.717	14332
892.839	14221
892.962	14244
893.085	14332
893.207	14244
893.33	14100
893.452	14233
893.575	14343
893.697	14271
893.819	14469
893.941	14450
894.064	14317
894.186	14183
894.308	14183
894.43	14381
894.552	14431
894.674	14480
894.796	14157
894.918	14221
895.04	14256
895.161	14396
895.283	14294
895.405	14180
895.526	14370
895.648	14252
895.769	14282
895.891	14396
896.012	14343
896.134	14442
896.255	14385
896.376	14423
896.498	14381
896.619	14488
896.74	14438
896.861	14389
896.982	14754
897.103	14880
897.224	14712
897.345	14697
897.466	14636
897.587	14701
897.708	14838
897.828	14705
897.949	14689
898.07	14613
898.19	14659
898.311	14883
898.431	14758
898.552	14777
898.672	14880
898.792	14800
898.913	14857
899.033	14705
899.153	14674
899.273	14537
899.393	14571
899.513	14655
899.633	14610
899.753	14655
899.873	14617
899.993	14644
900.113	14606
900.232	14674
900.352	14625
900.472	14541
900.591	14503
900.711	14476
900.83	14404
900.95	14670
901.069	14556
901.189	14427
901.308	14161
901.427	14103
901.546	14130
901.665	14225
901.784	14225
901.904	14065
902.023	13997
902.141	13761
902.26	13731
902.379	13795
902.498	13700
902.617	13696
902.735	13757
902.854	13757
902.973	13613
903.091	13556
903.21	13411
903.328	13556
903.446	13308
903.565	13289
903.683	13324
903.801	13221
903.919	13259
904.038	13209
904.156	13110
904.274	13217
904.392	13091
904.51	13099
904.627	13152
904.745	13072
904.863	13141
904.981	12966
905.098	12817
905.216	12833
905.334	12825
905.451	12814
905.569	12764
905.686	12844
905.803	12734
905.921	12608
906.038	12684
906.155	12662
906.272	12471
906.389	12422
906.506	12357
906.623	12346
906.74	12372
906.857	12292
906.974	12239
907.091	12506
907.208	12570
907.324	12418
907.441	12388
907.557	12167
907.674	12030
907.79	12087
907.907	12068
908.023	12106
908.139	12121
908.256	12076
908.372	12083
908.488	11988
908.604	11935
908.72	11733
908.836	11908
908.952	11817
909.068	11923
909.184	11954
909.3	11817
909.415	11843
909.531	11897
909.647	11733
909.762	11748
909.878	11665
909.993	11718
910.108	11634
910.224	11627
910.339	11668
910.454	11558
910.57	11528
910.685	11467
910.8	11676
910.915	11680
911.03	11558
911.145	11322
911.259	11376
911.374	11307
911.489	11288
911.604	11280
911.718	11128
911.833	11166
911.947	11006
912.062	10889
912.176	11083
912.291	11147
912.405	11143
912.519	11269
912.633	11395
912.748	11197
912.862	11037
912.976	10980
913.09	10892
913.204	10953
913.318	11014
913.431	11067
913.545	11025
913.659	11083
913.772	10987
913.886	10881
914	10866
914.113	11025
914.226	10987
914.34	10984
914.453	10801
914.566	10946
914.68	10812
914.793	10786
914.906	10535
915.019	10508
915.132	10527
915.245	10550
915.358	10554
915.47	10603
915.583	10611
915.696	10767
915.809	10733
915.921	10763
916.034	10580
916.146	10569
916.259	10504
916.371	10611
916.483	10626
916.595	10546
916.708	10478
916.82	10554
916.932	10558
917.044	10497
917.156	10546
917.268	10424
917.38	10413
917.491	10436
917.603	10432
917.715	10565
917.826	10599
917.938	10356
918.049	10402
918.161	10405
918.272	10546
918.384	10538
918.495	10451
918.606	10249
918.717	10215
918.828	10306
918.939	10333
919.05	10211
919.161	10352
919.272	10078
919.383	10204
919.494	10398
919.604	10603
919.715	10428
919.826	10268
919.936	10295
920.047	10367
920.157	10325
920.267	10573
920.378	10394
920.488	10337
920.598	10535
920.708	10656
920.818	10519
920.928	10432
921.038	10702
921.148	10630
921.258	10371
921.368	10227
921.477	10215
921.587	10188
921.697	10093
921.806	10249
921.916	10048
922.025	9979
922.134	9873
922.244	9873
922.353	9934
922.462	9778
922.571	9720
922.68	9656
922.789	9629
922.898	9606
923.007	9526
923.116	9625
923.224	9595
923.333	9564
923.442	9431
923.55	9424
923.659	9492
923.767	9496
923.876	9428
923.984	9462
924.092	9336
924.201	9538
924.309	9507
924.417	9439
924.525	9374
924.633	9428
924.741	10344
924.849	9161
924.956	9355
925.064	9211
925.172	9089
925.279	9169
925.387	9348
925.494	9195
925.602	9393
925.709	9336
925.816	9146
925.924	9272
926.031	9344
926.138	9180
926.245	9348
926.352	9169
926.459	9287
926.566	9283
926.673	9207
926.779	9081
926.886	9131
926.993	8982
927.099	8910
927.206	8921
927.312	8819
927.419	8948
927.525	8975
927.631	9001
927.737	8868
927.843	8842
927.95	8815
928.056	8800
928.162	8845
928.267	8906
928.373	9393
928.479	8960
928.585	8735
928.69	8857
928.796	8861
928.901	8834
929.007	8610
929.112	8708
929.218	8727
929.323	8682
929.428	8610
929.533	8819
929.638	8545
929.743	8590
929.848	8697
929.953	8629
930.058	8598
930.163	8385
930.267	8431
930.372	8461
930.477	8351
930.581	8693
930.685	8530
930.79	8328
930.894	8374
930.998	8313
931.103	8473
931.207	8210
931.311	8115
931.415	8001
931.519	7875
931.623	7826
