Data from test_V78500241_1600.txt Node
Date: Fri Mar 25 14:44:51 CST 2022
User: usil
Spectrometer: V785-0024
Trigger mode: 0
Integration Time (sec): 4.000000E-1
Scans to average: 1
Nonlinearity correction enabled: false
Boxcar width: 0
Storing dark spectrum: false
XAxis mode: Wavelengths
Number of Pixels in Spectrum: 1024
>>>>>Begin Spectral Data<<<<<
801.071	22272
801.214	22143
801.356	21915
801.499	21880
801.641	21675
801.783	21705
801.926	21713
802.068	21656
802.211	21519
802.353	21488
802.496	21287
802.638	21230
802.78	21214
802.923	21135
803.065	20986
803.208	20956
803.35	21005
803.492	21123
803.635	21195
803.777	21043
803.919	21135
804.061	21321
804.204	21116
804.346	20994
804.488	20937
804.63	20986
804.773	20880
804.915	20944
805.057	21028
805.199	21024
805.341	21077
805.483	21146
805.626	21013
805.768	20887
805.91	20963
806.052	21013
806.194	20864
806.336	21279
806.478	20864
806.62	20990
806.762	21028
806.904	21135
807.046	21378
807.188	21294
807.33	21378
807.472	21412
807.614	21233
807.756	21332
807.898	21116
808.04	21142
808.182	21077
808.324	21211
808.465	21096
808.607	21466
808.749	21462
808.891	21515
809.033	21682
809.174	21599
809.316	21355
809.458	21424
809.6	21488
809.741	21523
809.883	21466
810.025	21591
810.166	21523
810.308	21538
810.45	21435
810.591	21393
810.733	21260
810.875	21226
811.016	21241
811.158	21013
811.299	21195
811.441	21329
811.582	21321
811.724	21150
811.865	21104
812.007	21051
812.148	21119
812.29	21233
812.431	21294
812.573	21378
812.714	21530
812.855	21633
812.997	21781
813.138	21793
813.279	21701
813.421	21751
813.562	21553
813.703	21412
813.845	21283
813.986	21127
814.127	20773
814.268	20708
814.41	20727
814.551	20765
814.692	20754
814.833	20670
814.974	20693
815.115	20549
815.256	20613
815.397	20659
815.539	20602
815.68	20377
815.821	20370
815.962	20358
816.103	20461
816.244	20130
816.385	20024
816.526	20176
816.666	20008
816.807	19868
816.948	19932
817.089	19883
817.23	19959
817.371	19879
817.512	19894
817.653	19909
817.793	19833
817.934	19757
818.075	19906
818.216	19769
818.356	19769
818.497	19567
818.638	19495
818.778	19441
818.919	19635
819.06	19575
819.2	19571
819.341	19693
819.481	19841
819.622	19803
819.762	20065
819.903	19997
820.043	19864
820.184	19837
820.324	19841
820.465	19921
820.605	19890
820.746	19875
820.886	19811
821.026	19822
821.167	19776
821.307	19776
821.447	19765
821.588	19704
821.728	19559
821.868	19430
822.008	19247
822.149	19221
822.289	19183
822.429	18924
822.569	18977
822.709	18932
822.849	18692
822.99	18707
823.13	18852
823.27	18760
823.41	18475
823.55	18536
823.69	18525
823.83	18513
823.97	18414
824.11	18372
824.25	18247
824.389	18384
824.529	18399
824.669	18384
824.809	18395
824.949	18502
825.089	18369
825.228	18429
825.368	18136
825.508	18129
825.648	18209
825.787	18144
825.927	18167
826.067	18007
826.206	18087
826.346	18095
826.485	18144
826.625	18034
826.765	18281
826.904	18121
827.044	17969
827.183	17866
827.323	17805
827.462	17821
827.601	17745
827.741	17756
827.88	17828
828.02	17684
828.159	17726
828.298	17767
828.437	17946
828.577	17798
828.716	18041
828.855	17687
828.994	17474
829.134	17532
829.273	17600
829.412	17471
829.551	17566
829.69	17596
829.829	17520
829.968	17600
830.107	17490
830.246	17543
830.385	17402
830.524	17417
830.663	17410
830.802	17353
830.941	17136
831.08	17121
831.219	17162
831.357	17220
831.496	17273
831.635	17170
831.774	17090
831.913	17064
832.051	16839
832.19	16835
832.329	17041
832.467	16854
832.606	16710
832.744	16812
832.883	16801
833.022	16786
833.16	16820
833.299	16858
833.437	16968
833.576	16889
833.714	16881
833.852	16968
833.991	16930
834.129	16831
834.267	16991
834.406	16717
834.544	16828
834.682	16942
834.821	16809
834.959	17075
835.097	16850
835.235	16911
835.373	16896
835.511	16930
835.65	16801
835.788	16805
835.926	16694
836.064	16599
836.202	16603
836.34	16816
836.478	16961
836.615	16805
836.753	16740
836.891	16889
837.029	16820
837.167	16668
837.305	16713
837.443	16634
837.58	16546
837.718	16645
837.856	16622
837.993	16588
838.131	16683
838.269	16569
838.406	16569
838.544	16402
838.681	16409
838.819	16246
838.956	16109
839.094	16097
839.231	16253
839.369	16333
839.506	16607
839.643	16402
839.781	16177
839.918	16162
840.055	16181
840.193	16230
840.33	16097
840.467	16215
840.604	16158
840.742	16348
840.879	15994
841.016	16090
841.153	16101
841.29	16257
841.427	16154
841.564	16204
841.701	16246
841.838	16131
841.975	16105
842.112	16128
842.249	15945
842.385	15865
842.522	16154
842.659	15956
842.796	15739
842.933	15945
843.069	15915
843.206	15895
843.343	15960
843.479	15956
843.616	16017
843.752	15804
843.889	15698
844.025	15854
844.162	15675
844.298	15895
844.435	15637
844.571	15671
844.708	15800
844.844	15930
844.98	15831
845.117	15861
845.253	15720
845.389	15587
845.525	15671
845.661	15667
845.798	15606
845.934	15709
846.07	15633
846.206	15660
846.342	15736
846.478	15644
846.614	15416
846.75	15306
846.886	15321
847.022	15408
847.158	15313
847.294	15306
847.429	15336
847.565	15279
847.701	15450
847.837	15070
847.972	15074
848.108	15138
848.244	15165
848.379	15055
848.515	14883
848.65	14868
848.786	14918
848.921	14902
849.057	15036
849.192	14967
849.328	15017
849.463	14929
849.598	14895
849.734	14857
849.869	14815
850.004	14678
850.14	14735
850.275	14765
850.41	14579
850.545	14655
850.68	14632
850.815	14674
850.95	14568
851.085	14861
851.22	14796
851.355	14727
851.49	14651
851.625	14583
851.76	14659
851.895	14640
852.03	14610
852.165	14575
852.299	14701
852.434	14769
852.569	14667
852.703	14686
852.838	14716
852.973	14853
853.107	14815
853.242	14678
853.376	14560
853.511	14488
853.645	14522
853.78	14689
853.914	14560
854.048	14446
854.183	14442
854.317	14473
854.451	14610
854.585	14590
854.72	14408
854.854	14579
854.988	14408
855.122	14507
855.256	14396
855.39	14556
855.524	14575
855.658	14583
855.792	14526
855.926	14564
856.06	14518
856.194	14613
856.327	14514
856.461	14469
856.595	14488
856.729	14499
856.862	14571
856.996	14587
857.13	14590
857.263	14689
857.397	14689
857.53	14530
857.664	14659
857.797	14720
857.931	14720
858.064	14632
858.197	14606
858.331	14530
858.464	14362
858.597	14374
858.731	14564
858.864	14511
858.997	14495
859.13	14530
859.263	14587
859.396	14636
859.529	14465
859.662	14484
859.795	14473
859.928	14446
860.061	14743
860.194	14788
860.327	14518
860.46	14514
860.592	14625
860.725	14663
860.858	14617
860.99	14541
861.123	14492
861.256	14484
861.388	14522
861.521	15336
861.653	14408
861.786	14324
861.918	14400
862.05	14396
862.183	14480
862.315	14556
862.447	14579
862.58	14556
862.712	14214
862.844	14172
862.976	14347
863.108	14298
863.24	14712
863.372	14123
863.504	14328
863.636	14305
863.768	14377
863.9	14351
864.032	14221
864.164	14244
864.296	14377
864.428	14495
864.559	14362
864.691	14358
864.823	14343
864.954	14286
865.086	14355
865.217	14324
865.349	14237
865.48	14339
865.612	14244
865.743	14366
865.875	14320
866.006	14256
866.137	14244
866.269	14218
866.4	14275
866.531	14271
866.662	14225
866.793	14214
866.924	14191
867.055	14309
867.186	14210
867.317	14252
867.448	14237
867.579	14225
867.71	14210
867.841	14107
867.972	14271
868.103	14248
868.233	14221
868.364	14172
868.495	14366
868.625	14450
868.756	14598
868.886	14396
869.017	14552
869.147	14583
869.278	14705
869.408	14655
869.539	14469
869.669	14579
869.799	14583
869.929	14693
870.06	14682
870.19	14914
870.32	14785
870.45	14849
870.58	14948
870.71	15058
870.84	14990
870.97	14956
871.1	14876
871.23	15081
871.36	15024
871.489	15062
871.619	15058
871.749	15127
871.879	15188
872.008	15241
872.138	15233
872.267	15165
872.397	14979
872.526	15051
872.656	14941
872.785	14990
872.915	15207
873.044	15199
873.173	15089
873.303	15218
873.432	15146
873.561	15188
873.69	15150
873.819	15093
873.948	15256
874.077	15207
874.206	15119
874.335	15245
874.464	15291
874.593	15553
874.722	15405
874.851	15447
874.979	15545
875.108	15549
875.237	15397
875.365	15370
875.494	15462
875.623	15568
875.751	15424
875.88	15515
876.008	15709
876.136	15671
876.265	15831
876.393	15972
876.521	16021
876.65	15972
876.778	15869
876.906	15884
877.034	15770
877.162	15846
877.29	15846
877.418	16010
877.546	15812
877.674	15865
877.802	15884
877.93	15968
878.058	15793
878.185	15724
878.313	15880
878.441	15918
878.568	15724
878.696	15739
878.824	15861
878.951	15975
879.079	16124
879.206	16173
879.333	16284
879.461	15918
879.588	16101
879.715	16063
879.842	16299
879.97	15926
880.097	15819
880.224	15660
880.351	15812
880.478	15759
880.605	15622
880.732	15785
880.859	16002
880.986	15827
881.112	15804
881.239	15705
881.366	15584
881.493	15435
881.619	15428
881.746	15401
881.872	15458
881.999	15420
882.125	15279
882.252	15454
882.378	15325
882.505	15561
882.631	15283
882.757	15150
882.883	15291
883.01	15298
883.136	15161
883.262	15020
883.388	15066
883.514	15291
883.64	15230
883.766	15097
883.892	14967
884.018	15024
884.143	15135
884.269	15256
884.395	14941
884.52	14883
884.646	14937
884.772	14769
884.897	14861
885.023	14933
885.148	15036
885.274	15066
885.399	15039
885.524	14990
885.65	14967
885.775	14880
885.9	14941
886.025	15081
886.15	14933
886.275	14826
886.4	14872
886.525	14880
886.65	14883
886.775	14777
886.9	14914
887.025	15104
887.149	14891
887.274	14800
887.399	14632
887.523	14834
887.648	14571
887.773	14625
887.897	14899
888.021	14857
888.146	14777
888.27	14804
888.395	14815
888.519	14842
888.643	14796
888.767	14823
888.891	14724
889.015	14587
889.139	14613
889.263	14621
889.387	14701
889.511	14731
889.635	14689
889.759	14693
889.883	14598
890.006	14610
890.13	14667
890.254	14552
890.377	14556
890.501	14396
890.624	14275
890.748	14442
890.871	14332
890.995	14248
891.118	14263
891.241	14252
891.364	14202
891.488	14442
891.611	14343
891.734	14282
891.857	14358
891.98	14362
892.103	14309
892.226	14313
892.349	14195
892.471	14206
892.594	14191
892.717	14263
892.839	14256
892.962	14286
893.085	14336
893.207	14305
893.33	14195
893.452	14240
893.575	14339
893.697	14259
893.819	14545
893.941	14465
894.064	14427
894.186	14218
894.308	14183
894.43	14328
894.552	14492
894.674	14400
894.796	14294
894.918	14351
895.04	14301
895.161	14526
895.283	14419
895.405	14229
895.526	14366
895.648	14454
895.769	14438
895.891	14415
896.012	14514
896.134	14488
896.255	14370
896.376	14412
896.498	14404
896.619	14488
896.74	14518
896.861	14568
896.982	14754
897.103	14944
897.224	14834
897.345	14636
897.466	14686
897.587	14651
897.708	14868
897.828	14819
897.949	14743
898.07	14632
898.19	14629
898.311	14883
898.431	14739
898.552	14758
898.672	14887
898.792	14906
898.913	14891
899.033	14735
899.153	14697
899.273	14526
899.393	14655
899.513	14583
899.633	14663
899.753	14724
899.873	14613
899.993	14724
900.113	14682
900.232	14617
900.352	14651
900.472	14514
900.591	14522
900.711	14552
900.83	14541
900.95	14659
901.069	14636
901.189	14533
901.308	14214
901.427	14157
901.546	14210
901.665	14313
901.784	14256
901.904	14012
902.023	14012
902.141	13887
902.26	13712
902.379	13879
902.498	13799
902.617	13651
902.735	13830
902.854	13772
902.973	13632
903.091	13518
903.21	13529
903.328	13480
903.446	13411
903.565	13350
903.683	13365
903.801	13202
903.919	13297
904.038	13350
904.156	13133
904.274	13133
904.392	13141
904.51	13072
904.627	13156
904.745	13084
904.863	13156
904.981	12890
905.098	12745
905.216	12886
905.334	12882
905.451	12810
905.569	12757
905.686	12806
905.803	12779
905.921	12654
906.038	12665
906.155	12658
906.272	12467
906.389	12578
906.506	12490
906.623	12372
906.74	12429
906.857	12277
906.974	12285
907.091	12479
907.208	12597
907.324	12429
907.441	12448
907.557	12129
907.674	12140
907.79	12095
907.907	12053
908.023	12133
908.139	12140
908.256	12121
908.372	12072
908.488	11999
908.604	11897
908.72	11866
908.836	11923
908.952	11885
909.068	11904
909.184	11935
909.3	11950
909.415	11927
909.531	11969
909.647	11657
909.762	11707
909.878	11649
909.993	11771
910.108	11642
910.224	11718
910.339	11748
910.454	11566
910.57	11589
910.685	11493
910.8	11729
910.915	11627
911.03	11543
911.145	11471
911.259	11364
911.374	11387
911.489	11246
911.604	11318
911.718	11105
911.833	11151
911.947	11037
912.062	10938
912.176	11193
912.291	11162
912.405	11113
912.519	11356
912.633	11269
912.748	11155
912.862	11212
912.976	11025
913.09	10961
913.204	10976
913.318	11140
913.431	11151
913.545	11113
913.659	11079
913.772	11010
913.886	10908
914	10839
914.113	10980
914.226	11079
914.34	10911
914.453	10828
914.566	10961
914.68	10820
914.793	10809
914.906	10771
915.019	10561
915.132	10558
915.245	10653
915.358	10630
915.47	10725
915.583	10702
915.696	10653
915.809	10771
915.921	10778
916.034	10645
916.146	10535
916.259	10546
916.371	10664
916.483	10672
916.595	10527
916.708	10565
916.82	10592
916.932	10535
917.044	10500
917.156	10558
917.268	10440
917.38	10577
917.491	10432
917.603	10542
917.715	10497
917.826	10561
917.938	10390
918.049	10440
918.161	10527
918.272	10615
918.384	10580
918.495	10542
918.606	10379
918.717	10299
918.828	10382
918.939	10337
919.05	10234
919.161	10348
919.272	10063
919.383	10249
919.494	10390
919.604	10588
919.715	10299
919.826	10314
919.936	10276
920.047	10432
920.157	10424
920.267	10535
920.378	10394
920.488	10268
920.598	10550
920.708	10706
920.818	10481
920.928	10421
921.038	10763
921.148	10687
921.258	10356
921.368	10299
921.477	10177
921.587	10143
921.697	10051
921.806	10230
921.916	10093
922.025	9918
922.134	9873
922.244	9846
922.353	9937
922.462	9804
922.571	9747
922.68	9572
922.789	9584
922.898	9584
923.007	9526
923.116	9625
923.224	9595
923.333	9625
923.442	9485
923.55	9530
923.659	9488
923.767	9572
923.876	9439
923.984	9557
924.092	9344
924.201	9488
924.309	9397
924.417	9496
924.525	9428
924.633	9370
924.741	10173
924.849	9233
924.956	9386
925.064	9226
925.172	9150
925.279	9222
925.387	9226
925.494	9195
925.602	9363
925.709	9313
925.816	9131
925.924	9253
926.031	9389
926.138	9237
926.245	9233
926.352	9192
926.459	9378
926.566	9344
926.673	9203
926.779	9070
926.886	9032
926.993	8994
927.099	8963
927.206	8895
927.312	8899
927.419	9017
927.525	8967
927.631	9005
927.737	8830
927.843	8830
927.95	8746
928.056	8800
928.162	8830
928.267	8891
928.373	9340
928.479	8918
928.585	8716
928.69	8880
928.796	8891
928.901	8735
929.007	8541
929.112	8739
929.218	8746
929.323	8670
929.428	8670
929.533	8838
929.638	8598
929.743	8621
929.848	8632
929.953	8667
930.058	8560
930.163	8366
930.267	8400
930.372	8617
930.477	8442
930.581	8640
930.685	8499
930.79	8324
930.894	8408
930.998	8389
931.103	8507
931.207	8214
931.311	8164
931.415	8027
931.519	7913
931.623	7883
