Data from test_V78500241_1043.txt Node
Date: Fri Mar 25 14:40:58 CST 2022
User: usil
Spectrometer: V785-0024
Trigger mode: 0
Integration Time (sec): 4.000000E-1
Scans to average: 1
Nonlinearity correction enabled: false
Boxcar width: 0
Storing dark spectrum: false
XAxis mode: Wavelengths
Number of Pixels in Spectrum: 1024
>>>>>Begin Spectral Data<<<<<
801.071	22908
801.214	22717
801.356	22432
801.499	22398
801.641	22363
801.783	22204
801.926	22246
802.068	22242
802.211	21994
802.353	21991
802.496	21778
802.638	21705
802.78	21720
802.923	21549
803.065	21694
803.208	21511
803.35	21603
803.492	21671
803.635	21599
803.777	21686
803.919	21705
804.061	21983
804.204	21698
804.346	21564
804.488	21367
804.63	21477
804.773	21549
804.915	21591
805.057	21675
805.199	21519
805.341	21618
805.483	21663
805.626	21705
805.768	21561
805.91	21587
806.052	21416
806.194	21389
806.336	21755
806.478	21542
806.62	21644
806.762	21751
806.904	21755
807.046	22101
807.188	21899
807.33	21922
807.472	22074
807.614	21983
807.756	22040
807.898	21888
808.04	21846
808.182	21865
808.324	22059
808.465	22249
808.607	22413
808.749	22637
808.891	22740
809.033	22949
809.174	22786
809.316	22535
809.458	22428
809.6	22341
809.741	22207
809.883	22158
810.025	22398
810.166	22192
810.308	22154
810.45	22093
810.591	22196
810.733	21922
810.875	21964
811.016	21724
811.158	21797
811.299	21964
811.441	21972
811.582	21713
811.724	21797
811.865	21679
812.007	21694
812.148	21778
812.29	21884
812.431	21926
812.573	22055
812.714	22249
812.855	22162
812.997	22310
813.138	22527
813.279	22443
813.421	22207
813.562	22215
813.703	22135
813.845	21903
813.986	21679
814.127	21351
814.268	21363
814.41	21302
814.551	21294
814.692	21306
814.833	21268
814.974	21211
815.115	21203
815.256	21116
815.397	21119
815.539	21089
815.68	21119
815.821	21032
815.962	21055
816.103	21039
816.244	20868
816.385	20727
816.526	20861
816.666	20644
816.807	20465
816.948	20412
817.089	20511
817.23	20530
817.371	20434
817.512	20537
817.653	20358
817.793	20381
817.934	20370
818.075	20465
818.216	20438
818.356	20355
818.497	20332
818.638	20111
818.778	20092
818.919	20138
819.06	20130
819.2	20278
819.341	20393
819.481	20294
819.622	20336
819.762	20560
819.903	20541
820.043	20404
820.184	20465
820.324	20469
820.465	20533
820.605	20465
820.746	20408
820.886	20324
821.026	20370
821.167	20374
821.307	20400
821.447	20362
821.588	20096
821.728	20058
821.868	19955
822.008	19795
822.149	19784
822.289	19799
822.429	19449
822.569	19540
822.709	19487
822.849	19266
822.99	19282
823.13	19339
823.27	19221
823.41	19206
823.55	18928
823.69	19099
823.83	19168
823.97	19194
824.11	18924
824.25	18852
824.389	18882
824.529	19015
824.669	18802
824.809	19027
824.949	18973
825.089	18909
825.228	18863
825.368	18806
825.508	18627
825.648	18623
825.787	18779
825.927	18730
826.067	18642
826.206	18585
826.346	18661
826.485	18650
826.625	18604
826.765	18779
826.904	18776
827.044	18471
827.183	18471
827.323	18384
827.462	18315
827.601	18464
827.741	18403
827.88	18403
828.02	18254
828.159	18304
828.298	18384
828.437	18426
828.577	18194
828.716	18570
828.855	18292
828.994	18152
829.134	18110
829.273	18148
829.412	18129
829.551	18072
829.69	18076
829.829	18155
829.968	18209
830.107	18220
830.246	18095
830.385	18110
830.524	17901
830.663	17965
830.802	17882
830.941	17771
831.08	17646
831.219	17840
831.357	17737
831.496	17973
831.635	17665
831.774	17672
831.913	17627
832.051	17577
832.19	17414
832.329	17516
832.467	17524
832.606	17391
832.744	17433
832.883	17318
833.022	17414
833.16	17379
833.299	17459
833.437	17501
833.576	17406
833.714	17406
833.852	17486
833.991	17509
834.129	17520
834.267	17547
834.406	17512
834.544	17615
834.682	17535
834.821	17501
834.959	17699
835.097	17516
835.235	17619
835.373	17387
835.511	17509
835.65	17455
835.788	17341
835.926	17220
836.064	17117
836.202	17212
836.34	17356
836.478	17433
836.615	17421
836.753	17360
836.891	17444
837.029	17455
837.167	17356
837.305	17261
837.443	17197
837.58	17189
837.718	17417
837.856	17292
837.993	17231
838.131	17204
838.269	17098
838.406	17151
838.544	17102
838.681	16919
838.819	16854
838.956	16828
839.094	16801
839.231	16809
839.369	17033
839.506	17121
839.643	17105
839.781	16835
839.918	16706
840.055	16740
840.193	16755
840.33	16740
840.467	16717
840.604	16717
840.742	17003
840.879	16618
841.016	16683
841.153	16729
841.29	16858
841.427	16782
841.564	16828
841.701	16828
841.838	16740
841.975	16660
842.112	16725
842.249	16500
842.385	16531
842.522	16767
842.659	16580
842.796	16493
842.933	16523
843.069	16478
843.206	16474
843.343	16546
843.479	16512
843.616	16535
843.752	16409
843.889	16299
844.025	16485
844.162	16409
844.298	16504
844.435	16341
844.571	16322
844.708	16405
844.844	16569
844.98	16478
845.117	16474
845.253	16333
845.389	16314
845.525	16443
845.661	16664
845.798	16596
845.934	16953
846.07	17159
846.206	17006
846.342	16934
846.478	16527
846.614	16223
846.75	16055
846.886	15915
847.022	16078
847.158	15983
847.294	15922
847.429	15964
847.565	15888
847.701	16055
847.837	15633
847.972	15606
848.108	15766
848.244	15717
848.379	15530
848.515	15412
848.65	15447
848.786	15469
848.921	15492
849.057	15485
849.192	15504
849.328	15466
849.463	15466
849.598	15523
849.734	15393
849.869	15450
850.004	15279
850.14	15283
850.275	15306
850.41	15173
850.545	15272
850.68	15249
850.815	15222
850.95	15264
851.085	15397
851.22	15275
851.355	15249
851.49	15222
851.625	15157
851.76	15241
851.895	15070
852.03	15051
852.165	15192
852.299	15233
852.434	15241
852.569	15195
852.703	15241
852.838	15355
852.973	15370
853.107	15344
853.242	15119
853.376	15089
853.511	14948
853.645	14982
853.78	15222
853.914	15211
854.048	15077
854.183	15043
854.317	15131
854.451	15325
854.585	15100
854.72	15097
854.854	15116
854.988	15039
855.122	15051
855.256	14861
855.39	15100
855.524	15146
855.658	15207
855.792	15070
855.926	15169
856.06	15108
856.194	15249
856.327	15135
856.461	15024
856.595	15077
856.729	15100
856.862	15127
856.996	15100
857.13	15100
857.263	15146
857.397	15260
857.53	15097
857.664	15226
857.797	15226
857.931	15214
858.064	15089
858.197	15146
858.331	15108
858.464	15020
858.597	15013
858.731	15108
858.864	15077
858.997	15055
859.13	15138
859.263	15211
859.396	15176
859.529	15081
859.662	15116
859.795	15017
859.928	14998
860.061	15226
860.194	15302
860.327	15024
860.46	15036
860.592	15226
860.725	15233
860.858	15108
860.99	15062
861.123	15013
861.256	14914
861.388	15154
861.521	15686
861.653	14960
861.786	14941
861.918	14899
862.05	14876
862.183	14971
862.315	15005
862.447	15089
862.58	15017
862.712	14823
862.844	14811
862.976	14861
863.108	14891
863.24	15321
863.372	14705
863.504	14834
863.636	14823
863.768	14864
863.9	14925
864.032	14804
864.164	14743
864.296	14765
864.428	14990
864.559	14899
864.691	14864
864.823	14861
864.954	14929
865.086	14902
865.217	14842
865.349	14743
865.48	14735
865.612	14902
865.743	14952
865.875	14758
866.006	14777
866.137	14826
866.269	14815
866.4	14769
866.531	14716
866.662	14636
866.793	14724
866.924	14735
867.055	14811
867.186	14754
867.317	14708
867.448	14785
867.579	14902
867.71	14701
867.841	14659
867.972	14712
868.103	14864
868.233	14830
868.364	14834
868.495	14861
868.625	15108
868.756	15127
868.886	14967
869.017	15047
869.147	15176
869.278	15249
869.408	15135
869.539	15039
869.669	15131
869.799	15222
869.929	15100
870.06	15123
870.19	15370
870.32	15401
870.45	15329
870.58	15488
870.71	15542
870.84	15519
870.97	15351
871.1	15469
871.23	15511
871.36	15667
871.489	15469
871.619	15614
871.749	15705
871.879	15701
872.008	15751
872.138	15717
872.267	15603
872.397	15447
872.526	15473
872.656	15370
872.785	15511
872.915	15717
873.044	15739
873.173	15656
873.303	15724
873.432	15739
873.561	15819
873.69	15656
873.819	15675
873.948	15797
874.077	15732
874.206	15686
874.335	15762
874.464	15915
874.593	15934
874.722	15869
874.851	16044
874.979	16048
875.108	16051
875.237	16029
875.365	15937
875.494	16029
875.623	16128
875.751	16059
875.88	16002
876.008	16196
876.136	16234
876.265	16413
876.393	16592
876.521	16508
876.65	16440
876.778	16405
876.906	16485
877.034	16386
877.162	16405
877.29	16538
877.418	16390
877.546	16500
877.674	16443
877.802	16417
877.93	16428
878.058	16375
878.185	16306
878.313	16447
878.441	16318
878.568	16371
878.696	16489
878.824	16599
878.951	16584
879.079	16831
879.206	17025
879.333	16885
879.461	16710
879.588	16919
879.715	17048
879.842	16923
879.97	16820
880.097	16386
880.224	16565
880.351	16348
880.478	16489
880.605	16382
880.732	16333
880.859	16599
880.986	16375
881.112	16337
881.239	16325
881.366	16112
881.493	16040
881.619	15915
881.746	16044
881.872	16040
881.999	16013
882.125	15956
882.252	16105
882.378	16105
882.505	16131
882.631	15975
882.757	15770
882.883	15884
883.01	15823
883.136	15907
883.262	15675
883.388	15637
883.514	15865
883.64	15869
883.766	15812
883.892	15633
884.018	15720
884.143	15899
884.269	15915
884.395	15625
884.52	15568
884.646	15625
884.772	15447
884.897	15416
885.023	15538
885.148	15584
885.274	15743
885.399	15584
885.524	15530
885.65	15538
885.775	15538
885.9	15511
886.025	15603
886.15	15644
886.275	15523
886.4	15447
886.525	15370
886.65	15454
886.775	15447
886.9	15587
887.025	15747
887.149	15511
887.274	15344
887.399	15302
887.523	15268
887.648	15157
887.773	15222
887.897	15310
888.021	15378
888.146	15313
888.27	15363
888.395	15408
888.519	15363
888.643	15401
888.767	15310
888.891	15294
889.015	15081
889.139	15165
889.263	15192
889.387	15230
889.511	15310
889.635	15420
889.759	15051
889.883	15173
890.006	15142
890.13	15249
890.254	14967
890.377	15142
890.501	14872
890.624	14941
890.748	15001
890.871	14876
890.995	14785
891.118	14769
891.241	14807
891.364	14842
891.488	14967
891.611	14800
891.734	14754
891.857	14872
891.98	14929
892.103	14876
892.226	14895
892.349	14762
892.471	14655
892.594	14819
892.717	14857
892.839	14769
892.962	14849
893.085	14849
893.207	14853
893.33	14693
893.452	14743
893.575	14895
893.697	14712
893.819	14941
893.941	14960
894.064	14899
894.186	14693
894.308	14701
894.43	14967
894.552	14971
894.674	14914
894.796	14689
894.918	14887
895.04	14849
895.161	14998
895.283	14921
895.405	14724
895.526	14800
895.648	14819
895.769	14956
895.891	14986
896.012	15001
896.134	15005
896.255	14948
896.376	14864
896.498	14914
896.619	14994
896.74	14921
896.861	15001
896.982	15310
897.103	15496
897.224	15218
897.345	15222
897.466	15165
897.587	15142
897.708	15340
897.828	15260
897.949	15214
898.07	15093
898.19	15192
898.311	15252
898.431	15256
898.552	15192
898.672	15264
898.792	15363
898.913	15351
899.033	15199
899.153	15081
899.273	14918
899.393	15028
899.513	14994
899.633	15119
899.753	15097
899.873	15009
899.993	15135
900.113	15066
900.232	15116
900.352	15150
900.472	14990
900.591	14830
900.711	14975
900.83	14864
900.95	15047
901.069	15070
901.189	14906
901.308	14693
901.427	14571
901.546	14667
901.665	14693
901.784	14625
901.904	14564
902.023	14514
902.141	14214
902.26	14126
902.379	14237
902.498	14115
902.617	14157
902.735	14157
902.854	14149
902.973	14123
903.091	13978
903.21	13879
903.328	13830
903.446	13788
903.565	13811
903.683	13788
903.801	13681
903.919	13734
904.038	13670
904.156	13582
904.274	13616
904.392	13655
904.51	13514
904.627	13559
904.745	13548
904.863	13571
904.981	13278
905.098	13289
905.216	13221
905.334	13198
905.451	13308
905.569	13137
905.686	13308
905.803	13240
905.921	13015
906.038	13141
906.155	13027
906.272	12935
906.389	12962
906.506	12787
906.623	12730
906.74	12821
906.857	12627
906.974	12753
907.091	12810
907.208	12954
907.324	12833
907.441	12772
907.557	12623
907.674	12509
907.79	12486
907.907	12494
908.023	12604
908.139	12547
908.256	12563
908.372	12483
908.488	12422
908.604	12365
908.72	12372
908.836	12418
908.952	12277
909.068	12330
909.184	12433
909.3	12407
909.415	12330
909.531	12361
909.647	12136
909.762	12079
909.878	11999
909.993	12114
910.108	12041
910.224	12045
910.339	12026
910.454	12019
910.57	11939
910.685	11821
910.8	12125
910.915	12091
911.03	11965
911.145	11802
911.259	11684
911.374	11752
911.489	11695
911.604	11771
911.718	11501
911.833	11505
911.947	11406
912.062	11414
912.176	11463
912.291	11471
912.405	11391
912.519	11638
912.633	11756
912.748	11562
912.862	11600
912.976	11311
913.09	11277
913.204	11307
913.318	11364
913.431	11474
913.545	11395
913.659	11436
913.772	11360
913.886	11235
914	11311
914.113	11368
914.226	11402
914.34	11284
914.453	11143
914.566	11356
914.68	11254
914.793	11197
914.906	10976
915.019	10984
915.132	10919
915.245	11006
915.358	10984
915.47	11003
915.583	11010
915.696	10995
915.809	11140
915.921	11159
916.034	10957
916.146	10961
916.259	10862
916.371	11041
916.483	11018
916.595	10896
916.708	10900
916.82	10892
916.932	10847
917.044	10930
917.156	10850
917.268	10843
917.38	10828
917.491	10774
917.603	10805
917.715	10850
917.826	10885
917.938	10721
918.049	10653
918.161	10809
918.272	10934
918.384	10961
918.495	10816
918.606	10714
918.717	10641
918.828	10702
918.939	10714
919.05	10531
919.161	10618
919.272	10462
919.383	10550
919.494	10706
919.604	10820
919.715	10664
919.826	10538
919.936	10679
920.047	10687
920.157	10725
920.267	10850
920.378	10717
920.488	10683
920.598	10809
920.708	10976
920.818	10839
920.928	10793
921.038	11067
921.148	10984
921.258	10702
921.368	10592
921.477	10508
921.587	10466
921.697	10310
921.806	10561
921.916	10386
922.025	10158
922.134	10139
922.244	10246
922.353	10268
922.462	10021
922.571	9991
922.68	9880
922.789	9865
922.898	9857
923.007	9857
923.116	9915
923.224	9873
923.333	9819
923.442	9812
923.55	9751
923.659	9808
923.767	9778
923.876	9724
923.984	9808
924.092	9686
924.201	9770
924.309	9800
924.417	9762
924.525	9644
924.633	9717
924.741	10573
924.849	9492
924.956	9679
925.064	9473
925.172	9462
925.279	9526
925.387	9568
925.494	9530
925.602	9690
925.709	9580
925.816	9473
925.924	9587
926.031	9701
926.138	9496
926.245	9523
926.352	9408
926.459	9564
926.566	9595
926.673	9431
926.779	9393
926.886	9351
926.993	9279
927.099	9222
927.206	9230
927.312	9169
927.419	9310
927.525	9184
927.631	9268
927.737	9108
927.843	9112
927.95	9036
928.056	9138
928.162	9169
928.267	9127
928.373	9804
928.479	9207
928.585	8971
928.69	9116
928.796	9100
928.901	9013
929.007	8849
929.112	8998
929.218	8921
929.323	8914
929.428	8918
929.533	9039
929.638	8883
929.743	8849
929.848	8952
929.953	8906
930.058	8804
930.163	8659
930.267	8701
930.372	8785
930.477	8644
930.581	9001
930.685	8743
930.79	8625
930.894	8648
930.998	8629
931.103	8735
931.207	8393
931.311	8351
931.415	8305
931.519	8157
931.623	8103
