Data from test_V78500241_237.txt Node
Date: Fri Mar 25 14:35:22 CST 2022
User: usil
Spectrometer: V785-0024
Trigger mode: 0
Integration Time (sec): 4.000000E-1
Scans to average: 1
Nonlinearity correction enabled: false
Boxcar width: 0
Storing dark spectrum: false
XAxis mode: Wavelengths
Number of Pixels in Spectrum: 1024
>>>>>Begin Spectral Data<<<<<
801.071	27663
801.214	27507
801.356	27405
801.499	27233
801.641	27173
801.783	27138
801.926	27036
802.068	27013
802.211	26895
802.353	26826
802.496	26815
802.638	26613
802.78	26594
802.923	26590
803.065	26431
803.208	26457
803.35	26545
803.492	26621
803.635	26739
803.777	26648
803.919	26697
804.061	26990
804.204	26678
804.346	26533
804.488	26450
804.63	26518
804.773	26427
804.915	26594
805.057	26644
805.199	26503
805.341	26648
805.483	26876
805.626	26617
805.768	26579
805.91	26632
806.052	26674
806.194	26609
806.336	26823
806.478	26758
806.62	26632
806.762	26823
806.904	26788
807.046	27039
807.188	26967
807.33	27131
807.472	27047
807.614	26895
807.756	26986
807.898	26956
808.04	26823
808.182	26800
808.324	26986
808.465	26880
808.607	27199
808.749	27439
808.891	27386
809.033	27576
809.174	27504
809.316	27321
809.458	27272
809.6	27161
809.741	27260
809.883	27188
810.025	27473
810.166	27416
810.308	27427
810.45	27370
810.591	27272
810.733	27096
810.875	27180
811.016	26994
811.158	26979
811.299	26971
811.441	27089
811.582	27256
811.724	27036
811.865	27017
812.007	26990
812.148	26857
812.29	26963
812.431	27066
812.573	27359
812.714	27332
812.855	27344
812.997	27526
813.138	27679
813.279	27450
813.421	27443
813.562	27405
813.703	27378
813.845	27237
813.986	26845
814.127	26705
814.268	26598
814.41	26609
814.551	26606
814.692	26629
814.833	26590
814.974	26484
815.115	26571
815.256	26351
815.397	26370
815.539	26313
815.68	26290
815.821	26275
815.962	26275
816.103	26256
816.244	26115
816.385	26107
816.526	25894
816.666	25746
816.807	25624
816.948	25879
817.089	25814
817.23	25727
817.371	25769
817.512	25742
817.653	25647
817.793	25620
817.934	25639
818.075	25609
818.216	25559
818.356	25441
818.497	25495
818.638	25301
818.778	25365
818.919	25324
819.06	25487
819.2	25518
819.341	25533
819.481	25590
819.622	25685
819.762	25818
819.903	25868
820.043	25807
820.184	25582
820.324	25616
820.465	25708
820.605	25605
820.746	25643
820.886	25441
821.026	25605
821.167	25651
821.307	25696
821.447	25502
821.588	25422
821.728	25346
821.868	25122
822.008	25008
822.149	24939
822.289	25019
822.429	24722
822.569	24707
822.709	24696
822.849	24460
822.99	24502
823.13	24448
823.27	24391
823.41	24106
823.55	24167
823.69	24216
823.83	24338
823.97	24281
824.11	23996
824.25	24003
824.389	24068
824.529	24079
824.669	23889
824.809	24159
824.949	24163
825.089	24136
825.228	24038
825.368	23893
825.508	23935
825.648	23863
825.787	23809
825.927	23904
826.067	23809
826.206	23783
826.346	23901
826.485	23840
826.625	23737
826.765	23878
826.904	23756
827.044	23524
827.183	23611
827.323	23463
827.462	23512
827.601	23459
827.741	23543
827.88	23429
828.02	23391
828.159	23512
828.298	23463
828.437	23482
828.577	23505
828.716	23577
828.855	23269
828.994	23185
829.134	23185
829.273	23220
829.412	23200
829.551	23113
829.69	23044
829.829	23197
829.968	23326
830.107	23216
830.246	23132
830.385	23022
830.524	23029
830.663	23010
830.802	22911
830.941	22721
831.08	22683
831.219	22774
831.357	22854
831.496	23079
831.635	22698
831.774	22675
831.913	22622
832.051	22459
832.19	22375
832.329	22603
832.467	22436
832.606	22360
832.744	22470
832.883	22455
833.022	22459
833.16	22375
833.299	22363
833.437	22413
833.576	22508
833.714	22432
833.852	22318
833.991	22527
834.129	22500
834.267	22504
834.406	22314
834.544	22462
834.682	22375
834.821	22489
834.959	22424
835.097	22363
835.235	22398
835.373	22424
835.511	22333
835.65	22249
835.788	22169
835.926	22200
836.064	22070
836.202	22063
836.34	22188
836.478	22333
836.615	22219
836.753	22223
836.891	22341
837.029	22192
837.167	22207
837.305	22139
837.443	22040
837.58	22036
837.718	22150
837.856	22105
837.993	22044
838.131	22029
838.269	21926
838.406	21880
838.544	21888
838.681	21713
838.819	21679
838.956	21561
839.094	21538
839.231	21606
839.369	21648
839.506	21823
839.643	21720
839.781	21428
839.918	21477
840.055	21439
840.193	21420
840.33	21367
840.467	21370
840.604	21507
840.742	21595
840.879	21222
841.016	21332
841.153	21332
841.29	21443
841.427	21420
841.564	21428
841.701	21382
841.838	21268
841.975	21184
842.112	21291
842.249	21096
842.385	21020
842.522	21272
842.659	21123
842.796	21032
842.933	21051
843.069	21104
843.206	21055
843.343	20994
843.479	21093
843.616	21066
843.752	20880
843.889	20868
844.025	21047
844.162	20804
844.298	20914
844.435	20815
844.571	20785
844.708	20868
844.844	20967
844.98	20948
845.117	20834
845.253	20743
845.389	20693
845.525	20724
845.661	20906
845.798	20853
845.934	21100
846.07	20948
846.206	21017
846.342	20952
846.478	20720
846.614	20522
846.75	20351
846.886	20377
847.022	20438
847.158	20377
847.294	20294
847.429	20332
847.565	20275
847.701	20415
847.837	19989
847.972	20111
848.108	20058
848.244	20142
848.379	19913
848.515	19803
848.65	19818
848.786	19852
848.921	19845
849.057	19963
849.192	20058
849.328	19883
849.463	19925
849.598	19845
849.734	19799
849.869	19685
850.004	19510
850.14	19662
850.275	19510
850.41	19525
850.545	19518
850.68	19647
850.815	19616
850.95	19586
851.085	19708
851.22	19639
851.355	19594
851.49	19578
851.625	19590
851.76	19540
851.895	19430
852.03	19495
852.165	19514
852.299	19647
852.434	19586
852.569	19624
852.703	19460
852.838	19723
852.973	19594
853.107	19620
853.242	19525
853.376	19499
853.511	19221
853.645	19320
853.78	19628
853.914	19354
854.048	19331
854.183	19415
854.317	19369
854.451	19537
854.585	19373
854.72	19346
854.854	19510
854.988	19388
855.122	19415
855.256	19213
855.39	19270
855.524	19578
855.658	19381
855.792	19457
855.926	19278
856.06	19407
856.194	19320
856.327	19392
856.461	19221
856.595	19388
856.729	19449
856.862	19419
856.996	19392
857.13	19407
857.263	19457
857.397	19422
857.53	19278
857.664	19217
857.797	19377
857.931	19388
858.064	19422
858.197	19384
858.331	19331
858.464	19293
858.597	19244
858.731	19388
858.864	19152
858.997	19285
859.13	19282
859.263	19320
859.396	19419
859.529	19274
859.662	19225
859.795	19190
859.928	19289
860.061	19350
860.194	19400
860.327	19396
860.46	19217
860.592	19434
860.725	19415
860.858	19343
860.99	19331
861.123	19183
861.256	19320
861.388	19316
861.521	19909
861.653	19202
861.786	19133
861.918	19228
862.05	19282
862.183	19324
862.315	19183
862.447	19392
862.58	19137
862.712	19129
862.844	19076
862.976	19118
863.108	19160
863.24	19339
863.372	18916
863.504	19080
863.636	19141
863.768	19091
863.9	18962
864.032	18920
864.164	18954
864.296	18913
864.428	19065
864.559	19050
864.691	19053
864.823	19187
864.954	19042
865.086	19004
865.217	18886
865.349	18772
865.48	18840
865.612	19023
865.743	19099
865.875	18913
866.006	18821
866.137	18890
866.269	18905
866.4	18886
866.531	18867
866.662	18757
866.793	18745
866.924	18821
867.055	18981
867.186	18890
867.317	18798
867.448	18810
867.579	18764
867.71	18741
867.841	18863
867.972	18825
868.103	18829
868.233	18833
868.364	18875
868.495	18905
868.625	18977
868.756	19228
868.886	19000
869.017	19133
869.147	19122
869.278	19274
869.408	19084
869.539	19137
869.669	19209
869.799	19015
869.929	19133
870.06	19270
870.19	19460
870.32	19285
870.45	19304
870.58	19472
870.71	19647
870.84	19514
870.97	19483
871.1	19422
871.23	19776
871.36	19780
871.489	19639
871.619	19693
871.749	19670
871.879	19655
872.008	19708
872.138	19731
872.267	19753
872.397	19620
872.526	19480
872.656	19499
872.785	19468
872.915	19712
873.044	19727
873.173	19628
873.303	19655
873.432	19788
873.561	19776
873.69	19731
873.819	19693
873.948	19731
874.077	19681
874.206	19666
874.335	19662
874.464	19951
874.593	20005
874.722	19909
874.851	19993
874.979	19989
875.108	20062
875.237	20012
875.365	19833
875.494	19887
875.623	20031
875.751	19925
875.88	19940
876.008	20183
876.136	20210
876.265	20400
876.393	20431
876.521	20427
876.65	20423
876.778	20457
876.906	20400
877.034	20351
877.162	20328
877.29	20256
877.418	20305
877.546	20305
877.674	20351
877.802	20324
877.93	20290
878.058	20404
878.185	20225
878.313	20412
878.441	20431
878.568	20225
878.696	20259
878.824	20412
878.951	20552
879.079	20609
879.206	20826
879.333	20606
879.461	20545
879.588	20655
879.715	20739
879.842	20785
879.97	20556
880.097	20347
880.224	20183
880.351	20252
880.478	20305
880.605	20275
880.732	20195
880.859	20492
880.986	20248
881.112	20176
881.239	20050
881.366	19963
881.493	20039
881.619	19788
881.746	19826
881.872	19963
881.999	19864
882.125	19780
882.252	19788
882.378	19860
882.505	19860
882.631	19681
882.757	19681
882.883	19658
883.01	19616
883.136	19495
883.262	19575
883.388	19445
883.514	19639
883.64	19571
883.766	19651
883.892	19381
884.018	19365
884.143	19438
884.269	19616
884.395	19343
884.52	19266
884.646	19244
884.772	19225
884.897	19103
885.023	19122
885.148	19320
885.274	19422
885.399	19236
885.524	19289
885.65	19160
885.775	19270
885.9	19168
886.025	19270
886.15	19202
886.275	19202
886.4	19065
886.525	19198
886.65	19114
886.775	19187
886.9	19297
887.025	19529
887.149	19133
887.274	19050
887.399	18947
887.523	18920
887.648	18989
887.773	18890
887.897	19076
888.021	19129
888.146	18878
888.27	19118
888.395	19072
888.519	18897
888.643	19057
888.767	19023
888.891	18878
889.015	18749
889.139	18772
889.263	18730
889.387	18993
889.511	18954
889.635	18863
889.759	18700
889.883	18726
890.006	18772
890.13	18795
890.254	18681
890.377	18753
890.501	18555
890.624	18399
890.748	18604
890.871	18490
890.995	18311
891.118	18327
891.241	18418
891.364	18391
891.488	18422
891.611	18327
891.734	18494
891.857	18376
891.98	18452
892.103	18353
892.226	18388
892.349	18296
892.471	18228
892.594	18228
892.717	18304
892.839	18357
892.962	18254
893.085	18448
893.207	18353
893.33	18216
893.452	18194
893.575	18270
893.697	18315
893.819	18365
893.941	18414
894.064	18437
894.186	18300
894.308	18247
894.43	18308
894.552	18509
894.674	18498
894.796	18277
894.918	18323
895.04	18304
895.161	18319
895.283	18334
895.405	18224
895.526	18258
895.648	18334
895.769	18353
895.891	18429
896.012	18380
896.134	18471
896.255	18361
896.376	18194
896.498	18437
896.619	18418
896.74	18388
896.861	18388
896.982	18821
897.103	18897
897.224	18677
897.345	18608
897.466	18555
897.587	18650
897.708	18726
897.828	18696
897.949	18536
898.07	18403
898.19	18528
898.311	18711
898.431	18540
898.552	18601
898.672	18722
898.792	18608
898.913	18547
899.033	18452
899.153	18388
899.273	18232
899.393	18369
899.513	18448
899.633	18334
899.753	18342
899.873	18388
899.993	18254
900.113	18304
900.232	18353
900.352	18296
900.472	18300
900.591	18079
900.711	18205
900.83	18235
900.95	18292
901.069	18319
901.189	18209
901.308	17904
901.427	17794
901.546	17805
901.665	17901
901.784	17847
901.904	17668
902.023	17630
902.141	17402
902.26	17376
902.379	17417
902.498	17292
902.617	17330
902.735	17284
902.854	17292
902.973	17318
903.091	16923
903.21	16942
903.328	17010
903.446	16904
903.565	16805
903.683	16763
903.801	16672
903.919	16809
904.038	16717
904.156	16668
904.274	16637
904.392	16599
904.51	16542
904.627	16577
904.745	16702
904.863	16516
904.981	16432
905.098	16226
905.216	16124
905.334	16207
905.451	16242
905.569	16158
905.686	16234
905.803	16135
905.921	16109
906.038	16158
906.155	16097
906.272	15819
906.389	15865
906.506	15838
906.623	15816
906.74	15743
906.857	15667
906.974	15652
907.091	15812
907.208	15899
907.324	15743
907.441	15663
907.557	15523
907.674	15450
907.79	15447
907.907	15420
908.023	15469
908.139	15389
908.256	15344
908.372	15374
908.488	15252
908.604	15272
908.72	15165
908.836	15195
908.952	15127
909.068	15119
909.184	15173
909.3	15214
909.415	15157
909.531	15252
909.647	14807
909.762	14902
909.878	14899
909.993	14785
910.108	14864
910.224	14864
910.339	14807
910.454	14750
910.57	14743
910.685	14530
910.8	14819
910.915	14750
911.03	14629
911.145	14564
911.259	14484
911.374	14545
911.489	14393
911.604	14374
911.718	14206
911.833	14176
911.947	14218
912.062	14054
912.176	14111
912.291	14123
912.405	14183
912.519	14339
912.633	14366
912.748	14202
912.862	14218
912.976	14005
913.09	13928
913.204	13963
913.318	14077
913.431	14153
913.545	14195
913.659	14084
913.772	14039
913.886	13811
914	13856
914.113	13875
914.226	14062
914.34	13932
914.453	13909
914.566	13967
914.68	13734
914.793	13746
914.906	13567
915.019	13499
915.132	13445
915.245	13529
915.358	13518
915.47	13552
915.583	13548
915.696	13419
915.809	13616
915.921	13647
916.034	13476
916.146	13491
916.259	13430
916.371	13548
916.483	13525
916.595	13457
916.708	13419
916.82	13377
916.932	13381
917.044	13377
917.156	13247
917.268	13297
917.38	13232
917.491	13270
917.603	13221
917.715	13358
917.826	13324
917.938	13160
918.049	13080
918.161	13118
918.272	13289
918.384	13320
918.495	13164
918.606	13038
918.717	12951
918.828	13065
918.939	12989
919.05	12840
919.161	12970
919.272	12814
919.383	12863
919.494	12996
919.604	13129
919.715	12897
919.826	12962
919.936	12878
920.047	13034
920.157	12924
920.267	13145
920.378	12993
920.488	12905
920.598	13129
920.708	13240
920.818	13126
920.928	13088
921.038	13255
921.148	13278
921.258	12882
921.368	12890
921.477	12772
921.587	12810
921.697	12544
921.806	12791
921.916	12658
922.025	12452
922.134	12388
922.244	12300
922.353	12494
922.462	12292
922.571	12201
922.68	12019
922.789	12041
922.898	12076
923.007	11980
923.116	12049
923.224	12015
923.333	11958
923.442	11965
923.55	11885
923.659	11836
923.767	11961
923.876	11756
923.984	11885
924.092	11741
924.201	11821
924.309	11863
924.417	11813
924.525	11733
924.633	11760
924.741	12620
924.849	11592
924.956	11809
925.064	11661
925.172	11471
925.279	11471
925.387	11589
925.494	11581
925.602	11760
925.709	11543
925.816	11406
925.924	11509
926.031	11608
926.138	11554
926.245	11459
926.352	11452
926.459	11577
926.566	11615
926.673	11436
926.779	11341
926.886	11379
926.993	11204
927.099	11151
927.206	11227
927.312	11109
927.419	11223
927.525	11124
927.631	11231
927.737	11083
927.843	10976
927.95	10980
928.056	11045
928.162	10984
928.267	11006
928.373	11581
928.479	11162
928.585	10778
928.69	11037
928.796	10968
928.901	10915
929.007	10710
929.112	10900
929.218	10862
929.323	10835
929.428	10752
929.533	10839
929.638	10641
929.743	10675
929.848	10725
929.953	10660
930.058	10675
930.163	10417
930.267	10466
930.372	10615
930.477	10436
930.581	10755
930.685	10485
930.79	10394
930.894	10341
930.998	10344
931.103	10440
931.207	10154
931.311	10048
931.415	9937
931.519	9793
931.623	9766
