Data from test_V78500241_2913.txt Node
Date: Fri Mar 25 14:53:59 CST 2022
User: usil
Spectrometer: V785-0024
Trigger mode: 0
Integration Time (sec): 4.000000E-1
Scans to average: 1
Nonlinearity correction enabled: false
Boxcar width: 0
Storing dark spectrum: false
XAxis mode: Wavelengths
Number of Pixels in Spectrum: 1024
>>>>>Begin Spectral Data<<<<<
801.071	22135
801.214	21915
801.356	21819
801.499	21641
801.641	21583
801.783	21313
801.926	21473
802.068	21306
802.211	21199
802.353	21355
802.496	20990
802.638	20872
802.78	20899
802.923	20800
803.065	20796
803.208	20762
803.35	20720
803.492	20891
803.635	21017
803.777	20682
803.919	20872
804.061	21009
804.204	20941
804.346	20746
804.488	20606
804.63	20663
804.773	20697
804.915	20724
805.057	20731
805.199	20644
805.341	20762
805.483	20788
805.626	20769
805.768	20697
805.91	20705
806.052	20682
806.194	20587
806.336	20773
806.478	20636
806.62	20617
806.762	20716
806.904	20838
807.046	21161
807.188	21085
807.33	21032
807.472	20956
807.614	20948
807.756	20910
807.898	20807
808.04	20731
808.182	20674
808.324	20701
808.465	20724
808.607	20941
808.749	21142
808.891	21169
809.033	21203
809.174	21039
809.316	21100
809.458	20960
809.6	20975
809.741	21188
809.883	21207
810.025	21150
810.166	21195
810.308	21298
810.45	21241
810.591	21157
810.733	20902
810.875	20902
811.016	20686
811.158	20701
811.299	20914
811.441	20895
811.582	20883
811.724	20785
811.865	20857
812.007	20674
812.148	20918
812.29	20830
812.431	20963
812.573	21222
812.714	21184
812.855	21401
812.997	21523
813.138	21549
813.279	21435
813.421	21393
813.562	21268
813.703	21127
813.845	20944
813.986	20552
814.127	20625
814.268	20286
814.41	20507
814.551	20362
814.692	20530
814.833	20305
814.974	20370
815.115	20408
815.256	20233
815.397	20191
815.539	20145
815.68	20191
815.821	19932
815.962	20084
816.103	20035
816.244	19906
816.385	19818
816.526	19818
816.666	19719
816.807	19495
816.948	19605
817.089	19635
817.23	19472
817.371	19510
817.512	19567
817.653	19460
817.793	19312
817.934	19453
818.075	19480
818.216	19426
818.356	19415
818.497	19304
818.638	19129
818.778	19194
818.919	19209
819.06	19266
819.2	19331
819.341	19438
819.481	19331
819.622	19430
819.762	19655
819.903	19674
820.043	19582
820.184	19453
820.324	19453
820.465	19491
820.605	19518
820.746	19514
820.886	19373
821.026	19487
821.167	19502
821.307	19457
821.447	19449
821.588	19331
821.728	19194
821.868	19031
822.008	18848
822.149	18795
822.289	18848
822.429	18582
822.569	18635
822.709	18506
822.849	18361
822.99	18380
823.13	18372
823.27	18407
823.41	18114
823.55	18041
823.69	18254
823.83	18186
823.97	18076
824.11	17870
824.25	17980
824.389	17927
824.529	18007
824.669	17908
824.809	17965
824.949	18224
825.089	17965
825.228	17988
825.368	17729
825.508	17771
825.648	17710
825.787	17771
825.927	17783
826.067	17718
826.206	17680
826.346	17649
826.485	17722
826.625	17642
826.765	17687
826.904	17756
827.044	17463
827.183	17501
827.323	17463
827.462	17433
827.601	17402
827.741	17406
827.88	17379
828.02	17277
828.159	17395
828.298	17368
828.437	17391
828.577	17421
828.716	17501
828.855	17395
828.994	17105
829.134	17223
829.273	17170
829.412	17178
829.551	17033
829.69	17094
829.829	17071
829.968	17231
830.107	17216
830.246	17269
830.385	17071
830.524	17048
830.663	17086
830.802	16915
830.941	16687
831.08	16752
831.219	16839
831.357	16881
831.496	16987
831.635	16812
831.774	16660
831.913	16687
832.051	16512
832.19	16535
832.329	16577
832.467	16299
832.606	16390
832.744	16367
832.883	16424
833.022	16500
833.16	16519
833.299	16508
833.437	16329
833.576	16504
833.714	16497
833.852	16462
833.991	16546
834.129	16596
834.267	16577
834.406	16516
834.544	16466
834.682	16489
834.821	16493
834.959	16736
835.097	16481
835.235	16596
835.373	16474
835.511	16500
835.65	16409
835.788	16481
835.926	16242
836.064	16215
836.202	16246
836.34	16462
836.478	16512
836.615	16333
836.753	16478
836.891	16523
837.029	16394
837.167	16341
837.305	16386
837.443	16371
837.58	16280
837.718	16413
837.856	16215
837.993	16226
838.131	16234
838.269	16230
838.406	16181
838.544	16124
838.681	16032
838.819	15956
838.956	15804
839.094	15861
839.231	15781
839.369	15899
839.506	16223
839.643	16067
839.781	15854
839.918	15812
840.055	15918
840.193	15861
840.33	15800
840.467	15861
840.604	15827
840.742	16116
840.879	15652
841.016	15690
841.153	15698
841.29	16017
841.427	15880
841.564	15873
841.701	15812
841.838	15869
841.975	15698
842.112	15736
842.249	15564
842.385	15641
842.522	15827
842.659	15580
842.796	15564
842.933	15671
843.069	15553
843.206	15500
843.343	15644
843.479	15682
843.616	15603
843.752	15336
843.889	15397
844.025	15424
844.162	15275
844.298	15504
844.435	15424
844.571	15412
844.708	15549
844.844	15542
844.98	15504
845.117	15488
845.253	15420
845.389	15386
845.525	15344
845.661	15268
845.798	15131
845.934	15241
846.07	15127
846.206	15203
846.342	15313
846.478	15256
846.614	14937
846.75	14982
846.886	15039
847.022	15039
847.158	14891
847.294	15017
847.429	14982
847.565	14921
847.701	15036
847.837	14731
847.972	14636
848.108	14716
848.244	14708
848.379	14629
848.515	14560
848.65	14537
848.786	14545
848.921	14583
849.057	14594
849.192	14583
849.328	14556
849.463	14590
849.598	14594
849.734	14396
849.869	14442
850.004	14457
850.14	14370
850.275	14351
850.41	14282
850.545	14328
850.68	14275
850.815	14332
850.95	14324
851.085	14594
851.22	14446
851.355	14358
851.49	14336
851.625	14366
851.76	14237
851.895	14221
852.03	14191
852.165	14233
852.299	14366
852.434	14442
852.569	14320
852.703	14347
852.838	14320
852.973	14526
853.107	14446
853.242	14434
853.376	14202
853.511	14100
853.645	14168
853.78	14263
853.914	14355
854.048	14187
854.183	14275
854.317	14183
854.451	14366
854.585	14210
854.72	14130
854.854	14324
854.988	14172
855.122	14218
855.256	13951
855.39	14161
855.524	14294
855.658	14317
855.792	14233
855.926	14271
856.06	14267
856.194	14275
856.327	14183
856.461	14081
856.595	14111
856.729	14149
856.862	14294
856.996	14233
857.13	14275
857.263	14301
857.397	14431
857.53	14157
857.664	14237
857.797	14275
857.931	14290
858.064	14237
858.197	14244
858.331	14153
858.464	14111
858.597	14161
858.731	14229
858.864	14103
858.997	14164
859.13	14218
859.263	14180
859.396	14267
859.529	14199
859.662	14210
859.795	14176
859.928	14248
860.061	14427
860.194	14412
860.327	14183
860.46	14199
860.592	14301
860.725	14290
860.858	14275
860.99	14202
861.123	14142
861.256	14035
861.388	14218
861.521	14895
861.653	14115
861.786	14088
861.918	14100
862.05	14088
862.183	14153
862.315	14096
862.447	14221
862.58	14115
862.712	14043
862.844	13928
862.976	14012
863.108	13959
863.24	14244
863.372	13875
863.504	13887
863.636	13997
863.768	14088
863.9	13963
864.032	13860
864.164	13932
864.296	14035
864.428	14069
864.559	14157
864.691	14103
864.823	13967
864.954	14054
865.086	13959
865.217	13928
865.349	13811
865.48	13932
865.612	14016
865.743	14046
865.875	13986
866.006	13883
866.137	13959
866.269	13879
866.4	14005
866.531	13875
866.662	13917
866.793	13959
866.924	13955
867.055	13947
867.186	13989
867.317	13871
867.448	13871
867.579	13963
867.71	13864
867.841	13856
867.972	14016
868.103	14012
868.233	13959
868.364	13940
868.495	13970
868.625	14214
868.756	14328
868.886	14062
869.017	14252
869.147	14332
869.278	14339
869.408	14244
869.539	14191
869.669	14153
869.799	14252
869.929	14351
870.06	14389
870.19	14522
870.32	14446
870.45	14583
870.58	14712
870.71	14655
870.84	14724
870.97	14587
871.1	14575
871.23	14765
871.36	14804
871.489	14629
871.619	14750
871.749	14743
871.879	14876
872.008	14914
872.138	14849
872.267	14773
872.397	14750
872.526	14590
872.656	14644
872.785	14708
872.915	14800
873.044	14937
873.173	14823
873.303	14899
873.432	14921
873.561	14902
873.69	14804
873.819	14864
873.948	14834
874.077	14826
874.206	14849
874.335	14861
874.464	15013
874.593	15165
874.722	15005
874.851	15180
874.979	15252
875.108	15294
875.237	15135
875.365	15058
875.494	15184
875.623	15100
875.751	15085
875.88	15233
876.008	15386
876.136	15325
876.265	15660
876.393	15800
876.521	15641
876.65	15698
876.778	15675
876.906	15644
877.034	15458
877.162	15618
877.29	15648
877.418	15561
877.546	15610
877.674	15682
877.802	15629
877.93	15564
878.058	15549
878.185	15504
878.313	15477
878.441	15595
878.568	15454
878.696	15519
878.824	15705
878.951	15686
879.079	15827
879.206	15880
879.333	15671
879.461	15629
879.588	15717
879.715	15774
879.842	15926
879.97	15717
880.097	15408
880.224	15306
880.351	15526
880.478	15545
880.605	15447
880.732	15488
880.859	15728
880.986	15485
881.112	15485
881.239	15317
881.366	15256
881.493	15150
881.619	15081
881.746	15077
881.872	15108
881.999	15009
882.125	15047
882.252	15192
882.378	15093
882.505	15230
882.631	15081
882.757	14963
882.883	14971
883.01	14944
883.136	14857
883.262	14785
883.388	14777
883.514	14902
883.64	15013
883.766	14868
883.892	14731
884.018	14815
884.143	14861
884.269	15039
884.395	14667
884.52	14606
884.646	14594
884.772	14518
884.897	14492
885.023	14701
885.148	14735
885.274	14792
885.399	14640
885.524	14667
885.65	14617
885.775	14606
885.9	14492
886.025	14636
886.15	14739
886.275	14526
886.4	14590
886.525	14590
886.65	14442
886.775	14438
886.9	14754
887.025	14872
887.149	14568
887.274	14400
887.399	14473
887.523	14469
887.648	14328
887.773	14324
887.897	14598
888.021	14552
888.146	14461
888.27	14564
888.395	14606
888.519	14541
888.643	14552
888.767	14461
888.891	14446
889.015	14298
889.139	14290
889.263	14305
889.387	14393
889.511	14564
889.635	14533
889.759	14195
889.883	14328
890.006	14320
890.13	14469
890.254	14252
890.377	14263
890.501	14123
890.624	14111
890.748	14244
890.871	14062
890.995	13898
891.118	13917
891.241	14012
891.364	13993
891.488	14237
891.611	14024
891.734	14069
891.857	14001
891.98	14065
892.103	14176
892.226	13955
892.349	13963
892.471	13860
892.594	13898
892.717	13970
892.839	14012
892.962	13993
893.085	14126
893.207	14126
893.33	13879
893.452	14005
893.575	14084
893.697	13890
893.819	14187
893.941	14259
894.064	14115
894.186	13978
894.308	13932
894.43	14123
894.552	14168
894.674	14168
894.796	13982
894.918	14084
895.04	14081
895.161	14065
895.283	14202
895.405	14031
895.526	14153
895.648	14050
895.769	14123
895.891	14153
896.012	14202
896.134	14210
896.255	14210
896.376	14142
896.498	14199
896.619	14271
896.74	14214
896.861	14214
896.982	14499
897.103	14750
897.224	14473
897.345	14438
897.466	14309
897.587	14484
897.708	14651
897.828	14488
897.949	14514
898.07	14362
898.19	14465
898.311	14549
898.431	14503
898.552	14545
898.672	14648
898.792	14693
898.913	14575
899.033	14434
899.153	14484
899.273	14343
899.393	14275
899.513	14412
899.633	14351
899.753	14473
899.873	14377
899.993	14495
900.113	14336
900.232	14332
900.352	14434
900.472	14259
900.591	14130
900.711	14233
900.83	14199
900.95	14374
901.069	14393
901.189	14221
901.308	14035
901.427	13871
901.546	13967
901.665	14005
901.784	13963
901.904	13837
902.023	13776
902.141	13636
902.26	13502
902.379	13639
902.498	13476
902.617	13411
902.735	13510
902.854	13537
902.973	13613
903.091	13316
903.21	13171
903.328	13198
903.446	13171
903.565	13088
903.683	13156
903.801	13000
903.919	13031
904.038	13099
904.156	12909
904.274	12924
904.392	12837
904.51	12939
904.627	12871
904.745	12924
904.863	12985
904.981	12703
905.098	12608
905.216	12574
905.334	12662
905.451	12608
905.569	12517
905.686	12635
905.803	12639
905.921	12410
906.038	12502
906.155	12467
906.272	12323
906.389	12292
906.506	12129
906.623	12186
906.74	12201
906.857	12163
906.974	12148
907.091	12277
907.208	12270
907.324	12205
907.441	12144
907.557	11969
907.674	11840
907.79	11874
907.907	11973
908.023	11977
908.139	11961
908.256	11889
908.372	11821
908.488	11779
908.604	11790
908.72	11714
908.836	11707
908.952	11627
909.068	11745
909.184	11821
909.3	11688
909.415	11927
909.531	11733
909.647	11528
909.762	11471
909.878	11372
909.993	11493
910.108	11493
910.224	11463
910.339	11581
910.454	11421
910.57	11322
910.685	11261
910.8	11623
910.915	11490
911.03	11395
911.145	11242
911.259	11280
911.374	11204
911.489	11147
911.604	11071
911.718	10908
911.833	10896
911.947	10908
912.062	10805
912.176	10957
912.291	10976
912.405	10889
912.519	11155
912.633	11212
912.748	11102
912.862	11006
912.976	10889
913.09	10828
913.204	10790
913.318	10809
913.431	11025
913.545	10965
913.659	10904
913.772	10858
913.886	10691
914	10744
914.113	10831
914.226	10889
914.34	10828
914.453	10615
914.566	10782
914.68	10634
914.793	10611
914.906	10421
915.019	10519
915.132	10440
915.245	10474
915.358	10504
915.47	10531
915.583	10516
915.696	10546
915.809	10611
915.921	10630
916.034	10451
916.146	10462
916.259	10394
916.371	10500
916.483	10481
916.595	10318
916.708	10436
916.82	10489
916.932	10299
917.044	10379
917.156	10314
917.268	10333
917.38	10318
917.491	10287
917.603	10325
917.715	10352
917.826	10402
917.938	10322
918.049	10295
918.161	10306
918.272	10417
918.384	10478
918.495	10371
918.606	10211
918.717	10131
918.828	10139
918.939	10227
919.05	10086
919.161	10173
919.272	9930
919.383	10051
919.494	10185
919.604	10360
919.715	10284
919.826	10093
919.936	10181
920.047	10272
920.157	10227
920.267	10424
920.378	10200
920.488	10169
920.598	10413
920.708	10561
920.818	10367
920.928	10314
921.038	10573
921.148	10466
921.258	10272
921.368	10211
921.477	10067
921.587	10036
921.697	9869
921.806	10150
921.916	9888
922.025	9759
922.134	9823
922.244	9743
922.353	9800
922.462	9622
922.571	9614
922.68	9553
922.789	9454
922.898	9397
923.007	9367
923.116	9553
923.224	9420
923.333	9420
923.442	9313
923.55	9344
923.659	9420
923.767	9428
923.876	9268
923.984	9424
924.092	9298
924.201	9283
924.309	9306
924.417	9351
924.525	9310
924.633	9291
924.741	10234
924.849	9127
924.956	9268
925.064	9081
925.172	8975
925.279	9077
925.387	9165
925.494	9104
925.602	9245
925.709	9150
925.816	9028
925.924	9112
926.031	9249
926.138	9131
926.245	9176
926.352	9066
926.459	9214
926.566	9245
926.673	9127
926.779	9017
926.886	8921
926.993	8804
927.099	8807
927.206	8842
927.312	8758
927.419	8838
927.525	8864
927.631	8910
927.737	8781
927.843	8758
927.95	8606
928.056	8663
928.162	8796
928.267	8819
928.373	9412
928.479	8785
928.585	8613
928.69	8762
928.796	8746
928.901	8621
929.007	8537
929.112	8682
929.218	8590
929.323	8594
929.428	8469
929.533	8678
929.638	8495
929.743	8492
929.848	8632
929.953	8587
930.058	8434
930.163	8275
930.267	8320
930.372	8396
930.477	8279
930.581	8590
930.685	8362
930.79	8240
930.894	8244
930.998	8187
931.103	8294
931.207	8035
931.311	7986
931.415	7951
931.519	7784
931.623	7799
