Data from test_V78500241_1922.txt Node
Date: Fri Mar 25 14:47:05 CST 2022
User: usil
Spectrometer: V785-0024
Trigger mode: 0
Integration Time (sec): 4.000000E-1
Scans to average: 1
Nonlinearity correction enabled: false
Boxcar width: 0
Storing dark spectrum: false
XAxis mode: Wavelengths
Number of Pixels in Spectrum: 1024
>>>>>Begin Spectral Data<<<<<
801.071	22090
801.214	21953
801.356	21679
801.499	21641
801.641	21485
801.783	21466
801.926	21496
802.068	21424
802.211	21378
802.353	21264
802.496	21123
802.638	21013
802.78	20914
802.923	20762
803.065	20826
803.208	20655
803.35	20823
803.492	20853
803.635	20929
803.777	20743
803.919	20864
804.061	21089
804.204	20864
804.346	20804
804.488	20674
804.63	20739
804.773	20686
804.915	20644
805.057	20849
805.199	20636
805.341	20838
805.483	20796
805.626	20929
805.768	20644
805.91	20697
806.052	20716
806.194	20693
806.336	20967
806.478	20644
806.62	20712
806.762	20750
806.904	20864
807.046	21028
807.188	20929
807.33	21024
807.472	21093
807.614	21020
807.756	20963
807.898	20804
808.04	20701
808.182	20796
808.324	20921
808.465	20861
808.607	20849
808.749	21024
808.891	21142
809.033	21218
809.174	21188
809.316	21032
809.458	21032
809.6	21096
809.741	21218
809.883	21116
810.025	21302
810.166	21344
810.308	21283
810.45	21135
810.591	21188
810.733	20952
810.875	20929
811.016	20800
811.158	20743
811.299	20918
811.441	20948
811.582	21001
811.724	20864
811.865	20811
812.007	20811
812.148	20788
812.29	20857
812.431	21013
812.573	21154
812.714	21188
812.855	21329
812.997	21302
813.138	21439
813.279	21447
813.421	21367
813.562	21374
813.703	21211
813.845	20944
813.986	20724
814.127	20606
814.268	20545
814.41	20560
814.551	20514
814.692	20495
814.833	20301
814.974	20324
815.115	20351
815.256	20252
815.397	20149
815.539	20180
815.68	20130
815.821	20081
815.962	20096
816.103	20103
816.244	20100
816.385	19757
816.526	19822
816.666	19647
816.807	19632
816.948	19662
817.089	19746
817.23	19571
817.371	19647
817.512	19601
817.653	19487
817.793	19525
817.934	19514
818.075	19510
818.216	19449
818.356	19476
818.497	19244
818.638	19164
818.778	19221
818.919	19263
819.06	19236
819.2	19415
819.341	19381
819.481	19468
819.622	19533
819.762	19784
819.903	19685
820.043	19655
820.184	19578
820.324	19533
820.465	19605
820.605	19514
820.746	19537
820.886	19491
821.026	19472
821.167	19453
821.307	19597
821.447	19495
821.588	19422
821.728	19217
821.868	19034
822.008	18905
822.149	18791
822.289	18871
822.429	18669
822.569	18700
822.709	18650
822.849	18517
822.99	18350
823.13	18262
823.27	18334
823.41	18258
823.55	18209
823.69	18216
823.83	18190
823.97	18190
824.11	18049
824.25	17969
824.389	18057
824.529	18049
824.669	18015
824.809	18095
824.949	18083
825.089	17973
825.228	18049
825.368	17870
825.508	17847
825.648	17893
825.787	17878
825.927	17958
826.067	17779
826.206	17767
826.346	17802
826.485	17794
826.625	17813
826.765	17863
826.904	17851
827.044	17589
827.183	17573
827.323	17444
827.462	17570
827.601	17436
827.741	17570
827.88	17421
828.02	17311
828.159	17512
828.298	17486
828.437	17528
828.577	17368
828.716	17707
828.855	17467
828.994	17322
829.134	17277
829.273	17269
829.412	17250
829.551	17204
829.69	17239
829.829	17242
829.968	17273
830.107	17143
830.246	17356
830.385	17166
830.524	17113
830.663	17052
830.802	16972
830.941	16816
831.08	16911
831.219	16987
831.357	16904
831.496	17143
831.635	16782
831.774	16801
831.913	16786
832.051	16653
832.19	16584
832.329	16615
832.467	16611
832.606	16546
832.744	16561
832.883	16580
833.022	16466
833.16	16500
833.299	16596
833.437	16565
833.576	16687
833.714	16622
833.852	16580
833.991	16645
834.129	16706
834.267	16664
834.406	16683
834.544	16713
834.682	16569
834.821	16668
834.959	16740
835.097	16668
835.235	16725
835.373	16584
835.511	16641
835.65	16565
835.788	16618
835.926	16440
836.064	16287
836.202	16421
836.34	16516
836.478	16599
836.615	16497
836.753	16603
836.891	16691
837.029	16584
837.167	16504
837.305	16489
837.443	16428
837.58	16462
837.718	16394
837.856	16478
837.993	16230
838.131	16341
838.269	16257
838.406	16421
838.544	16291
838.681	16177
838.819	16074
838.956	15945
839.094	15991
839.231	15941
839.369	16150
839.506	16207
839.643	16154
839.781	15979
839.918	15888
840.055	16097
840.193	15876
840.33	15865
840.467	15941
840.604	15987
840.742	16211
840.879	15930
841.016	15949
841.153	15915
841.29	16071
841.427	16040
841.564	16010
841.701	16021
841.838	15964
841.975	15816
842.112	15857
842.249	15797
842.385	15705
842.522	15949
842.659	15793
842.796	15797
842.933	15781
843.069	15663
843.206	15656
843.343	15816
843.479	15736
843.616	15876
843.752	15462
843.889	15447
844.025	15591
844.162	15466
844.298	15568
844.435	15488
844.571	15538
844.708	15515
844.844	15671
844.98	15724
845.117	15561
845.253	15526
845.389	15447
845.525	15584
845.661	15363
845.798	15279
845.934	15370
846.07	15367
846.206	15374
846.342	15363
846.478	15291
846.614	15173
846.75	15081
846.886	14998
847.022	15173
847.158	15131
847.294	15150
847.429	15028
847.565	15089
847.701	15192
847.837	14918
847.972	14754
848.108	14811
848.244	14906
848.379	14667
848.515	14705
848.65	14788
848.786	14678
848.921	14682
849.057	14807
849.192	14739
849.328	14788
849.463	14743
849.598	14625
849.734	14522
849.869	14480
850.004	14488
850.14	14431
850.275	14423
850.41	14434
850.545	14381
850.68	14454
850.815	14423
850.95	14396
851.085	14625
851.22	14530
851.355	14412
851.49	14488
851.625	14446
851.76	14480
851.895	14317
852.03	14400
852.165	14442
852.299	14454
852.434	14625
852.569	14442
852.703	14518
852.838	14579
852.973	14621
853.107	14625
853.242	14400
853.376	14374
853.511	14161
853.645	14298
853.78	14442
853.914	14298
854.048	14233
854.183	14294
854.317	14370
854.451	14476
854.585	14244
854.72	14210
854.854	14419
854.988	14206
855.122	14317
855.256	14149
855.39	14389
855.524	14442
855.658	14396
855.792	14393
855.926	14374
856.06	14423
856.194	14366
856.327	14374
856.461	14324
856.595	14313
856.729	14290
856.862	14484
856.996	14412
857.13	14358
857.263	14499
857.397	14454
857.53	14381
857.664	14374
857.797	14400
857.931	14488
858.064	14374
858.197	14511
858.331	14271
858.464	14320
858.597	14244
858.731	14275
858.864	14244
858.997	14389
859.13	14336
859.263	14244
859.396	14450
859.529	14305
859.662	14339
859.795	14278
859.928	14351
860.061	14499
860.194	14507
860.327	14427
860.46	14278
860.592	14400
860.725	14442
860.858	14385
860.99	14309
861.123	14271
861.256	14229
861.388	14385
861.521	15058
861.653	14206
861.786	14119
861.918	14221
862.05	14290
862.183	14415
862.315	14374
862.447	14434
862.58	14324
862.712	14138
862.844	14115
862.976	14278
863.108	14100
863.24	14473
863.372	14081
863.504	14069
863.636	14092
863.768	14115
863.9	14202
864.032	14100
864.164	14069
864.296	14259
864.428	14275
864.559	14221
864.691	14202
864.823	14157
864.954	14244
865.086	14153
865.217	14180
865.349	14031
865.48	14096
865.612	14096
865.743	14191
865.875	14145
866.006	13963
866.137	14100
866.269	14103
866.4	14149
866.531	13986
866.662	13997
866.793	14027
866.924	14046
867.055	14062
867.186	14100
867.317	14031
867.448	14005
867.579	14027
867.71	13925
867.841	13989
867.972	14130
868.103	14103
868.233	14084
868.364	14073
868.495	14168
868.625	14259
868.756	14446
868.886	14328
869.017	14317
869.147	14450
869.278	14423
869.408	14317
869.539	14427
869.669	14412
869.799	14362
869.929	14518
870.06	14423
870.19	14632
870.32	14613
870.45	14735
870.58	14758
870.71	14861
870.84	14876
870.97	14750
871.1	14754
871.23	14872
871.36	14933
871.489	14765
871.619	14994
871.749	15009
871.879	14929
872.008	15047
872.138	14914
872.267	14880
872.397	14804
872.526	14792
872.656	14765
872.785	14758
872.915	14963
873.044	15043
873.173	14918
873.303	15058
873.432	15089
873.561	15036
873.69	15100
873.819	14914
873.948	15070
874.077	14990
874.206	14887
874.335	15051
874.464	15051
874.593	15279
874.722	15184
874.851	15329
874.979	15450
875.108	15374
875.237	15211
875.365	15188
875.494	15374
875.623	15359
875.751	15264
875.88	15310
876.008	15408
876.136	15511
876.265	15717
876.393	15869
876.521	15808
876.65	15736
876.778	15713
876.906	15637
877.034	15557
877.162	15781
877.29	15606
877.418	15743
877.546	15724
877.674	15732
877.802	15709
877.93	15728
878.058	15656
878.185	15648
878.313	15766
878.441	15599
878.568	15606
878.696	15713
878.824	15770
878.951	15797
879.079	15857
879.206	16158
879.333	15918
879.461	15705
879.588	15682
879.715	15892
879.842	15934
879.97	15781
880.097	15580
880.224	15633
880.351	15606
880.478	15595
880.605	15511
880.732	15595
880.859	15888
880.986	15618
881.112	15561
881.239	15431
881.366	15317
881.493	15161
881.619	15184
881.746	15226
881.872	15176
881.999	15165
882.125	15214
882.252	15195
882.378	15268
882.505	15348
882.631	15222
882.757	15100
882.883	15146
883.01	14982
883.136	14921
883.262	14872
883.388	14872
883.514	15097
883.64	15085
883.766	15005
883.892	14830
884.018	14815
884.143	15039
884.269	15051
884.395	14868
884.52	14716
884.646	14781
884.772	14651
884.897	14678
885.023	14758
885.148	14731
885.274	14982
885.399	14727
885.524	14727
885.65	14754
885.775	14739
885.9	14773
886.025	14834
886.15	14777
886.275	14663
886.4	14670
886.525	14705
886.65	14724
886.775	14743
886.9	14952
887.025	14994
887.149	14716
887.274	14575
887.399	14511
887.523	14556
887.648	14556
887.773	14503
887.897	14632
888.021	14712
888.146	14541
888.27	14724
888.395	14651
888.519	14670
888.643	14564
888.767	14617
888.891	14499
889.015	14415
889.139	14465
889.263	14400
889.387	14514
889.511	14659
889.635	14465
889.759	14381
889.883	14431
890.006	14400
890.13	14552
890.254	14328
890.377	14381
890.501	14256
890.624	14278
890.748	14267
890.871	14172
890.995	14103
891.118	14039
891.241	14191
891.364	14157
891.488	14305
891.611	14008
891.734	14240
891.857	14244
891.98	14320
892.103	14202
892.226	14134
892.349	14130
892.471	14046
892.594	14062
892.717	14119
892.839	14073
892.962	14111
893.085	14248
893.207	14123
893.33	14065
893.452	14081
893.575	14225
893.697	14115
893.819	14244
893.941	14347
894.064	14332
894.186	14107
894.308	14096
894.43	14301
894.552	14362
894.674	14168
894.796	14187
894.918	14142
895.04	14191
895.161	14183
895.283	14233
895.405	14218
895.526	14233
895.648	14324
895.769	14263
895.891	14267
896.012	14320
896.134	14229
896.255	14267
896.376	14271
896.498	14271
896.619	14385
896.74	14309
896.861	14358
896.982	14689
897.103	14735
897.224	14674
897.345	14587
897.466	14503
897.587	14568
897.708	14724
897.828	14632
897.949	14488
898.07	14492
898.19	14606
898.311	14735
898.431	14670
898.552	14682
898.672	14758
898.792	14705
898.913	14697
899.033	14598
899.153	14590
899.273	14400
899.393	14549
899.513	14526
899.633	14507
899.753	14560
899.873	14473
899.993	14476
900.113	14499
900.232	14537
900.352	14511
900.472	14480
900.591	14301
900.711	14385
900.83	14362
900.95	14507
901.069	14511
901.189	14278
901.308	14130
901.427	13982
901.546	14016
901.665	14050
901.784	14046
901.904	13898
902.023	13902
902.141	13677
902.26	13636
902.379	13639
902.498	13590
902.617	13529
902.735	13636
902.854	13582
902.973	13563
903.091	13365
903.21	13297
903.328	13377
903.446	13289
903.565	13141
903.683	13156
903.801	13084
903.919	13129
904.038	13061
904.156	13080
904.274	13080
904.392	12970
904.51	13034
904.627	12947
904.745	13046
904.863	13088
904.981	12894
905.098	12688
905.216	12673
905.334	12707
905.451	12673
905.569	12730
905.686	12646
905.803	12719
905.921	12502
906.038	12662
906.155	12494
906.272	12365
906.389	12410
906.506	12243
906.623	12311
906.74	12254
906.857	12159
906.974	12186
907.091	12323
907.208	12441
907.324	12281
907.441	12140
907.557	12022
907.674	12079
907.79	12011
907.907	11988
908.023	12053
908.139	12057
908.256	12053
908.372	11954
908.488	11927
908.604	11824
908.72	11779
908.836	11805
908.952	11729
909.068	11805
909.184	11920
909.3	11798
909.415	11843
909.531	11756
909.647	11585
909.762	11566
909.878	11516
909.993	11600
910.108	11467
910.224	11448
910.339	11581
910.454	11398
910.57	11341
910.685	11315
910.8	11672
910.915	11493
911.03	11455
911.145	11299
911.259	11258
911.374	11284
911.489	11140
911.604	11140
911.718	11086
911.833	11018
911.947	10889
912.062	10885
912.176	11037
912.291	11003
912.405	10984
912.519	11159
912.633	11174
912.748	11075
912.862	11010
912.976	10885
913.09	10862
913.204	10843
913.318	10919
913.431	10995
913.545	11037
913.659	11006
913.772	10972
913.886	10683
914	10710
914.113	10824
914.226	10934
914.34	10889
914.453	10668
914.566	10915
914.68	10710
914.793	10721
914.906	10538
915.019	10466
915.132	10451
915.245	10512
915.358	10542
915.47	10485
915.583	10550
915.696	10508
915.809	10679
915.921	10698
916.034	10516
916.146	10459
916.259	10367
916.371	10611
916.483	10535
916.595	10436
916.708	10417
916.82	10455
916.932	10462
917.044	10390
917.156	10413
917.268	10318
917.38	10306
917.491	10348
917.603	10402
917.715	10398
917.826	10390
917.938	10253
918.049	10223
918.161	10432
918.272	10516
918.384	10504
918.495	10276
918.606	10253
918.717	10162
918.828	10284
918.939	10192
919.05	10162
919.161	10204
919.272	10082
919.383	10006
919.494	10268
919.604	10459
919.715	10268
919.826	10185
919.936	10204
920.047	10303
920.157	10257
920.267	10405
920.378	10219
920.488	10238
920.598	10421
920.708	10634
920.818	10462
920.928	10337
921.038	10561
921.148	10489
921.258	10287
921.368	10215
921.477	10086
921.587	10040
921.697	9956
921.806	10166
921.916	9987
922.025	9880
922.134	9804
922.244	9804
922.353	9850
922.462	9698
922.571	9675
922.68	9466
922.789	9504
922.898	9473
923.007	9477
923.116	9473
923.224	9462
923.333	9469
923.442	9397
923.55	9374
923.659	9416
923.767	9450
923.876	9374
923.984	9416
924.092	9306
924.201	9313
924.309	9405
924.417	9393
924.525	9310
924.633	9348
924.741	10257
924.849	9165
924.956	9310
925.064	9100
925.172	9081
925.279	9146
925.387	9127
925.494	9081
925.602	9199
925.709	9192
925.816	9112
925.924	9100
926.031	9241
926.138	9226
926.245	9199
926.352	9093
926.459	9169
926.566	9264
926.673	9097
926.779	8986
926.886	8990
926.993	8830
927.099	8800
927.206	8830
927.312	8788
927.419	8891
927.525	8868
927.631	8937
927.737	8807
927.843	8750
927.95	8701
928.056	8762
928.162	8796
928.267	8819
928.373	9416
928.479	8811
928.585	8629
928.69	8655
928.796	8739
928.901	8629
929.007	8583
929.112	8655
929.218	8697
929.323	8511
929.428	8606
929.533	8739
929.638	8488
929.743	8526
929.848	8610
929.953	8587
930.058	8473
930.163	8309
930.267	8309
930.372	8537
930.477	8271
930.581	8511
930.685	8484
930.79	8290
930.894	8233
930.998	8286
931.103	8362
931.207	8134
931.311	8058
931.415	7947
931.519	7868
931.623	7769
