Data from test_V78500241_761.txt Node
Date: Fri Mar 25 14:39:01 CST 2022
User: usil
Spectrometer: V785-0024
Trigger mode: 0
Integration Time (sec): 4.000000E-1
Scans to average: 1
Nonlinearity correction enabled: false
Boxcar width: 0
Storing dark spectrum: false
XAxis mode: Wavelengths
Number of Pixels in Spectrum: 1024
>>>>>Begin Spectral Data<<<<<
801.071	27024
801.214	26800
801.356	26613
801.499	26480
801.641	26434
801.783	26453
801.926	26412
802.068	26218
802.211	26180
802.353	26016
802.496	25947
802.638	25982
802.78	25909
802.923	25818
803.065	25685
803.208	25826
803.35	25875
803.492	25845
803.635	25947
803.777	25890
803.919	26157
804.061	26286
804.204	26031
804.346	25951
804.488	25970
804.63	26062
804.773	26054
804.915	26092
805.057	26282
805.199	26180
805.341	26408
805.483	26545
805.626	26355
805.768	26598
805.91	26644
806.052	26815
806.194	26804
806.336	27332
806.478	27252
806.62	27374
806.762	27747
806.904	28135
807.046	28664
807.188	28946
807.33	29436
807.472	30076
807.614	30589
807.756	31571
807.898	32606
808.04	34093
808.182	36239
808.324	38674
808.465	41859
808.607	45070
808.749	47973
808.891	49757
809.033	49913
809.174	48266
809.316	45466
809.458	41965
809.6	38507
809.741	35729
809.883	33641
810.025	32237
810.166	31133
810.308	30163
810.45	29463
810.591	28877
810.733	28512
810.875	28196
811.016	27800
811.158	27507
811.299	27393
811.441	27447
811.582	27329
811.724	27036
811.865	26864
812.007	26716
812.148	26712
812.29	26609
812.431	26720
812.573	26853
812.714	26842
812.855	26887
812.997	26944
813.138	27058
813.279	26811
813.421	26739
813.562	26686
813.703	26400
813.845	26358
813.986	26001
814.127	25586
814.268	25734
814.41	25655
814.551	25479
814.692	25681
814.833	25445
814.974	25377
815.115	25392
815.256	25217
815.397	25282
815.539	25194
815.68	25015
815.821	25065
815.962	25008
816.103	25015
816.244	24837
816.385	24719
816.526	24722
816.666	24486
816.807	24369
816.948	24342
817.089	24391
817.23	24452
817.371	24357
817.512	24277
817.653	24369
817.793	24213
817.934	24239
818.075	24213
818.216	24315
818.356	24262
818.497	24068
818.638	23824
818.778	23980
818.919	23988
819.06	24030
819.2	24087
819.341	24133
819.481	24228
819.622	24266
819.762	24414
819.903	24350
820.043	24266
820.184	24239
820.324	24235
820.465	24220
820.605	24011
820.746	23920
820.886	23870
821.026	23999
821.167	23946
821.307	23980
821.447	23969
821.588	23752
821.728	23638
821.868	23452
822.008	23372
822.149	23368
822.289	23220
822.429	23128
822.569	23025
822.709	22919
822.849	22790
822.99	22782
823.13	22774
823.27	22622
823.41	22561
823.55	22531
823.69	22603
823.83	22592
823.97	22474
824.11	22291
824.25	22295
824.389	22409
824.529	22519
824.669	22188
824.809	22474
824.949	22432
825.089	22394
825.228	22253
825.368	22120
825.508	22196
825.648	22036
825.787	22173
825.927	22219
826.067	21994
826.206	22040
826.346	22169
826.485	22093
826.625	21949
826.765	22204
826.904	22166
827.044	21937
827.183	21785
827.323	21701
827.462	21717
827.601	21857
827.741	21778
827.88	21663
828.02	21606
828.159	21778
828.298	21671
828.437	21724
828.577	21641
828.716	21797
828.855	21614
828.994	21412
829.134	21515
829.273	21496
829.412	21435
829.551	21321
829.69	21515
829.829	21428
829.968	21526
830.107	21473
830.246	21492
830.385	21515
830.524	21226
830.663	21348
830.802	21058
830.941	20952
831.08	20982
831.219	21116
831.357	21176
831.496	21283
831.635	21009
831.774	20960
831.913	20960
832.051	20906
832.19	20853
832.329	20853
832.467	20910
832.606	20975
832.744	20864
832.883	20956
833.022	21020
833.16	21085
833.299	21192
833.437	21294
833.576	21587
833.714	21686
833.852	21812
833.991	21987
834.129	21991
834.267	22059
834.406	21903
834.544	21972
834.682	21850
834.821	21663
834.959	21580
835.097	21329
835.235	21199
835.373	21150
835.511	21127
835.65	20952
835.788	20834
835.926	20602
836.064	20495
836.202	20473
836.34	20724
836.478	20781
836.615	20750
836.753	20530
836.891	20674
837.029	20674
837.167	20522
837.305	20526
837.443	20454
837.58	20339
837.718	20537
837.856	20495
837.993	20389
838.131	20423
838.269	20362
838.406	20286
838.544	20199
838.681	20020
838.819	19879
838.956	19814
839.094	19852
839.231	19887
839.369	19982
839.506	20199
839.643	20119
839.781	19856
839.918	19723
840.055	19826
840.193	19875
840.33	19734
840.467	19837
840.604	19826
840.742	20005
840.879	19601
841.016	19761
841.153	19719
841.29	19947
841.427	19807
841.564	19731
841.701	19902
841.838	19830
841.975	19704
842.112	19719
842.249	19670
842.385	19514
842.522	19761
842.659	19807
842.796	19586
842.933	19590
843.069	19662
843.206	19567
843.343	19715
843.479	19753
843.616	19822
843.752	19540
843.889	19658
844.025	19822
844.162	19811
844.298	19890
844.435	19944
844.571	20221
844.708	20602
844.844	21024
844.98	21272
845.117	22032
845.253	22900
845.389	24688
845.525	28519
845.661	34341
845.798	41155
845.934	46112
846.07	48121
846.206	46736
846.342	41794
846.478	35067
846.614	29143
846.75	25346
846.886	23151
847.022	21899
847.158	20899
847.294	20343
847.429	20046
847.565	19719
847.701	19852
847.837	19225
847.972	19084
848.108	19031
848.244	19053
848.379	18825
848.515	18749
848.65	18578
848.786	18692
848.921	18677
849.057	18627
849.192	18707
849.328	18623
849.463	18536
849.598	18528
849.734	18315
849.869	18433
850.004	18292
850.14	18311
850.275	18323
850.41	18205
850.545	18174
850.68	18258
850.815	18209
850.95	18171
851.085	18433
851.22	18308
851.355	18163
851.49	18262
851.625	18232
851.76	18216
851.895	18110
852.03	18224
852.165	18300
852.299	18365
852.434	18281
852.569	18270
852.703	18334
852.838	18361
852.973	18547
853.107	18448
853.242	18414
853.376	18410
853.511	18152
853.645	18311
853.78	18426
853.914	18353
854.048	18391
854.183	18350
854.317	18563
854.451	18627
854.585	18410
854.72	18494
854.854	18456
854.988	18407
855.122	18414
855.256	18235
855.39	18258
855.524	18311
855.658	18254
855.792	18319
855.926	18133
856.06	18262
856.194	18220
856.327	18110
856.461	18136
856.595	18049
856.729	18022
856.862	18106
856.996	18011
857.13	18133
857.263	18228
857.397	18178
857.53	18038
857.664	18038
857.797	18007
857.931	18163
858.064	18015
858.197	18095
858.331	18072
858.464	17950
858.597	17843
858.731	17920
858.864	17996
858.997	17863
859.13	18007
859.263	18019
859.396	18019
859.529	17988
859.662	17961
859.795	18019
859.928	17920
860.061	18171
860.194	18015
860.327	17965
860.46	17882
860.592	17996
860.725	17977
860.858	18041
860.99	17824
861.123	17802
861.256	17889
861.388	17977
861.521	18589
861.653	17802
861.786	17646
861.918	17813
862.05	17786
862.183	17790
862.315	17885
862.447	17958
862.58	17805
862.712	17691
862.844	17501
862.976	17547
863.108	17657
863.24	18144
863.372	17539
863.504	17524
863.636	17646
863.768	17570
863.9	17608
864.032	17471
864.164	17455
864.296	17566
864.428	17680
864.559	17611
864.691	17665
864.823	17585
864.954	17512
865.086	17505
865.217	17509
865.349	17459
865.48	17539
865.612	17539
865.743	17581
865.875	17490
866.006	17524
866.137	17486
866.269	17566
866.4	17573
866.531	17455
866.662	17360
866.793	17421
866.924	17463
867.055	17543
867.186	17440
867.317	17474
867.448	17345
867.579	17421
867.71	17414
867.841	17467
867.972	17467
868.103	17474
868.233	17387
868.364	17410
868.495	17543
868.625	17672
868.756	17783
868.886	17707
869.017	17646
869.147	17813
869.278	17916
869.408	17901
869.539	17661
869.669	17790
869.799	17733
869.929	17977
870.06	17836
870.19	17984
870.32	18121
870.45	18091
870.58	18144
870.71	18285
870.84	18353
870.97	18232
871.1	18220
871.23	18334
871.36	18369
871.489	18330
871.619	18365
871.749	18437
871.879	18357
872.008	18551
872.138	18536
872.267	18410
872.397	18418
872.526	18407
872.656	18319
872.785	18289
872.915	18608
873.044	18639
873.173	18646
873.303	18544
873.432	18684
873.561	18791
873.69	18764
873.819	18627
873.948	18897
874.077	18825
874.206	18814
874.335	18779
874.464	19008
874.593	19179
874.722	19076
874.851	19225
874.979	19236
875.108	19354
875.237	19289
875.365	19228
875.494	19350
875.623	19563
875.751	19331
875.88	19578
876.008	19746
876.136	19734
876.265	20058
876.393	20221
876.521	20157
876.65	20161
876.778	20237
876.906	20347
877.034	20358
877.162	20514
877.29	20355
877.418	20545
877.546	20667
877.674	20823
877.802	20887
877.93	20998
878.058	21169
878.185	21302
878.313	21732
878.441	22135
878.568	22192
878.696	22881
878.824	23798
878.951	24928
879.079	26469
879.206	28440
879.333	30544
879.461	32248
879.588	33382
879.715	33450
879.842	32438
879.97	30601
880.097	28470
880.224	26811
880.351	25658
880.478	24772
880.605	24087
880.732	23817
880.859	23790
880.986	23296
881.112	23288
881.239	23029
881.366	22752
881.493	22919
881.619	22797
881.746	22847
881.872	22767
881.999	22862
882.125	22873
882.252	23064
882.378	23162
882.505	23223
882.631	22934
882.757	22915
882.883	22961
883.01	22866
883.136	22869
883.262	22778
883.388	22645
883.514	22843
883.64	22748
883.766	22763
883.892	22752
884.018	22577
884.143	22710
884.269	22889
884.395	22588
884.52	22626
884.646	22645
884.772	22668
884.897	22577
885.023	22542
885.148	22675
885.274	22660
885.399	22481
885.524	22432
885.65	22249
885.775	22025
885.9	21972
886.025	21956
886.15	21747
886.275	21606
886.4	21344
886.525	21378
886.65	21119
886.775	20914
886.9	20967
887.025	20979
887.149	20640
887.274	20423
887.399	20320
887.523	20233
887.648	20134
887.773	20073
887.897	20161
888.021	20020
888.146	19944
888.27	19921
888.395	19890
888.519	19704
888.643	19780
888.767	19712
888.891	19605
889.015	19441
889.139	19358
889.263	19324
889.387	19384
889.511	19453
889.635	19274
889.759	19156
889.883	19145
890.006	19065
890.13	19183
890.254	18954
890.377	18996
890.501	18623
890.624	18787
890.748	18821
890.871	18707
890.995	18502
891.118	18422
891.241	18365
891.364	18422
891.488	18475
891.611	18407
891.734	18346
891.857	18441
891.98	18441
892.103	18334
892.226	18197
892.349	18178
892.471	17931
892.594	18178
892.717	18182
892.839	17939
892.962	18019
893.085	18011
893.207	17916
893.33	17809
893.452	17923
893.575	17889
893.697	17805
893.819	17954
893.941	18049
894.064	18003
894.186	17832
894.308	17687
894.43	17866
894.552	17908
894.674	17821
894.796	17665
894.918	17687
895.04	17608
895.161	17710
895.283	17680
895.405	17551
895.526	17649
895.648	17577
895.769	17535
895.891	17661
896.012	17600
896.134	17611
896.255	17577
896.376	17570
896.498	17547
896.619	17520
896.74	17585
896.861	17630
896.982	17954
897.103	17977
897.224	17809
897.345	17726
897.466	17756
897.587	17824
897.708	17840
897.828	17813
897.949	17729
898.07	17524
898.19	17672
898.311	17726
898.431	17691
898.552	17657
898.672	17687
898.792	17802
898.913	17695
899.033	17665
899.153	17547
899.273	17493
899.393	17452
899.513	17505
899.633	17573
899.753	17608
899.873	17474
899.993	17554
900.113	17414
900.232	17490
900.352	17410
900.472	17398
900.591	17261
900.711	17220
900.83	17227
900.95	17341
901.069	17330
901.189	17216
901.308	17048
901.427	16896
901.546	16938
901.665	16938
901.784	16915
901.904	16725
902.023	16668
902.141	16478
902.26	16489
902.379	16405
902.498	16337
902.617	16428
902.735	16333
902.854	16337
902.973	16226
903.091	16059
903.21	15956
903.328	15956
903.446	15911
903.565	15880
903.683	15778
903.801	15717
903.919	15720
904.038	15774
904.156	15603
904.274	15713
904.392	15564
904.51	15466
904.627	15507
904.745	15568
904.863	15519
904.981	15264
905.098	15226
905.216	15135
905.334	15131
905.451	15211
905.569	15127
905.686	15161
905.803	15093
905.921	14994
906.038	15066
906.155	15051
906.272	14807
906.389	14960
906.506	14651
906.623	14735
906.74	14724
906.857	14621
906.974	14590
907.091	14682
907.208	14902
907.324	14720
907.441	14613
907.557	14408
907.674	14366
907.79	14328
907.907	14381
908.023	14347
908.139	14423
908.256	14374
908.372	14415
908.488	14389
908.604	14233
908.72	14149
908.836	14157
908.952	14081
909.068	14062
909.184	14157
909.3	14145
909.415	14229
909.531	14187
909.647	13917
909.762	13894
909.878	13883
909.993	13894
910.108	13898
910.224	13791
910.339	13822
910.454	13791
910.57	13674
910.685	13643
910.8	13917
910.915	13913
911.03	13780
911.145	13601
911.259	13502
911.374	13544
911.489	13514
911.604	13362
911.718	13400
911.833	13289
911.947	13270
912.062	13076
912.176	13240
912.291	13255
912.405	13194
912.519	13533
912.633	13529
912.748	13278
912.862	13339
912.976	13091
913.09	12993
913.204	13118
913.318	13050
913.431	13179
913.545	13209
913.659	13209
913.772	13038
913.886	12886
914	13012
914.113	13107
914.226	13137
914.34	13042
914.453	12909
914.566	13046
914.68	12886
914.793	12844
914.906	12753
915.019	12658
915.132	12627
915.245	12658
915.358	12741
915.47	12662
915.583	12612
915.696	12642
915.809	12814
915.921	12852
916.034	12677
916.146	12551
916.259	12650
916.371	12741
916.483	12696
916.595	12642
916.708	12677
916.82	12627
916.932	12623
917.044	12597
917.156	12532
917.268	12506
917.38	12506
917.491	12483
917.603	12433
917.715	12498
917.826	12490
917.938	12350
918.049	12330
918.161	12498
918.272	12570
918.384	12445
918.495	12380
918.606	12315
918.717	12201
918.828	12304
918.939	12224
919.05	12194
919.161	12239
919.272	12041
919.383	12167
919.494	12285
919.604	12350
919.715	12220
919.826	12053
919.936	12224
920.047	12171
920.157	12243
920.267	12388
920.378	12155
920.488	12186
920.598	12296
920.708	12483
920.818	12376
920.928	12407
921.038	12574
921.148	12380
921.258	12251
921.368	12087
921.477	11965
921.587	11984
921.697	11866
921.806	11996
921.916	11828
922.025	11695
922.134	11619
922.244	11619
922.353	11676
922.462	11463
922.571	11376
922.68	11315
922.789	11242
922.898	11231
923.007	11288
923.116	11299
923.224	11299
923.333	11208
923.442	11212
923.55	11105
923.659	11174
923.767	11204
923.876	11124
923.984	11136
924.092	11037
924.201	11113
924.309	11060
924.417	11170
924.525	11056
924.633	11079
924.741	11767
924.849	10820
924.956	11010
925.064	10900
925.172	10786
925.279	10748
925.387	10881
925.494	10824
925.602	10953
925.709	10911
925.816	10820
925.924	10873
926.031	10919
926.138	10809
926.245	10850
926.352	10755
926.459	10847
926.566	10854
926.673	10763
926.779	10656
926.886	10588
926.993	10637
927.099	10424
927.206	10489
927.312	10428
927.419	10573
927.525	10417
927.631	10550
927.737	10455
927.843	10344
927.95	10284
928.056	10382
928.162	10325
928.267	10440
928.373	11045
928.479	10382
928.585	10234
928.69	10375
928.796	10322
928.901	10204
929.007	10090
929.112	10238
929.218	10253
929.323	10131
929.428	10112
929.533	10314
929.638	10078
929.743	10093
929.848	10101
929.953	10109
930.058	9964
930.163	9869
930.267	9857
930.372	10017
930.477	9865
930.581	10002
930.685	9903
930.79	9728
930.894	9838
930.998	9793
931.103	9857
931.207	9526
931.311	9545
931.415	9363
931.519	9253
931.623	9173
