Data from test_V78500241_2769.txt Node
Date: Fri Mar 25 14:52:59 CST 2022
User: usil
Spectrometer: V785-0024
Trigger mode: 0
Integration Time (sec): 4.000000E-1
Scans to average: 1
Nonlinearity correction enabled: false
Boxcar width: 0
Storing dark spectrum: false
XAxis mode: Wavelengths
Number of Pixels in Spectrum: 1024
>>>>>Begin Spectral Data<<<<<
801.071	22013
801.214	21937
801.356	21690
801.499	21709
801.641	21428
801.783	21416
801.926	21511
802.068	21279
802.211	21256
802.353	21070
802.496	20979
802.638	21028
802.78	20902
802.923	20872
803.065	20678
803.208	20697
803.35	20762
803.492	20868
803.635	21024
803.777	20648
803.919	20815
804.061	21077
804.204	20849
804.346	20800
804.488	20712
804.63	20727
804.773	20682
804.915	20743
805.057	20750
805.199	20594
805.341	20693
805.483	20777
805.626	20773
805.768	20602
805.91	20636
806.052	20785
806.194	20594
806.336	20902
806.478	20670
806.62	20701
806.762	20735
806.904	20918
807.046	20982
807.188	20986
807.33	20941
807.472	20971
807.614	20788
807.756	20937
807.898	20861
808.04	20731
808.182	20792
808.324	20667
808.465	20807
808.607	20853
808.749	21085
808.891	21150
809.033	21252
809.174	21077
809.316	20929
809.458	21055
809.6	20921
809.741	21062
809.883	21093
810.025	21157
810.166	21222
810.308	21199
810.45	21199
810.591	21047
810.733	20994
810.875	20800
811.016	20705
811.158	20727
811.299	20811
811.441	20960
811.582	20853
811.724	20796
811.865	20674
812.007	20701
812.148	20823
812.29	20765
812.431	20891
812.573	21032
812.714	21157
812.855	21249
812.997	21241
813.138	21439
813.279	21386
813.421	21157
813.562	21252
813.703	21055
813.845	20982
813.986	20674
814.127	20374
814.268	20408
814.41	20240
814.551	20400
814.692	20286
814.833	20111
814.974	20328
815.115	20374
815.256	20221
815.397	20096
815.539	20229
815.68	19967
815.821	20043
815.962	20035
816.103	20077
816.244	19894
816.385	19811
816.526	19761
816.666	19571
816.807	19487
816.948	19514
817.089	19635
817.23	19445
817.371	19453
817.512	19514
817.653	19468
817.793	19460
817.934	19388
818.075	19521
818.216	19521
818.356	19293
818.497	19145
818.638	19118
818.778	19183
818.919	19000
819.06	19293
819.2	19282
819.341	19343
819.481	19247
819.622	19518
819.762	19575
819.903	19563
820.043	19510
820.184	19487
820.324	19438
820.465	19525
820.605	19411
820.746	19457
820.886	19251
821.026	19495
821.167	19438
821.307	19400
821.447	19274
821.588	19373
821.728	19110
821.868	19053
822.008	18802
822.149	18817
822.289	18681
822.429	18551
822.569	18509
822.709	18437
822.849	18258
822.99	18353
823.13	18399
823.27	18376
823.41	18087
823.55	18174
823.69	18144
823.83	18136
823.97	18049
824.11	17923
824.25	17767
824.389	17878
824.529	17961
824.669	17961
824.809	17897
824.949	17935
825.089	17992
825.228	17999
825.368	17748
825.508	17718
825.648	17687
825.787	17828
825.927	17707
826.067	17649
826.206	17653
826.346	17722
826.485	17676
826.625	17741
826.765	17786
826.904	17748
827.044	17376
827.183	17463
827.323	17280
827.462	17398
827.601	17311
827.741	17326
827.88	17356
828.02	17162
828.159	17356
828.298	17448
828.437	17379
828.577	17311
828.716	17459
828.855	17296
828.994	17204
829.134	17258
829.273	17098
829.412	17083
829.551	17086
829.69	17231
829.829	17197
829.968	17258
830.107	17311
830.246	17231
830.385	17029
830.524	17113
830.663	17033
830.802	16869
830.941	16809
831.08	16710
831.219	16858
831.357	16793
831.496	17029
831.635	16812
831.774	16668
831.913	16653
832.051	16523
832.19	16519
832.329	16573
832.467	16390
832.606	16344
832.744	16485
832.883	16455
833.022	16481
833.16	16436
833.299	16443
833.437	16382
833.576	16535
833.714	16500
833.852	16565
833.991	16569
834.129	16596
834.267	16596
834.406	16527
834.544	16523
834.682	16546
834.821	16523
834.959	16630
835.097	16535
835.235	16573
835.373	16508
835.511	16550
835.65	16375
835.788	16474
835.926	16265
836.064	16287
836.202	16234
836.34	16440
836.478	16485
836.615	16405
836.753	16489
836.891	16481
837.029	16443
837.167	16363
837.305	16367
837.443	16295
837.58	16226
837.718	16402
837.856	16268
837.993	16215
838.131	16325
838.269	16200
838.406	16207
838.544	16128
838.681	16078
838.819	16086
838.956	15743
839.094	15812
839.231	15793
839.369	15998
839.506	16173
839.643	16059
839.781	15869
839.918	15789
840.055	15774
840.193	15918
840.33	15808
840.467	15747
840.604	15918
840.742	16082
840.879	15785
841.016	15838
841.153	15774
841.29	15987
841.427	15953
841.564	15827
841.701	15903
841.838	15819
841.975	15701
842.112	15728
842.249	15701
842.385	15580
842.522	15812
842.659	15644
842.796	15625
842.933	15648
843.069	15572
843.206	15641
843.343	15660
843.479	15637
843.616	15675
843.752	15420
843.889	15462
844.025	15641
844.162	15378
844.298	15511
844.435	15408
844.571	15329
844.708	15523
844.844	15618
844.98	15576
845.117	15454
845.253	15389
845.389	15294
845.525	15272
845.661	15306
845.798	15188
845.934	15222
846.07	15214
846.206	15192
846.342	15249
846.478	15173
846.614	15116
846.75	14952
846.886	14868
847.022	15020
847.158	14975
847.294	14944
847.429	14990
847.565	14906
847.701	15203
847.837	14762
847.972	14701
848.108	14823
848.244	14716
848.379	14575
848.515	14621
848.65	14514
848.786	14530
848.921	14621
849.057	14651
849.192	14629
849.328	14575
849.463	14568
849.598	14571
849.734	14499
849.869	14454
850.004	14317
850.14	14374
850.275	14347
850.41	14240
850.545	14343
850.68	14431
850.815	14404
850.95	14400
851.085	14511
851.22	14564
851.355	14374
851.49	14317
851.625	14328
851.76	14358
851.895	14259
852.03	14328
852.165	14301
852.299	14385
852.434	14389
852.569	14404
852.703	14389
852.838	14400
852.973	14469
853.107	14526
853.242	14328
853.376	14240
853.511	14157
853.645	14100
853.78	14339
853.914	14229
854.048	14282
854.183	14172
854.317	14275
854.451	14355
854.585	14202
854.72	14252
854.854	14362
854.988	14119
855.122	14237
855.256	13944
855.39	14119
855.524	14339
855.658	14240
855.792	14290
855.926	14202
856.06	14339
856.194	14351
856.327	14180
856.461	14214
856.595	14168
856.729	14218
856.862	14240
856.996	14180
857.13	14305
857.263	14320
857.397	14221
857.53	14187
857.664	14294
857.797	14328
857.931	14351
858.064	14233
858.197	14218
858.331	14233
858.464	14126
858.597	14142
858.731	14202
858.864	14282
858.997	14073
859.13	14301
859.263	14313
859.396	14244
859.529	14187
859.662	14176
859.795	14202
859.928	14248
860.061	14385
860.194	14393
860.327	14229
860.46	14252
860.592	14301
860.725	14408
860.858	14362
860.99	14142
861.123	14161
861.256	14195
861.388	14248
861.521	14830
861.653	14103
861.786	14005
861.918	14134
862.05	13993
862.183	14172
862.315	14161
862.447	14221
862.58	14195
862.712	13993
862.844	13898
862.976	14046
863.108	14035
863.24	14450
863.372	13940
863.504	13986
863.636	14012
863.768	14084
863.9	13993
864.032	13974
864.164	13909
864.296	13921
864.428	14103
864.559	14054
864.691	14123
864.823	14012
864.954	14062
865.086	13925
865.217	13978
865.349	13936
865.48	13974
865.612	14027
865.743	14126
865.875	13928
866.006	14005
866.137	13875
866.269	14069
866.4	13982
866.531	13860
866.662	13830
866.793	13932
866.924	13970
867.055	14069
867.186	14024
867.317	13902
867.448	13814
867.579	13932
867.71	13967
867.841	13944
867.972	14088
868.103	13997
868.233	13928
868.364	13978
868.495	14130
868.625	14206
868.756	14290
868.886	14157
869.017	14237
869.147	14313
869.278	14415
869.408	14252
869.539	14199
869.669	14267
869.799	14313
869.929	14355
870.06	14385
870.19	14621
870.32	14636
870.45	14648
870.58	14621
870.71	14769
870.84	14796
870.97	14606
871.1	14606
871.23	14788
871.36	14842
871.489	14693
871.619	14823
871.749	14773
871.879	14830
872.008	14944
872.138	14845
872.267	14845
872.397	14682
872.526	14613
872.656	14617
872.785	14606
872.915	14838
873.044	14914
873.173	14868
873.303	14960
873.432	14960
873.561	14910
873.69	14891
873.819	14876
873.948	15055
874.077	14906
874.206	14868
874.335	14963
874.464	15024
874.593	15142
874.722	15230
874.851	15291
874.979	15233
875.108	15192
875.237	15169
875.365	15085
875.494	15237
875.623	15283
875.751	15184
875.88	15100
876.008	15317
876.136	15473
876.265	15591
876.393	15846
876.521	15705
876.65	15705
876.778	15576
876.906	15538
877.034	15530
877.162	15618
877.29	15515
877.418	15679
877.546	15561
877.674	15572
877.802	15614
877.93	15660
878.058	15584
878.185	15530
878.313	15584
878.441	15504
878.568	15431
878.696	15443
878.824	15625
878.951	15682
879.079	15675
879.206	15895
879.333	15747
879.461	15675
879.588	15622
879.715	15797
879.842	15918
879.97	15679
880.097	15458
880.224	15412
880.351	15542
880.478	15447
880.605	15477
880.732	15530
880.859	15800
880.986	15466
881.112	15389
881.239	15336
881.366	15173
881.493	15214
881.619	15104
881.746	15211
881.872	15119
881.999	15077
882.125	15123
882.252	15135
882.378	15108
882.505	15268
882.631	15116
882.757	14937
882.883	15058
883.01	14963
883.136	14937
883.262	14773
883.388	14708
883.514	15009
883.64	15001
883.766	14925
883.892	14678
884.018	14743
884.143	14933
884.269	15039
884.395	14731
884.52	14727
884.646	14792
884.772	14583
884.897	14511
885.023	14606
885.148	14796
885.274	14819
885.399	14777
885.524	14636
885.65	14682
885.775	14674
885.9	14670
886.025	14701
886.15	14716
886.275	14568
886.4	14571
886.525	14583
886.65	14625
886.775	14518
886.9	14773
887.025	14864
887.149	14670
887.274	14518
887.399	14454
887.523	14408
887.648	14423
887.773	14320
887.897	14533
888.021	14537
888.146	14423
888.27	14549
888.395	14636
888.519	14617
888.643	14511
888.767	14575
888.891	14404
889.015	14263
889.139	14400
889.263	14313
889.387	14427
889.511	14606
889.635	14457
889.759	14377
889.883	14278
890.006	14355
890.13	14442
890.254	14301
890.377	14320
890.501	14157
890.624	14138
890.748	14225
890.871	14096
890.995	14016
891.118	13959
891.241	14043
891.364	14103
891.488	14111
891.611	14123
891.734	14035
891.857	14088
891.98	14054
892.103	14126
892.226	14039
892.349	13997
892.471	13879
892.594	14046
892.717	14062
892.839	14077
892.962	14096
893.085	14043
893.207	14020
893.33	13906
893.452	13978
893.575	14149
893.697	14020
893.819	14256
893.941	14362
894.064	14164
894.186	13940
894.308	14027
894.43	14161
894.552	14343
894.674	14187
894.796	14012
894.918	14130
895.04	14062
895.161	14195
895.283	14210
895.405	14123
895.526	14221
895.648	14130
895.769	14134
895.891	14259
896.012	14229
896.134	14355
896.255	14206
896.376	14176
896.498	14180
896.619	14313
896.74	14153
896.861	14294
896.982	14594
897.103	14765
897.224	14571
897.345	14442
897.466	14385
897.587	14492
897.708	14674
897.828	14590
897.949	14461
898.07	14332
898.19	14465
898.311	14636
898.431	14476
898.552	14602
898.672	14670
898.792	14792
898.913	14594
899.033	14549
899.153	14374
899.273	14275
899.393	14381
899.513	14423
899.633	14419
899.753	14427
899.873	14419
899.993	14484
900.113	14404
900.232	14434
900.352	14427
900.472	14355
900.591	14267
900.711	14370
900.83	14240
900.95	14282
901.069	14343
901.189	14225
901.308	14039
901.427	13871
901.546	13852
901.665	14058
901.784	14039
901.904	13826
902.023	13776
902.141	13540
902.26	13525
902.379	13506
902.498	13575
902.617	13529
902.735	13685
902.854	13601
902.973	13468
903.091	13259
903.21	13209
903.328	13308
903.446	13293
903.565	13069
903.683	13160
903.801	13061
903.919	13080
904.038	13160
904.156	12966
904.274	13046
904.392	12905
904.51	12875
904.627	12863
904.745	12852
904.863	12989
904.981	12806
905.098	12779
905.216	12650
905.334	12639
905.451	12525
905.569	12536
905.686	12623
905.803	12631
905.921	12414
906.038	12467
906.155	12388
906.272	12304
906.389	12369
906.506	12182
906.623	12186
906.74	12182
906.857	12098
906.974	12178
907.091	12159
907.208	12365
907.324	12228
907.441	12114
907.557	12019
907.674	11931
907.79	11916
907.907	11946
908.023	11969
908.139	11908
908.256	11866
908.372	11889
908.488	11901
908.604	11707
908.72	11672
908.836	11729
908.952	11718
909.068	11726
909.184	11802
909.3	11684
909.415	11836
909.531	11748
909.647	11467
909.762	11474
909.878	11482
909.993	11509
910.108	11497
910.224	11482
910.339	11505
910.454	11406
910.57	11250
910.685	11322
910.8	11562
910.915	11520
911.03	11299
911.145	11208
911.259	11193
911.374	11197
911.489	11071
911.604	11060
911.718	10896
911.833	10968
911.947	10850
912.062	10725
912.176	10915
912.291	10908
912.405	11045
912.519	11128
912.633	11147
912.748	11033
912.862	10987
912.976	10805
913.09	10714
913.204	10744
913.318	10892
913.431	10942
913.545	10923
913.659	10976
913.772	10801
913.886	10782
914	10733
914.113	10805
914.226	10873
914.34	10725
914.453	10615
914.566	10675
914.68	10664
914.793	10561
914.906	10443
915.019	10424
915.132	10379
915.245	10363
915.358	10417
915.47	10451
915.583	10481
915.696	10478
915.809	10485
915.921	10573
916.034	10447
916.146	10371
916.259	10447
916.371	10527
916.483	10394
916.595	10295
916.708	10390
916.82	10363
916.932	10329
917.044	10352
917.156	10363
917.268	10325
917.38	10284
917.491	10181
917.603	10303
917.715	10337
917.826	10303
917.938	10261
918.049	10200
918.161	10318
918.272	10474
918.384	10432
918.495	10291
918.606	10177
918.717	10013
918.828	10181
918.939	10223
919.05	10086
919.161	10177
919.272	9934
919.383	9987
919.494	10181
919.604	10443
919.715	10173
919.826	10112
919.936	10181
920.047	10265
920.157	10105
920.267	10382
920.378	10219
920.488	10162
920.598	10405
920.708	10550
920.818	10402
920.928	10344
921.038	10558
921.148	10455
921.258	10196
921.368	10173
921.477	10021
921.587	10055
921.697	9930
921.806	10002
921.916	9888
922.025	9789
922.134	9732
922.244	9724
922.353	9804
922.462	9641
922.571	9549
922.68	9473
922.789	9382
922.898	9454
923.007	9374
923.116	9511
923.224	9389
923.333	9454
923.442	9317
923.55	9279
923.659	9306
923.767	9344
923.876	9321
923.984	9351
924.092	9214
924.201	9367
924.309	9317
924.417	9302
924.525	9142
924.633	9268
924.741	9991
924.849	9055
924.956	9253
925.064	9051
925.172	9039
925.279	9081
925.387	9055
925.494	9070
925.602	9222
925.709	9169
925.816	8967
925.924	9100
926.031	9256
926.138	9077
926.245	9123
926.352	9081
926.459	9165
926.566	9184
926.673	9055
926.779	8963
926.886	9005
926.993	8830
927.099	8800
927.206	8792
927.312	8807
927.419	8830
927.525	8724
927.631	8876
927.737	8716
927.843	8625
927.95	8579
928.056	8697
928.162	8682
928.267	8731
928.373	9389
928.479	8758
928.585	8526
928.69	8727
928.796	8792
928.901	8568
929.007	8499
929.112	8564
929.218	8632
929.323	8526
929.428	8526
929.533	8648
929.638	8465
929.743	8530
929.848	8568
929.953	8495
930.058	8404
930.163	8282
930.267	8317
930.372	8415
930.477	8275
930.581	8511
930.685	8370
930.79	8218
930.894	8290
930.998	8180
931.103	8377
931.207	8073
931.311	7970
931.415	7936
931.519	7715
931.623	7734
