Data from test_V78500241_1574.txt Node
Date: Fri Mar 25 14:44:40 CST 2022
User: usil
Spectrometer: V785-0024
Trigger mode: 0
Integration Time (sec): 4.000000E-1
Scans to average: 1
Nonlinearity correction enabled: false
Boxcar width: 0
Storing dark spectrum: false
XAxis mode: Wavelengths
Number of Pixels in Spectrum: 1024
>>>>>Begin Spectral Data<<<<<
801.071	22348
801.214	22306
801.356	22036
801.499	21956
801.641	21736
801.783	21808
801.926	21778
802.068	21679
802.211	21705
802.353	21557
802.496	21462
802.638	21230
802.78	21157
802.923	21131
803.065	20982
803.208	21077
803.35	21001
803.492	21074
803.635	21272
803.777	21013
803.919	21146
804.061	21534
804.204	21157
804.346	21043
804.488	21039
804.63	21024
804.773	20876
804.915	21005
805.057	21195
805.199	20944
805.341	21081
805.483	21009
805.626	21089
805.768	20975
805.91	21039
806.052	21077
806.194	20853
806.336	21192
806.478	21077
806.62	20925
806.762	20998
806.904	21138
807.046	21500
807.188	21439
807.33	21294
807.472	21374
807.614	21268
807.756	21329
807.898	21279
808.04	21180
808.182	21142
808.324	21275
808.465	21214
808.607	21420
808.749	21526
808.891	21583
809.033	21694
809.174	21583
809.316	21511
809.458	21542
809.6	21477
809.741	21625
809.883	21466
810.025	21633
810.166	21675
810.308	21690
810.45	21492
810.591	21405
810.733	21351
810.875	21317
811.016	21180
811.158	21062
811.299	21355
811.441	21329
811.582	21325
811.724	21237
811.865	21116
812.007	21127
812.148	21287
812.29	21245
812.431	21443
812.573	21542
812.714	21580
812.855	21770
812.997	21709
813.138	21876
813.279	21819
813.421	21682
813.562	21724
813.703	21370
813.845	21386
813.986	21009
814.127	21009
814.268	20838
814.41	20842
814.551	20769
814.692	20811
814.833	20659
814.974	20735
815.115	20773
815.256	20552
815.397	20636
815.539	20625
815.68	20469
815.821	20495
815.962	20518
816.103	20385
816.244	20336
816.385	20062
816.526	20199
816.666	20039
816.807	19947
816.948	19997
817.089	20008
817.23	19879
817.371	19772
817.512	19986
817.653	19959
817.793	19864
817.934	19940
818.075	19856
818.216	19894
818.356	19719
818.497	19719
818.638	19540
818.778	19578
818.919	19712
819.06	19533
819.2	19613
819.341	19696
819.481	19788
819.622	19936
819.762	20054
819.903	20050
820.043	19841
820.184	19894
820.324	19696
820.465	19936
820.605	19947
820.746	19890
820.886	19799
821.026	19788
821.167	19925
821.307	19799
821.447	19715
821.588	19616
821.728	19567
821.868	19339
822.008	19327
822.149	19190
822.289	19251
822.429	18966
822.569	18897
822.709	18867
822.849	18787
822.99	18768
823.13	18772
823.27	18509
823.41	18650
823.55	18593
823.69	18494
823.83	18620
823.97	18471
824.11	18315
824.25	18300
824.389	18235
824.529	18410
824.669	18407
824.809	18506
824.949	18464
825.089	18433
825.228	18403
825.368	18224
825.508	18178
825.648	18136
825.787	18140
825.927	18140
826.067	18102
826.206	18076
826.346	18068
826.485	18041
826.625	18140
826.765	18254
826.904	18068
827.044	17946
827.183	17916
827.323	17832
827.462	17828
827.601	17817
827.741	17889
827.88	17824
828.02	17684
828.159	17843
828.298	17897
828.437	17863
828.577	17642
828.716	17942
828.855	17756
828.994	17505
829.134	17452
829.273	17539
829.412	17490
829.551	17566
829.69	17520
829.829	17528
829.968	17573
830.107	17589
830.246	17474
830.385	17524
830.524	17337
830.663	17334
830.802	17376
830.941	17155
831.08	17162
831.219	17128
831.357	17185
831.496	17360
831.635	17075
831.774	17033
831.913	17041
832.051	16949
832.19	16930
832.329	16927
832.467	16809
832.606	16759
832.744	16824
832.883	16824
833.022	16717
833.16	16854
833.299	16748
833.437	16889
833.576	16820
833.714	16862
833.852	16850
833.991	16961
834.129	16984
834.267	16987
834.406	16854
834.544	16809
834.682	16896
834.821	16904
834.959	17086
835.097	16900
835.235	16900
835.373	16877
835.511	16850
835.65	16778
835.788	16710
835.926	16683
836.064	16577
836.202	16656
836.34	16843
836.478	16904
836.615	16733
836.753	16812
836.891	16908
837.029	16908
837.167	16736
837.305	16740
837.443	16672
837.58	16664
837.718	16698
837.856	16744
837.993	16569
838.131	16630
838.269	16538
838.406	16550
838.544	16577
838.681	16348
838.819	16341
838.956	16177
839.094	16181
839.231	16306
839.369	16341
839.506	16497
839.643	16402
839.781	16063
839.918	16169
840.055	16063
840.193	16131
840.33	16188
840.467	16150
840.604	16143
840.742	16390
840.879	16063
841.016	16051
841.153	16036
841.29	16253
841.427	16109
841.564	16204
841.701	16059
841.838	16139
841.975	16093
842.112	16002
842.249	15945
842.385	15968
842.522	16086
842.659	15926
842.796	15937
842.933	15983
843.069	15926
843.206	15880
843.343	15975
843.479	15964
843.616	15953
843.752	15728
843.889	15724
844.025	15812
844.162	15622
844.298	15816
844.435	15751
844.571	15671
844.708	15762
844.844	15876
844.98	15941
845.117	15816
845.253	15637
845.389	15568
845.525	15739
845.661	15686
845.798	15614
845.934	15739
846.07	15625
846.206	15682
846.342	15789
846.478	15603
846.614	15485
846.75	15313
846.886	15325
847.022	15351
847.158	15351
847.294	15283
847.429	15344
847.565	15203
847.701	15504
847.837	15039
847.972	14982
848.108	15135
848.244	15119
848.379	14937
848.515	14804
848.65	14937
848.786	14842
848.921	14906
849.057	15017
849.192	14998
849.328	14823
849.463	14918
849.598	14823
849.734	14788
849.869	14819
850.004	14754
850.14	14769
850.275	14606
850.41	14583
850.545	14617
850.68	14678
850.815	14731
850.95	14590
851.085	14800
851.22	14769
851.355	14724
851.49	14705
851.625	14579
851.76	14598
851.895	14545
852.03	14556
852.165	14514
852.299	14682
852.434	14739
852.569	14682
852.703	14659
852.838	14697
852.973	14796
853.107	14883
853.242	14606
853.376	14579
853.511	14423
853.645	14552
853.78	14598
853.914	14602
854.048	14511
854.183	14503
854.317	14667
854.451	14686
854.585	14473
854.72	14518
854.854	14545
854.988	14374
855.122	14442
855.256	14343
855.39	14522
855.524	14640
855.658	14655
855.792	14537
855.926	14636
856.06	14579
856.194	14511
856.327	14522
856.461	14446
856.595	14461
856.729	14526
856.862	14625
856.996	14495
857.13	14522
857.263	14663
857.397	14602
857.53	14473
857.664	14621
857.797	14613
857.931	14727
858.064	14514
858.197	14579
858.331	14526
858.464	14488
858.597	14423
858.731	14632
858.864	14461
858.997	14434
859.13	14590
859.263	14499
859.396	14575
859.529	14530
859.662	14484
859.795	14450
859.928	14552
860.061	14629
860.194	14632
860.327	14545
860.46	14499
860.592	14568
860.725	14651
860.858	14545
860.99	14503
861.123	14473
861.256	14488
861.388	14492
861.521	15218
861.653	14427
861.786	14396
861.918	14317
862.05	14362
862.183	14495
862.315	14511
862.447	14579
862.58	14393
862.712	14275
862.844	14328
862.976	14408
863.108	14244
863.24	14674
863.372	14252
863.504	14282
863.636	14256
863.768	14347
863.9	14298
864.032	14103
864.164	14332
864.296	14412
864.428	14457
864.559	14385
864.691	14381
864.823	14412
864.954	14317
865.086	14317
865.217	14267
865.349	14126
865.48	14263
865.612	14233
865.743	14431
865.875	14290
866.006	14275
866.137	14256
866.269	14282
866.4	14339
866.531	14275
866.662	14183
866.793	14183
866.924	14240
867.055	14294
867.186	14259
867.317	14206
867.448	14088
867.579	14298
867.71	14237
867.841	14244
867.972	14233
868.103	14286
868.233	14195
868.364	14248
868.495	14381
868.625	14560
868.756	14579
868.886	14366
869.017	14454
869.147	14526
869.278	14541
869.408	14488
869.539	14545
869.669	14545
869.799	14503
869.929	14640
870.06	14518
870.19	14872
870.32	14819
870.45	14769
870.58	14853
870.71	15005
870.84	14929
870.97	14910
871.1	14861
871.23	15077
871.36	15055
871.489	15028
871.619	15138
871.749	15036
871.879	15135
872.008	15252
872.138	15188
872.267	15024
872.397	14948
872.526	14914
872.656	14914
872.785	14918
872.915	15154
873.044	15329
873.173	15146
873.303	15256
873.432	15226
873.561	15142
873.69	15119
873.819	15104
873.948	15336
874.077	15119
874.206	15123
874.335	15154
874.464	15294
874.593	15374
874.722	15431
874.851	15519
874.979	15530
875.108	15591
875.237	15382
875.365	15408
875.494	15462
875.623	15564
875.751	15367
875.88	15523
876.008	15595
876.136	15587
876.265	15934
876.393	15934
876.521	15911
876.65	15922
876.778	15823
876.906	15823
877.034	15747
877.162	15827
877.29	15823
877.418	15922
877.546	15934
877.674	15907
877.802	15808
877.93	15831
878.058	15926
878.185	15778
878.313	15808
878.441	15892
878.568	15675
878.696	15759
878.824	15911
878.951	15953
879.079	16101
879.206	16200
879.333	16188
879.461	15922
879.588	16078
879.715	16158
879.842	16234
879.97	15979
880.097	15705
880.224	15755
880.351	15793
880.478	15774
880.605	15770
880.732	15743
880.859	16006
880.986	15816
881.112	15755
881.239	15603
881.366	15542
881.493	15405
881.619	15348
881.746	15332
881.872	15370
881.999	15359
882.125	15424
882.252	15511
882.378	15462
882.505	15564
882.631	15348
882.757	15195
882.883	15203
883.01	15252
883.136	15127
883.262	15058
883.388	15100
883.514	15329
883.64	15245
883.766	15199
883.892	15024
884.018	15180
884.143	15222
884.269	15344
884.395	14967
884.52	14921
884.646	14883
884.772	14895
884.897	14796
885.023	14933
885.148	15024
885.274	15062
885.399	14998
885.524	14967
885.65	14967
885.775	14948
885.9	14933
886.025	15081
886.15	15028
886.275	14918
886.4	14941
886.525	14979
886.65	14796
886.775	14887
886.9	15070
887.025	15226
887.149	14933
887.274	14754
887.399	14864
887.523	14838
887.648	14689
887.773	14644
887.897	14849
888.021	14891
888.146	14720
888.27	14849
888.395	15009
888.519	14861
888.643	14845
888.767	14838
888.891	14629
889.015	14617
889.139	14644
889.263	14602
889.387	14750
889.511	14792
889.635	14762
889.759	14549
889.883	14708
890.006	14651
890.13	14727
890.254	14522
890.377	14522
890.501	14469
890.624	14450
890.748	14587
890.871	14434
890.995	14218
891.118	14157
891.241	14252
891.364	14244
891.488	14450
891.611	14336
891.734	14389
891.857	14434
891.98	14389
892.103	14446
892.226	14366
892.349	14263
892.471	14183
892.594	14370
892.717	14259
892.839	14240
892.962	14256
893.085	14396
893.207	14385
893.33	14225
893.452	14225
893.575	14343
893.697	14377
893.819	14606
893.941	14518
894.064	14461
894.186	14252
894.308	14214
894.43	14377
894.552	14518
894.674	14442
894.796	14324
894.918	14408
895.04	14305
895.161	14492
895.283	14454
895.405	14415
895.526	14362
895.648	14415
895.769	14419
895.891	14465
896.012	14450
896.134	14473
896.255	14545
896.376	14549
896.498	14495
896.619	14503
896.74	14606
896.861	14564
896.982	14864
897.103	14982
897.224	14781
897.345	14640
897.466	14579
897.587	14819
897.708	14807
897.828	14891
897.949	14743
898.07	14686
898.19	14705
898.311	14906
898.431	14811
898.552	14861
898.672	15028
898.792	14891
898.913	14910
899.033	14697
899.153	14659
899.273	14610
899.393	14610
899.513	14735
899.633	14621
899.753	14720
899.873	14678
899.993	14743
900.113	14598
900.232	14731
900.352	14674
900.472	14689
900.591	14473
900.711	14636
900.83	14461
900.95	14583
901.069	14621
901.189	14431
901.308	14324
901.427	14157
901.546	14172
901.665	14278
901.784	14240
901.904	14145
902.023	14012
902.141	13833
902.26	13852
902.379	13788
902.498	13776
902.617	13700
902.735	13959
902.854	13761
902.973	13757
903.091	13586
903.21	13537
903.328	13556
903.446	13518
903.565	13388
903.683	13373
903.801	13202
903.919	13362
904.038	13362
904.156	13110
904.274	13270
904.392	13133
904.51	13152
904.627	13126
904.745	13145
904.863	13164
904.981	12996
905.098	12806
905.216	12821
905.334	12909
905.451	12867
905.569	12829
905.686	12947
905.803	12894
905.921	12711
906.038	12787
906.155	12726
906.272	12585
906.389	12631
906.506	12517
906.623	12395
906.74	12513
906.857	12334
906.974	12350
907.091	12502
907.208	12635
907.324	12498
907.441	12380
907.557	12163
907.674	12213
907.79	12171
907.907	12129
908.023	12270
908.139	12220
908.256	12136
908.372	12194
908.488	12117
908.604	11973
908.72	11893
908.836	11965
908.952	11897
909.068	11988
909.184	12026
909.3	11904
909.415	11984
909.531	12015
909.647	11798
909.762	11627
909.878	11676
909.993	11764
910.108	11733
910.224	11634
910.339	11657
910.454	11684
910.57	11634
910.685	11448
910.8	11775
910.915	11680
911.03	11573
911.145	11436
911.259	11410
911.374	11372
911.489	11337
911.604	11223
911.718	11227
911.833	11246
911.947	11113
912.062	10995
912.176	11280
912.291	11162
912.405	11170
912.519	11326
912.633	11379
912.748	11246
912.862	11235
912.976	11006
913.09	10942
913.204	10953
913.318	11006
913.431	11166
913.545	11060
913.659	11220
913.772	11064
913.886	10862
914	10896
914.113	10984
914.226	11102
914.34	11018
914.453	10854
914.566	10953
914.68	10896
914.793	10835
914.906	10626
915.019	10596
915.132	10535
915.245	10637
915.358	10729
915.47	10630
915.583	10759
915.696	10607
915.809	10778
915.921	10793
916.034	10577
916.146	10668
916.259	10573
916.371	10755
916.483	10759
916.595	10630
916.708	10615
916.82	10641
916.932	10531
917.044	10535
917.156	10546
917.268	10489
917.38	10413
917.491	10478
917.603	10489
917.715	10592
917.826	10596
917.938	10531
918.049	10318
918.161	10421
918.272	10637
918.384	10531
918.495	10535
918.606	10352
918.717	10204
918.828	10375
918.939	10405
919.05	10299
919.161	10398
919.272	10215
919.383	10143
919.494	10478
919.604	10603
919.715	10447
919.826	10325
919.936	10341
920.047	10390
920.157	10390
920.267	10634
920.378	10405
920.488	10390
920.598	10584
920.708	10691
920.818	10584
920.928	10542
921.038	10729
921.148	10706
921.258	10421
921.368	10333
921.477	10306
921.587	10219
921.697	10143
921.806	10291
921.916	10097
922.025	10040
922.134	9907
922.244	9873
922.353	9949
922.462	9789
922.571	9709
922.68	9580
922.789	9587
922.898	9652
923.007	9519
923.116	9675
923.224	9625
923.333	9580
923.442	9504
923.55	9500
923.659	9492
923.767	9591
923.876	9469
923.984	9519
924.092	9485
924.201	9500
924.309	9469
924.417	9462
924.525	9431
924.633	9405
924.741	10421
924.849	9298
924.956	9450
925.064	9230
925.172	9173
925.279	9241
925.387	9306
925.494	9226
925.602	9367
925.709	9367
925.816	9256
925.924	9214
926.031	9466
926.138	9287
926.245	9260
926.352	9154
926.459	9344
926.566	9359
926.673	9188
926.779	9127
926.886	9051
926.993	9074
927.099	9028
927.206	8872
927.312	9028
927.419	9001
927.525	9028
927.631	8975
927.737	8941
927.843	8857
927.95	8785
928.056	8842
928.162	8891
928.267	8921
928.373	9466
928.479	9024
928.585	8712
928.69	8826
928.796	8864
928.901	8731
929.007	8667
929.112	8762
929.218	8762
929.323	8682
929.428	8682
929.533	8792
929.638	8568
929.743	8632
929.848	8739
929.953	8594
930.058	8568
930.163	8438
930.267	8484
930.372	8560
930.477	8488
930.581	8594
930.685	8564
930.79	8358
930.894	8442
930.998	8339
931.103	8518
931.207	8214
931.311	8206
931.415	8069
931.519	7917
931.623	7845
