Data from test_V78500241_1480.txt Node
Date: Fri Mar 25 14:44:01 CST 2022
User: usil
Spectrometer: V785-0024
Trigger mode: 0
Integration Time (sec): 4.000000E-1
Scans to average: 1
Nonlinearity correction enabled: false
Boxcar width: 0
Storing dark spectrum: false
XAxis mode: Wavelengths
Number of Pixels in Spectrum: 1024
>>>>>Begin Spectral Data<<<<<
801.071	22474
801.214	22375
801.356	22131
801.499	22055
801.641	21751
801.783	21789
801.926	21892
802.068	21838
802.211	21679
802.353	21538
802.496	21412
802.638	21313
802.78	21237
802.923	21154
803.065	21096
803.208	21157
803.35	21211
803.492	21260
803.635	21367
803.777	21154
803.919	21252
804.061	21435
804.204	21245
804.346	21154
804.488	21074
804.63	21070
804.773	21001
804.915	21077
805.057	21195
805.199	21005
805.341	21096
805.483	21279
805.626	21203
805.768	21112
805.91	21150
806.052	21108
806.194	20971
806.336	21214
806.478	21100
806.62	21077
806.762	21131
806.904	21260
807.046	21507
807.188	21355
807.33	21313
807.472	21545
807.614	21329
807.756	21401
807.898	21370
808.04	21237
808.182	21218
808.324	21370
808.465	21351
808.607	21496
808.749	21648
808.891	21770
809.033	21743
809.174	21770
809.316	21652
809.458	21618
809.6	21587
809.741	21591
809.883	21667
810.025	21682
810.166	21743
810.308	21652
810.45	21675
810.591	21564
810.733	21344
810.875	21256
811.016	21291
811.158	21264
811.299	21272
811.441	21382
811.582	21428
811.724	21157
811.865	21275
812.007	21325
812.148	21329
812.29	21306
812.431	21523
812.573	21538
812.714	21618
812.855	21766
812.997	22013
813.138	21979
813.279	21865
813.421	21835
813.562	21648
813.703	21599
813.845	21431
813.986	21123
814.127	20994
814.268	20956
814.41	20800
814.551	20781
814.692	20925
814.833	20724
814.974	20746
815.115	20724
815.256	20594
815.397	20632
815.539	20594
815.68	20526
815.821	20518
815.962	20480
816.103	20461
816.244	20336
816.385	20252
816.526	20267
816.666	20138
816.807	19940
816.948	20130
817.089	20088
817.23	20062
817.371	20027
817.512	19982
817.653	19940
817.793	19856
817.934	19936
818.075	19967
818.216	20016
818.356	19921
818.497	19769
818.638	19525
818.778	19594
818.919	19590
819.06	19643
819.2	19765
819.341	19791
819.481	19830
819.622	19951
819.762	20100
819.903	20103
820.043	20039
820.184	19883
820.324	19936
820.465	19951
820.605	19913
820.746	19928
820.886	19788
821.026	19898
821.167	19921
821.307	20062
821.447	19852
821.588	19803
821.728	19620
821.868	19460
822.008	19358
822.149	19266
822.289	19187
822.429	18996
822.569	18970
822.709	18985
822.849	18734
822.99	18954
823.13	18734
823.27	18817
823.41	18650
823.55	18601
823.69	18563
823.83	18654
823.97	18471
824.11	18372
824.25	18452
824.389	18384
824.529	18429
824.669	18410
824.809	18593
824.949	18631
825.089	18521
825.228	18353
825.368	18247
825.508	18133
825.648	18182
825.787	18190
825.927	18262
826.067	18136
826.206	18186
826.346	18228
826.485	18171
826.625	18041
826.765	18304
826.904	18190
827.044	17946
827.183	17931
827.323	17832
827.462	17912
827.601	17866
827.741	17882
827.88	17733
828.02	17752
828.159	17863
828.298	17851
828.437	17824
828.577	17805
828.716	17866
828.855	17790
828.994	17646
829.134	17577
829.273	17733
829.412	17524
829.551	17646
829.69	17581
829.829	17627
829.968	17691
830.107	17630
830.246	17638
830.385	17444
830.524	17505
830.663	17436
830.802	17391
830.941	17242
831.08	17254
831.219	17277
831.357	17258
831.496	17570
831.635	17208
831.774	17121
831.913	17143
832.051	16946
832.19	17037
832.329	17018
832.467	16930
832.606	16995
832.744	16892
832.883	16873
833.022	16843
833.16	16972
833.299	16908
833.437	16984
833.576	17014
833.714	16999
833.852	16961
833.991	16961
834.129	16957
834.267	16987
834.406	16919
834.544	17014
834.682	17033
834.821	17041
834.959	17014
835.097	16812
835.235	17010
835.373	16934
835.511	16949
835.65	16778
835.788	16797
835.926	16740
836.064	16721
836.202	16774
836.34	16904
836.478	16938
836.615	16831
836.753	16889
836.891	17010
837.029	16908
837.167	16866
837.305	16839
837.443	16706
837.58	16668
837.718	16797
837.856	16797
837.993	16679
838.131	16691
838.269	16645
838.406	16691
838.544	16584
838.681	16455
838.819	16310
838.956	16295
839.094	16223
839.231	16253
839.369	16379
839.506	16542
839.643	16436
839.781	16200
839.918	16181
840.055	16169
840.193	16284
840.33	16181
840.467	16352
840.604	16341
840.742	16538
840.879	16124
841.016	16154
841.153	16154
841.29	16417
841.427	16226
841.564	16238
841.701	16226
841.838	16200
841.975	16093
842.112	16147
842.249	15956
842.385	15941
842.522	16284
842.659	16090
842.796	16055
842.933	16090
843.069	15857
843.206	15956
843.343	16143
843.479	16074
843.616	16055
843.752	15743
843.889	15785
844.025	15964
844.162	15831
844.298	15846
844.435	15800
844.571	15789
844.708	15827
844.844	16006
844.98	15945
845.117	15941
845.253	15755
845.389	15720
845.525	15854
845.661	15816
845.798	15732
845.934	15937
846.07	15880
846.206	15964
846.342	15941
846.478	15759
846.614	15576
846.75	15389
846.886	15370
847.022	15500
847.158	15435
847.294	15378
847.429	15386
847.565	15325
847.701	15720
847.837	15100
847.972	15039
848.108	15150
848.244	15283
848.379	15123
848.515	14933
848.65	14944
848.786	14975
848.921	14921
849.057	14979
849.192	15058
849.328	15032
849.463	14944
849.598	14948
849.734	14849
849.869	14853
850.004	14754
850.14	14750
850.275	14727
850.41	14697
850.545	14727
850.68	14727
850.815	14670
850.95	14686
851.085	14933
851.22	14746
851.355	14545
851.49	14754
851.625	14724
851.76	14644
851.895	14617
852.03	14606
852.165	14682
852.299	14861
852.434	14804
852.569	14781
852.703	14933
852.838	14826
852.973	14861
853.107	14914
853.242	14640
853.376	14640
853.511	14495
853.645	14636
853.78	14811
853.914	14549
854.048	14560
854.183	14636
854.317	14575
854.451	14765
854.585	14648
854.72	14629
854.854	14598
854.988	14488
855.122	14552
855.256	14480
855.39	14613
855.524	14655
855.658	14613
855.792	14564
855.926	14613
856.06	14743
856.194	14648
856.327	14667
856.461	14492
856.595	14480
856.729	14564
856.862	14663
856.996	14598
857.13	14629
857.263	14739
857.397	14663
857.53	14610
857.664	14693
857.797	14682
857.931	14693
858.064	14590
858.197	14682
858.331	14541
858.464	14530
858.597	14590
858.731	14621
858.864	14610
858.997	14568
859.13	14579
859.263	14564
859.396	14701
859.529	14526
859.662	14530
859.795	14590
859.928	14598
860.061	14769
860.194	14781
860.327	14640
860.46	14594
860.592	14724
860.725	14811
860.858	14682
860.99	14526
861.123	14465
861.256	14648
861.388	14526
861.521	15211
861.653	14503
861.786	14370
861.918	14476
862.05	14537
862.183	14606
862.315	14537
862.447	14579
862.58	14564
862.712	14336
862.844	14183
862.976	14530
863.108	14419
863.24	14861
863.372	14298
863.504	14423
863.636	14351
863.768	14343
863.9	14488
864.032	14362
864.164	14298
864.296	14450
864.428	14537
864.559	14412
864.691	14377
864.823	14415
864.954	14400
865.086	14385
865.217	14423
865.349	14317
865.48	14404
865.612	14343
865.743	14438
865.875	14339
866.006	14309
866.137	14408
866.269	14317
866.4	14366
866.531	14320
866.662	14324
866.793	14374
866.924	14358
867.055	14419
867.186	14317
867.317	14263
867.448	14313
867.579	14256
867.71	14214
867.841	14214
867.972	14256
868.103	14412
868.233	14278
868.364	14317
868.495	14465
868.625	14492
868.756	14689
868.886	14492
869.017	14571
869.147	14743
869.278	14686
869.408	14579
869.539	14560
869.669	14739
869.799	14568
869.929	14777
870.06	14701
870.19	14845
870.32	14952
870.45	14960
870.58	15013
870.71	15097
870.84	15150
870.97	14994
871.1	14902
871.23	15207
871.36	15211
871.489	14994
871.619	15119
871.749	15287
871.879	15138
872.008	15279
872.138	15260
872.267	15176
872.397	15077
872.526	15005
872.656	14986
872.785	15013
872.915	15233
873.044	15252
873.173	15173
873.303	15283
873.432	15249
873.561	15283
873.69	15325
873.819	15264
873.948	15363
874.077	15302
874.206	15211
874.335	15222
874.464	15405
874.593	15485
874.722	15431
874.851	15663
874.979	15568
875.108	15591
875.237	15443
875.365	15450
875.494	15462
875.623	15553
875.751	15576
875.88	15595
876.008	15682
876.136	15781
876.265	15960
876.393	16040
876.521	16021
876.65	16010
876.778	15945
876.906	15865
877.034	15873
877.162	16013
877.29	15915
877.418	15892
877.546	15994
877.674	15873
877.802	15964
877.93	15975
878.058	15869
878.185	15800
878.313	15968
878.441	16032
878.568	15854
878.696	15838
878.824	15956
878.951	16059
879.079	16150
879.206	16257
879.333	16200
879.461	16131
879.588	16150
879.715	16272
879.842	16375
879.97	16044
880.097	15854
880.224	15865
880.351	15991
880.478	15812
880.605	15846
880.732	15956
880.859	16036
880.986	15907
881.112	15926
881.239	15690
881.366	15549
881.493	15481
881.619	15523
881.746	15469
881.872	15523
881.999	15534
882.125	15412
882.252	15515
882.378	15568
882.505	15671
882.631	15344
882.757	15184
882.883	15370
883.01	15302
883.136	15207
883.262	15165
883.388	15108
883.514	15302
883.64	15332
883.766	15291
883.892	15017
884.018	15291
884.143	15348
884.269	15310
884.395	14998
884.52	15001
884.646	14960
884.772	14971
884.897	14842
885.023	14986
885.148	15089
885.274	15154
885.399	15055
885.524	14967
885.65	15032
885.775	15097
885.9	15039
886.025	15089
886.15	15123
886.275	14921
886.4	14967
886.525	15032
886.65	14853
886.775	14941
886.9	15138
887.025	15131
887.149	15058
887.274	14815
887.399	14743
887.523	14739
887.648	14716
887.773	14708
887.897	14830
888.021	14967
888.146	14826
888.27	14906
888.395	14960
888.519	14864
888.643	14880
888.767	14929
888.891	14785
889.015	14686
889.139	14632
889.263	14621
889.387	14720
889.511	14868
889.635	14807
889.759	14659
889.883	14625
890.006	14845
890.13	14686
890.254	14530
890.377	14594
890.501	14495
890.624	14385
890.748	14598
890.871	14488
890.995	14347
891.118	14324
891.241	14286
891.364	14461
891.488	14457
891.611	14355
891.734	14423
891.857	14408
891.98	14457
892.103	14412
892.226	14381
892.349	14374
892.471	14267
892.594	14377
892.717	14351
892.839	14355
892.962	14385
893.085	14423
893.207	14317
893.33	14183
893.452	14267
893.575	14389
893.697	14271
893.819	14492
893.941	14537
894.064	14434
894.186	14301
894.308	14298
894.43	14488
894.552	14549
894.674	14461
894.796	14374
894.918	14336
895.04	14400
895.161	14507
895.283	14469
895.405	14396
895.526	14415
895.648	14423
895.769	14499
895.891	14594
896.012	14602
896.134	14568
896.255	14454
896.376	14389
896.498	14518
896.619	14499
896.74	14511
896.861	14602
896.982	14891
897.103	15062
897.224	14845
897.345	14731
897.466	14701
897.587	14758
897.708	14857
897.828	14861
897.949	14796
898.07	14689
898.19	14811
898.311	14941
898.431	14849
898.552	14941
898.672	14899
898.792	14975
898.913	14941
899.033	14811
899.153	14621
899.273	14739
899.393	14598
899.513	14716
899.633	14735
899.753	14807
899.873	14674
899.993	14861
900.113	14746
900.232	14777
900.352	14697
900.472	14655
900.591	14629
900.711	14556
900.83	14571
900.95	14720
901.069	14686
901.189	14575
901.308	14366
901.427	14218
901.546	14286
901.665	14275
901.784	14298
901.904	14084
902.023	14024
902.141	13925
902.26	13696
902.379	13959
902.498	13909
902.617	13734
902.735	13913
902.854	13864
902.973	13693
903.091	13552
903.21	13476
903.328	13518
903.446	13506
903.565	13392
903.683	13381
903.801	13270
903.919	13350
904.038	13453
904.156	13236
904.274	13304
904.392	13164
904.51	13247
904.627	13244
904.745	13145
904.863	13168
904.981	13046
905.098	12875
905.216	12871
905.334	12856
905.451	12890
905.569	12878
905.686	12985
905.803	12954
905.921	12764
906.038	12711
906.155	12715
906.272	12677
906.389	12623
906.506	12471
906.623	12486
906.74	12513
906.857	12357
906.974	12433
907.091	12479
907.208	12563
907.324	12475
907.441	12418
907.557	12266
907.674	12205
907.79	12136
907.907	12235
908.023	12205
908.139	12171
908.256	12213
908.372	12144
908.488	12144
908.604	12007
908.72	11908
908.836	12030
908.952	11923
909.068	12019
909.184	11977
909.3	11954
909.415	12015
909.531	12015
909.647	11714
909.762	11714
909.878	11729
909.993	11771
910.108	11722
910.224	11710
910.339	11729
910.454	11592
910.57	11634
910.685	11509
910.8	11813
910.915	11786
911.03	11581
911.145	11497
911.259	11436
911.374	11482
911.489	11345
911.604	11311
911.718	11212
911.833	11231
911.947	10991
912.062	11010
912.176	11265
912.291	11239
912.405	11147
912.519	11379
912.633	11372
912.748	11326
912.862	11208
912.976	11045
913.09	10957
913.204	11037
913.318	11090
913.431	11155
913.545	11117
913.659	11235
913.772	11033
913.886	10938
914	10953
914.113	11045
914.226	11029
914.34	10984
914.453	10923
914.566	10957
914.68	10896
914.793	10812
914.906	10740
915.019	10618
915.132	10679
915.245	10656
915.358	10748
915.47	10634
915.583	10767
915.696	10714
915.809	10786
915.921	10786
916.034	10702
916.146	10607
916.259	10687
916.371	10778
916.483	10717
916.595	10550
916.708	10645
916.82	10607
916.932	10580
917.044	10561
917.156	10599
917.268	10489
917.38	10603
917.491	10531
917.603	10542
917.715	10558
917.826	10660
917.938	10573
918.049	10379
918.161	10474
918.272	10569
918.384	10672
918.495	10474
918.606	10382
918.717	10299
918.828	10417
918.939	10462
919.05	10318
919.161	10306
919.272	10207
919.383	10341
919.494	10386
919.604	10588
919.715	10424
919.826	10398
919.936	10405
920.047	10504
920.157	10363
920.267	10573
920.378	10428
920.488	10337
920.598	10584
920.708	10672
920.818	10607
920.928	10622
921.038	10740
921.148	10698
921.258	10440
921.368	10348
921.477	10230
921.587	10295
921.697	10131
921.806	10295
921.916	10116
922.025	9934
922.134	9865
922.244	9907
922.353	9915
922.462	9797
922.571	9774
922.68	9648
922.789	9633
922.898	9690
923.007	9515
923.116	9656
923.224	9572
923.333	9660
923.442	9572
923.55	9515
923.659	9557
923.767	9660
923.876	9462
923.984	9568
924.092	9447
924.201	9515
924.309	9466
924.417	9553
924.525	9431
924.633	9466
924.741	10481
924.849	9287
924.956	9405
925.064	9237
925.172	9184
925.279	9287
925.387	9279
925.494	9249
925.602	9462
925.709	9340
925.816	9214
925.924	9359
926.031	9405
926.138	9287
926.245	9317
926.352	9275
926.459	9275
926.566	9363
926.673	9264
926.779	9085
926.886	9169
926.993	9074
927.099	8952
927.206	8929
927.312	8929
927.419	9005
927.525	8975
927.631	9017
927.737	8979
927.843	8883
927.95	8777
928.056	8826
928.162	8895
928.267	8948
928.373	9553
928.479	9024
928.585	8769
928.69	8910
928.796	8914
928.901	8739
929.007	8686
929.112	8868
929.218	8758
929.323	8724
929.428	8682
929.533	8853
929.638	8682
929.743	8629
929.848	8746
929.953	8693
930.058	8575
930.163	8465
930.267	8473
930.372	8594
930.477	8419
930.581	8697
930.685	8613
930.79	8328
930.894	8492
930.998	8427
931.103	8514
931.207	8221
931.311	8206
931.415	8069
931.519	7906
931.623	7925
