Data from test_V78500241_1784.txt Node
Date: Fri Mar 25 14:46:08 CST 2022
User: usil
Spectrometer: V785-0024
Trigger mode: 0
Integration Time (sec): 4.000000E-1
Scans to average: 1
Nonlinearity correction enabled: false
Boxcar width: 0
Storing dark spectrum: false
XAxis mode: Wavelengths
Number of Pixels in Spectrum: 1024
>>>>>Begin Spectral Data<<<<<
801.071	22177
801.214	22070
801.356	21846
801.499	21660
801.641	21382
801.783	21504
801.926	21641
802.068	21557
802.211	21466
802.353	21428
802.496	21070
802.638	21032
802.78	21058
802.923	20986
803.065	20823
803.208	20720
803.35	20826
803.492	21039
803.635	20979
803.777	20948
803.919	20914
804.061	21180
804.204	20967
804.346	20815
804.488	20735
804.63	20861
804.773	20708
804.915	20830
805.057	20807
805.199	20788
805.341	20792
805.483	20899
805.626	20956
805.768	20762
805.91	20811
806.052	20887
806.194	20739
806.336	20952
806.478	20796
806.62	20667
806.762	20853
806.904	21036
807.046	21123
807.188	21085
807.33	21104
807.472	21237
807.614	20963
807.756	21039
807.898	20952
808.04	20800
808.182	20952
808.324	20887
808.465	21009
808.607	21017
808.749	21256
808.891	21370
809.033	21306
809.174	21317
809.316	21100
809.458	21154
809.6	21089
809.741	21127
809.883	21294
810.025	21344
810.166	21329
810.308	21332
810.45	21252
810.591	21116
810.733	20986
810.875	20971
811.016	20921
811.158	20823
811.299	20975
811.441	21146
811.582	21081
811.724	20986
811.865	20895
812.007	20937
812.148	20941
812.29	20891
812.431	21028
812.573	21329
812.714	21405
812.855	21397
812.997	21538
813.138	21603
813.279	21523
813.421	21530
813.562	21359
813.703	21294
813.845	21058
813.986	20735
814.127	20530
814.268	20492
814.41	20484
814.551	20598
814.692	20499
814.833	20568
814.974	20465
815.115	20609
815.256	20275
815.397	20298
815.539	20370
815.68	20237
815.821	20176
815.962	20309
816.103	20153
816.244	20062
816.385	19913
816.526	19963
816.666	19887
816.807	19715
816.948	19723
817.089	19738
817.23	19681
817.371	19666
817.512	19491
817.653	19723
817.793	19525
817.934	19738
818.075	19594
818.216	19693
818.356	19575
818.497	19521
818.638	19304
818.778	19327
818.919	19343
819.06	19289
819.2	19358
819.341	19537
819.481	19563
819.622	19556
819.762	19883
819.903	19738
820.043	19761
820.184	19620
820.324	19632
820.465	19670
820.605	19651
820.746	19597
820.886	19491
821.026	19662
821.167	19430
821.307	19594
821.447	19635
821.588	19445
821.728	19335
821.868	19122
822.008	19072
822.149	18943
822.289	19015
822.429	18760
822.569	18719
822.709	18772
822.849	18547
822.99	18532
823.13	18498
823.27	18418
823.41	18342
823.55	18232
823.69	18300
823.83	18395
823.97	18304
824.11	18140
824.25	18015
824.389	17965
824.529	18110
824.669	18114
824.809	18167
824.949	18171
825.089	18133
825.228	18095
825.368	17935
825.508	17931
825.648	17897
825.787	17988
825.927	18038
826.067	17828
826.206	17859
826.346	17851
826.485	17809
826.625	17897
826.765	17870
826.904	17931
827.044	17600
827.183	17634
827.323	17379
827.462	17558
827.601	17535
827.741	17516
827.88	17547
828.02	17391
828.159	17383
828.298	17524
828.437	17638
828.577	17570
828.716	17756
828.855	17581
828.994	17364
829.134	17372
829.273	17292
829.412	17334
829.551	17353
829.69	17212
829.829	17326
829.968	17383
830.107	17398
830.246	17326
830.385	17227
830.524	17242
830.663	17140
830.802	17037
830.941	16889
831.08	16866
831.219	16984
831.357	16946
831.496	17037
831.635	17014
831.774	16908
831.913	16820
832.051	16755
832.19	16679
832.329	16763
832.467	16622
832.606	16561
832.744	16546
832.883	16584
833.022	16645
833.16	16679
833.299	16656
833.437	16740
833.576	16660
833.714	16626
833.852	16618
833.991	16622
834.129	16736
834.267	16668
834.406	16653
834.544	16691
834.682	16733
834.821	16694
834.959	16900
835.097	16691
835.235	16713
835.373	16748
835.511	16710
835.65	16588
835.788	16538
835.926	16394
836.064	16322
836.202	16432
836.34	16668
836.478	16637
836.615	16550
836.753	16588
836.891	16615
837.029	16622
837.167	16599
837.305	16489
837.443	16542
837.58	16512
837.718	16493
837.856	16466
837.993	16508
838.131	16493
838.269	16276
838.406	16390
838.544	16234
838.681	16150
838.819	16154
838.956	16002
839.094	16036
839.231	16021
839.369	16192
839.506	16489
839.643	16230
839.781	16036
839.918	15930
840.055	15945
840.193	16158
840.33	15945
840.467	16006
840.604	15964
840.742	16291
840.879	15880
841.016	15884
841.153	15934
841.29	16200
841.427	16044
841.564	15975
841.701	16074
841.838	15888
841.975	15800
842.112	15907
842.249	15827
842.385	15743
842.522	16029
842.659	15747
842.796	15816
842.933	15835
843.069	15717
843.206	15739
843.343	15838
843.479	15781
843.616	15854
843.752	15637
843.889	15675
844.025	15663
844.162	15606
844.298	15572
844.435	15530
844.571	15572
844.708	15641
844.844	15736
844.98	15827
845.117	15690
845.253	15492
845.389	15416
845.525	15629
845.661	15412
845.798	15233
845.934	15481
846.07	15367
846.206	15374
846.342	15523
846.478	15386
846.614	15230
846.75	15058
846.886	15150
847.022	15298
847.158	15157
847.294	15241
847.429	15226
847.565	15104
847.701	15462
847.837	14918
847.972	14937
848.108	14990
848.244	14971
848.379	14792
848.515	14727
848.65	14727
848.786	14750
848.921	14731
849.057	14842
849.192	14826
849.328	14819
849.463	14686
849.598	14697
849.734	14712
849.869	14541
850.004	14499
850.14	14556
850.275	14522
850.41	14442
850.545	14484
850.68	14446
850.815	14492
850.95	14461
851.085	14587
851.22	14598
851.355	14632
851.49	14568
851.625	14598
851.76	14457
851.895	14400
852.03	14366
852.165	14438
852.299	14495
852.434	14678
852.569	14514
852.703	14507
852.838	14693
852.973	14686
853.107	14678
853.242	14457
853.376	14313
853.511	14309
853.645	14423
853.78	14454
853.914	14412
854.048	14362
854.183	14339
854.317	14404
854.451	14480
854.585	14404
854.72	14431
854.854	14438
854.988	14385
855.122	14358
855.256	14202
855.39	14377
855.524	14488
855.658	14343
855.792	14313
855.926	14381
856.06	14434
856.194	14545
856.327	14389
856.461	14286
856.595	14385
856.729	14370
856.862	14511
856.996	14461
857.13	14457
857.263	14583
857.397	14488
857.53	14431
857.664	14484
857.797	14370
857.931	14488
858.064	14450
858.197	14507
858.331	14317
858.464	14370
858.597	14237
858.731	14290
858.864	14309
858.997	14309
859.13	14370
859.263	14419
859.396	14404
859.529	14446
859.662	14290
859.795	14290
859.928	14446
860.061	14575
860.194	14556
860.327	14419
860.46	14465
860.592	14518
860.725	14465
860.858	14400
860.99	14370
861.123	14271
861.256	14221
861.388	14408
861.521	15081
861.653	14191
861.786	14313
861.918	14225
862.05	14332
862.183	14377
862.315	14370
862.447	14480
862.58	14396
862.712	14123
862.844	14031
862.976	14199
863.108	14195
863.24	14492
863.372	14142
863.504	14123
863.636	14172
863.768	14271
863.9	14100
864.032	14115
864.164	14123
864.296	14206
864.428	14263
864.559	14305
864.691	14164
864.823	14298
864.954	14202
865.086	14221
865.217	14172
865.349	13993
865.48	14084
865.612	14210
865.743	14294
865.875	14183
866.006	14123
866.137	14237
866.269	14176
866.4	14267
866.531	14119
866.662	14046
866.793	14077
866.924	14065
867.055	14210
867.186	14123
867.317	14005
867.448	14035
867.579	14172
867.71	14024
867.841	14043
867.972	14115
868.103	14164
868.233	14149
868.364	14157
868.495	14259
868.625	14358
868.756	14450
868.886	14294
869.017	14381
869.147	14461
869.278	14511
869.408	14427
869.539	14450
869.669	14564
869.799	14450
869.929	14552
870.06	14556
870.19	14701
870.32	14670
870.45	14705
870.58	14796
870.71	14910
870.84	14849
870.97	14762
871.1	14769
871.23	14891
871.36	15070
871.489	14834
871.619	14994
871.749	15020
871.879	14971
872.008	15055
872.138	14982
872.267	14929
872.397	14864
872.526	14765
872.656	14815
872.785	14902
872.915	14948
873.044	15085
873.173	14998
873.303	15119
873.432	15089
873.561	15051
873.69	15123
873.819	15039
873.948	15176
874.077	15047
874.206	14994
874.335	15032
874.464	15291
874.593	15359
874.722	15211
874.851	15367
874.979	15389
875.108	15420
875.237	15332
875.365	15226
875.494	15291
875.623	15485
875.751	15306
875.88	15397
876.008	15492
876.136	15481
876.265	15686
876.393	15964
876.521	15808
876.65	15880
876.778	15819
876.906	15694
877.034	15713
877.162	15766
877.29	15663
877.418	15804
877.546	15728
877.674	15797
877.802	15842
877.93	15823
878.058	15724
878.185	15804
878.313	15667
878.441	15759
878.568	15576
878.696	15720
878.824	15747
878.951	15774
879.079	15915
879.206	16021
879.333	15972
879.461	15827
879.588	15922
879.715	15934
879.842	16051
879.97	15770
880.097	15633
880.224	15511
880.351	15618
880.478	15519
880.605	15610
880.732	15686
880.859	15835
880.986	15622
881.112	15717
881.239	15538
881.366	15389
881.493	15233
881.619	15207
881.746	15291
881.872	15344
881.999	15188
882.125	15294
882.252	15302
882.378	15310
882.505	15374
882.631	15222
882.757	15089
882.883	15127
883.01	15058
883.136	15032
883.262	15017
883.388	14986
883.514	15093
883.64	15161
883.766	15009
883.892	14944
884.018	14880
884.143	15108
884.269	15142
884.395	14819
884.52	14762
884.646	14804
884.772	14716
884.897	14708
885.023	14876
885.148	14864
885.274	15005
885.399	14883
885.524	14800
885.65	14781
885.775	14853
885.9	14727
886.025	14880
886.15	14849
886.275	14834
886.4	14678
886.525	14769
886.65	14720
886.775	14648
886.9	14906
887.025	14971
887.149	14834
887.274	14682
887.399	14655
887.523	14617
887.648	14568
887.773	14590
887.897	14651
888.021	14697
888.146	14758
888.27	14712
888.395	14731
888.519	14743
888.643	14705
888.767	14682
888.891	14522
889.015	14419
889.139	14423
889.263	14507
889.387	14503
889.511	14552
889.635	14625
889.759	14442
889.883	14438
890.006	14465
890.13	14583
890.254	14396
890.377	14362
890.501	14324
890.624	14324
890.748	14347
890.871	14233
890.995	14168
891.118	14134
891.241	14065
891.364	14092
891.488	14183
891.611	14172
891.734	14221
891.857	14248
891.98	14233
892.103	14240
892.226	14214
892.349	14115
892.471	14123
892.594	14191
892.717	14138
892.839	14161
892.962	14153
893.085	14275
893.207	14221
893.33	14012
893.452	14187
893.575	14271
893.697	14195
893.819	14286
893.941	14381
894.064	14396
894.186	14092
894.308	14187
894.43	14317
894.552	14332
894.674	14389
894.796	14168
894.918	14237
895.04	14221
895.161	14290
895.283	14324
895.405	14168
895.526	14214
895.648	14317
895.769	14347
895.891	14347
896.012	14339
896.134	14419
896.255	14320
896.376	14267
896.498	14366
896.619	14419
896.74	14381
896.861	14385
896.982	14705
897.103	14727
897.224	14632
897.345	14636
897.466	14476
897.587	14670
897.708	14670
897.828	14655
897.949	14556
898.07	14396
898.19	14541
898.311	14758
898.431	14632
898.552	14667
898.672	14724
898.792	14758
898.913	14792
899.033	14598
899.153	14541
899.273	14400
899.393	14488
899.513	14606
899.633	14587
899.753	14503
899.873	14499
899.993	14526
900.113	14511
900.232	14537
900.352	14530
900.472	14495
900.591	14389
900.711	14385
900.83	14499
900.95	14526
901.069	14511
901.189	14347
901.308	14115
901.427	13963
901.546	14161
901.665	14046
901.784	14103
901.904	13898
902.023	13925
902.141	13685
902.26	13677
902.379	13750
902.498	13578
902.617	13552
902.735	13674
902.854	13636
902.973	13575
903.091	13320
903.21	13331
903.328	13369
903.446	13350
903.565	13270
903.683	13297
903.801	13129
903.919	13209
904.038	13160
904.156	13050
904.274	13129
904.392	13004
904.51	13046
904.627	12989
904.745	13050
904.863	13057
904.981	12863
905.098	12745
905.216	12833
905.334	12722
905.451	12764
905.569	12681
905.686	12764
905.803	12772
905.921	12521
906.038	12692
906.155	12646
906.272	12418
906.389	12372
906.506	12399
906.623	12266
906.74	12251
906.857	12213
906.974	12338
907.091	12361
907.208	12513
907.324	12395
907.441	12239
907.557	12060
907.674	12015
907.79	11939
907.907	12106
908.023	12087
908.139	12022
908.256	11999
908.372	11927
908.488	11969
908.604	11882
908.72	11794
908.836	11870
908.952	11745
909.068	11878
909.184	11916
909.3	11843
909.415	11851
909.531	11840
909.647	11695
909.762	11520
909.878	11566
909.993	11539
910.108	11615
910.224	11623
910.339	11562
910.454	11471
910.57	11471
910.685	11360
910.8	11752
910.915	11638
911.03	11455
911.145	11315
911.259	11242
911.374	11254
911.489	11235
911.604	11185
911.718	11022
911.833	11029
911.947	10957
912.062	10869
912.176	11029
912.291	11109
912.405	11045
912.519	11311
912.633	11277
912.748	11105
912.862	11014
912.976	10930
913.09	10862
913.204	10946
913.318	10980
913.431	10923
913.545	10976
913.659	11071
913.772	10869
913.886	10790
914	10740
914.113	10889
914.226	10862
914.34	10892
914.453	10725
914.566	10843
914.68	10755
914.793	10797
914.906	10603
915.019	10478
915.132	10489
915.245	10504
915.358	10599
915.47	10554
915.583	10542
915.696	10630
915.809	10649
915.921	10694
916.034	10478
916.146	10527
916.259	10413
916.371	10592
916.483	10573
916.595	10481
916.708	10561
916.82	10504
916.932	10428
917.044	10500
917.156	10379
917.268	10371
917.38	10386
917.491	10363
917.603	10371
917.715	10497
917.826	10542
917.938	10382
918.049	10265
918.161	10348
918.272	10527
918.384	10432
918.495	10371
918.606	10310
918.717	10177
918.828	10261
918.939	10227
919.05	10162
919.161	10246
919.272	10082
919.383	10135
919.494	10295
919.604	10451
919.715	10299
919.826	10204
919.936	10219
920.047	10310
920.157	10291
920.267	10546
920.378	10348
920.488	10341
920.598	10466
920.708	10508
920.818	10485
920.928	10489
921.038	10542
921.148	10607
921.258	10287
921.368	10188
921.477	10059
921.587	10139
921.697	10067
921.806	10116
921.916	10021
922.025	9869
922.134	9732
922.244	9808
922.353	9876
922.462	9686
922.571	9652
922.68	9473
922.789	9534
922.898	9526
923.007	9466
923.116	9572
923.224	9492
923.333	9557
923.442	9405
923.55	9344
923.659	9367
923.767	9500
923.876	9374
923.984	9443
924.092	9332
924.201	9363
924.309	9336
924.417	9397
924.525	9370
924.633	9370
924.741	10238
924.849	9173
924.956	9253
925.064	9150
925.172	9100
925.279	9127
925.387	9233
925.494	9203
925.602	9344
925.709	9195
925.816	9146
925.924	9116
926.031	9233
926.138	9207
926.245	9173
926.352	9077
926.459	9218
926.566	9245
926.673	9062
926.779	9043
926.886	8975
926.993	8872
927.099	8826
927.206	8823
927.312	8804
927.419	8925
927.525	8925
927.631	8895
927.737	8849
927.843	8788
927.95	8629
928.056	8788
928.162	8777
928.267	8849
928.373	9515
928.479	8834
928.585	8701
928.69	8861
928.796	8815
928.901	8716
929.007	8640
929.112	8720
929.218	8701
929.323	8697
929.428	8575
929.533	8712
929.638	8583
929.743	8537
929.848	8640
929.953	8625
930.058	8537
930.163	8377
930.267	8313
930.372	8488
930.477	8305
930.581	8598
930.685	8583
930.79	8347
930.894	8370
930.998	8362
931.103	8461
931.207	8164
931.311	8168
931.415	7932
931.519	7890
931.623	7932
