Data from test_V78500241_2455.txt Node
Date: Fri Mar 25 14:50:48 CST 2022
User: usil
Spectrometer: V785-0024
Trigger mode: 0
Integration Time (sec): 4.000000E-1
Scans to average: 1
Nonlinearity correction enabled: false
Boxcar width: 0
Storing dark spectrum: false
XAxis mode: Wavelengths
Number of Pixels in Spectrum: 1024
>>>>>Begin Spectral Data<<<<<
801.071	22177
801.214	22120
801.356	21739
801.499	21633
801.641	21519
801.783	21378
801.926	21481
802.068	21370
802.211	21424
802.353	21096
802.496	21020
802.638	21074
802.78	20982
802.923	20758
803.065	20796
803.208	20826
803.35	20739
803.492	20956
803.635	20960
803.777	20731
803.919	20849
804.061	21260
804.204	20914
804.346	20682
804.488	20640
804.63	20697
804.773	20670
804.915	20777
805.057	20838
805.199	20686
805.341	20697
805.483	20796
805.626	20891
805.768	20743
805.91	20758
806.052	20712
806.194	20609
806.336	20823
806.478	20720
806.62	20602
806.762	20758
806.904	20823
807.046	21024
807.188	21036
807.33	21058
807.472	21116
807.614	20857
807.756	20899
807.898	20845
808.04	20659
808.182	20781
808.324	20727
808.465	20868
808.607	20948
808.749	21195
808.891	21294
809.033	21363
809.174	21131
809.316	21055
809.458	21154
809.6	21028
809.741	21161
809.883	21184
810.025	21241
810.166	21237
810.308	21230
810.45	21173
810.591	21272
810.733	20910
810.875	20929
811.016	20758
811.158	20724
811.299	20982
811.441	21112
811.582	21036
811.724	20891
811.865	20937
812.007	20815
812.148	20811
812.29	20960
812.431	21127
812.573	21260
812.714	21298
812.855	21230
812.997	21481
813.138	21542
813.279	21568
813.421	21412
813.562	21359
813.703	21195
813.845	20929
813.986	20720
814.127	20560
814.268	20415
814.41	20446
814.551	20351
814.692	20480
814.833	20389
814.974	20294
815.115	20412
815.256	20358
815.397	20320
815.539	20225
815.68	20126
815.821	20119
815.962	20149
816.103	20199
816.244	19928
816.385	19947
816.526	19753
816.666	19708
816.807	19540
816.948	19742
817.089	19719
817.23	19597
817.371	19620
817.512	19559
817.653	19586
817.793	19601
817.934	19441
818.075	19472
818.216	19624
818.356	19407
818.497	19297
818.638	19152
818.778	19304
818.919	19331
819.06	19225
819.2	19312
819.341	19506
819.481	19449
819.622	19525
819.762	19613
819.903	19632
820.043	19601
820.184	19571
820.324	19472
820.465	19548
820.605	19533
820.746	19422
820.886	19510
821.026	19514
821.167	19434
821.307	19556
821.447	19403
821.588	19251
821.728	19217
821.868	19133
822.008	18871
822.149	18882
822.289	18920
822.429	18585
822.569	18570
822.709	18749
822.849	18448
822.99	18388
823.13	18395
823.27	18456
823.41	18277
823.55	18163
823.69	18285
823.83	18243
823.97	18133
824.11	17992
824.25	17878
824.389	18076
824.529	18171
824.669	17988
824.809	18152
824.949	18049
825.089	18144
825.228	17931
825.368	17874
825.508	17809
825.648	17847
825.787	17836
825.927	17851
826.067	17699
826.206	17722
826.346	17699
826.485	17843
826.625	17752
826.765	17863
826.904	17786
827.044	17634
827.183	17551
827.323	17440
827.462	17551
827.601	17467
827.741	17410
827.88	17524
828.02	17311
828.159	17497
828.298	17421
828.437	17425
828.577	17402
828.716	17478
828.855	17425
828.994	17170
829.134	17208
829.273	17250
829.412	17235
829.551	17159
829.69	17216
829.829	17265
829.968	17239
830.107	17330
830.246	17189
830.385	17151
830.524	17143
830.663	16957
830.802	16934
830.941	16835
831.08	16801
831.219	16824
831.357	16847
831.496	17014
831.635	16953
831.774	16683
831.913	16774
832.051	16622
832.19	16634
832.329	16675
832.467	16626
832.606	16447
832.744	16481
832.883	16527
833.022	16470
833.16	16493
833.299	16558
833.437	16561
833.576	16588
833.714	16527
833.852	16611
833.991	16500
834.129	16668
834.267	16493
834.406	16512
834.544	16489
834.682	16527
834.821	16489
834.959	16691
835.097	16535
835.235	16569
835.373	16569
835.511	16672
835.65	16421
835.788	16512
835.926	16322
836.064	16375
836.202	16276
836.34	16474
836.478	16580
836.615	16466
836.753	16500
836.891	16542
837.029	16504
837.167	16497
837.305	16375
837.443	16318
837.58	16344
837.718	16443
837.856	16356
837.993	16249
838.131	16394
838.269	16306
838.406	16268
838.544	16143
838.681	16082
838.819	15960
838.956	15903
839.094	15903
839.231	15842
839.369	16131
839.506	16322
839.643	16067
839.781	15857
839.918	15968
840.055	15907
840.193	15918
840.33	15869
840.467	15884
840.604	15922
840.742	16112
840.879	15804
841.016	15876
841.153	15831
841.29	15983
841.427	15865
841.564	15941
841.701	15869
841.838	15762
841.975	15709
842.112	15774
842.249	15686
842.385	15713
842.522	15949
842.659	15713
842.796	15671
842.933	15599
843.069	15728
843.206	15682
843.343	15770
843.479	15743
843.616	15675
843.752	15481
843.889	15488
844.025	15667
844.162	15363
844.298	15599
844.435	15454
844.571	15367
844.708	15481
844.844	15614
844.98	15553
845.117	15500
845.253	15401
845.389	15401
845.525	15389
845.661	15310
845.798	15207
845.934	15275
846.07	15154
846.206	15252
846.342	15332
846.478	15275
846.614	15058
846.75	14998
846.886	15001
847.022	15066
847.158	15066
847.294	15001
847.429	14998
847.565	14941
847.701	15268
847.837	14743
847.972	14724
848.108	14887
848.244	14857
848.379	14663
848.515	14606
848.65	14602
848.786	14583
848.921	14564
849.057	14826
849.192	14705
849.328	14670
849.463	14701
849.598	14568
849.734	14511
849.869	14370
850.004	14381
850.14	14461
850.275	14503
850.41	14290
850.545	14309
850.68	14415
850.815	14465
850.95	14358
851.085	14571
851.22	14537
851.355	14358
851.49	14332
851.625	14370
851.76	14389
851.895	14275
852.03	14347
852.165	14313
852.299	14503
852.434	14381
852.569	14469
852.703	14419
852.838	14518
852.973	14632
853.107	14503
853.242	14415
853.376	14313
853.511	14161
853.645	14187
853.78	14313
853.914	14290
854.048	14301
854.183	14244
854.317	14248
854.451	14454
854.585	14259
854.72	14225
854.854	14457
854.988	14115
855.122	14328
855.256	14187
855.39	14210
855.524	14366
855.658	14381
855.792	14339
855.926	14343
856.06	14324
856.194	14446
856.327	14309
856.461	14225
856.595	14218
856.729	14199
856.862	14343
856.996	14366
857.13	14423
857.263	14320
857.397	14404
857.53	14195
857.664	14362
857.797	14381
857.931	14408
858.064	14358
858.197	14415
858.331	14252
858.464	14237
858.597	14161
858.731	14271
858.864	14298
858.997	14256
859.13	14320
859.263	14290
859.396	14332
859.529	14286
859.662	14259
859.795	14229
859.928	14271
860.061	14301
860.194	14480
860.327	14431
860.46	14267
860.592	14393
860.725	14495
860.858	14492
860.99	14309
861.123	14252
861.256	14195
861.388	14389
861.521	14834
861.653	14142
861.786	14088
861.918	14233
862.05	14278
862.183	14210
862.315	14240
862.447	14332
862.58	14172
862.712	14100
862.844	14020
862.976	14153
863.108	14229
863.24	14423
863.372	13890
863.504	13955
863.636	14073
863.768	14092
863.9	14043
864.032	14058
864.164	14046
864.296	14054
864.428	14168
864.559	14267
864.691	14183
864.823	14096
864.954	14195
865.086	14138
865.217	14050
865.349	14062
865.48	14035
865.612	14065
865.743	14187
865.875	14065
866.006	14012
866.137	14008
866.269	14100
866.4	14005
866.531	14001
866.662	14020
866.793	13959
866.924	14050
867.055	14020
867.186	13909
867.317	14035
867.448	13986
867.579	14039
867.71	13879
867.841	13993
867.972	14043
868.103	14077
868.233	14065
868.364	14084
868.495	14134
868.625	14229
868.756	14400
868.886	14229
869.017	14271
869.147	14343
869.278	14389
869.408	14351
869.539	14298
869.669	14393
869.799	14355
869.929	14374
870.06	14552
870.19	14659
870.32	14621
870.45	14579
870.58	14735
870.71	14826
870.84	14830
870.97	14720
871.1	14682
871.23	14910
871.36	14937
871.489	14796
871.619	14826
871.749	14872
871.879	14918
872.008	14960
872.138	14891
872.267	14853
872.397	14727
872.526	14697
872.656	14705
872.785	14720
872.915	14895
873.044	14937
873.173	14887
873.303	14864
873.432	15062
873.561	15009
873.69	14948
873.819	14929
873.948	15047
874.077	14925
874.206	14845
874.335	14937
874.464	15020
874.593	15310
874.722	15207
874.851	15363
874.979	15260
875.108	15386
875.237	15218
875.365	15176
875.494	15222
875.623	15283
875.751	15161
875.88	15294
876.008	15473
876.136	15416
876.265	15648
876.393	15861
876.521	15732
876.65	15808
876.778	15656
876.906	15534
877.034	15622
877.162	15682
877.29	15671
877.418	15728
877.546	15694
877.674	15694
877.802	15732
877.93	15701
878.058	15671
878.185	15500
878.313	15561
878.441	15679
878.568	15473
878.696	15584
878.824	15660
878.951	15724
879.079	15953
879.206	15918
879.333	15812
879.461	15770
879.588	15766
879.715	15846
879.842	15949
879.97	15686
880.097	15450
880.224	15420
880.351	15469
880.478	15507
880.605	15564
880.732	15515
880.859	15709
880.986	15618
881.112	15462
881.239	15389
881.366	15298
881.493	15165
881.619	15226
881.746	15188
881.872	15070
881.999	15112
882.125	15165
882.252	15291
882.378	15195
882.505	15336
882.631	15085
882.757	15119
882.883	14990
883.01	14990
883.136	14990
883.262	14849
883.388	14842
883.514	15104
883.64	15024
883.766	14975
883.892	14758
884.018	14830
884.143	15024
884.269	15013
884.395	14788
884.52	14655
884.646	14727
884.772	14629
884.897	14503
885.023	14701
885.148	14777
885.274	14895
885.399	14823
885.524	14819
885.65	14716
885.775	14663
885.9	14693
886.025	14800
886.15	14743
886.275	14670
886.4	14549
886.525	14651
886.65	14549
886.775	14625
886.9	14853
887.025	14880
887.149	14712
887.274	14522
887.399	14568
887.523	14541
887.648	14396
887.773	14469
887.897	14587
888.021	14610
888.146	14556
888.27	14678
888.395	14617
888.519	14594
888.643	14537
888.767	14606
888.891	14442
889.015	14343
889.139	14438
889.263	14412
889.387	14465
889.511	14629
889.635	14575
889.759	14415
889.883	14301
890.006	14381
890.13	14533
890.254	14298
890.377	14374
890.501	14233
890.624	14126
890.748	14282
890.871	14134
890.995	14103
891.118	14016
891.241	14191
891.364	14096
891.488	14218
891.611	14069
891.734	14107
891.857	14164
891.98	14103
892.103	14180
892.226	14081
892.349	14096
892.471	14039
892.594	14058
892.717	14031
892.839	14008
892.962	14062
893.085	14130
893.207	14096
893.33	13932
893.452	14031
893.575	14119
893.697	13978
893.819	14275
893.941	14309
894.064	14263
894.186	14027
894.308	14164
894.43	14313
894.552	14278
894.674	14263
894.796	14069
894.918	14096
895.04	14103
895.161	14263
895.283	14309
895.405	14172
895.526	14149
895.648	14149
895.769	14229
895.891	14195
896.012	14263
896.134	14324
896.255	14347
896.376	14218
896.498	14225
896.619	14320
896.74	14301
896.861	14294
896.982	14632
897.103	14701
897.224	14594
897.345	14511
897.466	14442
897.587	14533
897.708	14678
897.828	14503
897.949	14568
898.07	14374
898.19	14514
898.311	14621
898.431	14541
898.552	14697
898.672	14735
898.792	14613
898.913	14632
899.033	14537
899.153	14514
899.273	14415
899.393	14385
899.513	14446
899.633	14507
899.753	14465
899.873	14465
899.993	14488
900.113	14503
900.232	14450
900.352	14503
900.472	14370
900.591	14259
900.711	14358
900.83	14320
900.95	14404
901.069	14427
901.189	14317
901.308	14054
901.427	14020
901.546	14035
901.665	14039
901.784	14103
901.904	13875
902.023	13841
902.141	13689
902.26	13597
902.379	13639
902.498	13556
902.617	13571
902.735	13548
902.854	13483
902.973	13582
903.091	13316
903.21	13312
903.328	13312
903.446	13103
903.565	13145
903.683	13187
903.801	13107
903.919	13053
904.038	13145
904.156	12973
904.274	12989
904.392	12970
904.51	13031
904.627	12916
904.745	13000
904.863	12985
904.981	12856
905.098	12696
905.216	12681
905.334	12738
905.451	12604
905.569	12635
905.686	12749
905.803	12570
905.921	12521
906.038	12620
906.155	12521
906.272	12365
906.389	12391
906.506	12296
906.623	12273
906.74	12235
906.857	12175
906.974	12106
907.091	12300
907.208	12467
907.324	12292
907.441	12205
907.557	11946
907.674	11935
907.79	12011
907.907	11992
908.023	12030
908.139	12022
908.256	11950
908.372	12003
908.488	11901
908.604	11859
908.72	11764
908.836	11710
908.952	11745
909.068	11790
909.184	11863
909.3	11680
909.415	11703
909.531	11741
909.647	11509
909.762	11524
909.878	11570
909.993	11512
910.108	11547
910.224	11528
910.339	11596
910.454	11478
910.57	11398
910.685	11296
910.8	11589
910.915	11471
911.03	11395
911.145	11212
911.259	11174
911.374	11178
911.489	11128
911.604	11140
911.718	10927
911.833	10995
911.947	10866
912.062	10866
912.176	10976
912.291	10991
912.405	10995
912.519	11155
912.633	11140
912.748	11010
912.862	10984
912.976	10881
913.09	10812
913.204	10873
913.318	10923
913.431	10984
913.545	10961
913.659	11045
913.772	10934
913.886	10782
914	10672
914.113	10809
914.226	10927
914.34	10820
914.453	10622
914.566	10828
914.68	10744
914.793	10664
914.906	10565
915.019	10470
915.132	10428
915.245	10546
915.358	10527
915.47	10447
915.583	10542
915.696	10523
915.809	10573
915.921	10675
916.034	10466
916.146	10417
916.259	10455
916.371	10603
916.483	10485
916.595	10363
916.708	10318
916.82	10428
916.932	10348
917.044	10428
917.156	10421
917.268	10390
917.38	10265
917.491	10322
917.603	10390
917.715	10402
917.826	10390
917.938	10299
918.049	10131
918.161	10329
918.272	10344
918.384	10466
918.495	10379
918.606	10295
918.717	10101
918.828	10227
918.939	10192
919.05	10097
919.161	10169
919.272	10071
919.383	10071
919.494	10352
919.604	10421
919.715	10200
919.826	10154
919.936	10173
920.047	10249
920.157	10257
920.267	10455
920.378	10261
920.488	10150
920.598	10402
920.708	10535
920.818	10348
920.928	10367
921.038	10558
921.148	10481
921.258	10249
921.368	10143
921.477	10090
921.587	10086
921.697	9922
921.806	10036
921.916	9949
922.025	9846
922.134	9755
922.244	9736
922.353	9762
922.462	9610
922.571	9545
922.68	9530
922.789	9504
922.898	9496
923.007	9359
923.116	9526
923.224	9496
923.333	9416
923.442	9332
923.55	9272
923.659	9424
923.767	9389
923.876	9272
923.984	9397
924.092	9233
924.201	9378
924.309	9268
924.417	9332
924.525	9302
924.633	9287
924.741	10021
924.849	9062
924.956	9332
925.064	9146
925.172	8967
925.279	9089
925.387	9138
925.494	9066
925.602	9291
925.709	9176
925.816	9108
925.924	9131
926.031	9211
926.138	9104
926.245	9116
926.352	9036
926.459	9173
926.566	9256
926.673	9024
926.779	8956
926.886	8986
926.993	8826
927.099	8834
927.206	8739
927.312	8807
927.419	8842
927.525	8792
927.631	8876
927.737	8739
927.843	8670
927.95	8602
928.056	8758
928.162	8754
928.267	8826
928.373	9443
928.479	8811
928.585	8590
928.69	8773
928.796	8720
928.901	8629
929.007	8514
929.112	8606
929.218	8560
929.323	8530
929.428	8594
929.533	8610
929.638	8484
929.743	8545
929.848	8583
929.953	8602
930.058	8522
930.163	8252
930.267	8381
930.372	8377
930.477	8336
930.581	8552
930.685	8427
930.79	8233
930.894	8305
930.998	8252
931.103	8423
931.207	8027
931.311	7970
931.415	7925
931.519	7742
931.623	7750
