Data from test_V78500241_2601.txt Node
Date: Fri Mar 25 14:51:49 CST 2022
User: usil
Spectrometer: V785-0024
Trigger mode: 0
Integration Time (sec): 4.000000E-1
Scans to average: 1
Nonlinearity correction enabled: false
Boxcar width: 0
Storing dark spectrum: false
XAxis mode: Wavelengths
Number of Pixels in Spectrum: 1024
>>>>>Begin Spectral Data<<<<<
801.071	21884
801.214	21812
801.356	21720
801.499	21591
801.641	21386
801.783	21393
801.926	21382
802.068	21260
802.211	21249
802.353	21241
802.496	20948
802.638	20857
802.78	20880
802.923	20819
803.065	20674
803.208	20640
803.35	20655
803.492	20754
803.635	20918
803.777	20785
803.919	20773
804.061	21043
804.204	20788
804.346	20705
804.488	20503
804.63	20765
804.773	20625
804.915	20644
805.057	20674
805.199	20556
805.341	20705
805.483	20625
805.626	20648
805.768	20705
805.91	20606
806.052	20629
806.194	20587
806.336	20777
806.478	20526
806.62	20537
806.762	20686
806.904	20705
807.046	20929
807.188	20864
807.33	21001
807.472	20975
807.614	20716
807.756	20826
807.898	20845
808.04	20678
808.182	20686
808.324	20796
808.465	20724
808.607	20902
808.749	21017
808.891	21051
809.033	21131
809.174	21089
809.316	20941
809.458	20925
809.6	20838
809.741	21047
809.883	21104
810.025	21226
810.166	21017
810.308	21070
810.45	21184
810.591	21013
810.733	20830
810.875	20819
811.016	20720
811.158	20701
811.299	20800
811.441	20994
811.582	20948
811.724	20781
811.865	20811
812.007	20716
812.148	20682
812.29	20712
812.431	20876
812.573	21085
812.714	21222
812.855	21264
812.997	21268
813.138	21523
813.279	21336
813.421	21199
813.562	21157
813.703	21020
813.845	20861
813.986	20518
814.127	20484
814.268	20355
814.41	20434
814.551	20248
814.692	20301
814.833	20252
814.974	20180
815.115	20218
815.256	20145
815.397	20214
815.539	20183
815.68	19978
815.821	20077
815.962	20069
816.103	20058
816.244	19769
816.385	19742
816.526	19712
816.666	19738
816.807	19422
816.948	19514
817.089	19502
817.23	19384
817.371	19449
817.512	19407
817.653	19377
817.793	19297
817.934	19464
818.075	19445
818.216	19324
818.356	19400
818.497	19259
818.638	19145
818.778	19110
818.919	19179
819.06	19285
819.2	19270
819.341	19270
819.481	19255
819.622	19491
819.762	19605
819.903	19514
820.043	19487
820.184	19343
820.324	19464
820.465	19434
820.605	19438
820.746	19369
820.886	19228
821.026	19381
821.167	19445
821.307	19403
821.447	19259
821.588	19316
821.728	19088
821.868	18947
822.008	18833
822.149	18916
822.289	18806
822.429	18696
822.569	18540
822.709	18502
822.849	18289
822.99	18315
823.13	18346
823.27	18304
823.41	18079
823.55	18201
823.69	18171
823.83	18041
823.97	17977
824.11	17935
824.25	17965
824.389	17988
824.529	18019
824.669	17965
824.809	17954
824.949	17954
825.089	17927
825.228	17863
825.368	17661
825.508	17661
825.648	17691
825.787	17756
825.927	17687
826.067	17786
826.206	17649
826.346	17726
826.485	17661
826.625	17642
826.765	17680
826.904	17604
827.044	17497
827.183	17269
827.323	17406
827.462	17474
827.601	17181
827.741	17364
827.88	17356
828.02	17277
828.159	17322
828.298	17395
828.437	17383
828.577	17273
828.716	17486
828.855	17307
828.994	17174
829.134	17162
829.273	17208
829.412	17090
829.551	17006
829.69	17052
829.829	17185
829.968	17189
830.107	17178
830.246	17155
830.385	16991
830.524	17094
830.663	16881
830.802	16847
830.941	16778
831.08	16805
831.219	16767
831.357	16748
831.496	16999
831.635	16763
831.774	16653
831.913	16675
832.051	16474
832.19	16500
832.329	16573
832.467	16459
832.606	16337
832.744	16402
832.883	16360
833.022	16421
833.16	16432
833.299	16531
833.437	16398
833.576	16493
833.714	16485
833.852	16516
833.991	16489
834.129	16512
834.267	16500
834.406	16470
834.544	16603
834.682	16622
834.821	16424
834.959	16622
835.097	16561
835.235	16607
835.373	16519
835.511	16599
835.65	16390
835.788	16337
835.926	16344
836.064	16246
836.202	16223
836.34	16527
836.478	16493
836.615	16303
836.753	16394
836.891	16504
837.029	16531
837.167	16424
837.305	16249
837.443	16303
837.58	16150
837.718	16299
837.856	16329
837.993	16284
838.131	16280
838.269	16207
838.406	16276
838.544	16207
838.681	15937
838.819	15888
838.956	15907
839.094	15854
839.231	15960
839.369	15964
839.506	16303
839.643	16086
839.781	15915
839.918	15831
840.055	15888
840.193	15812
840.33	15663
840.467	15724
840.604	15934
840.742	16006
840.879	15622
841.016	15812
841.153	15797
841.29	15918
841.427	15983
841.564	15835
841.701	15895
841.838	15812
841.975	15766
842.112	15755
842.249	15713
842.385	15599
842.522	15804
842.659	15675
842.796	15587
842.933	15637
843.069	15580
843.206	15568
843.343	15671
843.479	15580
843.616	15625
843.752	15428
843.889	15424
844.025	15584
844.162	15408
844.298	15545
844.435	15389
844.571	15401
844.708	15378
844.844	15580
844.98	15625
845.117	15504
845.253	15287
845.389	15260
845.525	15237
845.661	15348
845.798	15173
845.934	15264
846.07	15100
846.206	15264
846.342	15264
846.478	15169
846.614	14971
846.75	14979
846.886	14982
847.022	15017
847.158	15005
847.294	15043
847.429	14979
847.565	14941
847.701	15203
847.837	14746
847.972	14705
848.108	14834
848.244	14800
848.379	14625
848.515	14590
848.65	14575
848.786	14533
848.921	14674
849.057	14765
849.192	14613
849.328	14533
849.463	14682
849.598	14640
849.734	14533
849.869	14366
850.004	14343
850.14	14324
850.275	14446
850.41	14343
850.545	14415
850.68	14358
850.815	14537
850.95	14294
851.085	14434
851.22	14438
851.355	14415
851.49	14286
851.625	14290
851.76	14290
851.895	14240
852.03	14328
852.165	14431
852.299	14374
852.434	14427
852.569	14339
852.703	14412
852.838	14480
852.973	14454
853.107	14438
853.242	14339
853.376	14278
853.511	14077
853.645	14164
853.78	14180
853.914	14248
854.048	14183
854.183	14282
854.317	14199
854.451	14396
854.585	14221
854.72	14183
854.854	14225
854.988	14084
855.122	14206
855.256	14107
855.39	14176
855.524	14301
855.658	14229
855.792	14172
855.926	14298
856.06	14282
856.194	14347
856.327	14214
856.461	14199
856.595	14218
856.729	14263
856.862	14389
856.996	14206
857.13	14332
857.263	14275
857.397	14336
857.53	14195
857.664	14259
857.797	14298
857.931	14309
858.064	14267
858.197	14339
858.331	14138
858.464	14229
858.597	14195
858.731	14168
858.864	14157
858.997	14164
859.13	14199
859.263	14256
859.396	14355
859.529	14275
859.662	14180
859.795	14199
859.928	14290
860.061	14377
860.194	14431
860.327	14259
860.46	14271
860.592	14412
860.725	14301
860.858	14355
860.99	14164
861.123	14111
861.256	14084
861.388	14199
861.521	14880
861.653	14092
861.786	14039
861.918	14096
862.05	14088
862.183	14107
862.315	14176
862.447	14309
862.58	14130
862.712	13989
862.844	14027
862.976	14077
863.108	13925
863.24	14454
863.372	13925
863.504	13989
863.636	14024
863.768	14149
863.9	14008
864.032	13871
864.164	14005
864.296	13940
864.428	14153
864.559	14092
864.691	14107
864.823	14088
864.954	14062
865.086	14092
865.217	13959
865.349	13814
865.48	13940
865.612	14005
865.743	14111
865.875	14012
866.006	14020
866.137	14062
866.269	13951
866.4	13986
866.531	13928
866.662	13837
866.793	13902
866.924	13951
867.055	13993
867.186	13951
867.317	14027
867.448	13906
867.579	13963
867.71	13883
867.841	13917
867.972	13993
868.103	13944
868.233	13963
868.364	13917
868.495	14088
868.625	14157
868.756	14282
868.886	14187
869.017	14142
869.147	14278
869.278	14305
869.408	14317
869.539	14248
869.669	14366
869.799	14263
869.929	14278
870.06	14358
870.19	14533
870.32	14613
870.45	14457
870.58	14705
870.71	14739
870.84	14739
870.97	14621
871.1	14514
871.23	14838
871.36	14804
871.489	14697
871.619	14678
871.749	14887
871.879	14826
872.008	14929
872.138	14910
872.267	14849
872.397	14739
872.526	14663
872.656	14644
872.785	14735
872.915	14872
873.044	14933
873.173	14914
873.303	14979
873.432	14967
873.561	14986
873.69	14880
873.819	14891
873.948	14948
874.077	14929
874.206	14807
874.335	14872
874.464	15085
874.593	15176
874.722	15173
874.851	15230
874.979	15207
875.108	15165
875.237	15104
875.365	15131
875.494	15138
875.623	15272
875.751	15074
875.88	15252
876.008	15279
876.136	15397
876.265	15698
876.393	15755
876.521	15713
876.65	15762
876.778	15682
876.906	15549
877.034	15538
877.162	15603
877.29	15576
877.418	15648
877.546	15717
877.674	15545
877.802	15641
877.93	15519
878.058	15473
878.185	15462
878.313	15614
878.441	15610
878.568	15477
878.696	15587
878.824	15610
878.951	15694
879.079	15705
879.206	15949
879.333	15770
879.461	15584
879.588	15751
879.715	15846
879.842	15945
879.97	15671
880.097	15466
880.224	15447
880.351	15507
880.478	15397
880.605	15507
880.732	15405
880.859	15663
880.986	15458
881.112	15454
881.239	15378
881.366	15389
881.493	15138
881.619	15222
881.746	15142
881.872	15199
881.999	15119
882.125	15001
882.252	15249
882.378	15249
882.505	15241
882.631	15028
882.757	14963
882.883	15070
883.01	14895
883.136	14941
883.262	14921
883.388	14758
883.514	15039
883.64	14994
883.766	14944
883.892	14724
884.018	14804
884.143	14918
884.269	15043
884.395	14678
884.52	14648
884.646	14686
884.772	14682
884.897	14632
885.023	14651
885.148	14727
885.274	14910
885.399	14697
885.524	14758
885.65	14727
885.775	14781
885.9	14674
886.025	14982
886.15	14762
886.275	14621
886.4	14651
886.525	14651
886.65	14617
886.775	14632
886.9	14807
887.025	14967
887.149	14727
887.274	14537
887.399	14423
887.523	14450
887.648	14476
887.773	14408
887.897	14530
888.021	14697
888.146	14556
888.27	14636
888.395	14552
888.519	14590
888.643	14545
888.767	14613
888.891	14423
889.015	14419
889.139	14427
889.263	14377
889.387	14507
889.511	14545
889.635	14396
889.759	14282
889.883	14343
890.006	14351
890.13	14514
890.254	14374
890.377	14332
890.501	14195
890.624	14153
890.748	14282
890.871	14115
890.995	14046
891.118	14046
891.241	14145
891.364	14164
891.488	14180
891.611	14081
891.734	14092
891.857	14065
891.98	14157
892.103	14176
892.226	14153
892.349	14046
892.471	13928
892.594	14012
892.717	14020
892.839	14119
892.962	14073
893.085	14153
893.207	14088
893.33	13951
893.452	13974
893.575	14206
893.697	14054
893.819	14218
893.941	14381
894.064	14229
894.186	14008
894.308	14039
894.43	14248
894.552	14294
894.674	14278
894.796	14046
894.918	14138
895.04	14195
895.161	14366
895.283	14218
895.405	14130
895.526	14191
895.648	14130
895.769	14161
895.891	14358
896.012	14358
896.134	14362
896.255	14256
896.376	14183
896.498	14248
896.619	14336
896.74	14305
896.861	14473
896.982	14712
897.103	14644
897.224	14602
897.345	14507
897.466	14431
897.587	14476
897.708	14648
897.828	14556
897.949	14552
898.07	14415
898.19	14450
898.311	14644
898.431	14503
898.552	14625
898.672	14693
898.792	14727
898.913	14583
899.033	14552
899.153	14454
899.273	14438
899.393	14511
899.513	14484
899.633	14473
899.753	14503
899.873	14328
899.993	14533
900.113	14492
900.232	14434
900.352	14309
900.472	14370
900.591	14259
900.711	14339
900.83	14282
900.95	14396
901.069	14457
901.189	14240
901.308	14142
901.427	14062
901.546	13993
901.665	13986
901.784	14005
901.904	13849
902.023	13753
902.141	13605
902.26	13533
902.379	13674
902.498	13563
902.617	13529
902.735	13567
902.854	13567
902.973	13491
903.091	13331
903.21	13346
903.328	13270
903.446	13232
903.565	13168
903.683	13152
903.801	13088
903.919	13099
904.038	13149
904.156	12947
904.274	12970
904.392	12962
904.51	12859
904.627	12947
904.745	13008
904.863	13069
904.981	12711
905.098	12616
905.216	12711
905.334	12681
905.451	12627
905.569	12582
905.686	12601
905.803	12677
905.921	12517
906.038	12582
906.155	12445
906.272	12441
906.389	12403
906.506	12213
906.623	12216
906.74	12213
906.857	12152
906.974	12167
907.091	12296
907.208	12350
907.324	12247
907.441	12239
907.557	12041
907.674	11999
907.79	11916
907.907	11923
908.023	11999
908.139	12011
908.256	11958
908.372	11874
908.488	11904
908.604	11680
908.72	11680
908.836	11790
908.952	11703
909.068	11786
909.184	11908
909.3	11741
909.415	11847
909.531	11653
909.647	11509
909.762	11604
909.878	11516
909.993	11524
910.108	11501
910.224	11501
910.339	11512
910.454	11436
910.57	11398
910.685	11318
910.8	11562
910.915	11535
911.03	11429
911.145	11212
911.259	11284
911.374	11284
911.489	11231
911.604	11090
911.718	10919
911.833	10972
911.947	10953
912.062	10805
912.176	10934
912.291	10961
912.405	10938
912.519	11098
912.633	11204
912.748	11113
912.862	11029
912.976	10847
913.09	10759
913.204	10793
913.318	10858
913.431	10889
913.545	10915
913.659	11037
913.772	10885
913.886	10725
914	10740
914.113	10793
914.226	10869
914.34	10805
914.453	10664
914.566	10759
914.68	10759
914.793	10679
914.906	10519
915.019	10432
915.132	10367
915.245	10466
915.358	10512
915.47	10478
915.583	10580
915.696	10584
915.809	10630
915.921	10596
916.034	10470
916.146	10443
916.259	10371
916.371	10478
916.483	10451
916.595	10432
916.708	10428
916.82	10421
916.932	10405
917.044	10421
917.156	10306
917.268	10303
917.38	10314
917.491	10230
917.603	10360
917.715	10417
917.826	10360
917.938	10272
918.049	10257
918.161	10344
918.272	10455
918.384	10436
918.495	10344
918.606	10162
918.717	10169
918.828	10120
918.939	10242
919.05	10071
919.161	10112
919.272	9964
919.383	10036
919.494	10253
919.604	10417
919.715	10253
919.826	10215
919.936	10188
920.047	10280
920.157	10234
920.267	10447
920.378	10268
920.488	10188
920.598	10424
920.708	10603
920.818	10402
920.928	10356
921.038	10550
921.148	10455
921.258	10238
921.368	10181
921.477	10078
921.587	10090
921.697	9888
921.806	10124
921.916	9960
922.025	9774
922.134	9842
922.244	9743
922.353	9819
922.462	9648
922.571	9644
922.68	9545
922.789	9481
922.898	9511
923.007	9378
923.116	9481
923.224	9443
923.333	9424
923.442	9454
923.55	9332
923.659	9386
923.767	9420
923.876	9340
923.984	9386
924.092	9199
924.201	9306
924.309	9359
924.417	9340
924.525	9195
924.633	9279
924.741	10086
924.849	9085
924.956	9192
925.064	9112
925.172	9036
925.279	9062
925.387	9100
925.494	9077
925.602	9275
925.709	9127
925.816	9119
925.924	9093
926.031	9237
926.138	9119
926.245	9135
926.352	9043
926.459	9165
926.566	9253
926.673	9043
926.779	8967
926.886	8914
926.993	8902
927.099	8864
927.206	8815
927.312	8724
927.419	8883
927.525	8864
927.631	8853
927.737	8807
927.843	8632
927.95	8560
928.056	8701
928.162	8792
928.267	8804
928.373	9336
928.479	8857
928.585	8568
928.69	8712
928.796	8823
928.901	8636
929.007	8480
929.112	8636
929.218	8632
929.323	8617
929.428	8556
929.533	8697
929.638	8454
929.743	8533
929.848	8568
929.953	8533
930.058	8457
930.163	8240
930.267	8294
930.372	8423
930.477	8320
930.581	8511
930.685	8389
930.79	8294
930.894	8286
930.998	8244
931.103	8377
931.207	8107
931.311	8043
931.415	7982
931.519	7723
931.623	7837
