Data from test_V78500241_1157.txt Node
Date: Fri Mar 25 14:41:46 CST 2022
User: usil
Spectrometer: V785-0024
Trigger mode: 0
Integration Time (sec): 4.000000E-1
Scans to average: 1
Nonlinearity correction enabled: false
Boxcar width: 0
Storing dark spectrum: false
XAxis mode: Wavelengths
Number of Pixels in Spectrum: 1024
>>>>>Begin Spectral Data<<<<<
801.071	22645
801.214	22322
801.356	22219
801.499	22124
801.641	21934
801.783	21926
801.926	21899
802.068	21972
802.211	21831
802.353	21557
802.496	21660
802.638	21504
802.78	21370
802.923	21268
803.065	21310
803.208	21169
803.35	21165
803.492	21370
803.635	21393
803.777	21218
803.919	21310
804.061	21545
804.204	21287
804.346	21302
804.488	21051
804.63	21192
804.773	21157
804.915	21230
805.057	21363
805.199	21108
805.341	21340
805.483	21230
805.626	21268
805.768	21138
805.91	21131
806.052	21233
806.194	21127
806.336	21317
806.478	21157
806.62	21245
806.762	21252
806.904	21443
807.046	21618
807.188	21492
807.33	21530
807.472	21606
807.614	21488
807.756	21450
807.898	21370
808.04	21348
808.182	21359
808.324	21332
808.465	21523
808.607	21652
808.749	21819
808.891	21831
809.033	21880
809.174	21781
809.316	21846
809.458	21762
809.6	21663
809.741	21686
809.883	21785
810.025	21831
810.166	21766
810.308	21835
810.45	21755
810.591	21557
810.733	21447
810.875	21450
811.016	21233
811.158	21340
811.299	21557
811.441	21466
811.582	21485
811.724	21420
811.865	21249
812.007	21408
812.148	21355
812.29	21515
812.431	21606
812.573	21633
812.714	21800
812.855	21736
812.997	21907
813.138	22147
813.279	22059
813.421	21895
813.562	21873
813.703	21637
813.845	21561
813.986	21321
814.127	20960
814.268	20982
814.41	20883
814.551	20857
814.692	21028
814.833	20895
814.974	20944
815.115	20872
815.256	20769
815.397	20857
815.539	20777
815.68	20644
815.821	20663
815.962	20750
816.103	20613
816.244	20541
816.385	20366
816.526	20362
816.666	20282
816.807	20077
816.948	20153
817.089	20142
817.23	20096
817.371	20077
817.512	20134
817.653	20054
817.793	20005
817.934	20012
818.075	20008
818.216	20016
818.356	19951
818.497	19997
818.638	19738
818.778	19769
818.919	19811
819.06	19772
819.2	19860
819.341	19989
819.481	20039
819.622	20122
819.762	20351
819.903	20221
820.043	20199
820.184	20069
820.324	20077
820.465	20164
820.605	20107
820.746	20058
820.886	19795
821.026	20065
821.167	19970
821.307	20062
821.447	19959
821.588	19932
821.728	19635
821.868	19586
822.008	19438
822.149	19384
822.289	19441
822.429	19152
822.569	19141
822.709	19103
822.849	19069
822.99	18996
823.13	18905
823.27	18878
823.41	18776
823.55	18738
823.69	18692
823.83	18677
823.97	18616
824.11	18475
824.25	18467
824.389	18471
824.529	18665
824.669	18502
824.809	18692
824.949	18688
825.089	18661
825.228	18551
825.368	18464
825.508	18289
825.648	18418
825.787	18433
825.927	18319
826.067	18304
826.206	18334
826.346	18388
826.485	18380
826.625	18311
826.765	18391
826.904	18357
827.044	18041
827.183	17950
827.323	17916
827.462	18019
827.601	17984
827.741	17908
827.88	17965
828.02	17961
828.159	18045
828.298	18140
828.437	18098
828.577	18114
828.716	18194
828.855	17961
828.994	17798
829.134	17729
829.273	17866
829.412	17748
829.551	17707
829.69	17847
829.829	17863
829.968	17828
830.107	17745
830.246	17840
830.385	17672
830.524	17817
830.663	17634
830.802	17326
830.941	17448
831.08	17372
831.219	17463
831.357	17566
831.496	17627
831.635	17429
831.774	17349
831.913	17246
832.051	17242
832.19	17159
832.329	17284
832.467	17143
832.606	17140
832.744	17037
832.883	17132
833.022	17067
833.16	17064
833.299	17045
833.437	17083
833.576	17155
833.714	17151
833.852	17216
833.991	17170
834.129	17155
834.267	17235
834.406	17151
834.544	17273
834.682	17136
834.821	17102
834.959	17303
835.097	17220
835.235	17242
835.373	17143
835.511	17220
835.65	16972
835.788	17014
835.926	16911
836.064	16797
836.202	16831
836.34	17105
836.478	17178
836.615	17056
836.753	17037
836.891	17102
837.029	17185
837.167	16919
837.305	16934
837.443	16934
837.58	16896
837.718	17006
837.856	16976
837.993	16904
838.131	17037
838.269	16930
838.406	16790
838.544	16862
838.681	16558
838.819	16592
838.956	16417
839.094	16352
839.231	16428
839.369	16649
839.506	16698
839.643	16763
839.781	16402
839.918	16367
840.055	16409
840.193	16417
840.33	16424
840.467	16462
840.604	16596
840.742	16702
840.879	16413
841.016	16451
841.153	16417
841.29	16527
841.427	16508
841.564	16462
841.701	16481
841.838	16398
841.975	16272
842.112	16322
842.249	16200
842.385	16196
842.522	16303
842.659	16314
842.796	16204
842.933	16257
843.069	16226
843.206	16219
843.343	16382
843.479	16303
843.616	16322
843.752	16188
843.889	16013
844.025	16200
844.162	16067
844.298	16093
844.435	16029
844.571	15907
844.708	16154
844.844	16162
844.98	16162
845.117	16219
845.253	15987
845.389	15975
845.525	16051
845.661	16051
845.798	15903
845.934	16082
846.07	16013
846.206	16051
846.342	16169
846.478	15915
846.614	15690
846.75	15549
846.886	15580
847.022	15606
847.158	15523
847.294	15576
847.429	15652
847.565	15587
847.701	15717
847.837	15355
847.972	15264
848.108	15408
848.244	15458
848.379	15226
848.515	15237
848.65	15119
848.786	15233
848.921	15298
849.057	15302
849.192	15241
849.328	15249
849.463	15199
849.598	15138
849.734	15017
849.869	15089
850.004	15020
850.14	14982
850.275	14944
850.41	14910
850.545	14944
850.68	14929
850.815	14941
850.95	14944
851.085	15218
851.22	14956
851.355	14895
851.49	14899
851.625	14838
851.76	14796
851.895	14758
852.03	14807
852.165	14906
852.299	14937
852.434	15055
852.569	14994
852.703	14925
852.838	15039
852.973	15119
853.107	15020
853.242	14982
853.376	14823
853.511	14663
853.645	14864
853.78	14994
853.914	14750
854.048	14731
854.183	14788
854.317	14845
854.451	15119
854.585	14788
854.72	14769
854.854	14864
854.988	14689
855.122	14815
855.256	14663
855.39	14720
855.524	14868
855.658	14838
855.792	14800
855.926	14883
856.06	14895
856.194	14906
856.327	14804
856.461	14739
856.595	14773
856.729	14727
856.862	15005
856.996	14804
857.13	14861
857.263	14971
857.397	14948
857.53	14769
857.664	14819
857.797	14941
857.931	14906
858.064	14849
858.197	14918
858.331	14899
858.464	14804
858.597	14632
858.731	14777
858.864	14895
858.997	14800
859.13	14785
859.263	14891
859.396	14887
859.529	14720
859.662	14762
859.795	14845
859.928	14819
860.061	14971
860.194	14975
860.327	14857
860.46	14807
860.592	14838
860.725	15047
860.858	14891
860.99	14788
861.123	14667
861.256	14697
861.388	14849
861.521	15477
861.653	14697
861.786	14701
861.918	14701
862.05	14750
862.183	14720
862.315	14765
862.447	14811
862.58	14720
862.712	14507
862.844	14594
862.976	14670
863.108	14530
863.24	15058
863.372	14480
863.504	14613
863.636	14613
863.768	14629
863.9	14594
864.032	14492
864.164	14560
864.296	14564
864.428	14708
864.559	14632
864.691	14758
864.823	14575
864.954	14617
865.086	14621
865.217	14602
865.349	14511
865.48	14583
865.612	14594
865.743	14670
865.875	14571
866.006	14568
866.137	14530
866.269	14537
866.4	14629
866.531	14530
866.662	14476
866.793	14514
866.924	14473
867.055	14655
867.186	14518
867.317	14495
867.448	14476
867.579	14499
867.71	14541
867.841	14499
867.972	14617
868.103	14617
868.233	14587
868.364	14511
868.495	14682
868.625	14769
868.756	14849
868.886	14720
869.017	14807
869.147	14853
869.278	14868
869.408	14861
869.539	14819
869.669	14918
869.799	14887
869.929	14910
870.06	14952
870.19	15089
870.32	15146
870.45	15169
870.58	15157
870.71	15233
870.84	15233
870.97	15176
871.1	15127
871.23	15363
871.36	15439
871.489	15241
871.619	15287
871.749	15424
871.879	15416
872.008	15587
872.138	15389
872.267	15374
872.397	15218
872.526	15184
872.656	15199
872.785	15302
872.915	15431
873.044	15492
873.173	15488
873.303	15507
873.432	15511
873.561	15584
873.69	15542
873.819	15473
873.948	15557
874.077	15454
874.206	15488
874.335	15447
874.464	15564
874.593	15797
874.722	15629
874.851	15751
874.979	15720
875.108	15781
875.237	15747
875.365	15572
875.494	15679
875.623	15857
875.751	15686
875.88	15766
876.008	15956
876.136	16002
876.265	16192
876.393	16276
876.521	16185
876.65	16211
876.778	16215
876.906	16139
877.034	16071
877.162	16120
877.29	16150
877.418	16124
877.546	16211
877.674	16166
877.802	16124
877.93	16090
878.058	16249
878.185	16112
878.313	16223
878.441	16120
878.568	16048
878.696	16150
878.824	16185
878.951	16329
879.079	16459
879.206	16538
879.333	16402
879.461	16428
879.588	16363
879.715	16436
879.842	16489
879.97	16398
880.097	16143
880.224	16032
880.351	16029
880.478	16029
880.605	15998
880.732	16025
880.859	16344
880.986	16040
881.112	16036
881.239	15991
881.366	15827
881.493	15743
881.619	15694
881.746	15648
881.872	15705
881.999	15591
882.125	15622
882.252	15724
882.378	15728
882.505	15831
882.631	15614
882.757	15519
882.883	15644
883.01	15500
883.136	15507
883.262	15405
883.388	15401
883.514	15370
883.64	15561
883.766	15473
883.892	15279
884.018	15294
884.143	15443
884.269	15660
884.395	15348
884.52	15131
884.646	15245
884.772	15127
884.897	15161
885.023	15203
885.148	15241
885.274	15367
885.399	15195
885.524	15264
885.65	15150
885.775	15222
885.9	15119
886.025	15302
886.15	15256
886.275	15119
886.4	15104
886.525	15066
886.65	15097
886.775	15070
886.9	15245
887.025	15485
887.149	15203
887.274	15104
887.399	14944
887.523	14963
887.648	15028
887.773	14830
887.897	15097
888.021	15013
888.146	14921
888.27	15226
888.395	15100
888.519	14990
888.643	15062
888.767	15047
888.891	14849
889.015	14914
889.139	14895
889.263	14857
889.387	14925
889.511	15112
889.635	14937
889.759	14830
889.883	14849
890.006	14971
890.13	14990
890.254	14807
890.377	14785
890.501	14621
890.624	14629
890.748	14724
890.871	14518
890.995	14545
891.118	14438
891.241	14587
891.364	14594
891.488	14678
891.611	14575
891.734	14537
891.857	14552
891.98	14598
892.103	14575
892.226	14663
892.349	14488
892.471	14434
892.594	14545
892.717	14610
892.839	14526
892.962	14575
893.085	14587
893.207	14648
893.33	14450
893.452	14461
893.575	14613
893.697	14526
893.819	14697
893.941	14705
894.064	14708
894.186	14537
894.308	14537
894.43	14590
894.552	14773
894.674	14640
894.796	14469
894.918	14629
895.04	14552
895.161	14705
895.283	14674
895.405	14492
895.526	14625
895.648	14625
895.769	14648
895.891	14644
896.012	14765
896.134	14781
896.255	14765
896.376	14678
896.498	14606
896.619	14678
896.74	14667
896.861	14781
896.982	14990
897.103	15203
897.224	14979
897.345	14948
897.466	14830
897.587	14906
897.708	15066
897.828	15051
897.949	14933
898.07	14804
898.19	14914
898.311	15005
898.431	14986
898.552	15093
898.672	15020
898.792	15135
898.913	15138
899.033	14967
899.153	14819
899.273	14864
899.393	14800
899.513	14960
899.633	14944
899.753	14971
899.873	14804
899.993	14952
900.113	14800
900.232	14944
900.352	14712
900.472	14788
900.591	14705
900.711	14735
900.83	14712
900.95	14887
901.069	14746
901.189	14629
901.308	14461
901.427	14328
901.546	14393
901.665	14412
901.784	14423
901.904	14313
902.023	14225
902.141	14050
902.26	13963
902.379	14096
902.498	13951
902.617	13993
902.735	14050
902.854	13947
902.973	13875
903.091	13677
903.21	13674
903.328	13742
903.446	13662
903.565	13468
903.683	13548
903.801	13388
903.919	13502
904.038	13476
904.156	13339
904.274	13430
904.392	13282
904.51	13282
904.627	13301
904.745	13434
904.863	13415
904.981	13145
905.098	12996
905.216	13023
905.334	13031
905.451	13061
905.569	13031
905.686	13057
905.803	13027
905.921	12825
906.038	13019
906.155	12897
906.272	12757
906.389	12760
906.506	12620
906.623	12635
906.74	12650
906.857	12509
906.974	12525
907.091	12642
907.208	12673
907.324	12623
907.441	12532
907.557	12429
907.674	12334
907.79	12319
907.907	12338
908.023	12384
908.139	12395
908.256	12300
908.372	12281
908.488	12235
908.604	12186
908.72	12053
908.836	12155
908.952	12072
909.068	12197
909.184	12273
909.3	12106
909.415	12148
909.531	12197
909.647	11882
909.762	11851
909.878	11786
909.993	11912
910.108	11866
910.224	11847
910.339	11908
910.454	11824
910.57	11748
910.685	11611
910.8	11950
910.915	11832
911.03	11771
911.145	11520
911.259	11543
911.374	11566
911.489	11524
911.604	11501
911.718	11288
911.833	11417
911.947	11265
912.062	11113
912.176	11334
912.291	11425
912.405	11318
912.519	11516
912.633	11512
912.748	11391
912.862	11315
912.976	11220
913.09	11121
913.204	11166
913.318	11239
913.431	11341
913.545	11296
913.659	11235
913.772	11132
913.886	11075
914	11079
914.113	11105
914.226	11178
914.34	11121
914.453	10995
914.566	11143
914.68	11006
914.793	10987
914.906	10843
915.019	10812
915.132	10797
915.245	10812
915.358	10812
915.47	10763
915.583	10759
915.696	10805
915.809	10919
915.921	11037
916.034	10793
916.146	10778
916.259	10793
916.371	10862
916.483	10866
916.595	10683
916.708	10698
916.82	10721
916.932	10717
917.044	10801
917.156	10679
917.268	10573
917.38	10615
917.491	10656
917.603	10714
917.715	10668
917.826	10626
917.938	10588
918.049	10550
918.161	10618
918.272	10767
918.384	10816
918.495	10653
918.606	10516
918.717	10341
918.828	10504
918.939	10508
919.05	10443
919.161	10478
919.272	10287
919.383	10322
919.494	10596
919.604	10774
919.715	10542
919.826	10504
919.936	10447
920.047	10523
920.157	10478
920.267	10733
920.378	10546
920.488	10489
920.598	10706
920.708	10843
920.818	10721
920.928	10721
921.038	10866
921.148	10812
921.258	10558
921.368	10489
921.477	10417
921.587	10344
921.697	10322
921.806	10352
921.916	10257
922.025	10093
922.134	10059
922.244	10059
922.353	10082
922.462	9956
922.571	9861
922.68	9762
922.789	9686
922.898	9797
923.007	9774
923.116	9816
923.224	9789
923.333	9778
923.442	9648
923.55	9644
923.659	9622
923.767	9705
923.876	9534
923.984	9743
924.092	9587
924.201	9595
924.309	9644
924.417	9698
924.525	9591
924.633	9584
924.741	10405
924.849	9382
924.956	9511
925.064	9378
925.172	9336
925.279	9382
925.387	9397
925.494	9378
925.602	9507
925.709	9447
925.816	9359
925.924	9408
926.031	9447
926.138	9317
926.245	9454
926.352	9302
926.459	9454
926.566	9584
926.673	9351
926.779	9214
926.886	9176
926.993	9131
927.099	9013
927.206	9051
927.312	8982
927.419	9176
927.525	9119
927.631	9150
927.737	8960
927.843	8960
927.95	8853
928.056	8986
928.162	8994
928.267	9036
928.373	9595
928.479	9055
928.585	8857
928.69	8982
928.796	8948
928.901	8853
929.007	8712
929.112	8929
929.218	8804
929.323	8838
929.428	8815
929.533	8967
929.638	8701
929.743	8785
929.848	8811
929.953	8773
930.058	8720
930.163	8492
930.267	8545
930.372	8674
930.477	8552
930.581	8823
930.685	8598
930.79	8514
930.894	8484
930.998	8511
931.103	8629
931.207	8305
931.311	8252
931.415	8202
931.519	8008
931.623	8062
