Data from test_V78500241_1736.txt Node
Date: Fri Mar 25 14:45:48 CST 2022
User: usil
Spectrometer: V785-0024
Trigger mode: 0
Integration Time (sec): 4.000000E-1
Scans to average: 1
Nonlinearity correction enabled: false
Boxcar width: 0
Storing dark spectrum: false
XAxis mode: Wavelengths
Number of Pixels in Spectrum: 1024
>>>>>Begin Spectral Data<<<<<
801.071	22234
801.214	22078
801.356	21876
801.499	21835
801.641	21652
801.783	21553
801.926	21591
802.068	21618
802.211	21526
802.353	21488
802.496	21062
802.638	21161
802.78	20979
802.923	21024
803.065	20967
803.208	20902
803.35	20994
803.492	21005
803.635	21169
803.777	20861
803.919	20921
804.061	21291
804.204	20963
804.346	20773
804.488	20781
804.63	20899
804.773	20834
804.915	20883
805.057	21074
805.199	20849
805.341	20876
805.483	20857
805.626	20948
805.768	20769
805.91	20845
806.052	20925
806.194	20826
806.336	20967
806.478	20960
806.62	20739
806.762	20929
806.904	21066
807.046	21291
807.188	21264
807.33	21131
807.472	21291
807.614	21150
807.756	21081
807.898	20963
808.04	20929
808.182	20857
808.324	20990
808.465	20967
808.607	21180
808.749	21245
808.891	21329
809.033	21416
809.174	21355
809.316	21283
809.458	21260
809.6	21214
809.741	21195
809.883	21355
810.025	21454
810.166	21458
810.308	21496
810.45	21336
810.591	21370
810.733	21154
810.875	20979
811.016	21043
811.158	20960
811.299	21028
811.441	21070
811.582	21123
811.724	21013
811.865	21127
812.007	21001
812.148	21138
812.29	21009
812.431	21013
812.573	21359
812.714	21336
812.855	21553
812.997	21515
813.138	21698
813.279	21622
813.421	21610
813.562	21397
813.703	21439
813.845	21154
813.986	20861
814.127	20769
814.268	20686
814.41	20625
814.551	20545
814.692	20530
814.833	20564
814.974	20419
815.115	20488
815.256	20412
815.397	20343
815.539	20320
815.68	20290
815.821	20282
815.962	20355
816.103	20309
816.244	20183
816.385	20176
816.526	20043
816.666	19887
816.807	19742
816.948	19803
817.089	19871
817.23	19791
817.371	19738
817.512	19719
817.653	19837
817.793	19685
817.934	19685
818.075	19765
818.216	19734
818.356	19662
818.497	19601
818.638	19384
818.778	19403
818.919	19495
819.06	19495
819.2	19487
819.341	19571
819.481	19495
819.622	19822
819.762	19932
819.903	19852
820.043	19761
820.184	19647
820.324	19563
820.465	19712
820.605	19719
820.746	19750
820.886	19521
821.026	19628
821.167	19662
821.307	19651
821.447	19643
821.588	19502
821.728	19559
821.868	19263
822.008	19110
822.149	19187
822.289	19103
822.429	18802
822.569	18726
822.709	18833
822.849	18521
822.99	18570
823.13	18593
823.27	18494
823.41	18528
823.55	18247
823.69	18353
823.83	18399
823.97	18357
824.11	18144
824.25	18114
824.389	18197
824.529	18186
824.669	18167
824.809	18327
824.949	18239
825.089	18247
825.228	18197
825.368	17973
825.508	17980
825.648	17958
825.787	17988
825.927	17984
826.067	17897
826.206	17882
826.346	17885
826.485	18049
826.625	17961
826.765	18038
826.904	17916
827.044	17779
827.183	17646
827.323	17577
827.462	17672
827.601	17592
827.741	17592
827.88	17676
828.02	17448
828.159	17600
828.298	17680
828.437	17714
828.577	17623
828.716	17882
828.855	17596
828.994	17452
829.134	17410
829.273	17463
829.412	17277
829.551	17292
829.69	17364
829.829	17349
829.968	17497
830.107	17467
830.246	17444
830.385	17372
830.524	17429
830.663	17147
830.802	17075
830.941	17010
831.08	17052
831.219	17086
831.357	17037
831.496	17284
831.635	17056
831.774	16942
831.913	16949
832.051	16824
832.19	16771
832.329	16869
832.467	16656
832.606	16710
832.744	16752
832.883	16645
833.022	16748
833.16	16630
833.299	16771
833.437	16713
833.576	16786
833.714	16736
833.852	16725
833.991	16782
834.129	16729
834.267	16740
834.406	16721
834.544	16721
834.682	16771
834.821	16736
834.959	16904
835.097	16645
835.235	16805
835.373	16824
835.511	16721
835.65	16653
835.788	16569
835.926	16516
836.064	16421
836.202	16497
836.34	16767
836.478	16660
836.615	16500
836.753	16637
836.891	16759
837.029	16611
837.167	16729
837.305	16656
837.443	16569
837.58	16466
837.718	16588
837.856	16508
837.993	16417
838.131	16447
838.269	16318
838.406	16409
838.544	16314
838.681	16329
838.819	16124
838.956	15994
839.094	16010
839.231	16128
839.369	16158
839.506	16485
839.643	16246
839.781	15998
839.918	16071
840.055	16013
840.193	16051
840.33	16063
840.467	16051
840.604	16002
840.742	16386
840.879	15941
841.016	15994
841.153	15899
841.29	16333
841.427	16021
841.564	16021
841.701	16112
841.838	16025
841.975	16044
842.112	15968
842.249	15907
842.385	15778
842.522	15983
842.659	15880
842.796	15888
842.933	15930
843.069	15732
843.206	15850
843.343	15918
843.479	15800
843.616	15812
843.752	15709
843.889	15587
844.025	15717
844.162	15610
844.298	15618
844.435	15648
844.571	15614
844.708	15709
844.844	15713
844.98	15865
845.117	15724
845.253	15652
845.389	15515
845.525	15644
845.661	15469
845.798	15393
845.934	15515
846.07	15294
846.206	15408
846.342	15500
846.478	15359
846.614	15237
846.75	15127
846.886	15081
847.022	15306
847.158	15249
847.294	15157
847.429	15165
847.565	15062
847.701	15389
847.837	14895
847.972	14857
848.108	14941
848.244	15032
848.379	14826
848.515	14659
848.65	14823
848.786	14621
848.921	14876
849.057	14933
849.192	14804
849.328	14823
849.463	14815
849.598	14758
849.734	14667
849.869	14667
850.004	14454
850.14	14522
850.275	14644
850.41	14518
850.545	14469
850.68	14583
850.815	14495
850.95	14560
851.085	14701
851.22	14537
851.355	14533
851.49	14431
851.625	14568
851.76	14454
851.895	14389
852.03	14415
852.165	14469
852.299	14583
852.434	14571
852.569	14518
852.703	14598
852.838	14640
852.973	14663
853.107	14693
853.242	14446
853.376	14568
853.511	14252
853.645	14457
853.78	14587
853.914	14526
854.048	14355
854.183	14347
854.317	14389
854.451	14606
854.585	14355
854.72	14377
854.854	14514
854.988	14343
855.122	14423
855.256	14214
855.39	14431
855.524	14590
855.658	14450
855.792	14381
855.926	14514
856.06	14431
856.194	14503
856.327	14454
856.461	14366
856.595	14374
856.729	14381
856.862	14457
856.996	14552
857.13	14541
857.263	14602
857.397	14556
857.53	14530
857.664	14625
857.797	14579
857.931	14590
858.064	14461
858.197	14552
858.331	14461
858.464	14404
858.597	14343
858.731	14454
858.864	14431
858.997	14328
859.13	14568
859.263	14488
859.396	14571
859.529	14381
859.662	14450
859.795	14374
859.928	14499
860.061	14731
860.194	14575
860.327	14469
860.46	14400
860.592	14518
860.725	14556
860.858	14571
860.99	14427
861.123	14343
861.256	14415
861.388	14419
861.521	15123
861.653	14358
861.786	14282
861.918	14393
862.05	14309
862.183	14412
862.315	14461
862.447	14476
862.58	14427
862.712	14214
862.844	14252
862.976	14290
863.108	14252
863.24	14579
863.372	14142
863.504	14149
863.636	14199
863.768	14339
863.9	14271
864.032	14168
864.164	14149
864.296	14214
864.428	14366
864.559	14244
864.691	14347
864.823	14317
864.954	14244
865.086	14282
865.217	14225
865.349	14168
865.48	14286
865.612	14298
865.743	14423
865.875	14256
866.006	14210
866.137	14210
866.269	14172
866.4	14130
866.531	14092
866.662	14153
866.793	14168
866.924	14107
867.055	14210
867.186	14088
867.317	14119
867.448	14031
867.579	14172
867.71	14103
867.841	14054
867.972	14237
868.103	14123
868.233	14218
868.364	14153
868.495	14294
868.625	14396
868.756	14606
868.886	14355
869.017	14339
869.147	14602
869.278	14457
869.408	14537
869.539	14503
869.669	14575
869.799	14495
869.929	14533
870.06	14564
870.19	14796
870.32	14720
870.45	14834
870.58	14845
870.71	14979
870.84	14952
870.97	14823
871.1	14887
871.23	15055
871.36	15085
871.489	15020
871.619	15058
871.749	15039
871.879	15036
872.008	15123
872.138	15020
872.267	14952
872.397	14853
872.526	14864
872.656	14880
872.785	14868
872.915	14994
873.044	15135
873.173	15142
873.303	15142
873.432	15165
873.561	15207
873.69	15017
873.819	15112
873.948	15180
874.077	15032
874.206	15081
874.335	15157
874.464	15176
874.593	15355
874.722	15291
874.851	15523
874.979	15306
875.108	15530
875.237	15405
875.365	15355
875.494	15363
875.623	15511
875.751	15382
875.88	15408
876.008	15469
876.136	15682
876.265	15873
876.393	16006
876.521	15751
876.65	15941
876.778	15797
876.906	15850
877.034	15713
877.162	15709
877.29	15850
877.418	15876
877.546	15785
877.674	15895
877.802	15827
877.93	15789
878.058	15804
878.185	15648
878.313	15819
878.441	15899
878.568	15622
878.696	15804
878.824	15903
878.951	15854
879.079	15903
879.206	16276
879.333	16029
879.461	15857
879.588	15964
879.715	15945
879.842	16090
879.97	15911
880.097	15701
880.224	15701
880.351	15747
880.478	15648
880.605	15637
880.732	15671
880.859	15861
880.986	15667
881.112	15698
881.239	15587
881.366	15454
881.493	15447
881.619	15374
881.746	15287
881.872	15329
881.999	15275
882.125	15283
882.252	15378
882.378	15351
882.505	15507
882.631	15256
882.757	15116
882.883	15089
883.01	15173
883.136	15112
883.262	14952
883.388	14883
883.514	15123
883.64	15214
883.766	15081
883.892	15058
884.018	14929
884.143	15176
884.269	15241
884.395	14895
884.52	14914
884.646	14804
884.772	14792
884.897	14743
885.023	14864
885.148	14937
885.274	14986
885.399	15028
885.524	14773
885.65	14815
885.775	14899
885.9	14864
886.025	14944
886.15	14853
886.275	14762
886.4	14815
886.525	14906
886.65	14705
886.775	14792
886.9	14906
887.025	15203
887.149	14956
887.274	14746
887.399	14621
887.523	14663
887.648	14514
887.773	14560
887.897	14765
888.021	14712
888.146	14651
888.27	14823
888.395	14826
888.519	14838
888.643	14670
888.767	14743
888.891	14644
889.015	14454
889.139	14583
889.263	14476
889.387	14769
889.511	14765
889.635	14625
889.759	14545
889.883	14545
890.006	14552
890.13	14651
890.254	14476
890.377	14533
890.501	14313
890.624	14336
890.748	14446
890.871	14305
890.995	14305
891.118	14050
891.241	14267
891.364	14233
891.488	14309
891.611	14229
891.734	14210
891.857	14324
891.98	14183
892.103	14286
892.226	14237
892.349	14252
892.471	14092
892.594	14278
892.717	14157
892.839	14214
892.962	14252
893.085	14278
893.207	14290
893.33	14183
893.452	14123
893.575	14271
893.697	14263
893.819	14336
893.941	14473
894.064	14415
894.186	14218
894.308	14210
894.43	14415
894.552	14461
894.674	14434
894.796	14180
894.918	14324
895.04	14195
895.161	14328
895.283	14221
895.405	14214
895.526	14290
895.648	14336
895.769	14374
895.891	14404
896.012	14526
896.134	14499
896.255	14374
896.376	14362
896.498	14351
896.619	14476
896.74	14370
896.861	14484
896.982	14655
897.103	14956
897.224	14697
897.345	14667
897.466	14590
897.587	14640
897.708	14830
897.828	14636
897.949	14613
898.07	14552
898.19	14587
898.311	14731
898.431	14682
898.552	14739
898.672	14815
898.792	14792
898.913	14765
899.033	14754
899.153	14552
899.273	14461
899.393	14644
899.513	14640
899.633	14629
899.753	14549
899.873	14606
899.993	14571
900.113	14552
900.232	14575
900.352	14560
900.472	14503
900.591	14415
900.711	14488
900.83	14469
900.95	14537
901.069	14636
901.189	14530
901.308	14229
901.427	14145
901.546	14111
901.665	14256
901.784	14138
901.904	14107
902.023	13906
902.141	13811
902.26	13727
902.379	13849
902.498	13655
902.617	13681
902.735	13746
902.854	13632
902.973	13647
903.091	13487
903.21	13430
903.328	13499
903.446	13491
903.565	13206
903.683	13244
903.801	13152
903.919	13301
904.038	13350
904.156	13213
904.274	13126
904.392	13004
904.51	13072
904.627	13027
904.745	13141
904.863	13099
904.981	12943
905.098	12768
905.216	12757
905.334	12779
905.451	12650
905.569	12719
905.686	12852
905.803	12821
905.921	12669
906.038	12795
906.155	12635
906.272	12418
906.389	12578
906.506	12357
906.623	12426
906.74	12422
906.857	12289
906.974	12285
907.091	12464
907.208	12486
907.324	12422
907.441	12342
907.557	12117
907.674	12190
907.79	12019
907.907	12098
908.023	12175
908.139	12098
908.256	12022
908.372	12053
908.488	12007
908.604	11885
908.72	11821
908.836	11908
908.952	11874
909.068	11935
909.184	11969
909.3	11840
909.415	11923
909.531	11889
909.647	11623
909.762	11619
909.878	11608
909.993	11646
910.108	11672
910.224	11532
910.339	11634
910.454	11524
910.57	11486
910.685	11406
910.8	11737
910.915	11638
911.03	11543
911.145	11341
911.259	11337
911.374	11292
911.489	11250
911.604	11178
911.718	11113
911.833	11083
911.947	10927
912.062	10877
912.176	11022
912.291	11067
912.405	11037
912.519	11258
912.633	11223
912.748	11079
912.862	11090
912.976	10976
913.09	10862
913.204	10885
913.318	10919
913.431	11094
913.545	10976
913.659	11071
913.772	10934
913.886	10881
914	10790
914.113	10968
914.226	10889
914.34	10858
914.453	10816
914.566	10923
914.68	10843
914.793	10736
914.906	10588
915.019	10573
915.132	10580
915.245	10542
915.358	10573
915.47	10580
915.583	10603
915.696	10618
915.809	10717
915.921	10714
916.034	10641
916.146	10516
916.259	10500
916.371	10596
916.483	10573
916.595	10512
916.708	10634
916.82	10489
916.932	10565
917.044	10447
917.156	10409
917.268	10379
917.38	10394
917.491	10325
917.603	10508
917.715	10527
917.826	10561
917.938	10337
918.049	10291
918.161	10314
918.272	10500
918.384	10519
918.495	10348
918.606	10333
918.717	10135
918.828	10333
918.939	10333
919.05	10211
919.161	10230
919.272	10067
919.383	10173
919.494	10310
919.604	10527
919.715	10303
919.826	10162
919.936	10284
920.047	10360
920.157	10363
920.267	10523
920.378	10318
920.488	10318
920.598	10497
920.708	10542
920.818	10470
920.928	10493
921.038	10698
921.148	10603
921.258	10375
921.368	10272
921.477	10188
921.587	10128
921.697	10021
921.806	10188
921.916	10021
922.025	9922
922.134	9953
922.244	9865
922.353	9926
922.462	9770
922.571	9785
922.68	9534
922.789	9671
922.898	9614
923.007	9488
923.116	9644
923.224	9534
923.333	9549
923.442	9538
923.55	9469
923.659	9431
923.767	9443
923.876	9485
923.984	9572
924.092	9408
924.201	9443
924.309	9477
924.417	9481
924.525	9317
924.633	9420
924.741	10344
924.849	9207
924.956	9378
925.064	9264
925.172	9142
925.279	9214
925.387	9230
925.494	9226
925.602	9340
925.709	9321
925.816	9157
925.924	9237
926.031	9397
926.138	9237
926.245	9340
926.352	9150
926.459	9370
926.566	9348
926.673	9184
926.779	9039
926.886	9085
926.993	8956
927.099	8933
927.206	8899
927.312	8967
927.419	8979
927.525	8994
927.631	8998
927.737	8830
927.843	8849
927.95	8724
928.056	8849
928.162	8766
928.267	8868
928.373	9488
928.479	8994
928.585	8712
928.69	8834
928.796	8826
928.901	8807
929.007	8594
929.112	8739
929.218	8693
929.323	8644
929.428	8602
929.533	8754
929.638	8583
929.743	8632
929.848	8640
929.953	8617
930.058	8533
930.163	8374
930.267	8450
930.372	8602
930.477	8324
930.581	8545
930.685	8564
930.79	8339
930.894	8412
930.998	8347
931.103	8461
931.207	8168
931.311	8164
931.415	8046
931.519	7830
931.623	7959
