Data from test_V78500241_2876.txt Node
Date: Fri Mar 25 14:53:44 CST 2022
User: usil
Spectrometer: V785-0024
Trigger mode: 0
Integration Time (sec): 4.000000E-1
Scans to average: 1
Nonlinearity correction enabled: false
Boxcar width: 0
Storing dark spectrum: false
XAxis mode: Wavelengths
Number of Pixels in Spectrum: 1024
>>>>>Begin Spectral Data<<<<<
801.071	22044
801.214	22040
801.356	21766
801.499	21804
801.641	21458
801.783	21431
801.926	21504
802.068	21473
802.211	21363
802.353	21313
802.496	21070
802.638	20944
802.78	20868
802.923	20800
803.065	20769
803.208	20689
803.35	20765
803.492	20762
803.635	20963
803.777	20861
803.919	20800
804.061	21066
804.204	20857
804.346	20777
804.488	20632
804.63	20823
804.773	20552
804.915	20735
805.057	20811
805.199	20659
805.341	20735
805.483	20830
805.626	20735
805.768	20568
805.91	20625
806.052	20594
806.194	20560
806.336	20765
806.478	20686
806.62	20644
806.762	20667
806.904	20925
807.046	21119
807.188	20990
807.33	21028
807.472	20971
807.614	20982
807.756	20864
807.898	20720
808.04	20781
808.182	20712
808.324	20800
808.465	20762
808.607	20872
808.749	21142
808.891	21211
809.033	21176
809.174	21211
809.316	20982
809.458	21188
809.6	21009
809.741	21180
809.883	21173
810.025	21180
810.166	21329
810.308	21249
810.45	21135
810.591	21047
810.733	20921
810.875	20834
811.016	20689
811.158	20804
811.299	20918
811.441	21013
811.582	20979
811.724	20891
811.865	20727
812.007	20842
812.148	20785
812.29	20937
812.431	21051
812.573	21192
812.714	21169
812.855	21264
812.997	21359
813.138	21431
813.279	21454
813.421	21336
813.562	21294
813.703	21058
813.845	20952
813.986	20651
814.127	20549
814.268	20495
814.41	20351
814.551	20343
814.692	20507
814.833	20298
814.974	20336
815.115	20271
815.256	20244
815.397	20309
815.539	20309
815.68	20199
815.821	20035
815.962	20100
816.103	20157
816.244	19959
816.385	19826
816.526	19826
816.666	19620
816.807	19514
816.948	19571
817.089	19544
817.23	19616
817.371	19502
817.512	19533
817.653	19358
817.793	19365
817.934	19400
818.075	19441
818.216	19453
818.356	19449
818.497	19240
818.638	19141
818.778	19171
818.919	19156
819.06	19137
819.2	19259
819.341	19392
819.481	19384
819.622	19495
819.762	19814
819.903	19548
820.043	19624
820.184	19597
820.324	19449
820.465	19609
820.605	19445
820.746	19430
820.886	19426
821.026	19464
821.167	19487
821.307	19521
821.447	19346
821.588	19274
821.728	19164
821.868	18989
822.008	18817
822.149	18894
822.289	18829
822.429	18582
822.569	18502
822.709	18517
822.849	18445
822.99	18285
823.13	18395
823.27	18277
823.41	18091
823.55	18095
823.69	18216
823.83	18232
823.97	18133
824.11	18136
824.25	17908
824.389	17939
824.529	18053
824.669	17992
824.809	17969
824.949	18053
825.089	18053
825.228	17946
825.368	17741
825.508	17748
825.648	17748
825.787	17783
825.927	17741
826.067	17665
826.206	17661
826.346	17687
826.485	17828
826.625	17733
826.765	17821
826.904	17802
827.044	17341
827.183	17459
827.323	17452
827.462	17532
827.601	17395
827.741	17334
827.88	17379
828.02	17356
828.159	17440
828.298	17505
828.437	17520
828.577	17516
828.716	17463
828.855	17353
828.994	17159
829.134	17086
829.273	17250
829.412	17140
829.551	17155
829.69	17143
829.829	17185
829.968	17277
830.107	17185
830.246	17094
830.385	17056
830.524	16984
830.663	16854
830.802	16885
830.941	16839
831.08	16755
831.219	16896
831.357	16877
831.496	17052
831.635	16725
831.774	16603
831.913	16748
832.051	16565
832.19	16531
832.329	16599
832.467	16466
832.606	16459
832.744	16443
832.883	16485
833.022	16436
833.16	16485
833.299	16580
833.437	16436
833.576	16516
833.714	16493
833.852	16538
833.991	16478
834.129	16580
834.267	16516
834.406	16527
834.544	16493
834.682	16485
834.821	16527
834.959	16725
835.097	16459
835.235	16554
835.373	16603
835.511	16497
835.65	16440
835.788	16504
835.926	16272
836.064	16230
836.202	16150
836.34	16371
836.478	16459
836.615	16318
836.753	16451
836.891	16523
837.029	16580
837.167	16447
837.305	16367
837.443	16325
837.58	16192
837.718	16386
837.856	16257
837.993	16295
838.131	16287
838.269	16246
838.406	16173
838.544	16124
838.681	15888
838.819	15983
838.956	15949
839.094	15800
839.231	15926
839.369	15983
839.506	16238
839.643	16082
839.781	15831
839.918	15812
840.055	15808
840.193	15800
840.33	15846
840.467	15884
840.604	15865
840.742	16021
840.879	15690
841.016	15736
841.153	15751
841.29	15937
841.427	15831
841.564	15941
841.701	15899
841.838	15804
841.975	15682
842.112	15709
842.249	15557
842.385	15603
842.522	15694
842.659	15679
842.796	15622
842.933	15557
843.069	15545
843.206	15553
843.343	15679
843.479	15663
843.616	15641
843.752	15382
843.889	15325
844.025	15595
844.162	15344
844.298	15439
844.435	15420
844.571	15397
844.708	15447
844.844	15633
844.98	15545
845.117	15416
845.253	15420
845.389	15256
845.525	15374
845.661	15389
845.798	15214
845.934	15302
846.07	15218
846.206	15252
846.342	15241
846.478	15184
846.614	15051
846.75	14914
846.886	15001
847.022	15142
847.158	15097
847.294	14982
847.429	15047
847.565	15036
847.701	15150
847.837	14678
847.972	14632
848.108	14800
848.244	14724
848.379	14583
848.515	14552
848.65	14530
848.786	14533
848.921	14670
849.057	14667
849.192	14689
849.328	14522
849.463	14583
849.598	14499
849.734	14454
849.869	14503
850.004	14374
850.14	14404
850.275	14347
850.41	14263
850.545	14286
850.68	14317
850.815	14389
850.95	14305
851.085	14545
851.22	14385
851.355	14385
851.49	14320
851.625	14206
851.76	14301
851.895	14191
852.03	14202
852.165	14385
852.299	14339
852.434	14347
852.569	14419
852.703	14313
852.838	14336
852.973	14522
853.107	14446
853.242	14256
853.376	14263
853.511	14073
853.645	14210
853.78	14301
853.914	14202
854.048	14168
854.183	14119
854.317	14278
854.451	14465
854.585	14202
854.72	14210
854.854	14339
854.988	14081
855.122	14176
855.256	13963
855.39	14218
855.524	14290
855.658	14240
855.792	14164
855.926	14149
856.06	14290
856.194	14339
856.327	14202
856.461	14210
856.595	14138
856.729	14149
856.862	14324
856.996	14305
857.13	14275
857.263	14294
857.397	14324
857.53	14202
857.664	14305
857.797	14301
857.931	14351
858.064	14168
858.197	14290
858.331	14130
858.464	14210
858.597	14176
858.731	14237
858.864	14142
858.997	14157
859.13	14172
859.263	14229
859.396	14233
859.529	14195
859.662	14172
859.795	14157
859.928	14313
860.061	14278
860.194	14358
860.327	14240
860.46	14256
860.592	14385
860.725	14305
860.858	14351
860.99	14298
861.123	14172
861.256	14149
861.388	14282
861.521	14689
861.653	14103
861.786	14202
861.918	14065
862.05	14100
862.183	14164
862.315	14180
862.447	14294
862.58	14149
862.712	14012
862.844	13970
862.976	14008
863.108	14035
863.24	14579
863.372	13921
863.504	14012
863.636	14008
863.768	14088
863.9	13932
864.032	13921
864.164	13909
864.296	14084
864.428	14039
864.559	14168
864.691	14058
864.823	14065
864.954	14054
865.086	14046
865.217	13955
865.349	13849
865.48	13951
865.612	13989
865.743	14187
865.875	13955
866.006	13986
866.137	14016
866.269	13974
866.4	13974
866.531	13864
866.662	13826
866.793	13944
866.924	13978
867.055	14096
867.186	13883
867.317	13909
867.448	13925
867.579	13917
867.71	13807
867.841	13841
867.972	13955
868.103	14001
868.233	13909
868.364	14054
868.495	13986
868.625	14256
868.756	14366
868.886	14115
869.017	14206
869.147	14332
869.278	14332
869.408	14240
869.539	14301
869.669	14263
869.799	14214
869.929	14313
870.06	14404
870.19	14587
870.32	14404
870.45	14571
870.58	14571
870.71	14716
870.84	14693
870.97	14617
871.1	14602
871.23	14849
871.36	14796
871.489	14689
871.619	14834
871.749	14727
871.879	14861
872.008	14868
872.138	14773
872.267	14792
872.397	14731
872.526	14632
872.656	14632
872.785	14716
872.915	14811
873.044	14845
873.173	14876
873.303	14826
873.432	14910
873.561	14933
873.69	14842
873.819	14830
873.948	14994
874.077	14933
874.206	14845
874.335	14948
874.464	15020
874.593	15135
874.722	15058
874.851	15157
874.979	15203
875.108	15298
875.237	15146
875.365	15142
875.494	15169
875.623	15237
875.751	15180
875.88	15211
876.008	15344
876.136	15408
876.265	15633
876.393	15690
876.521	15709
876.65	15648
876.778	15629
876.906	15553
877.034	15644
877.162	15496
877.29	15534
877.418	15553
877.546	15507
877.674	15473
877.802	15709
877.93	15466
878.058	15618
878.185	15568
878.313	15603
878.441	15534
878.568	15420
878.696	15488
878.824	15679
878.951	15656
879.079	15797
879.206	15937
879.333	15774
879.461	15587
879.588	15736
879.715	15808
879.842	15953
879.97	15679
880.097	15428
880.224	15435
880.351	15443
880.478	15447
880.605	15359
880.732	15496
880.859	15637
880.986	15523
881.112	15500
881.239	15313
881.366	15291
881.493	15233
881.619	15043
881.746	15135
881.872	15039
881.999	15138
882.125	15093
882.252	15154
882.378	15184
882.505	15199
882.631	15074
882.757	14956
882.883	14975
883.01	14944
883.136	14872
883.262	14777
883.388	14762
883.514	14975
883.64	14956
883.766	14842
883.892	14777
884.018	14720
884.143	14830
884.269	15051
884.395	14689
884.52	14552
884.646	14655
884.772	14545
884.897	14511
885.023	14625
885.148	14739
885.274	14826
885.399	14830
885.524	14579
885.65	14636
885.775	14663
885.9	14632
886.025	14731
886.15	14705
886.275	14560
886.4	14571
886.525	14587
886.65	14495
886.775	14571
886.9	14781
887.025	14883
887.149	14655
887.274	14469
887.399	14461
887.523	14492
887.648	14438
887.773	14358
887.897	14492
888.021	14503
888.146	14423
888.27	14564
888.395	14621
888.519	14492
888.643	14488
888.767	14575
888.891	14381
889.015	14294
889.139	14343
889.263	14370
889.387	14457
889.511	14480
889.635	14450
889.759	14313
889.883	14309
890.006	14393
890.13	14469
890.254	14218
890.377	14218
890.501	14145
890.624	14142
890.748	14168
890.871	14111
890.995	13909
891.118	13951
891.241	13989
891.364	13982
891.488	14126
891.611	14050
891.734	13974
891.857	14123
891.98	14069
892.103	14130
892.226	14073
892.349	14027
892.471	13944
892.594	14027
892.717	14043
892.839	13982
892.962	13997
893.085	14161
893.207	14046
893.33	13906
893.452	14008
893.575	14035
893.697	14016
893.819	14202
893.941	14256
894.064	14248
894.186	13959
894.308	13989
894.43	14157
894.552	14218
894.674	14138
894.796	13963
894.918	14058
895.04	14069
895.161	14176
895.283	14119
895.405	14077
895.526	14073
895.648	14081
895.769	14237
895.891	14206
896.012	14343
896.134	14191
896.255	14214
896.376	14145
896.498	14271
896.619	14206
896.74	14271
896.861	14263
896.982	14518
897.103	14682
897.224	14499
897.345	14541
897.466	14423
897.587	14431
897.708	14621
897.828	14488
897.949	14442
898.07	14431
898.19	14526
898.311	14621
898.431	14564
898.552	14537
898.672	14644
898.792	14514
898.913	14613
899.033	14457
899.153	14389
899.273	14339
899.393	14343
899.513	14404
899.633	14450
899.753	14442
899.873	14404
899.993	14503
900.113	14438
900.232	14450
900.352	14393
900.472	14339
900.591	14244
900.711	14214
900.83	14237
900.95	14396
901.069	14282
901.189	14244
901.308	14008
901.427	13944
901.546	13970
901.665	14005
901.784	13967
901.904	13757
902.023	13776
902.141	13651
902.26	13597
902.379	13601
902.498	13491
902.617	13556
902.735	13552
902.854	13518
902.973	13457
903.091	13297
903.21	13278
903.328	13263
903.446	13213
903.565	13038
903.683	13084
903.801	12977
903.919	13088
904.038	13126
904.156	13004
904.274	12996
904.392	12909
904.51	12875
904.627	12859
904.745	12973
904.863	12935
904.981	12677
905.098	12608
905.216	12662
905.334	12650
905.451	12597
905.569	12509
905.686	12669
905.803	12574
905.921	12426
906.038	12521
906.155	12384
906.272	12327
906.389	12281
906.506	12243
906.623	12182
906.74	12224
906.857	12060
906.974	12136
907.091	12152
907.208	12319
907.324	12216
907.441	12102
907.557	11901
907.674	11912
907.79	11840
907.907	11942
908.023	11885
908.139	11920
908.256	11889
908.372	11794
908.488	11889
908.604	11729
908.72	11699
908.836	11657
908.952	11718
909.068	11745
909.184	11859
909.3	11684
909.415	11802
909.531	11809
909.647	11520
909.762	11524
909.878	11467
909.993	11490
910.108	11482
910.224	11455
910.339	11429
910.454	11353
910.57	11356
910.685	11254
910.8	11539
910.915	11539
911.03	11330
911.145	11197
911.259	11140
911.374	11166
911.489	11094
911.604	11140
911.718	10957
911.833	10900
911.947	10892
912.062	10843
912.176	10892
912.291	10854
912.405	10957
912.519	11128
912.633	11162
912.748	10995
912.862	10949
912.976	10771
913.09	10702
913.204	10668
913.318	10835
913.431	10904
913.545	10934
913.659	10957
913.772	10877
913.886	10706
914	10736
914.113	10706
914.226	10816
914.34	10733
914.453	10656
914.566	10721
914.68	10634
914.793	10550
914.906	10428
915.019	10424
915.132	10333
915.245	10436
915.358	10527
915.47	10478
915.583	10409
915.696	10508
915.809	10580
915.921	10603
916.034	10436
916.146	10371
916.259	10371
916.371	10508
916.483	10489
916.595	10344
916.708	10394
916.82	10470
916.932	10390
917.044	10333
917.156	10276
917.268	10211
917.38	10280
917.491	10207
917.603	10268
917.715	10371
917.826	10360
917.938	10329
918.049	10128
918.161	10265
918.272	10371
918.384	10519
918.495	10257
918.606	10086
918.717	10040
918.828	10097
918.939	10211
919.05	10040
919.161	10105
919.272	10059
919.383	9956
919.494	10154
919.604	10337
919.715	10181
919.826	10067
919.936	10196
920.047	10280
920.157	10124
920.267	10379
920.378	10223
920.488	10211
920.598	10371
920.708	10538
920.818	10402
920.928	10314
921.038	10478
921.148	10481
921.258	10204
921.368	10139
921.477	10124
921.587	10006
921.697	9884
921.806	10082
921.916	9895
922.025	9762
922.134	9793
922.244	9698
922.353	9701
922.462	9591
922.571	9622
922.68	9447
922.789	9401
922.898	9401
923.007	9367
923.116	9488
923.224	9447
923.333	9367
923.442	9329
923.55	9306
923.659	9317
923.767	9351
923.876	9275
923.984	9321
924.092	9199
924.201	9294
924.309	9287
924.417	9233
924.525	9230
924.633	9260
924.741	10204
924.849	9077
924.956	9275
925.064	9119
925.172	8960
925.279	9001
925.387	9131
925.494	9142
925.602	9218
925.709	9176
925.816	9058
925.924	9119
926.031	9211
926.138	9066
926.245	9146
926.352	9051
926.459	9135
926.566	9188
926.673	8986
926.779	8990
926.886	8933
926.993	8823
927.099	8800
927.206	8861
927.312	8693
927.419	8823
927.525	8769
927.631	8857
927.737	8731
927.843	8720
927.95	8613
928.056	8640
928.162	8724
928.267	8693
928.373	9401
928.479	8838
928.585	8533
928.69	8724
928.796	8743
928.901	8522
929.007	8522
929.112	8632
929.218	8621
929.323	8537
929.428	8533
929.533	8667
929.638	8450
929.743	8590
929.848	8575
929.953	8518
930.058	8408
930.163	8275
930.267	8317
930.372	8431
930.477	8248
930.581	8533
930.685	8412
930.79	8271
930.894	8214
930.998	8244
931.103	8434
931.207	7997
931.311	7864
931.415	7932
931.519	7750
931.623	7811
