Data from test_V78500241_1874.txt Node
Date: Fri Mar 25 14:46:45 CST 2022
User: usil
Spectrometer: V785-0024
Trigger mode: 0
Integration Time (sec): 4.000000E-1
Scans to average: 1
Nonlinearity correction enabled: false
Boxcar width: 0
Storing dark spectrum: false
XAxis mode: Wavelengths
Number of Pixels in Spectrum: 1024
>>>>>Begin Spectral Data<<<<<
801.071	22181
801.214	22067
801.356	21675
801.499	21759
801.641	21485
801.783	21405
801.926	21561
802.068	21488
802.211	21519
802.353	21287
802.496	21074
802.638	20990
802.78	20990
802.923	20948
803.065	20861
803.208	20800
803.35	20880
803.492	20868
803.635	20994
803.777	20910
803.919	20921
804.061	21154
804.204	20891
804.346	20876
804.488	20731
804.63	20819
804.773	20712
804.915	20746
805.057	20861
805.199	20754
805.341	20830
805.483	20876
805.626	20781
805.768	20621
805.91	20750
806.052	20819
806.194	20758
806.336	20868
806.478	20823
806.62	20838
806.762	20845
806.904	21039
807.046	21192
807.188	21142
807.33	21127
807.472	21150
807.614	20861
807.756	21009
807.898	20921
808.04	20773
808.182	20830
808.324	20861
808.465	20842
808.607	21093
808.749	21135
808.891	21165
809.033	21287
809.174	21173
809.316	21100
809.458	21104
809.6	21184
809.741	21150
809.883	21233
810.025	21272
810.166	21344
810.308	21405
810.45	21214
810.591	21192
810.733	21001
810.875	20929
811.016	20823
811.158	20853
811.299	20956
811.441	21047
811.582	21085
811.724	20929
811.865	20872
812.007	20937
812.148	20895
812.29	20967
812.431	21085
812.573	21222
812.714	21306
812.855	21450
812.997	21568
813.138	21751
813.279	21561
813.421	21511
813.562	21317
813.703	21245
813.845	20975
813.986	20826
814.127	20537
814.268	20461
814.41	20408
814.551	20442
814.692	20549
814.833	20313
814.974	20415
815.115	20419
815.256	20237
815.397	20119
815.539	20275
815.68	20168
815.821	20252
815.962	20244
816.103	20092
816.244	19917
816.385	19959
816.526	19868
816.666	19788
816.807	19685
816.948	19784
817.089	19761
817.23	19662
817.371	19700
817.512	19525
817.653	19537
817.793	19643
817.934	19548
818.075	19499
818.216	19556
818.356	19502
818.497	19460
818.638	19251
818.778	19236
818.919	19289
819.06	19324
819.2	19381
819.341	19476
819.481	19453
819.622	19590
819.762	19875
819.903	19685
820.043	19635
820.184	19559
820.324	19540
820.465	19601
820.605	19693
820.746	19514
820.886	19480
821.026	19552
821.167	19571
821.307	19567
821.447	19540
821.588	19411
821.728	19320
821.868	19129
822.008	18909
822.149	18970
822.289	18894
822.429	18711
822.569	18757
822.709	18700
822.849	18547
822.99	18502
823.13	18559
823.27	18437
823.41	18243
823.55	18251
823.69	18194
823.83	18296
823.97	18311
824.11	18079
824.25	18136
824.389	18098
824.529	18140
824.669	18034
824.809	18174
824.949	18095
825.089	18083
825.228	18068
825.368	17901
825.508	17893
825.648	17863
825.787	17901
825.927	17927
826.067	17760
826.206	17817
826.346	17874
826.485	17866
826.625	17961
826.765	18026
826.904	17901
827.044	17684
827.183	17558
827.323	17478
827.462	17554
827.601	17532
827.741	17516
827.88	17577
828.02	17444
828.159	17543
828.298	17589
828.437	17505
828.577	17482
828.716	17710
828.855	17433
828.994	17299
829.134	17273
829.273	17318
829.412	17299
829.551	17220
829.69	17265
829.829	17334
829.968	17448
830.107	17353
830.246	17170
830.385	17288
830.524	17223
830.663	17090
830.802	17033
830.941	16847
831.08	16866
831.219	16858
831.357	16927
831.496	17064
831.635	16934
831.774	16786
831.913	16812
832.051	16679
832.19	16713
832.329	16668
832.467	16580
832.606	16577
832.744	16531
832.883	16592
833.022	16535
833.16	16603
833.299	16611
833.437	16679
833.576	16653
833.714	16649
833.852	16599
833.991	16679
834.129	16729
834.267	16668
834.406	16664
834.544	16744
834.682	16641
834.821	16664
834.959	16850
835.097	16565
835.235	16725
835.373	16664
835.511	16687
835.65	16603
835.788	16603
835.926	16413
836.064	16371
836.202	16421
836.34	16577
836.478	16580
836.615	16592
836.753	16569
836.891	16656
837.029	16512
837.167	16481
837.305	16428
837.443	16462
837.58	16382
837.718	16523
837.856	16497
837.993	16462
838.131	16390
838.269	16329
838.406	16409
838.544	16325
838.681	16105
838.819	16128
838.956	16044
839.094	15983
839.231	16044
839.369	16059
839.506	16432
839.643	16230
839.781	15918
839.918	15922
840.055	15994
840.193	15964
840.33	15964
840.467	15964
840.604	16101
840.742	16124
840.879	15930
841.016	15800
841.153	15808
841.29	16158
841.427	15861
841.564	16006
841.701	16006
841.838	15873
841.975	15907
842.112	15968
842.249	15759
842.385	15781
842.522	15968
842.659	15816
842.796	15857
842.933	15800
843.069	15770
843.206	15679
843.343	15873
843.479	15846
843.616	15789
843.752	15576
843.889	15553
844.025	15701
844.162	15485
844.298	15591
844.435	15614
844.571	15507
844.708	15622
844.844	15789
844.98	15736
845.117	15701
845.253	15538
845.389	15439
845.525	15568
845.661	15496
845.798	15336
845.934	15462
846.07	15306
846.206	15519
846.342	15576
846.478	15393
846.614	15192
846.75	15097
846.886	15165
847.022	15237
847.158	15127
847.294	15157
847.429	15188
847.565	15085
847.701	15424
847.837	14952
847.972	14815
848.108	15013
848.244	14925
848.379	14811
848.515	14750
848.65	14712
848.786	14773
848.921	14701
849.057	14918
849.192	15005
849.328	14777
849.463	14834
849.598	14686
849.734	14602
849.869	14655
850.004	14457
850.14	14507
850.275	14530
850.41	14492
850.545	14419
850.68	14610
850.815	14545
850.95	14571
851.085	14769
851.22	14564
851.355	14522
851.49	14446
851.625	14450
851.76	14492
851.895	14393
852.03	14366
852.165	14442
852.299	14575
852.434	14571
852.569	14461
852.703	14564
852.838	14610
852.973	14659
853.107	14590
853.242	14511
853.376	14313
853.511	14214
853.645	14343
853.78	14526
853.914	14415
854.048	14412
854.183	14301
854.317	14305
854.451	14488
854.585	14385
854.72	14366
854.854	14530
854.988	14301
855.122	14381
855.256	14210
855.39	14404
855.524	14427
855.658	14370
855.792	14404
855.926	14381
856.06	14514
856.194	14484
856.327	14415
856.461	14339
856.595	14374
856.729	14450
856.862	14571
856.996	14412
857.13	14457
857.263	14457
857.397	14514
857.53	14488
857.664	14465
857.797	14381
857.931	14503
858.064	14408
858.197	14514
858.331	14355
858.464	14377
858.597	14301
858.731	14381
858.864	14320
858.997	14332
859.13	14396
859.263	14454
859.396	14549
859.529	14256
859.662	14473
859.795	14381
859.928	14366
860.061	14537
860.194	14613
860.327	14389
860.46	14396
860.592	14522
860.725	14621
860.858	14530
860.99	14343
861.123	14320
861.256	14339
861.388	14461
861.521	15066
861.653	14263
861.786	14183
861.918	14183
862.05	14324
862.183	14347
862.315	14423
862.447	14385
862.58	14336
862.712	14195
862.844	14096
862.976	14157
863.108	14233
863.24	14503
863.372	14123
863.504	14130
863.636	14119
863.768	14191
863.9	14202
864.032	14069
864.164	14111
864.296	14221
864.428	14252
864.559	14282
864.691	14263
864.823	14199
864.954	14191
865.086	14187
865.217	14092
865.349	14073
865.48	14153
865.612	14062
865.743	14294
865.875	14107
866.006	14092
866.137	14157
866.269	14096
866.4	14206
866.531	13967
866.662	14126
866.793	14130
866.924	14088
867.055	14176
867.186	14058
867.317	14024
867.448	14062
867.579	14050
867.71	14058
867.841	14054
867.972	14164
868.103	14096
868.233	14153
868.364	14191
868.495	14267
868.625	14259
868.756	14404
868.886	14298
869.017	14370
869.147	14492
869.278	14461
869.408	14355
869.539	14408
869.669	14461
869.799	14396
869.929	14571
870.06	14545
870.19	14686
870.32	14705
870.45	14648
870.58	14765
870.71	14838
870.84	14925
870.97	14857
871.1	14731
871.23	15005
871.36	14868
871.489	14849
871.619	15009
871.749	15024
871.879	15039
872.008	15074
872.138	15077
872.267	14906
872.397	14819
872.526	14739
872.656	14823
872.785	14956
872.915	14975
873.044	15032
873.173	14963
873.303	15036
873.432	15093
873.561	15135
873.69	15112
873.819	15154
873.948	15138
874.077	14948
874.206	14986
874.335	15005
874.464	15233
874.593	15321
874.722	15359
874.851	15389
874.979	15382
875.108	15306
875.237	15260
875.365	15241
875.494	15359
875.623	15389
875.751	15279
875.88	15477
876.008	15488
876.136	15568
876.265	15812
876.393	15960
876.521	15861
876.65	15785
876.778	15808
876.906	15732
877.034	15686
877.162	15816
877.29	15633
877.418	15747
877.546	15808
877.674	15816
877.802	15656
877.93	15709
878.058	15778
878.185	15599
878.313	15778
878.441	15888
878.568	15618
878.696	15717
878.824	15694
878.951	15854
879.079	15827
879.206	16124
879.333	15934
879.461	15850
879.588	15850
879.715	15884
879.842	16059
879.97	15865
880.097	15603
880.224	15637
880.351	15732
880.478	15663
880.605	15587
880.732	15671
880.859	15827
880.986	15644
881.112	15648
881.239	15504
881.366	15454
881.493	15374
881.619	15176
881.746	15317
881.872	15298
881.999	15230
882.125	15218
882.252	15317
882.378	15237
882.505	15439
882.631	15199
882.757	15142
882.883	15146
883.01	15104
883.136	15058
883.262	14956
883.388	14944
883.514	15070
883.64	15104
883.766	15157
883.892	14929
884.018	14944
884.143	15028
884.269	15138
884.395	14838
884.52	14845
884.646	14861
884.772	14636
884.897	14697
885.023	14708
885.148	14819
885.274	14857
885.399	14948
885.524	14769
885.65	14781
885.775	14807
885.9	14842
886.025	14967
886.15	14876
886.275	14765
886.4	14716
886.525	14819
886.65	14701
886.775	14667
886.9	14941
887.025	15032
887.149	14682
887.274	14564
887.399	14632
887.523	14648
887.648	14537
887.773	14617
887.897	14750
888.021	14568
888.146	14583
888.27	14701
888.395	14727
888.519	14758
888.643	14670
888.767	14629
888.891	14484
889.015	14415
889.139	14465
889.263	14427
889.387	14545
889.511	14651
889.635	14606
889.759	14408
889.883	14434
890.006	14560
890.13	14663
890.254	14415
890.377	14446
890.501	14339
890.624	14149
890.748	14366
890.871	14218
890.995	14084
891.118	14123
891.241	14092
891.364	14164
891.488	14214
891.611	14202
891.734	14199
891.857	14278
891.98	14180
892.103	14332
892.226	14195
892.349	14081
892.471	14020
892.594	14157
892.717	14229
892.839	14210
892.962	14062
893.085	14218
893.207	14134
893.33	14065
893.452	14149
893.575	14164
893.697	14199
893.819	14385
893.941	14400
894.064	14317
894.186	14180
894.308	14069
894.43	14294
894.552	14385
894.674	14305
894.796	14199
894.918	14191
895.04	14176
895.161	14427
895.283	14389
895.405	14199
895.526	14263
895.648	14271
895.769	14305
895.891	14320
896.012	14457
896.134	14305
896.255	14366
896.376	14328
896.498	14275
896.619	14366
896.74	14377
896.861	14366
896.982	14636
897.103	14807
897.224	14686
897.345	14640
897.466	14465
897.587	14602
897.708	14686
897.828	14636
897.949	14514
898.07	14461
898.19	14621
898.311	14712
898.431	14655
898.552	14670
898.672	14769
898.792	14712
898.913	14796
899.033	14621
899.153	14469
899.273	14446
899.393	14507
899.513	14579
899.633	14522
899.753	14530
899.873	14514
899.993	14632
900.113	14560
900.232	14560
900.352	14598
900.472	14415
900.591	14336
900.711	14427
900.83	14290
900.95	14476
901.069	14545
901.189	14343
901.308	14229
901.427	14058
901.546	14119
901.665	14050
901.784	14073
901.904	13982
902.023	13906
902.141	13757
902.26	13681
902.379	13689
902.498	13662
902.617	13601
902.735	13693
902.854	13666
902.973	13510
903.091	13468
903.21	13381
903.328	13430
903.446	13259
903.565	13240
903.683	13270
903.801	13080
903.919	13228
904.038	13145
904.156	13057
904.274	13076
904.392	13065
904.51	12996
904.627	13031
904.745	13088
904.863	13080
904.981	12760
905.098	12700
905.216	12707
905.334	12764
905.451	12700
905.569	12707
905.686	12757
905.803	12677
905.921	12563
906.038	12555
906.155	12578
906.272	12445
906.389	12528
906.506	12262
906.623	12205
906.74	12311
906.857	12133
906.974	12311
907.091	12391
907.208	12483
907.324	12330
907.441	12319
907.557	12106
907.674	12060
907.79	11984
907.907	12049
908.023	11984
908.139	12034
908.256	12083
908.372	12030
908.488	11874
908.604	11874
908.72	11779
908.836	11851
908.952	11805
909.068	11908
909.184	11908
909.3	11882
909.415	11893
909.531	11817
909.647	11585
909.762	11608
909.878	11493
909.993	11642
910.108	11566
910.224	11516
910.339	11630
910.454	11463
910.57	11448
910.685	11356
910.8	11661
910.915	11512
911.03	11501
911.145	11242
911.259	11353
911.374	11181
911.489	11178
911.604	11185
911.718	10987
911.833	11067
911.947	11022
912.062	10930
912.176	11037
912.291	11128
912.405	10999
912.519	11292
912.633	11280
912.748	11098
912.862	11022
912.976	10938
913.09	10782
913.204	10873
913.318	10987
913.431	11033
913.545	10991
913.659	11041
913.772	10972
913.886	10866
914	10812
914.113	10892
914.226	10904
914.34	10877
914.453	10675
914.566	10877
914.68	10752
914.793	10694
914.906	10500
915.019	10550
915.132	10493
915.245	10531
915.358	10622
915.47	10603
915.583	10558
915.696	10611
915.809	10687
915.921	10706
916.034	10500
916.146	10538
916.259	10451
916.371	10588
916.483	10493
916.595	10382
916.708	10500
916.82	10405
916.932	10367
917.044	10402
917.156	10424
917.268	10344
917.38	10318
917.491	10466
917.603	10451
917.715	10500
917.826	10474
917.938	10344
918.049	10291
918.161	10356
918.272	10466
918.384	10489
918.495	10363
918.606	10314
918.717	10181
918.828	10299
918.939	10230
919.05	10112
919.161	10272
919.272	10074
919.383	10086
919.494	10261
919.604	10455
919.715	10257
919.826	10181
919.936	10265
920.047	10386
920.157	10314
920.267	10447
920.378	10314
920.488	10192
920.598	10390
920.708	10672
920.818	10470
920.928	10447
921.038	10664
921.148	10641
921.258	10322
921.368	10196
921.477	10071
921.587	10074
921.697	9956
921.806	10162
921.916	9975
922.025	9781
922.134	9865
922.244	9686
922.353	9888
922.462	9781
922.571	9667
922.68	9538
922.789	9481
922.898	9466
923.007	9473
923.116	9534
923.224	9462
923.333	9469
923.442	9416
923.55	9393
923.659	9469
923.767	9500
923.876	9374
923.984	9454
924.092	9355
924.201	9374
924.309	9336
924.417	9408
924.525	9378
924.633	9378
924.741	10280
924.849	9173
924.956	9359
925.064	9199
925.172	9142
925.279	9135
925.387	9165
925.494	9157
925.602	9260
925.709	9245
925.816	9051
925.924	9195
926.031	9222
926.138	9214
926.245	9226
926.352	9108
926.459	9188
926.566	9218
926.673	9123
926.779	9028
926.886	9081
926.993	8883
927.099	8868
927.206	8864
927.312	8785
927.419	8994
927.525	8887
927.631	8998
927.737	8811
927.843	8731
927.95	8663
928.056	8754
928.162	8762
928.267	8804
928.373	9340
928.479	8857
928.585	8598
928.69	8766
928.796	8777
928.901	8686
929.007	8514
929.112	8686
929.218	8674
929.323	8587
929.428	8579
929.533	8773
929.638	8545
929.743	8583
929.848	8659
929.953	8590
930.058	8450
930.163	8339
930.267	8309
930.372	8530
930.477	8328
930.581	8571
930.685	8499
930.79	8294
930.894	8305
930.998	8237
931.103	8442
931.207	8008
931.311	8043
931.415	7970
931.519	7784
931.623	7856
