Data from test_V78500241_377.txt Node
Date: Fri Mar 25 14:36:20 CST 2022
User: usil
Spectrometer: V785-0024
Trigger mode: 0
Integration Time (sec): 4.000000E-1
Scans to average: 1
Nonlinearity correction enabled: false
Boxcar width: 0
Storing dark spectrum: false
XAxis mode: Wavelengths
Number of Pixels in Spectrum: 1024
>>>>>Begin Spectral Data<<<<<
801.071	26758
801.214	26781
801.356	26370
801.499	26362
801.641	26142
801.783	26271
801.926	26210
802.068	26225
802.211	26062
802.353	26020
802.496	25818
802.638	25860
802.78	25826
802.923	25753
803.065	25742
803.208	25670
803.35	25715
803.492	25856
803.635	25833
803.777	25818
803.919	25784
804.061	26134
804.204	25822
804.346	25590
804.488	25601
804.63	25784
804.773	25502
804.915	25826
805.057	25963
805.199	25811
805.341	25639
805.483	25830
805.626	25868
805.768	25727
805.91	25902
806.052	25845
806.194	25674
806.336	25925
806.478	25814
806.62	25712
806.762	25921
806.904	26069
807.046	26256
807.188	26195
807.33	26157
807.472	26164
807.614	26050
807.756	26077
807.898	25909
808.04	25921
808.182	25784
808.324	25917
808.465	25791
808.607	26100
808.749	26381
808.891	26237
809.033	26526
809.174	26412
809.316	26225
809.458	26358
809.6	26332
809.741	26423
809.883	26412
810.025	26522
810.166	26400
810.308	26511
810.45	26351
810.591	26282
810.733	26183
810.875	26065
811.016	26027
811.158	26024
811.299	26069
811.441	26298
811.582	26248
811.724	26100
811.865	26115
812.007	26172
812.148	26161
812.29	26202
812.431	26077
812.573	26317
812.714	26332
812.855	26530
812.997	26617
813.138	26731
813.279	26830
813.421	26526
813.562	26514
813.703	26396
813.845	26389
813.986	25902
814.127	25681
814.268	25776
814.41	25753
814.551	25685
814.692	25712
814.833	25666
814.974	25670
815.115	25620
815.256	25350
815.397	25449
815.539	25384
815.68	25316
815.821	25400
815.962	25396
816.103	25464
816.244	25244
816.385	25110
816.526	25122
816.666	24989
816.807	24749
816.948	24776
817.089	24901
817.23	24768
817.371	24814
817.512	24867
817.653	24810
817.793	24840
817.934	24833
818.075	24684
818.216	24768
818.356	24677
818.497	24627
818.638	24384
818.778	24517
818.919	24513
819.06	24372
819.2	24555
819.341	24681
819.481	24875
819.622	24814
819.762	25061
819.903	24951
820.043	24825
820.184	24779
820.324	24753
820.465	24890
820.605	24825
820.746	24825
820.886	24661
821.026	24947
821.167	24639
821.307	24726
821.447	24681
821.588	24650
821.728	24460
821.868	24178
822.008	24270
822.149	24079
822.289	24030
822.429	23923
822.569	23775
822.709	23714
822.849	23653
822.99	23566
823.13	23608
823.27	23558
823.41	23463
823.55	23246
823.69	23330
823.83	23280
823.97	23330
824.11	23067
824.25	23132
824.389	23079
824.529	23216
824.669	23189
824.809	23334
824.949	23174
825.089	23200
825.228	23143
825.368	22934
825.508	22961
825.648	22835
825.787	23060
825.927	22968
826.067	22801
826.206	22881
826.346	22889
826.485	23060
826.625	22896
826.765	23006
826.904	22843
827.044	22618
827.183	22584
827.323	22603
827.462	22694
827.601	22615
827.741	22577
827.88	22672
828.02	22554
828.159	22649
828.298	22569
828.437	22801
828.577	22508
828.716	22668
828.855	22538
828.994	22253
829.134	22215
829.273	22363
829.412	22261
829.551	22219
829.69	22185
829.829	22424
829.968	22257
830.107	22443
830.246	22211
830.385	22226
830.524	22154
830.663	22143
830.802	21907
830.941	21819
831.08	21816
831.219	21846
831.357	21922
831.496	22090
831.635	21953
831.774	21698
831.913	21705
832.051	21682
832.19	21717
832.329	21595
832.467	21713
832.606	21526
832.744	21504
832.883	21435
833.022	21496
833.16	21549
833.299	21549
833.437	21416
833.576	21595
833.714	21595
833.852	21485
833.991	21507
834.129	21580
834.267	21595
834.406	21515
834.544	21538
834.682	21530
834.821	21424
834.959	21614
835.097	21454
835.235	21542
835.373	21477
835.511	21412
835.65	21374
835.788	21287
835.926	21207
836.064	21146
836.202	21169
836.34	21329
836.478	21469
836.615	21241
836.753	21389
836.891	21500
837.029	21348
837.167	21332
837.305	21233
837.443	21173
837.58	21211
837.718	21214
837.856	21245
837.993	21218
838.131	21135
838.269	21241
838.406	21131
838.544	21085
838.681	20868
838.819	20876
838.956	20720
839.094	20613
839.231	20667
839.369	20746
839.506	21039
839.643	20826
839.781	20552
839.918	20480
840.055	20552
840.193	20568
840.33	20507
840.467	20492
840.604	20640
840.742	20785
840.879	20431
841.016	20476
841.153	20530
841.29	20629
841.427	20621
841.564	20571
841.701	20514
841.838	20442
841.975	20457
842.112	20412
842.249	20412
842.385	20393
842.522	20549
842.659	20286
842.796	20271
842.933	20332
843.069	20225
843.206	20229
843.343	20419
843.479	20256
843.616	20240
843.752	20077
843.889	20020
844.025	20176
844.162	19959
844.298	20221
844.435	20107
844.571	19970
844.708	20058
844.844	20237
844.98	20138
845.117	20096
845.253	19860
845.389	19799
845.525	20069
845.661	19967
845.798	19890
845.934	19795
846.07	19974
846.206	19902
846.342	19989
846.478	19696
846.614	19594
846.75	19457
846.886	19529
847.022	19590
847.158	19575
847.294	19537
847.429	19559
847.565	19415
847.701	19723
847.837	19304
847.972	19141
848.108	19354
848.244	19255
848.379	19053
848.515	19046
848.65	19004
848.786	19076
848.921	19171
849.057	19076
849.192	19107
849.328	19156
849.463	19122
849.598	19031
849.734	18966
849.869	18924
850.004	18738
850.14	18825
850.275	18817
850.41	18658
850.545	18730
850.68	18821
850.815	18814
850.95	18890
851.085	19065
851.22	18913
851.355	18806
851.49	18681
851.625	18840
851.76	18802
851.895	18741
852.03	18658
852.165	18760
852.299	18757
852.434	18878
852.569	18890
852.703	18833
852.838	18954
852.973	18897
853.107	18966
853.242	18719
853.376	18741
853.511	18582
853.645	18604
853.78	18730
853.914	18616
854.048	18513
854.183	18597
854.317	18665
854.451	18783
854.585	18616
854.72	18684
854.854	18726
854.988	18509
855.122	18616
855.256	18467
855.39	18620
855.524	18578
855.658	18703
855.792	18601
855.926	18681
856.06	18707
856.194	18642
856.327	18608
856.461	18715
856.595	18551
856.729	18620
856.862	18669
856.996	18677
857.13	18654
857.263	18684
857.397	18642
857.53	18540
857.664	18730
857.797	18730
857.931	18806
858.064	18639
858.197	18707
858.331	18559
858.464	18460
858.597	18376
858.731	18589
858.864	18544
858.997	18585
859.13	18536
859.263	18563
859.396	18650
859.529	18593
859.662	18566
859.795	18448
859.928	18566
860.061	18726
860.194	18681
860.327	18661
860.46	18555
860.592	18627
860.725	18627
860.858	18700
860.99	18403
861.123	18486
861.256	18471
861.388	18551
861.521	19392
861.653	18475
861.786	18437
861.918	18422
862.05	18601
862.183	18627
862.315	18623
862.447	18578
862.58	18582
862.712	18350
862.844	18380
862.976	18361
863.108	18277
863.24	18722
863.372	18292
863.504	18338
863.636	18251
863.768	18323
863.9	18273
864.032	18098
864.164	18197
864.296	18292
864.428	18300
864.559	18353
864.691	18311
864.823	18239
864.954	18277
865.086	18285
865.217	18194
865.349	18201
865.48	18273
865.612	18232
865.743	18281
865.875	18232
866.006	18140
866.137	18239
866.269	18194
866.4	18121
866.531	18201
866.662	18121
866.793	18117
866.924	18186
867.055	18220
867.186	18182
867.317	18171
867.448	18057
867.579	18114
867.71	18190
867.841	18057
867.972	18095
868.103	18190
868.233	18133
868.364	18178
868.495	18155
868.625	18365
868.756	18418
868.886	18357
869.017	18342
869.147	18528
869.278	18475
869.408	18418
869.539	18369
869.669	18467
869.799	18475
869.929	18555
870.06	18418
870.19	18707
870.32	18707
870.45	18745
870.58	18772
870.71	18932
870.84	18817
870.97	18768
871.1	18840
871.23	18905
871.36	18943
871.489	18867
871.619	18962
871.749	18947
871.879	19019
872.008	19023
872.138	18973
872.267	19000
872.397	18905
872.526	18897
872.656	18958
872.785	18681
872.915	19004
873.044	19088
873.173	18951
873.303	19031
873.432	19118
873.561	19015
873.69	19000
873.819	18947
873.948	19080
874.077	19019
874.206	19019
874.335	19057
874.464	19053
874.593	19251
874.722	19206
874.851	19171
874.979	19335
875.108	19312
875.237	19270
875.365	19228
875.494	19270
875.623	19411
875.751	19270
875.88	19407
876.008	19476
876.136	19415
876.265	19658
876.393	19818
876.521	19753
876.65	19750
876.778	19647
876.906	19624
877.034	19666
877.162	19658
877.29	19525
877.418	19696
877.546	19635
877.674	19655
877.802	19605
877.93	19601
878.058	19632
878.185	19548
878.313	19639
878.441	19655
878.568	19533
878.696	19628
878.824	19647
878.951	19822
879.079	19818
879.206	20005
879.333	19841
879.461	19734
879.588	19902
879.715	19818
879.842	19928
879.97	19761
880.097	19567
880.224	19407
880.351	19544
880.478	19415
880.605	19434
880.732	19578
880.859	19727
880.986	19529
881.112	19559
881.239	19468
881.366	19320
881.493	19038
881.619	19076
881.746	19183
881.872	19095
881.999	19141
882.125	18973
882.252	19129
882.378	19038
882.505	19137
882.631	19118
882.757	18932
882.883	18989
883.01	18947
883.136	18882
883.262	18802
883.388	18703
883.514	18894
883.64	18875
883.766	18871
883.892	18566
884.018	18779
884.143	18886
884.269	18890
884.395	18703
884.52	18525
884.646	18566
884.772	18559
884.897	18464
885.023	18627
885.148	18642
885.274	18696
885.399	18646
885.524	18559
885.65	18525
885.775	18559
885.9	18536
886.025	18654
886.15	18745
886.275	18452
886.4	18388
886.525	18563
886.65	18464
886.775	18429
886.9	18627
887.025	18738
887.149	18517
887.274	18334
887.399	18399
887.523	18262
887.648	18258
887.773	18186
887.897	18460
888.021	18346
888.146	18182
888.27	18353
888.395	18365
888.519	18330
888.643	18304
888.767	18410
888.891	18228
889.015	18110
889.139	18315
889.263	18167
889.387	18311
889.511	18277
889.635	18155
889.759	18049
889.883	18125
890.006	18125
890.13	18186
890.254	18003
890.377	18026
890.501	17843
890.624	17901
890.748	17969
890.871	17798
890.995	17699
891.118	17684
891.241	17752
891.364	17672
891.488	17863
891.611	17634
891.734	17775
891.857	17840
891.98	17668
892.103	17771
892.226	17843
892.349	17779
892.471	17490
892.594	17756
892.717	17665
892.839	17615
892.962	17745
893.085	17802
893.207	17653
893.33	17707
893.452	17551
893.575	17691
893.697	17661
893.819	17847
893.941	17878
894.064	17783
894.186	17623
894.308	17619
894.43	17741
894.552	17817
894.674	17748
894.796	17627
894.918	17665
895.04	17695
895.161	17676
895.283	17714
895.405	17589
895.526	17733
895.648	17760
895.769	17832
895.891	17756
896.012	17802
896.134	17767
896.255	17756
896.376	17695
896.498	17775
896.619	17840
896.74	17718
896.861	17859
896.982	18133
897.103	18232
897.224	18057
897.345	17942
897.466	17916
897.587	17942
897.708	18030
897.828	17980
897.949	18007
898.07	17866
898.19	17950
898.311	18102
898.431	18038
898.552	17950
898.672	18003
898.792	18022
898.913	18019
899.033	17939
899.153	17836
899.273	17592
899.393	17771
899.513	17672
899.633	17726
899.753	17695
899.873	17604
899.993	17821
900.113	17707
900.232	17745
900.352	17668
900.472	17589
900.591	17524
900.711	17577
900.83	17554
900.95	17642
901.069	17691
901.189	17528
901.308	17299
901.427	17216
901.546	17292
901.665	17189
901.784	17185
901.904	17083
902.023	17067
902.141	16896
902.26	16710
902.379	16828
902.498	16740
902.617	16713
902.735	16725
902.854	16599
902.973	16615
903.091	16470
903.21	16519
903.328	16382
903.446	16318
903.565	16284
903.683	16181
903.801	16090
903.919	16261
904.038	16162
904.156	16021
904.274	16101
904.392	15983
904.51	16078
904.627	16044
904.745	16074
904.863	16128
904.981	15770
905.098	15694
905.216	15675
905.334	15724
905.451	15599
905.569	15652
905.686	15747
905.803	15694
905.921	15530
906.038	15530
906.155	15530
906.272	15408
906.389	15382
906.506	15268
906.623	15256
906.74	15272
906.857	15184
906.974	15089
907.091	15294
907.208	15382
907.324	15233
907.441	15108
907.557	15028
907.674	14990
907.79	14982
907.907	14918
908.023	15001
908.139	15001
908.256	14800
908.372	14887
908.488	14861
908.604	14697
908.72	14598
908.836	14792
908.952	14686
909.068	14712
909.184	14712
909.3	14514
909.415	14731
909.531	14632
909.647	14347
909.762	14358
909.878	14442
909.993	14377
910.108	14415
910.224	14267
910.339	14431
910.454	14332
910.57	14183
910.685	14084
910.8	14446
910.915	14332
911.03	14161
911.145	14092
911.259	13997
911.374	13989
911.489	13849
911.604	13890
911.718	13738
911.833	13712
911.947	13689
912.062	13601
912.176	13696
912.291	13693
912.405	13723
912.519	13909
912.633	13871
912.748	13757
912.862	13780
912.976	13605
913.09	13449
913.204	13552
913.318	13594
913.431	13662
913.545	13590
913.659	13632
913.772	13563
913.886	13472
914	13285
914.113	13499
914.226	13441
914.34	13544
914.453	13324
914.566	13464
914.68	13365
914.793	13350
914.906	13240
915.019	13031
915.132	12996
915.245	13149
915.358	13004
915.47	13194
915.583	13164
915.696	13232
915.809	13232
915.921	13278
916.034	13004
916.146	13023
916.259	12993
916.371	13137
916.483	13088
916.595	12962
916.708	12951
916.82	12928
916.932	12996
917.044	12913
917.156	12909
917.268	12810
917.38	12935
917.491	12760
917.603	12871
917.715	12848
917.826	12966
917.938	12787
918.049	12692
918.161	12768
918.272	12863
918.384	12928
918.495	12688
918.606	12589
918.717	12597
918.828	12601
918.939	12642
919.05	12593
919.161	12521
919.272	12395
919.383	12483
919.494	12662
919.604	12738
919.715	12616
919.826	12460
919.936	12479
920.047	12585
920.157	12589
920.267	12798
920.378	12570
920.488	12566
920.598	12559
920.708	12890
920.818	12707
920.928	12760
921.038	12867
921.148	12783
921.258	12608
921.368	12490
921.477	12369
921.587	12441
921.697	12117
921.806	12342
921.916	12194
922.025	12095
922.134	11904
922.244	11893
922.353	12072
922.462	11897
922.571	11901
922.68	11676
922.789	11592
922.898	11688
923.007	11524
923.116	11752
923.224	11604
923.333	11653
923.442	11543
923.55	11471
923.659	11471
923.767	11505
923.876	11452
923.984	11463
924.092	11474
924.201	11532
924.309	11444
924.417	11425
924.525	11429
924.633	11429
924.741	12319
924.849	11273
924.956	11307
925.064	11246
925.172	11174
925.279	11185
925.387	11136
925.494	11216
925.602	11269
925.709	11269
925.816	11170
925.924	11216
926.031	11273
926.138	11174
926.245	11254
926.352	11121
926.459	11193
926.566	11254
926.673	11086
926.779	10968
926.886	10904
926.993	10835
927.099	10869
927.206	10847
927.312	10778
927.419	10873
927.525	10774
927.631	10858
927.737	10714
927.843	10759
927.95	10599
928.056	10660
928.162	10637
928.267	10759
928.373	11307
928.479	10755
928.585	10577
928.69	10641
928.796	10725
928.901	10531
929.007	10371
929.112	10580
929.218	10470
929.323	10485
929.428	10436
929.533	10599
929.638	10390
929.743	10306
929.848	10436
929.953	10421
930.058	10337
930.163	10143
930.267	10101
930.372	10234
930.477	10131
930.581	10413
930.685	10181
930.79	9991
930.894	10109
930.998	10097
931.103	10169
931.207	9880
931.311	9720
931.415	9660
931.519	9466
931.623	9500
