Data from test_V78500241_2491.txt Node
Date: Fri Mar 25 14:51:03 CST 2022
User: usil
Spectrometer: V785-0024
Trigger mode: 0
Integration Time (sec): 4.000000E-1
Scans to average: 1
Nonlinearity correction enabled: false
Boxcar width: 0
Storing dark spectrum: false
XAxis mode: Wavelengths
Number of Pixels in Spectrum: 1024
>>>>>Begin Spectral Data<<<<<
801.071	22154
801.214	21926
801.356	21759
801.499	21732
801.641	21462
801.783	21485
801.926	21477
802.068	21412
802.211	21367
802.353	21222
802.496	20944
802.638	20910
802.78	20937
802.923	20773
803.065	20739
803.208	20743
803.35	20845
803.492	20899
803.635	20925
803.777	20746
803.919	20891
804.061	21146
804.204	20796
804.346	20716
804.488	20701
804.63	20880
804.773	20674
804.915	20705
805.057	20746
805.199	20678
805.341	20655
805.483	20712
805.626	20800
805.768	20644
805.91	20686
806.052	20701
806.194	20632
806.336	20830
806.478	20674
806.62	20686
806.762	20625
806.904	20944
807.046	21173
807.188	21024
807.33	20956
807.472	20979
807.614	20925
807.756	20952
807.898	20712
808.04	20845
808.182	20743
808.324	20823
808.465	20781
808.607	20921
808.749	21039
808.891	21119
809.033	21119
809.174	21211
809.316	21104
809.458	21024
809.6	20941
809.741	21180
809.883	21154
810.025	21154
810.166	21233
810.308	21123
810.45	21279
810.591	21074
810.733	20982
810.875	20861
811.016	20785
811.158	20727
811.299	20864
811.441	20952
811.582	20864
811.724	20918
811.865	20731
812.007	20830
812.148	20769
812.29	20754
812.431	20979
812.573	21100
812.714	21199
812.855	21374
812.997	21408
813.138	21587
813.279	21340
813.421	21180
813.562	21256
813.703	21112
813.845	21058
813.986	20765
814.127	20629
814.268	20404
814.41	20480
814.551	20434
814.692	20461
814.833	20301
814.974	20237
815.115	20427
815.256	20161
815.397	20084
815.539	20248
815.68	20081
815.821	20157
815.962	20058
816.103	19982
816.244	19993
816.385	19932
816.526	19837
816.666	19620
816.807	19552
816.948	19559
817.089	19639
817.23	19529
817.371	19476
817.512	19445
817.653	19529
817.793	19377
817.934	19483
818.075	19537
818.216	19495
818.356	19556
818.497	19369
818.638	19179
818.778	19164
818.919	19183
819.06	19301
819.2	19320
819.341	19430
819.481	19453
819.622	19647
819.762	19746
819.903	19765
820.043	19597
820.184	19464
820.324	19468
820.465	19445
820.605	19582
820.746	19495
820.886	19373
821.026	19415
821.167	19400
821.307	19502
821.447	19396
821.588	19263
821.728	19148
821.868	18962
822.008	18894
822.149	18882
822.289	18829
822.429	18688
822.569	18612
822.709	18517
822.849	18315
822.99	18426
823.13	18330
823.27	18270
823.41	18304
823.55	18148
823.69	18174
823.83	18228
823.97	18186
824.11	17984
824.25	17965
824.389	18003
824.529	18045
824.669	17984
824.809	18019
824.949	18072
825.089	18007
825.228	17980
825.368	17908
825.508	17824
825.648	17855
825.787	17859
825.927	17779
826.067	17729
826.206	17752
826.346	17760
826.485	17733
826.625	17741
826.765	17798
826.904	17836
827.044	17501
827.183	17486
827.323	17414
827.462	17573
827.601	17364
827.741	17303
827.88	17376
828.02	17231
828.159	17452
828.298	17524
828.437	17474
828.577	17478
828.716	17471
828.855	17398
828.994	17216
829.134	17136
829.273	17200
829.412	17181
829.551	17223
829.69	17181
829.829	17250
829.968	17246
830.107	17235
830.246	17284
830.385	17170
830.524	17052
830.663	17033
830.802	16858
830.941	16869
831.08	16786
831.219	16889
831.357	16809
831.496	16957
831.635	16843
831.774	16828
831.913	16713
832.051	16767
832.19	16725
832.329	16634
832.467	16481
832.606	16489
832.744	16546
832.883	16417
833.022	16466
833.16	16462
833.299	16523
833.437	16516
833.576	16550
833.714	16622
833.852	16569
833.991	16504
834.129	16618
834.267	16664
834.406	16512
834.544	16710
834.682	16588
834.821	16421
834.959	16679
835.097	16542
835.235	16660
835.373	16584
835.511	16554
835.65	16375
835.788	16432
835.926	16306
836.064	16360
836.202	16177
836.34	16607
836.478	16531
836.615	16481
836.753	16466
836.891	16542
837.029	16474
837.167	16310
837.305	16409
837.443	16386
837.58	16295
837.718	16390
837.856	16272
837.993	16268
838.131	16318
838.269	16166
838.406	16257
838.544	16257
838.681	16029
838.819	15949
838.956	15907
839.094	15899
839.231	15949
839.369	15964
839.506	16226
839.643	16143
839.781	15937
839.918	15880
840.055	15888
840.193	15918
840.33	15793
840.467	15888
840.604	15918
840.742	16196
840.879	15694
841.016	15850
841.153	15717
841.29	15922
841.427	15876
841.564	15892
841.701	15930
841.838	15797
841.975	15812
842.112	15774
842.249	15739
842.385	15743
842.522	15861
842.659	15778
842.796	15633
842.933	15667
843.069	15515
843.206	15568
843.343	15724
843.479	15599
843.616	15736
843.752	15481
843.889	15431
844.025	15648
844.162	15416
844.298	15603
844.435	15458
844.571	15416
844.708	15530
844.844	15599
844.98	15576
845.117	15500
845.253	15363
845.389	15397
845.525	15405
845.661	15363
845.798	15230
845.934	15355
846.07	15211
846.206	15245
846.342	15329
846.478	15275
846.614	15081
846.75	14925
846.886	14994
847.022	15039
847.158	14941
847.294	14994
847.429	15062
847.565	14963
847.701	15233
847.837	14765
847.972	14765
848.108	14796
848.244	14796
848.379	14686
848.515	14541
848.65	14678
848.786	14575
848.921	14625
849.057	14743
849.192	14708
849.328	14629
849.463	14613
849.598	14598
849.734	14549
849.869	14446
850.004	14275
850.14	14476
850.275	14431
850.41	14412
850.545	14419
850.68	14412
850.815	14294
850.95	14332
851.085	14571
851.22	14499
851.355	14366
851.49	14328
851.625	14431
851.76	14423
851.895	14301
852.03	14290
852.165	14408
852.299	14282
852.434	14480
852.569	14457
852.703	14389
852.838	14514
852.973	14507
853.107	14465
853.242	14301
853.376	14221
853.511	14103
853.645	14157
853.78	14393
853.914	14290
854.048	14233
854.183	14229
854.317	14324
854.451	14305
854.585	14259
854.72	14225
854.854	14225
854.988	14126
855.122	14195
855.256	14069
855.39	14271
855.524	14347
855.658	14294
855.792	14256
855.926	14199
856.06	14240
856.194	14256
856.327	14244
856.461	14275
856.595	14134
856.729	14256
856.862	14358
856.996	14248
857.13	14256
857.263	14313
857.397	14423
857.53	14214
857.664	14374
857.797	14252
857.931	14339
858.064	14286
858.197	14389
858.331	14248
858.464	14176
858.597	14111
858.731	14218
858.864	14161
858.997	14244
859.13	14271
859.263	14351
859.396	14324
859.529	14172
859.662	14286
859.795	14218
859.928	14305
860.061	14404
860.194	14324
860.327	14286
860.46	14218
860.592	14347
860.725	14355
860.858	14393
860.99	14225
861.123	14199
861.256	14164
861.388	14229
861.521	14861
861.653	14157
861.786	14001
861.918	14058
862.05	14123
862.183	14229
862.315	14271
862.447	14187
862.58	14149
862.712	14046
862.844	14005
862.976	14058
863.108	14111
863.24	14358
863.372	13917
863.504	13974
863.636	14096
863.768	14077
863.9	14103
864.032	13967
864.164	13986
864.296	14062
864.428	14138
864.559	14206
864.691	14081
864.823	14035
864.954	14054
865.086	14024
865.217	13982
865.349	14043
865.48	13970
865.612	14031
865.743	14115
865.875	13974
866.006	13940
866.137	14054
866.269	14069
866.4	14062
866.531	13978
866.662	13944
866.793	13947
866.924	13967
867.055	14046
867.186	13974
867.317	13989
867.448	13947
867.579	14043
867.71	13944
867.841	13959
867.972	14035
868.103	14100
868.233	13959
868.364	14050
868.495	14046
868.625	14237
868.756	14355
868.886	14210
869.017	14263
869.147	14336
869.278	14393
869.408	14221
869.539	14290
869.669	14450
869.799	14259
869.929	14385
870.06	14393
870.19	14514
870.32	14560
870.45	14560
870.58	14648
870.71	14815
870.84	14785
870.97	14689
871.1	14651
871.23	14815
871.36	14750
871.489	14796
871.619	14849
871.749	14826
871.879	14819
872.008	14899
872.138	14910
872.267	14933
872.397	14720
872.526	14670
872.656	14750
872.785	14731
872.915	14792
873.044	14948
873.173	14921
873.303	14902
873.432	14906
873.561	15032
873.69	14956
873.819	14937
873.948	14979
874.077	14868
874.206	14910
874.335	14899
874.464	14990
874.593	15218
874.722	15188
874.851	15226
874.979	15218
875.108	15241
875.237	15279
875.365	15226
875.494	15195
875.623	15211
875.751	15252
875.88	15306
876.008	15412
876.136	15408
876.265	15648
876.393	15808
876.521	15732
876.65	15793
876.778	15698
876.906	15542
877.034	15530
877.162	15576
877.29	15599
877.418	15694
877.546	15599
877.674	15553
877.802	15614
877.93	15667
878.058	15553
878.185	15523
878.313	15595
878.441	15739
878.568	15519
878.696	15622
878.824	15682
878.951	15705
879.079	15819
879.206	15880
879.333	15823
879.461	15736
879.588	15732
879.715	15766
879.842	15979
879.97	15759
880.097	15435
880.224	15336
880.351	15538
880.478	15530
880.605	15507
880.732	15443
880.859	15667
880.986	15488
881.112	15599
881.239	15401
881.366	15245
881.493	15165
881.619	15169
881.746	15135
881.872	15146
881.999	15081
882.125	15032
882.252	15222
882.378	15169
882.505	15241
882.631	15062
882.757	14967
882.883	15024
883.01	14967
883.136	14944
883.262	14758
883.388	14861
883.514	14979
883.64	14998
883.766	14948
883.892	14773
884.018	14777
884.143	15085
884.269	14960
884.395	14743
884.52	14708
884.646	14659
884.772	14560
884.897	14537
885.023	14632
885.148	14792
885.274	14891
885.399	14815
885.524	14724
885.65	14625
885.775	14655
885.9	14670
886.025	14758
886.15	14746
886.275	14667
886.4	14556
886.525	14724
886.65	14621
886.775	14613
886.9	14861
887.025	14876
887.149	14617
887.274	14507
887.399	14522
887.523	14446
887.648	14434
887.773	14396
887.897	14594
888.021	14667
888.146	14484
888.27	14537
888.395	14602
888.519	14587
888.643	14598
888.767	14545
888.891	14412
889.015	14389
889.139	14465
889.263	14267
889.387	14461
889.511	14476
889.635	14522
889.759	14351
889.883	14336
890.006	14324
890.13	14469
890.254	14252
890.377	14396
890.501	14138
890.624	14240
890.748	14237
890.871	14081
890.995	13944
891.118	14027
891.241	14084
891.364	14077
891.488	14199
891.611	14069
891.734	14050
891.857	14012
891.98	14062
892.103	14233
892.226	14096
892.349	14031
892.471	13833
892.594	14020
892.717	14062
892.839	14126
892.962	14100
893.085	14084
893.207	14069
893.33	13917
893.452	14012
893.575	14130
893.697	14092
893.819	14157
893.941	14225
894.064	14336
894.186	14058
894.308	14020
894.43	14123
894.552	14317
894.674	14149
894.796	14054
894.918	13982
895.04	14107
895.161	14278
895.283	14206
895.405	14138
895.526	14107
895.648	14202
895.769	14210
895.891	14206
896.012	14317
896.134	14229
896.255	14263
896.376	14225
896.498	14157
896.619	14214
896.74	14317
896.861	14313
896.982	14564
897.103	14807
897.224	14610
897.345	14438
897.466	14434
897.587	14457
897.708	14678
897.828	14598
897.949	14511
898.07	14351
898.19	14526
898.311	14651
898.431	14518
898.552	14522
898.672	14674
898.792	14712
898.913	14606
899.033	14473
899.153	14454
899.273	14320
899.393	14465
899.513	14499
899.633	14404
899.753	14499
899.873	14412
899.993	14396
900.113	14461
900.232	14423
900.352	14415
900.472	14324
900.591	14267
900.711	14339
900.83	14298
900.95	14533
901.069	14396
901.189	14271
901.308	14050
901.427	13963
901.546	13974
901.665	14065
901.784	13997
901.904	13887
902.023	13883
902.141	13651
902.26	13586
902.379	13632
902.498	13575
902.617	13533
902.735	13689
902.854	13487
902.973	13407
903.091	13251
903.21	13301
903.328	13297
903.446	13266
903.565	13145
903.683	13091
903.801	12962
903.919	13145
904.038	13156
904.156	12909
904.274	13057
904.392	12977
904.51	12947
904.627	12970
904.745	12920
904.863	12993
904.981	12745
905.098	12597
905.216	12635
905.334	12703
905.451	12639
905.569	12563
905.686	12669
905.803	12620
905.921	12456
906.038	12498
906.155	12437
906.272	12308
906.389	12281
906.506	12315
906.623	12182
906.74	12220
906.857	12030
906.974	12175
907.091	12239
907.208	12410
907.324	12292
907.441	12159
907.557	12030
907.674	12011
907.79	11950
907.907	11992
908.023	12045
908.139	11980
908.256	11893
908.372	11874
908.488	11870
908.604	11794
908.72	11798
908.836	11703
908.952	11657
909.068	11699
909.184	11893
909.3	11729
909.415	11828
909.531	11764
909.647	11528
909.762	11551
909.878	11478
909.993	11482
910.108	11474
910.224	11467
910.339	11516
910.454	11341
910.57	11387
910.685	11280
910.8	11596
910.915	11570
911.03	11414
911.145	11201
911.259	11102
911.374	11189
911.489	11159
911.604	11067
911.718	10999
911.833	11006
911.947	10805
912.062	10869
912.176	10911
912.291	10991
912.405	10949
912.519	11170
912.633	11128
912.748	11018
912.862	10991
912.976	10778
913.09	10752
913.204	10805
913.318	10828
913.431	10934
913.545	10892
913.659	10934
913.772	10930
913.886	10767
914	10641
914.113	10694
914.226	10835
914.34	10805
914.453	10592
914.566	10835
914.68	10672
914.793	10584
914.906	10466
915.019	10455
915.132	10443
915.245	10508
915.358	10478
915.47	10512
915.583	10516
915.696	10516
915.809	10569
915.921	10672
916.034	10436
916.146	10440
916.259	10371
916.371	10447
916.483	10470
916.595	10421
916.708	10390
916.82	10394
916.932	10394
917.044	10413
917.156	10360
917.268	10303
917.38	10303
917.491	10268
917.603	10344
917.715	10409
917.826	10466
917.938	10257
918.049	10211
918.161	10303
918.272	10462
918.384	10443
918.495	10432
918.606	10158
918.717	10124
918.828	10246
918.939	10227
919.05	10139
919.161	10261
919.272	10051
919.383	10040
919.494	10303
919.604	10413
919.715	10303
919.826	10230
919.936	10196
920.047	10265
920.157	10318
920.267	10390
920.378	10276
920.488	10230
920.598	10409
920.708	10577
920.818	10497
920.928	10447
921.038	10565
921.148	10599
921.258	10276
921.368	10112
921.477	10097
921.587	10040
921.697	9861
921.806	10059
921.916	10048
922.025	9804
922.134	9778
922.244	9789
922.353	9800
922.462	9751
922.571	9564
922.68	9466
922.789	9450
922.898	9500
923.007	9435
923.116	9485
923.224	9557
923.333	9481
923.442	9389
923.55	9313
923.659	9386
923.767	9355
923.876	9306
923.984	9389
924.092	9298
924.201	9268
924.309	9355
924.417	9351
924.525	9332
924.633	9294
924.741	10090
924.849	9138
924.956	9268
925.064	9112
925.172	9009
925.279	9135
925.387	9169
925.494	9192
925.602	9310
925.709	9283
925.816	9036
925.924	9138
926.031	9211
926.138	9180
926.245	9272
926.352	9055
926.459	9218
926.566	9245
926.673	9173
926.779	9005
926.886	8975
926.993	8929
927.099	8857
927.206	8838
927.312	8792
927.419	8796
927.525	8781
927.631	8872
927.737	8773
927.843	8708
927.95	8613
928.056	8705
928.162	8823
928.267	8800
928.373	9306
928.479	8849
928.585	8602
928.69	8697
928.796	8823
928.901	8571
929.007	8526
929.112	8670
929.218	8613
929.323	8571
929.428	8533
929.533	8697
929.638	8492
929.743	8640
929.848	8606
929.953	8473
930.058	8442
930.163	8298
930.267	8343
930.372	8454
930.477	8256
930.581	8568
930.685	8461
930.79	8240
930.894	8263
930.998	8263
931.103	8450
931.207	8103
931.311	8008
931.415	7959
931.519	7807
931.623	7792
