Data from test_V78500241_886.txt Node
Date: Fri Mar 25 14:39:53 CST 2022
User: usil
Spectrometer: V785-0024
Trigger mode: 0
Integration Time (sec): 4.000000E-1
Scans to average: 1
Nonlinearity correction enabled: false
Boxcar width: 0
Storing dark spectrum: false
XAxis mode: Wavelengths
Number of Pixels in Spectrum: 1024
>>>>>Begin Spectral Data<<<<<
801.071	25403
801.214	25331
801.356	25012
801.499	24859
801.641	24623
801.783	24772
801.926	24817
802.068	24639
802.211	24532
802.353	24426
802.496	24201
802.638	24163
802.78	24110
802.923	24106
803.065	23969
803.208	23904
803.35	23916
803.492	24174
803.635	24235
803.777	24076
803.919	24308
804.061	24540
804.204	24205
804.346	24174
804.488	24022
804.63	24011
804.773	24038
804.915	24148
805.057	24323
805.199	24041
805.341	24311
805.483	24399
805.626	24311
805.768	24133
805.91	24254
806.052	24235
806.194	24277
806.336	24703
806.478	24623
806.62	24631
806.762	24696
806.904	24882
807.046	25148
807.188	25259
807.33	25411
807.472	25578
807.614	25658
807.756	25925
807.898	26103
808.04	26526
808.182	27173
808.324	27850
808.465	28888
808.607	29847
808.749	30768
808.891	31354
809.033	31327
809.174	30726
809.316	29870
809.458	28877
809.6	27979
809.741	27116
809.883	26590
810.025	26237
810.166	26016
810.308	25879
810.45	25529
810.591	25411
810.733	25209
810.875	24909
811.016	24700
811.158	24715
811.299	24798
811.441	24817
811.582	24749
811.724	24498
811.865	24399
812.007	24513
812.148	24437
812.29	24483
812.431	24563
812.573	24753
812.714	24848
812.855	24859
812.997	24951
813.138	25114
813.279	25069
813.421	25008
813.562	24863
813.703	24635
813.845	24456
813.986	24194
814.127	23942
814.268	23973
814.41	23950
814.551	23794
814.692	23855
814.833	23764
814.974	23775
815.115	23904
815.256	23680
815.397	23695
815.539	23509
815.68	23524
815.821	23570
815.962	23528
816.103	23531
816.244	23200
816.385	23162
816.526	23185
816.666	23128
816.807	22946
816.948	22938
817.089	23037
817.23	23010
817.371	22965
817.512	22946
817.653	22919
817.793	22744
817.934	22915
818.075	22866
818.216	22934
818.356	22965
818.497	22713
818.638	22504
818.778	22500
818.919	22580
819.06	22542
819.2	22626
819.341	22748
819.481	22740
819.622	22877
819.762	23033
819.903	22953
820.043	22873
820.184	22881
820.324	22873
820.465	22900
820.605	22869
820.746	22755
820.886	22729
821.026	22767
821.167	22755
821.307	22809
821.447	22744
821.588	22611
821.728	22459
821.868	22310
822.008	22162
822.149	22196
822.289	22162
822.429	21915
822.569	21720
822.709	21808
822.849	21770
822.99	21686
823.13	21450
823.27	21564
823.41	21492
823.55	21298
823.69	21329
823.83	21344
823.97	21355
824.11	21173
824.25	20990
824.389	21131
824.529	21173
824.669	21142
824.809	21344
824.949	21226
825.089	21218
825.228	21161
825.368	21108
825.508	21001
825.648	20880
825.787	20883
825.927	20986
826.067	20891
826.206	20941
826.346	20948
826.485	20925
826.625	20895
826.765	20998
826.904	20921
827.044	20739
827.183	20579
827.323	20609
827.462	20583
827.601	20674
827.741	20587
827.88	20602
828.02	20511
828.159	20613
828.298	20545
828.437	20651
828.577	20465
828.716	20678
828.855	20575
828.994	20355
829.134	20393
829.273	20396
829.412	20149
829.551	20221
829.69	20229
829.829	20259
829.968	20366
830.107	20366
830.246	20267
830.385	20210
830.524	20214
830.663	20077
830.802	20050
830.941	19860
831.08	19826
831.219	19925
831.357	20069
831.496	20031
831.635	19746
831.774	19765
831.913	19761
832.051	19590
832.19	19712
832.329	19875
832.467	19597
832.606	19620
832.744	19563
832.883	19605
833.022	19552
833.16	19655
833.299	19750
833.437	19731
833.576	19940
833.714	19788
833.852	19772
833.991	19898
834.129	19967
834.267	19928
834.406	19784
834.544	19936
834.682	19849
834.821	19795
834.959	19909
835.097	19696
835.235	19795
835.373	19658
835.511	19578
835.65	19506
835.788	19472
835.926	19304
836.064	19278
836.202	19365
836.34	19388
836.478	19400
836.615	19499
836.753	19476
836.891	19464
837.029	19518
837.167	19312
837.305	19377
837.443	19266
837.58	19194
837.718	19316
837.856	19324
837.993	19209
838.131	19316
838.269	19004
838.406	19099
838.544	19065
838.681	18913
838.819	18852
838.956	18753
839.094	18715
839.231	18738
839.369	18787
839.506	19080
839.643	18958
839.781	18707
839.918	18589
840.055	18745
840.193	18669
840.33	18574
840.467	18623
840.604	18703
840.742	18901
840.879	18582
841.016	18593
841.153	18547
841.29	18768
841.427	18677
841.564	18658
841.701	18627
841.838	18601
841.975	18544
842.112	18623
842.249	18429
842.385	18467
842.522	18612
842.659	18494
842.796	18384
842.933	18418
843.069	18391
843.206	18338
843.343	18441
843.479	18410
843.616	18464
843.752	18155
843.889	18232
844.025	18342
844.162	18266
844.298	18399
844.435	18338
844.571	18342
844.708	18616
844.844	18738
844.98	18875
845.117	19008
845.253	19012
845.389	19422
845.525	20469
845.661	21876
845.798	23866
845.934	25521
846.07	26111
846.206	25856
846.342	24696
846.478	22805
846.614	20960
846.75	19700
846.886	18951
847.022	18639
847.158	18311
847.294	18117
847.429	18057
847.565	17863
847.701	18068
847.837	17680
847.972	17600
848.108	17653
848.244	17573
848.379	17311
848.515	17383
848.65	17311
848.786	17326
848.921	17322
849.057	17387
849.192	17433
849.328	17330
849.463	17299
849.598	17231
849.734	17178
849.869	17185
850.004	17136
850.14	17060
850.275	17052
850.41	16949
850.545	17045
850.68	17037
850.815	16938
850.95	17033
851.085	17193
851.22	17147
851.355	16987
851.49	16835
851.625	16987
851.76	16972
851.895	16816
852.03	16885
852.165	16968
852.299	16991
852.434	17124
852.569	17102
852.703	17121
852.838	17170
852.973	17193
853.107	17086
853.242	16938
853.376	16972
853.511	16812
853.645	16911
853.78	17060
853.914	17045
854.048	17098
854.183	17033
854.317	17090
854.451	17159
854.585	16900
854.72	16991
854.854	17014
854.988	16953
855.122	16900
855.256	16797
855.39	16873
855.524	16923
855.658	17029
855.792	16953
855.926	16866
856.06	16904
856.194	17018
856.327	16858
856.461	16809
856.595	16911
856.729	16820
856.862	16942
856.996	16911
857.13	16999
857.263	17033
857.397	16991
857.53	16915
857.664	16896
857.797	16877
857.931	16927
858.064	16873
858.197	16995
858.331	16831
858.464	16736
858.597	16706
858.731	16862
858.864	16805
858.997	16778
859.13	16816
859.263	16771
859.396	16900
859.529	16782
859.662	16793
859.795	16706
859.928	16938
860.061	16858
860.194	16908
860.327	16744
860.46	16793
860.592	16828
860.725	16919
860.858	16869
860.99	16736
861.123	16660
861.256	16755
861.388	16820
861.521	17467
861.653	16702
861.786	16561
861.918	16683
862.05	16672
862.183	16767
862.315	16733
862.447	16889
862.58	16736
862.712	16489
862.844	16481
862.976	16523
863.108	16580
863.24	16968
863.372	16428
863.504	16542
863.636	16508
863.768	16565
863.9	16485
864.032	16538
864.164	16470
864.296	16580
864.428	16584
864.559	16645
864.691	16596
864.823	16577
864.954	16512
865.086	16634
865.217	16485
865.349	16478
865.48	16470
865.612	16478
865.743	16569
865.875	16493
866.006	16485
866.137	16516
866.269	16447
866.4	16516
866.531	16421
866.662	16405
866.793	16417
866.924	16371
867.055	16409
867.186	16489
867.317	16462
867.448	16341
867.579	16337
867.71	16284
867.841	16386
867.972	16405
868.103	16474
868.233	16409
868.364	16443
868.495	16596
868.625	16672
868.756	16698
868.886	16569
869.017	16660
869.147	16702
869.278	16740
869.408	16668
869.539	16809
869.669	16786
869.799	16767
869.929	16793
870.06	16862
870.19	17003
870.32	16927
870.45	17045
870.58	17128
870.71	17200
870.84	17277
870.97	17124
871.1	17075
871.23	17303
871.36	17326
871.489	17124
871.619	17292
871.749	17330
871.879	17242
872.008	17478
872.138	17448
872.267	17261
872.397	17178
872.526	17299
872.656	17113
872.785	17102
872.915	17303
873.044	17436
873.173	17353
873.303	17520
873.432	17322
873.561	17391
873.69	17414
873.819	17395
873.948	17535
874.077	17429
874.206	17356
874.335	17421
874.464	17676
874.593	17760
874.722	17630
874.851	17741
874.979	17904
875.108	17870
875.237	17691
875.365	17775
875.494	17729
875.623	17916
875.751	17813
875.88	17847
876.008	17950
876.136	18019
876.265	18292
876.393	18376
876.521	18437
876.65	18292
876.778	18433
876.906	18213
877.034	18361
877.162	18327
877.29	18418
877.418	18338
877.546	18467
877.674	18547
877.802	18490
877.93	18563
878.058	18494
878.185	18490
878.313	18673
878.441	18817
878.568	18738
878.696	18977
878.824	19312
878.951	19674
879.079	20313
879.206	20853
879.333	21397
879.461	21869
879.588	22253
879.715	22310
879.842	22154
879.97	21348
880.097	20541
880.224	20027
880.351	19712
880.478	19499
880.605	19244
880.732	19114
880.859	19278
880.986	19084
881.112	19152
881.239	18981
881.366	18764
881.493	18734
881.619	18719
881.746	18684
881.872	18684
881.999	18658
882.125	18642
882.252	18639
882.378	18684
882.505	18913
882.631	18711
882.757	18589
882.883	18604
883.01	18589
883.136	18536
883.262	18391
883.388	18391
883.514	18597
883.64	18582
883.766	18426
883.892	18281
884.018	18315
884.143	18574
884.269	18528
884.395	18220
884.52	18171
884.646	18270
884.772	18178
884.897	18076
885.023	18133
885.148	18346
885.274	18372
885.399	18167
885.524	18144
885.65	18079
885.775	18155
885.9	17980
886.025	18133
886.15	18117
886.275	17859
886.4	17805
886.525	17824
886.65	17668
886.775	17775
886.9	17882
887.025	17885
887.149	17737
887.274	17486
887.399	17478
887.523	17436
887.648	17433
887.773	17368
887.897	17516
888.021	17391
888.146	17299
888.27	17452
888.395	17429
888.519	17402
888.643	17410
888.767	17356
888.891	17254
889.015	17071
889.139	17136
889.263	17071
889.387	17189
889.511	17307
889.635	17136
889.759	17060
889.883	16991
890.006	17098
890.13	17128
890.254	16896
890.377	16820
890.501	16767
890.624	16752
890.748	16869
890.871	16653
890.995	16580
891.118	16497
891.241	16672
891.364	16634
891.488	16717
891.611	16470
891.734	16664
891.857	16645
891.98	16561
892.103	16558
892.226	16500
892.349	16561
892.471	16360
892.594	16497
892.717	16584
892.839	16348
892.962	16447
893.085	16428
893.207	16417
893.33	16329
893.452	16371
893.575	16634
893.697	16500
893.819	16546
893.941	16687
894.064	16649
894.186	16299
894.308	16394
894.43	16519
894.552	16497
894.674	16462
894.796	16207
894.918	16367
895.04	16375
895.161	16489
895.283	16417
895.405	16386
895.526	16402
895.648	16371
895.769	16405
895.891	16462
896.012	16569
896.134	16538
896.255	16451
896.376	16402
896.498	16607
896.619	16519
896.74	16497
896.861	16634
896.982	16721
897.103	16984
897.224	16691
897.345	16752
897.466	16656
897.587	16615
897.708	16904
897.828	16778
897.949	16733
898.07	16561
898.19	16603
898.311	16782
898.431	16763
898.552	16881
898.672	16733
898.792	16915
898.913	16835
899.033	16641
899.153	16554
899.273	16542
899.393	16664
899.513	16698
899.633	16402
899.753	16607
899.873	16398
899.993	16615
900.113	16523
900.232	16538
900.352	16447
900.472	16508
900.591	16386
900.711	16538
900.83	16402
900.95	16493
901.069	16535
901.189	16413
901.308	16249
901.427	16074
901.546	16059
901.665	16131
901.784	15998
901.904	15941
902.023	15789
902.141	15686
902.26	15542
902.379	15603
902.498	15564
902.617	15561
902.735	15629
902.854	15477
902.973	15412
903.091	15249
903.21	15310
903.328	15180
903.446	15195
903.565	15043
903.683	15081
903.801	14956
903.919	14883
904.038	14948
904.156	14849
904.274	15005
904.392	14746
904.51	14773
904.627	14777
904.745	14872
904.863	14861
904.981	14632
905.098	14423
905.216	14526
905.334	14492
905.451	14484
905.569	14374
905.686	14469
905.803	14503
905.921	14305
906.038	14355
906.155	14298
906.272	14149
906.389	14229
906.506	14092
906.623	14016
906.74	14024
906.857	13921
906.974	13822
907.091	14100
907.208	14168
907.324	14039
907.441	13868
907.557	13712
907.674	13822
907.79	13685
907.907	13655
908.023	13715
908.139	13772
908.256	13719
908.372	13616
908.488	13609
908.604	13495
908.72	13377
908.836	13422
908.952	13384
909.068	13392
909.184	13510
909.3	13358
909.415	13441
909.531	13434
909.647	13274
909.762	13156
909.878	13198
909.993	13137
910.108	13247
910.224	13110
910.339	13171
910.454	13061
910.57	13042
910.685	12958
910.8	13225
910.915	13225
911.03	13050
911.145	12935
911.259	12829
911.374	12871
911.489	12833
911.604	12722
911.718	12627
911.833	12608
911.947	12441
912.062	12433
912.176	12597
912.291	12639
912.405	12532
912.519	12753
912.633	12738
912.748	12673
912.862	12532
912.976	12353
913.09	12372
913.204	12479
913.318	12414
913.431	12498
913.545	12422
913.659	12532
913.772	12418
913.886	12338
914	12277
914.113	12429
914.226	12460
914.34	12399
914.453	12239
914.566	12311
914.68	12216
914.793	12186
914.906	12049
915.019	11996
915.132	11885
915.245	11977
915.358	12057
915.47	11977
915.583	12072
915.696	12038
915.809	12098
915.921	12186
916.034	12030
916.146	12022
916.259	11977
916.371	11973
916.483	11984
916.595	11847
916.708	11920
916.82	11912
916.932	11916
917.044	11950
917.156	11920
917.268	11809
917.38	11859
917.491	11722
917.603	11748
917.715	11836
917.826	11855
917.938	11745
918.049	11710
918.161	11703
918.272	11923
918.384	11878
918.495	11714
918.606	11611
918.717	11535
918.828	11581
918.939	11592
919.05	11493
919.161	11604
919.272	11368
919.383	11440
919.494	11665
919.604	11828
919.715	11611
919.826	11535
919.936	11577
920.047	11649
920.157	11577
920.267	11764
920.378	11608
920.488	11543
920.598	11790
920.708	11946
920.818	11790
920.928	11741
921.038	11908
921.148	11847
921.258	11562
921.368	11516
921.477	11414
921.587	11455
921.697	11223
921.806	11368
921.916	11216
922.025	11094
922.134	11117
922.244	10965
922.353	11147
922.462	11041
922.571	10885
922.68	10774
922.789	10797
922.898	10710
923.007	10573
923.116	10843
923.224	10702
923.333	10717
923.442	10641
923.55	10626
923.659	10622
923.767	10778
923.876	10542
923.984	10717
924.092	10462
924.201	10569
924.309	10596
924.417	10599
924.525	10443
924.633	10493
924.741	11227
924.849	10299
924.956	10409
925.064	10360
925.172	10272
925.279	10299
925.387	10322
925.494	10295
925.602	10402
925.709	10466
925.816	10299
925.924	10356
926.031	10344
926.138	10314
926.245	10363
926.352	10348
926.459	10265
926.566	10478
926.673	10284
926.779	10150
926.886	10181
926.993	10074
927.099	10010
927.206	9991
927.312	9979
927.419	10078
927.525	10029
927.631	10029
927.737	9873
927.843	9827
927.95	9816
928.056	9854
928.162	9930
928.267	9949
928.373	10554
928.479	10017
928.585	9816
928.69	9835
928.796	9850
928.901	9816
929.007	9724
929.112	9850
929.218	9724
929.323	9705
929.428	9690
929.533	9789
929.638	9667
929.743	9701
929.848	9644
929.953	9682
930.058	9488
930.163	9412
930.267	9477
930.372	9553
930.477	9374
930.581	9610
930.685	9534
930.79	9382
930.894	9435
930.998	9408
931.103	9545
931.207	9214
931.311	9089
931.415	9024
931.519	8834
931.623	8830
