Data from test_V78500241_1677.txt Node
Date: Fri Mar 25 14:45:23 CST 2022
User: usil
Spectrometer: V785-0024
Trigger mode: 0
Integration Time (sec): 4.000000E-1
Scans to average: 1
Nonlinearity correction enabled: false
Boxcar width: 0
Storing dark spectrum: false
XAxis mode: Wavelengths
Number of Pixels in Spectrum: 1024
>>>>>Begin Spectral Data<<<<<
801.071	22360
801.214	22185
801.356	21850
801.499	21774
801.641	21827
801.783	21614
801.926	21690
802.068	21542
802.211	21526
802.353	21458
802.496	21272
802.638	21184
802.78	21055
802.923	21100
803.065	20937
803.208	20952
803.35	21096
803.492	21146
803.635	21055
803.777	21070
803.919	21104
804.061	21310
804.204	21013
804.346	20937
804.488	20914
804.63	20929
804.773	20921
804.915	20910
805.057	21070
805.199	20899
805.341	20971
805.483	20952
805.626	20967
805.768	20861
805.91	21036
806.052	20906
806.194	20864
806.336	21039
806.478	20883
806.62	20872
806.762	20979
806.904	21085
807.046	21454
807.188	21199
807.33	21275
807.472	21310
807.614	21135
807.756	21184
807.898	20990
808.04	21013
808.182	21028
808.324	20967
808.465	21123
808.607	21291
808.749	21466
808.891	21538
809.033	21526
809.174	21359
809.316	21306
809.458	21401
809.6	21401
809.741	21374
809.883	21450
810.025	21553
810.166	21462
810.308	21454
810.45	21389
810.591	21370
810.733	21291
810.875	21055
811.016	20971
811.158	21005
811.299	21051
811.441	21260
811.582	21233
811.724	21135
811.865	21001
812.007	21146
812.148	21047
812.29	21066
812.431	21256
812.573	21428
812.714	21443
812.855	21606
812.997	21728
813.138	21846
813.279	21755
813.421	21637
813.562	21523
813.703	21416
813.845	21241
813.986	21009
814.127	20724
814.268	20739
814.41	20659
814.551	20701
814.692	20701
814.833	20644
814.974	20667
815.115	20663
815.256	20495
815.397	20492
815.539	20590
815.68	20358
815.821	20324
815.962	20434
816.103	20263
816.244	20191
816.385	20069
816.526	20145
816.666	19906
816.807	19818
816.948	19795
817.089	19940
817.23	19890
817.371	19734
817.512	19799
817.653	19769
817.793	19738
817.934	19791
818.075	19734
818.216	19655
818.356	19677
818.497	19643
818.638	19346
818.778	19483
818.919	19449
819.06	19480
819.2	19666
819.341	19666
819.481	19670
819.622	19670
819.762	20027
819.903	19822
820.043	19731
820.184	19750
820.324	19833
820.465	19772
820.605	19750
820.746	19704
820.886	19704
821.026	19715
821.167	19605
821.307	19811
821.447	19704
821.588	19620
821.728	19597
821.868	19282
822.008	19091
822.149	19259
822.289	19061
822.429	19000
822.569	18916
822.709	18920
822.849	18753
822.99	18715
823.13	18707
823.27	18532
823.41	18517
823.55	18448
823.69	18426
823.83	18566
823.97	18369
824.11	18323
824.25	18228
824.389	18186
824.529	18350
824.669	18201
824.809	18330
824.949	18235
825.089	18254
825.228	18216
825.368	18034
825.508	18125
825.648	18030
825.787	18083
825.927	18155
826.067	17992
826.206	18057
826.346	17969
826.485	18091
826.625	17958
826.765	18174
826.904	18064
827.044	17783
827.183	17798
827.323	17665
827.462	17798
827.601	17615
827.741	17691
827.88	17676
828.02	17604
828.159	17714
828.298	17824
828.437	17802
828.577	17672
828.716	17771
828.855	17615
828.994	17455
829.134	17379
829.273	17543
829.412	17379
829.551	17436
829.69	17417
829.829	17516
829.968	17573
830.107	17501
830.246	17539
830.385	17387
830.524	17383
830.663	17311
830.802	17178
830.941	17029
831.08	17037
831.219	17132
831.357	17140
831.496	17261
831.635	17064
831.774	17010
831.913	16972
832.051	16805
832.19	16854
832.329	16942
832.467	16866
832.606	16713
832.744	16771
832.883	16850
833.022	16630
833.16	16820
833.299	16782
833.437	16862
833.576	16763
833.714	16812
833.852	16755
833.991	16839
834.129	16984
834.267	16889
834.406	16748
834.544	16900
834.682	16934
834.821	16809
834.959	16927
835.097	16691
835.235	16881
835.373	16824
835.511	16858
835.65	16721
835.788	16660
835.926	16584
836.064	16474
836.202	16611
836.34	16740
836.478	16793
836.615	16702
836.753	16664
836.891	16828
837.029	16672
837.167	16691
837.305	16577
837.443	16500
837.58	16512
837.718	16546
837.856	16584
837.993	16508
838.131	16596
838.269	16474
838.406	16592
838.544	16447
838.681	16223
838.819	16215
838.956	16169
839.094	16059
839.231	16067
839.369	16261
839.506	16470
839.643	16318
839.781	16200
839.918	16116
840.055	16181
840.193	16120
840.33	16071
840.467	16082
840.604	16150
840.742	16436
840.879	16116
841.016	15983
841.153	16006
841.29	16219
841.427	16055
841.564	16230
841.701	16139
841.838	16059
841.975	16025
842.112	16040
842.249	15835
842.385	15960
842.522	16051
842.659	15968
842.796	15774
842.933	15873
843.069	15747
843.206	15895
843.343	15972
843.479	15876
843.616	15937
843.752	15720
843.889	15675
844.025	15873
844.162	15667
844.298	15785
844.435	15717
844.571	15496
844.708	15679
844.844	15846
844.98	15804
845.117	15876
845.253	15663
845.389	15595
845.525	15587
845.661	15553
845.798	15492
845.934	15614
846.07	15561
846.206	15622
846.342	15637
846.478	15572
846.614	15264
846.75	15230
846.886	15222
847.022	15237
847.158	15192
847.294	15298
847.429	15329
847.565	15230
847.701	15408
847.837	14971
847.972	14906
848.108	15116
848.244	15097
848.379	14895
848.515	14891
848.65	14906
848.786	14883
848.921	14849
849.057	14982
849.192	14948
849.328	14929
849.463	14864
849.598	14765
849.734	14750
849.869	14773
850.004	14674
850.14	14682
850.275	14663
850.41	14541
850.545	14556
850.68	14564
850.815	14663
850.95	14583
851.085	14632
851.22	14670
851.355	14625
851.49	14461
851.625	14651
851.76	14537
851.895	14488
852.03	14492
852.165	14602
852.299	14583
852.434	14708
852.569	14708
852.703	14644
852.838	14644
852.973	14769
853.107	14705
853.242	14518
853.376	14412
853.511	14385
853.645	14434
853.78	14610
853.914	14495
854.048	14492
854.183	14469
854.317	14514
854.451	14590
854.585	14389
854.72	14419
854.854	14533
854.988	14328
855.122	14446
855.256	14290
855.39	14324
855.524	14537
855.658	14568
855.792	14499
855.926	14545
856.06	14594
856.194	14640
856.327	14473
856.461	14434
856.595	14438
856.729	14503
856.862	14545
856.996	14434
857.13	14530
857.263	14587
857.397	14621
857.53	14556
857.664	14499
857.797	14457
857.931	14648
858.064	14476
858.197	14663
858.331	14522
858.464	14381
858.597	14351
858.731	14446
858.864	14469
858.997	14438
859.13	14469
859.263	14469
859.396	14518
859.529	14431
859.662	14393
859.795	14423
859.928	14465
860.061	14663
860.194	14613
860.327	14450
860.46	14488
860.592	14476
860.725	14705
860.858	14625
860.99	14450
861.123	14313
861.256	14408
861.388	14575
861.521	15047
861.653	14343
861.786	14259
861.918	14282
862.05	14469
862.183	14473
862.315	14419
862.447	14648
862.58	14412
862.712	14161
862.844	14233
862.976	14393
863.108	14282
863.24	14716
863.372	14092
863.504	14168
863.636	14286
863.768	14191
863.9	14313
864.032	14286
864.164	14233
864.296	14229
864.428	14351
864.559	14305
864.691	14362
864.823	14336
864.954	14355
865.086	14191
865.217	14191
865.349	14191
865.48	14225
865.612	14210
865.743	14366
865.875	14187
866.006	14187
866.137	14195
866.269	14176
866.4	14244
866.531	14237
866.662	14126
866.793	14206
866.924	14134
867.055	14248
867.186	14286
867.317	14153
867.448	14073
867.579	14286
867.71	14176
867.841	14187
867.972	14206
868.103	14180
868.233	14252
868.364	14275
868.495	14355
868.625	14389
868.756	14488
868.886	14461
869.017	14476
869.147	14503
869.278	14625
869.408	14533
869.539	14492
869.669	14579
869.799	14545
869.929	14587
870.06	14575
870.19	14819
870.32	14849
870.45	14811
870.58	14914
870.71	15005
870.84	14982
870.97	14872
871.1	14872
871.23	15028
871.36	15119
871.489	15009
871.619	15028
871.749	15032
871.879	15184
872.008	15123
872.138	15123
872.267	15135
872.397	14857
872.526	14868
872.656	14921
872.785	14944
872.915	15138
873.044	15188
873.173	15176
873.303	15077
873.432	15188
873.561	15104
873.69	15180
873.819	15131
873.948	15211
874.077	15108
874.206	15028
874.335	15146
874.464	15222
874.593	15370
874.722	15378
874.851	15443
874.979	15355
875.108	15515
875.237	15363
875.365	15382
875.494	15408
875.623	15492
875.751	15348
875.88	15370
876.008	15504
876.136	15675
876.265	15903
876.393	15983
876.521	15892
876.65	15991
876.778	15945
876.906	15774
877.034	15804
877.162	15747
877.29	15732
877.418	15880
877.546	15808
877.674	15770
877.802	15903
877.93	15888
878.058	15800
878.185	15774
878.313	15831
878.441	15903
878.568	15663
878.696	15819
878.824	15934
878.951	15865
879.079	16071
879.206	16150
879.333	16017
879.461	15823
879.588	15892
879.715	16116
879.842	16169
879.97	15892
880.097	15739
880.224	15618
880.351	15759
880.478	15804
880.605	15682
880.732	15690
880.859	16010
880.986	15739
881.112	15781
881.239	15584
881.366	15389
881.493	15359
881.619	15344
881.746	15367
881.872	15313
881.999	15439
882.125	15367
882.252	15359
882.378	15393
882.505	15447
882.631	15306
882.757	15245
882.883	15157
883.01	15135
883.136	15058
883.262	15047
883.388	15051
883.514	15188
883.64	15100
883.766	15074
883.892	14902
884.018	14990
884.143	15116
884.269	15321
884.395	14902
884.52	14895
884.646	14804
884.772	14788
884.897	14838
885.023	14956
885.148	14956
885.274	15154
885.399	15005
885.524	14883
885.65	14868
885.775	14891
885.9	14864
886.025	14948
886.15	14982
886.275	14819
886.4	14712
886.525	14830
886.65	14777
886.775	14762
886.9	14998
887.025	15017
887.149	14762
887.274	14705
887.399	14705
887.523	14651
887.648	14575
887.773	14503
887.897	14697
888.021	14804
888.146	14670
888.27	14762
888.395	14853
888.519	14800
888.643	14682
888.767	14762
888.891	14663
889.015	14492
889.139	14590
889.263	14461
889.387	14644
889.511	14655
889.635	14663
889.759	14503
889.883	14526
890.006	14629
890.13	14705
890.254	14450
890.377	14533
890.501	14389
890.624	14431
890.748	14549
890.871	14324
890.995	14225
891.118	14183
891.241	14286
891.364	14214
891.488	14347
891.611	14210
891.734	14286
891.857	14195
891.98	14286
892.103	14263
892.226	14275
892.349	14298
892.471	14103
892.594	14176
892.717	14275
892.839	14267
892.962	14271
893.085	14374
893.207	14172
893.33	14088
893.452	14187
893.575	14324
893.697	14206
893.819	14389
893.941	14442
894.064	14339
894.186	14157
894.308	14096
894.43	14404
894.552	14579
894.674	14358
894.796	14191
894.918	14267
895.04	14210
895.161	14343
895.283	14290
895.405	14278
895.526	14248
895.648	14237
895.769	14389
895.891	14461
896.012	14476
896.134	14518
896.255	14404
896.376	14355
896.498	14412
896.619	14495
896.74	14317
896.861	14469
896.982	14796
897.103	14891
897.224	14712
897.345	14655
897.466	14488
897.587	14670
897.708	14807
897.828	14739
897.949	14731
898.07	14533
898.19	14648
898.311	14750
898.431	14731
898.552	14807
898.672	14727
898.792	14887
898.913	14785
899.033	14629
899.153	14625
899.273	14629
899.393	14598
899.513	14610
899.633	14697
899.753	14678
899.873	14415
899.993	14648
900.113	14602
900.232	14541
900.352	14636
900.472	14518
900.591	14484
900.711	14469
900.83	14503
900.95	14549
901.069	14530
901.189	14434
901.308	14187
901.427	14191
901.546	14161
901.665	14138
901.784	14206
901.904	14027
902.023	13993
902.141	13788
902.26	13674
902.379	13750
902.498	13742
902.617	13658
902.735	13715
902.854	13696
902.973	13586
903.091	13426
903.21	13430
903.328	13464
903.446	13441
903.565	13301
903.683	13247
903.801	13270
903.919	13209
904.038	13293
904.156	13137
904.274	13107
904.392	13164
904.51	13072
904.627	13057
904.745	13240
904.863	13129
904.981	12935
905.098	12920
905.216	12791
905.334	12878
905.451	12730
905.569	12821
905.686	12814
905.803	12779
905.921	12570
906.038	12707
906.155	12669
906.272	12532
906.389	12448
906.506	12361
906.623	12418
906.74	12391
906.857	12251
906.974	12235
907.091	12464
907.208	12525
907.324	12369
907.441	12285
907.557	12114
907.674	12091
907.79	12049
907.907	12110
908.023	12194
908.139	12148
908.256	12049
908.372	12030
908.488	12026
908.604	11851
908.72	11760
908.836	11870
908.952	11760
909.068	11878
909.184	12026
909.3	11882
909.415	11878
909.531	11832
909.647	11722
909.762	11684
909.878	11623
909.993	11596
910.108	11592
910.224	11596
910.339	11722
910.454	11539
910.57	11551
910.685	11474
910.8	11680
910.915	11653
911.03	11501
911.145	11406
911.259	11345
911.374	11395
911.489	11284
911.604	11227
911.718	11079
911.833	11159
911.947	10904
912.062	10938
912.176	11079
912.291	11113
912.405	11079
912.519	11246
912.633	11318
912.748	11094
912.862	11045
912.976	10991
913.09	10911
913.204	10869
913.318	10942
913.431	11022
913.545	11113
913.659	11117
913.772	10995
913.886	10889
914	10896
914.113	10938
914.226	10919
914.34	10927
914.453	10755
914.566	10904
914.68	10790
914.793	10816
914.906	10603
915.019	10592
915.132	10542
915.245	10565
915.358	10569
915.47	10523
915.583	10664
915.696	10637
915.809	10755
915.921	10656
916.034	10512
916.146	10626
916.259	10508
916.371	10618
916.483	10615
916.595	10489
916.708	10519
916.82	10558
916.932	10470
917.044	10531
917.156	10542
917.268	10405
917.38	10356
917.491	10379
917.603	10390
917.715	10542
917.826	10550
917.938	10363
918.049	10261
918.161	10436
918.272	10554
918.384	10550
918.495	10504
918.606	10287
918.717	10143
918.828	10272
918.939	10314
919.05	10303
919.161	10272
919.272	10097
919.383	10200
919.494	10333
919.604	10489
919.715	10348
919.826	10284
919.936	10257
920.047	10322
920.157	10333
920.267	10421
920.378	10398
920.488	10268
920.598	10455
920.708	10694
920.818	10523
920.928	10500
921.038	10580
921.148	10683
921.258	10409
921.368	10234
921.477	10093
921.587	10109
921.697	10071
921.806	10166
921.916	10036
922.025	9895
922.134	9949
922.244	9907
922.353	9880
922.462	9770
922.571	9663
922.68	9648
922.789	9553
922.898	9568
923.007	9538
923.116	9656
923.224	9545
923.333	9557
923.442	9492
923.55	9393
923.659	9450
923.767	9542
923.876	9370
923.984	9469
924.092	9401
924.201	9492
924.309	9435
924.417	9401
924.525	9355
924.633	9401
924.741	10276
924.849	9195
924.956	9321
925.064	9176
925.172	9188
925.279	9226
925.387	9237
925.494	9157
925.602	9401
925.709	9332
925.816	9176
925.924	9142
926.031	9294
926.138	9207
926.245	9298
926.352	9135
926.459	9279
926.566	9275
926.673	9207
926.779	9070
926.886	8998
926.993	8975
927.099	8906
927.206	8868
927.312	8868
927.419	9017
927.525	8944
927.631	9116
927.737	8762
927.843	8807
927.95	8686
928.056	8861
928.162	8800
928.267	8853
928.373	9374
928.479	8994
928.585	8640
928.69	8750
928.796	8906
928.901	8682
929.007	8594
929.112	8731
929.218	8701
929.323	8693
929.428	8689
929.533	8830
929.638	8556
929.743	8598
929.848	8689
929.953	8621
930.058	8530
930.163	8377
930.267	8347
930.372	8541
930.477	8381
930.581	8640
930.685	8484
930.79	8339
930.894	8381
930.998	8328
931.103	8602
931.207	8126
931.311	8119
931.415	8096
931.519	7871
931.623	7826
