Data from test_V78500241_653.txt Node
Date: Fri Mar 25 14:38:15 CST 2022
User: usil
Spectrometer: V785-0024
Trigger mode: 0
Integration Time (sec): 4.000000E-1
Scans to average: 1
Nonlinearity correction enabled: false
Boxcar width: 0
Storing dark spectrum: false
XAxis mode: Wavelengths
Number of Pixels in Spectrum: 1024
>>>>>Begin Spectral Data<<<<<
801.071	27994
801.214	27816
801.356	27667
801.499	27618
801.641	27496
801.783	27427
801.926	27370
802.068	27348
802.211	27268
802.353	27074
802.496	26940
802.638	27123
802.78	26971
802.923	26880
803.065	26811
803.208	26792
803.35	26861
803.492	27119
803.635	27062
803.777	26975
803.919	27085
804.061	27325
804.204	27138
804.346	27005
804.488	26956
804.63	27176
804.773	26963
804.915	27294
805.057	27435
805.199	27321
805.341	27485
805.483	27454
805.626	27439
805.768	27572
805.91	27728
806.052	27888
806.194	27884
806.336	28280
806.478	28299
806.62	28401
806.762	28500
806.904	29102
807.046	29558
807.188	29790
807.33	30034
807.472	30757
807.614	31213
807.756	32100
807.898	33180
808.04	34447
808.182	36292
808.324	38682
808.465	41231
808.607	44157
808.749	46900
808.891	48365
809.033	48494
809.174	46987
809.316	44389
809.458	41448
809.6	38290
809.741	35836
809.883	33895
810.025	32750
810.166	31666
810.308	30901
810.45	30429
810.591	29847
810.733	29284
810.875	29132
811.016	28812
811.158	28531
811.299	28497
811.441	28489
811.582	28219
811.724	28059
811.865	27816
812.007	27873
812.148	27808
812.29	27713
812.431	27789
812.573	27979
812.714	27968
812.855	28002
812.997	28139
813.138	28268
813.279	28032
813.421	27975
813.562	27842
813.703	27759
813.845	27382
813.986	27127
814.127	27055
814.268	26914
814.41	26731
814.551	26590
814.692	26708
814.833	26636
814.974	26583
815.115	26674
815.256	26450
815.397	26453
815.539	26488
815.68	26328
815.821	26263
815.962	26366
816.103	26126
816.244	25986
816.385	26039
816.526	25875
816.666	25753
816.807	25567
816.948	25666
817.089	25723
817.23	25609
817.371	25384
817.512	25495
817.653	25365
817.793	25419
817.934	25449
818.075	25468
818.216	25381
818.356	25415
818.497	25343
818.638	25099
818.778	25221
818.919	25107
819.06	25266
819.2	25251
819.341	25483
819.481	25392
819.622	25464
819.762	25639
819.903	25521
820.043	25510
820.184	25396
820.324	25206
820.465	25407
820.605	25388
820.746	25312
820.886	25187
821.026	25198
821.167	25289
821.307	25377
821.447	25133
821.588	24992
821.728	24939
821.868	24658
822.008	24692
822.149	24525
822.289	24460
822.429	24285
822.569	24216
822.709	24254
822.849	24034
822.99	23988
823.13	23889
823.27	23920
823.41	23893
823.55	23748
823.69	23764
823.83	23813
823.97	23638
824.11	23554
824.25	23611
824.389	23414
824.529	23524
824.669	23539
824.809	23729
824.949	23558
825.089	23551
825.228	23554
825.368	23478
825.508	23368
825.648	23303
825.787	23303
825.927	23364
826.067	23322
826.206	23337
826.346	23311
826.485	23326
826.625	23246
826.765	23444
826.904	23258
827.044	23105
827.183	23044
827.323	23052
827.462	23018
827.601	23083
827.741	23003
827.88	22923
828.02	22957
828.159	22896
828.298	22831
828.437	22968
828.577	22793
828.716	23124
828.855	22957
828.994	22763
829.134	22710
829.273	22729
829.412	22641
829.551	22588
829.69	22645
829.829	22668
829.968	22668
830.107	22523
830.246	22618
830.385	22523
830.524	22500
830.663	22447
830.802	22436
830.941	22154
831.08	22181
831.219	22322
831.357	22261
831.496	22504
831.635	22166
831.774	22314
831.913	22188
832.051	21953
832.19	22150
832.329	22188
832.467	22135
832.606	22002
832.744	22036
832.883	22097
833.022	22112
833.16	22215
833.299	22436
833.437	22405
833.576	22668
833.714	22672
833.852	22965
833.991	23048
834.129	23094
834.267	23117
834.406	23071
834.544	22968
834.682	22843
834.821	22729
834.959	22641
835.097	22565
835.235	22519
835.373	22314
835.511	22287
835.65	22078
835.788	21998
835.926	21797
836.064	21755
836.202	21785
836.34	21819
836.478	21888
836.615	21789
836.753	21720
836.891	21915
837.029	21751
837.167	21816
837.305	21660
837.443	21660
837.58	21542
837.718	21656
837.856	21720
837.993	21583
838.131	21389
838.269	21492
838.406	21435
838.544	21393
838.681	21287
838.819	21093
838.956	21032
839.094	21024
839.231	21036
839.369	21108
839.506	21351
839.643	21252
839.781	20849
839.918	20937
840.055	20956
840.193	20956
840.33	20883
840.467	20918
840.604	20937
840.742	21138
840.879	20826
841.016	20807
841.153	20758
841.29	21100
841.427	20921
841.564	20937
841.701	20982
841.838	20788
841.975	20735
842.112	20815
842.249	20743
842.385	20792
842.522	20925
842.659	20876
842.796	20686
842.933	20686
843.069	20796
843.206	20864
843.343	20956
843.479	20975
843.616	20807
843.752	20727
843.889	20762
844.025	21036
844.162	20944
844.298	21089
844.435	21173
844.571	21294
844.708	21599
844.844	21945
844.98	22318
845.117	22816
845.253	23615
845.389	25396
845.525	28493
845.661	33778
845.798	39789
845.934	44549
846.07	46455
846.206	45001
846.342	40774
846.478	34519
846.614	29433
846.75	25928
846.886	23863
847.022	22554
847.158	21842
847.294	21226
847.429	20963
847.565	20697
847.701	20864
847.837	20278
847.972	20126
848.108	20168
848.244	20046
848.379	19803
848.515	19693
848.65	19738
848.786	19734
848.921	19723
849.057	19868
849.192	19746
849.328	19677
849.463	19681
849.598	19609
849.734	19499
849.869	19445
850.004	19434
850.14	19301
850.275	19304
850.41	19232
850.545	19160
850.68	19308
850.815	19400
850.95	19381
851.085	19643
851.22	19343
851.355	19198
851.49	19289
851.625	19392
851.76	19362
851.895	19270
852.03	19232
852.165	19339
852.299	19365
852.434	19407
852.569	19426
852.703	19430
852.838	19396
852.973	19613
853.107	19544
853.242	19381
853.376	19384
853.511	19293
853.645	19350
853.78	19586
853.914	19483
854.048	19578
854.183	19483
854.317	19582
854.451	19677
854.585	19430
854.72	19419
854.854	19529
854.988	19472
855.122	19339
855.256	19228
855.39	19335
855.524	19502
855.658	19324
855.792	19362
855.926	19282
856.06	19324
856.194	19320
856.327	19141
856.461	19236
856.595	19183
856.729	19206
856.862	19190
856.996	19171
857.13	19297
857.263	19141
857.397	19213
857.53	19141
857.664	19156
857.797	19152
857.931	19206
858.064	19160
858.197	19225
858.331	19122
858.464	19046
858.597	18970
858.731	18993
858.864	18977
858.997	18981
859.13	19019
859.263	19072
859.396	19076
859.529	18970
859.662	18947
859.795	18977
859.928	19194
860.061	18981
860.194	19164
860.327	19023
860.46	18977
860.592	19008
860.725	19168
860.858	19118
860.99	18852
861.123	18943
861.256	18920
861.388	18909
861.521	19586
861.653	18882
861.786	18791
861.918	18772
862.05	18928
862.183	18920
862.315	18973
862.447	19000
862.58	18856
862.712	18848
862.844	18582
862.976	18829
863.108	18760
863.24	19080
863.372	18612
863.504	18677
863.636	18631
863.768	18764
863.9	18597
864.032	18623
864.164	18597
864.296	18616
864.428	18604
864.559	18669
864.691	18719
864.823	18719
864.954	18650
865.086	18711
865.217	18646
865.349	18475
865.48	18563
865.612	18559
865.743	18741
865.875	18684
866.006	18544
866.137	18475
866.269	18563
866.4	18563
866.531	18521
866.662	18528
866.793	18582
866.924	18684
867.055	18536
867.186	18555
867.317	18441
867.448	18372
867.579	18467
867.71	18437
867.841	18407
867.972	18608
868.103	18403
868.233	18380
868.364	18528
868.495	18669
868.625	18764
868.756	18890
868.886	18730
869.017	18741
869.147	18764
869.278	18833
869.408	18871
869.539	18795
869.669	18856
869.799	18863
869.929	18882
870.06	18958
870.19	19141
870.32	19114
870.45	19255
870.58	19228
870.71	19320
870.84	19362
870.97	19270
871.1	19213
871.23	19403
871.36	19400
871.489	19293
871.619	19396
871.749	19396
871.879	19518
872.008	19658
872.138	19571
872.267	19544
872.397	19430
872.526	19407
872.656	19430
872.785	19449
872.915	19582
873.044	19674
873.173	19578
873.303	19666
873.432	19753
873.561	19776
873.69	19746
873.819	19723
873.948	19776
874.077	19750
874.206	19791
874.335	19879
874.464	19955
874.593	20115
874.722	20054
874.851	20050
874.979	20161
875.108	20309
875.237	20309
875.365	20065
875.494	20286
875.623	20393
875.751	20267
875.88	20492
876.008	20632
876.136	20701
876.265	20994
876.393	21096
876.521	21051
876.65	21112
876.778	21237
876.906	21211
877.034	21256
877.162	21374
877.29	21325
877.418	21351
877.546	21507
877.674	21652
877.802	21869
877.93	21880
878.058	21911
878.185	22093
878.313	22291
878.441	22717
878.568	22957
878.696	23566
878.824	24232
878.951	25297
879.079	26659
879.206	28542
879.333	30403
879.461	31898
879.588	32940
879.715	32876
879.842	32278
879.97	30486
880.097	28470
880.224	27161
880.351	25986
880.478	25118
880.605	24536
880.732	24365
880.859	24239
880.986	23969
881.112	23760
881.239	23676
881.366	23577
881.493	23486
881.619	23398
881.746	23425
881.872	23360
881.999	23444
882.125	23516
882.252	23539
882.378	23455
882.505	23794
882.631	23646
882.757	23478
882.883	23551
883.01	23474
883.136	23398
883.262	23261
883.388	23288
883.514	23372
883.64	23429
883.766	23284
883.892	23075
884.018	23155
884.143	23345
884.269	23341
884.395	23296
884.52	23292
884.646	23181
884.772	22953
884.897	23067
885.023	23166
885.148	23178
885.274	23204
885.399	23086
885.524	22889
885.65	22767
885.775	22668
885.9	22432
886.025	22504
886.15	22303
886.275	22154
886.4	21907
886.525	21819
886.65	21713
886.775	21656
886.9	21701
887.025	21667
887.149	21332
887.274	21291
887.399	21047
887.523	20971
887.648	20769
887.773	20788
887.897	20815
888.021	20769
888.146	20587
888.27	20815
888.395	20617
888.519	20564
888.643	20549
888.767	20518
888.891	20332
889.015	20107
889.139	20142
889.263	20084
889.387	20256
889.511	20271
889.635	20111
889.759	19898
889.883	19883
890.006	19986
890.13	20020
890.254	19799
890.377	19837
890.501	19559
890.624	19445
890.748	19677
890.871	19480
890.995	19278
891.118	19213
891.241	19343
891.364	19339
891.488	19365
891.611	19202
891.734	19126
891.857	19282
891.98	19152
892.103	19053
892.226	19099
892.349	18924
892.471	18852
892.594	18920
892.717	18916
892.839	18875
892.962	18947
893.085	18916
893.207	18837
893.33	18574
893.452	18627
893.575	18848
893.697	18741
893.819	18859
893.941	18844
894.064	18821
894.186	18597
894.308	18509
894.43	18715
894.552	18764
894.674	18700
894.796	18517
894.918	18547
895.04	18608
895.161	18616
895.283	18544
895.405	18498
895.526	18506
895.648	18437
895.769	18467
895.891	18498
896.012	18544
896.134	18551
896.255	18429
896.376	18456
896.498	18422
896.619	18521
896.74	18418
896.861	18506
896.982	18681
897.103	18943
897.224	18684
897.345	18521
897.466	18532
897.587	18513
897.708	18703
897.828	18711
897.949	18612
898.07	18399
898.19	18483
898.311	18700
898.431	18490
898.552	18688
898.672	18616
898.792	18673
898.913	18578
899.033	18471
899.153	18407
899.273	18285
899.393	18330
899.513	18380
899.633	18372
899.753	18391
899.873	18346
899.993	18410
900.113	18330
900.232	18285
900.352	18315
900.472	18277
900.591	18098
900.711	18213
900.83	18083
900.95	18205
901.069	18182
901.189	18098
901.308	17817
901.427	17752
901.546	17745
901.665	17733
901.784	17737
901.904	17608
902.023	17512
902.141	17261
902.26	17193
902.379	17265
902.498	17269
902.617	17037
902.735	17174
902.854	17162
902.973	17132
903.091	16869
903.21	16809
903.328	16797
903.446	16778
903.565	16675
903.683	16558
903.801	16481
903.919	16596
904.038	16546
904.156	16382
904.274	16436
904.392	16322
904.51	16295
904.627	16348
904.745	16352
904.863	16409
904.981	16139
905.098	16025
905.216	15975
905.334	16063
905.451	15941
905.569	15873
905.686	15953
905.803	15953
905.921	15793
906.038	15808
906.155	15850
906.272	15819
906.389	15781
906.506	15439
906.623	15507
906.74	15504
906.857	15386
906.974	15332
907.091	15492
907.208	15587
907.324	15587
907.441	15443
907.557	15321
907.674	15268
907.79	15157
907.907	15218
908.023	15173
908.139	15161
908.256	15127
908.372	15097
908.488	15013
908.604	14982
908.72	14921
908.836	14902
908.952	14823
909.068	14891
909.184	14967
909.3	14838
909.415	14925
909.531	14887
909.647	14667
909.762	14674
909.878	14518
909.993	14636
910.108	14636
910.224	14610
910.339	14625
910.454	14522
910.57	14514
910.685	14332
910.8	14621
910.915	14731
911.03	14503
911.145	14305
911.259	14294
911.374	14172
911.489	14206
911.604	14069
911.718	13982
911.833	14065
911.947	13917
912.062	13826
912.176	14031
912.291	13967
912.405	13959
912.519	14084
912.633	14229
912.748	13947
912.862	13936
912.976	13883
913.09	13666
913.204	13807
913.318	13856
913.431	13921
913.545	13986
913.659	13986
913.772	13761
913.886	13666
914	13704
914.113	13757
914.226	13803
914.34	13753
914.453	13548
914.566	13788
914.68	13613
914.793	13559
914.906	13464
915.019	13289
915.132	13251
915.245	13362
915.358	13468
915.47	13407
915.583	13457
915.696	13373
915.809	13533
915.921	13495
916.034	13308
916.146	13225
916.259	13304
916.371	13419
916.483	13365
916.595	13247
916.708	13278
916.82	13304
916.932	13221
917.044	13225
917.156	13213
917.268	13107
917.38	13110
917.491	13088
917.603	13137
917.715	13114
917.826	13304
917.938	12973
918.049	12973
918.161	13034
918.272	13244
918.384	13133
918.495	13061
918.606	12871
918.717	12837
918.828	12928
918.939	12894
919.05	12768
919.161	12787
919.272	12627
919.383	12688
919.494	12890
919.604	13031
919.715	12825
919.826	12749
919.936	12795
920.047	12871
920.157	12798
920.267	13084
920.378	12783
920.488	12829
920.598	12993
920.708	13095
920.818	12962
920.928	13072
921.038	13076
921.148	13015
921.258	12745
921.368	12616
921.477	12688
921.587	12578
921.697	12464
921.806	12566
921.916	12490
922.025	12273
922.134	12327
922.244	12220
922.353	12201
922.462	12144
922.571	12022
922.68	11897
922.789	11870
922.898	11992
923.007	11775
923.116	11939
923.224	11916
923.333	11840
923.442	11653
923.55	11767
923.659	11741
923.767	11714
923.876	11767
923.984	11821
924.092	11570
924.201	11733
924.309	11638
924.417	11642
924.525	11577
924.633	11562
924.741	12380
924.849	11387
924.956	11551
925.064	11337
925.172	11372
925.279	11318
925.387	11455
925.494	11318
925.602	11524
925.709	11379
925.816	11231
925.924	11379
926.031	11482
926.138	11337
926.245	11410
926.352	11235
926.459	11440
926.566	11509
926.673	11337
926.779	11197
926.886	11235
926.993	11048
927.099	11048
927.206	10961
927.312	10900
927.419	11048
927.525	11037
927.631	10976
927.737	10854
927.843	10858
927.95	10828
928.056	10889
928.162	10900
928.267	10953
928.373	11478
928.479	11003
928.585	10733
928.69	10858
928.796	10896
928.901	10736
929.007	10599
929.112	10744
929.218	10759
929.323	10694
929.428	10637
929.533	10752
929.638	10462
929.743	10497
929.848	10668
929.953	10584
930.058	10470
930.163	10325
930.267	10291
930.372	10527
930.477	10284
930.581	10508
930.685	10356
930.79	10272
930.894	10299
930.998	10280
931.103	10375
931.207	9972
931.311	10059
931.415	9876
931.519	9713
931.623	9724
