Data from test_V78500241_1110.txt Node
Date: Fri Mar 25 14:41:26 CST 2022
User: usil
Spectrometer: V785-0024
Trigger mode: 0
Integration Time (sec): 4.000000E-1
Scans to average: 1
Nonlinearity correction enabled: false
Boxcar width: 0
Storing dark spectrum: false
XAxis mode: Wavelengths
Number of Pixels in Spectrum: 1024
>>>>>Begin Spectral Data<<<<<
801.071	22565
801.214	22497
801.356	22242
801.499	22215
801.641	21994
801.783	22074
801.926	22082
802.068	21800
802.211	21724
802.353	21724
802.496	21545
802.638	21599
802.78	21351
802.923	21340
803.065	21275
803.208	21325
803.35	21264
803.492	21416
803.635	21382
803.777	21447
803.919	21431
804.061	21572
804.204	21412
804.346	21313
804.488	21306
804.63	21272
804.773	21329
804.915	21351
805.057	21332
805.199	21256
805.341	21298
805.483	21298
805.626	21405
805.768	21211
805.91	21233
806.052	21336
806.194	21112
806.336	21519
806.478	21348
806.62	21272
806.762	21321
806.904	21488
807.046	21587
807.188	21648
807.33	21629
807.472	21751
807.614	21553
807.756	21675
807.898	21576
808.04	21599
808.182	21583
808.324	21580
808.465	21561
808.607	21812
808.749	22029
808.891	22196
809.033	22143
809.174	22112
809.316	21895
809.458	21945
809.6	21865
809.741	21895
809.883	21895
810.025	22070
810.166	21979
810.308	21865
810.45	21880
810.591	21759
810.733	21599
810.875	21564
811.016	21393
811.158	21348
811.299	21622
811.441	21511
811.582	21724
811.724	21401
811.865	21431
812.007	21511
812.148	21424
812.29	21583
812.431	21671
812.573	21774
812.714	21793
812.855	21918
812.997	22021
813.138	22185
813.279	22032
813.421	22078
813.562	21816
813.703	21701
813.845	21637
813.986	21359
814.127	21180
814.268	21184
814.41	21161
814.551	21104
814.692	21058
814.833	20998
814.974	20975
815.115	20918
815.256	20857
815.397	20960
815.539	20868
815.68	20853
815.821	20686
815.962	20785
816.103	20712
816.244	20632
816.385	20469
816.526	20533
816.666	20336
816.807	20142
816.948	20377
817.089	20313
817.23	20237
817.371	20259
817.512	20206
817.653	20111
817.793	20111
817.934	20092
818.075	20237
818.216	20214
818.356	20107
818.497	20050
818.638	19883
818.778	19921
818.919	19925
819.06	19837
819.2	20016
819.341	20081
819.481	19951
819.622	20100
819.762	20476
819.903	20259
820.043	20233
820.184	20191
820.324	20115
820.465	20145
820.605	20138
820.746	20138
820.886	19982
821.026	20001
821.167	20214
821.307	20168
821.447	20065
821.588	19963
821.728	19795
821.868	19738
822.008	19578
822.149	19521
822.289	19464
822.429	19282
822.569	19282
822.709	19278
822.849	19012
822.99	19072
823.13	19103
823.27	18985
823.41	18935
823.55	18779
823.69	18844
823.83	18913
823.97	18749
824.11	18711
824.25	18604
824.389	18688
824.529	18749
824.669	18711
824.809	18692
824.949	18715
825.089	18646
825.228	18585
825.368	18475
825.508	18445
825.648	18361
825.787	18433
825.927	18414
826.067	18391
826.206	18414
826.346	18403
826.485	18388
826.625	18384
826.765	18570
826.904	18418
827.044	18049
827.183	18167
827.323	17988
827.462	18102
827.601	18091
827.741	18125
827.88	18163
828.02	18129
828.159	18076
828.298	18197
828.437	18266
828.577	18155
828.716	18254
828.855	18083
828.994	17809
829.134	17855
829.273	17912
829.412	17813
829.551	17836
829.69	17809
829.829	17859
829.968	18003
830.107	17923
830.246	17851
830.385	17779
830.524	17794
830.663	17653
830.802	17611
830.941	17448
831.08	17478
831.219	17547
831.357	17554
831.496	17733
831.635	17452
831.774	17425
831.913	17360
832.051	17296
832.19	17193
832.329	17337
832.467	17277
832.606	17193
832.744	17090
832.883	17155
833.022	17090
833.16	17155
833.299	17254
833.437	17189
833.576	17216
833.714	17273
833.852	17254
833.991	17227
834.129	17425
834.267	17254
834.406	17246
834.544	17159
834.682	17189
834.821	17280
834.959	17398
835.097	17136
835.235	17341
835.373	17250
835.511	17254
835.65	17147
835.788	17105
835.926	16999
836.064	17022
836.202	17041
836.34	17113
836.478	17227
836.615	17159
836.753	17200
836.891	17269
837.029	17151
837.167	17143
837.305	16953
837.443	17037
837.58	17010
837.718	17090
837.856	17025
837.993	16961
838.131	16999
838.269	16999
838.406	16927
838.544	16793
838.681	16679
838.819	16679
838.956	16546
839.094	16542
839.231	16611
839.369	16809
839.506	16987
839.643	16778
839.781	16596
839.918	16474
840.055	16489
840.193	16558
840.33	16550
840.467	16580
840.604	16500
840.742	16873
840.879	16428
841.016	16508
841.153	16322
841.29	16713
841.427	16573
841.564	16630
841.701	16649
841.838	16497
841.975	16417
842.112	16443
842.249	16284
842.385	16219
842.522	16497
842.659	16318
842.796	16291
842.933	16272
843.069	16325
843.206	16238
843.343	16306
843.479	16352
843.616	16173
843.752	16036
843.889	16128
844.025	16249
844.162	16109
844.298	16185
844.435	16147
844.571	16029
844.708	16093
844.844	16230
844.98	16344
845.117	16226
845.253	16166
845.389	15987
845.525	16101
845.661	16272
845.798	16223
845.934	16322
846.07	16230
846.206	16367
846.342	16394
846.478	16112
846.614	15941
846.75	15755
846.886	15739
847.022	15797
847.158	15755
847.294	15755
847.429	15743
847.565	15599
847.701	15930
847.837	15382
847.972	15378
848.108	15439
848.244	15466
848.379	15298
848.515	15249
848.65	15294
848.786	15272
848.921	15313
849.057	15340
849.192	15359
849.328	15332
849.463	15268
849.598	15249
849.734	15150
849.869	15173
850.004	15017
850.14	15013
850.275	14990
850.41	15001
850.545	14944
850.68	14982
850.815	15013
850.95	14956
851.085	15233
851.22	15226
851.355	15028
851.49	15055
851.625	14979
851.76	14982
851.895	14838
852.03	14902
852.165	15070
852.299	15051
852.434	15108
852.569	15116
852.703	14998
852.838	15032
852.973	15104
853.107	15142
853.242	14941
853.376	14880
853.511	14804
853.645	14933
853.78	14937
853.914	14952
854.048	14857
854.183	14899
854.317	14929
854.451	15055
854.585	14769
854.72	14811
854.854	14933
854.988	14868
855.122	14861
855.256	14804
855.39	14842
855.524	14902
855.658	14956
855.792	14941
855.926	14906
856.06	14864
856.194	15051
856.327	14883
856.461	14868
856.595	14914
856.729	14853
856.862	14990
856.996	14998
857.13	14921
857.263	14998
857.397	15036
857.53	14880
857.664	14887
857.797	14902
857.931	14937
858.064	14975
858.197	15055
858.331	14823
858.464	14845
858.597	14792
858.731	14921
858.864	14914
858.997	14807
859.13	14902
859.263	14994
859.396	14998
859.529	14796
859.662	14838
859.795	14804
859.928	14952
860.061	15058
860.194	14982
860.327	14944
860.46	14986
860.592	15047
860.725	15005
860.858	14986
860.99	14883
861.123	14849
861.256	14796
861.388	14842
861.521	15614
861.653	14929
861.786	14819
861.918	14727
862.05	14777
862.183	14758
862.315	14842
862.447	14861
862.58	14883
862.712	14689
862.844	14621
862.976	14716
863.108	14701
863.24	15150
863.372	14651
863.504	14705
863.636	14708
863.768	14651
863.9	14655
864.032	14606
864.164	14674
864.296	14644
864.428	14750
864.559	14762
864.691	14765
864.823	14785
864.954	14697
865.086	14610
865.217	14712
865.349	14621
865.48	14564
865.612	14686
865.743	14724
865.875	14739
866.006	14545
866.137	14686
866.269	14564
866.4	14594
866.531	14556
866.662	14533
866.793	14556
866.924	14655
867.055	14499
867.186	14682
867.317	14610
867.448	14507
867.579	14541
867.71	14499
867.841	14583
867.972	14606
868.103	14575
868.233	14560
868.364	14670
868.495	14663
868.625	14781
868.756	14979
868.886	14804
869.017	14933
869.147	14921
869.278	15051
869.408	14971
869.539	14842
869.669	15001
869.799	14864
869.929	15013
870.06	14925
870.19	15173
870.32	15180
870.45	15161
870.58	15252
870.71	15424
870.84	15298
870.97	15272
871.1	15226
871.23	15462
871.36	15458
871.489	15477
871.619	15447
871.749	15332
871.879	15462
872.008	15564
872.138	15431
872.267	15488
872.397	15382
872.526	15332
872.656	15279
872.785	15393
872.915	15504
873.044	15515
873.173	15568
873.303	15557
873.432	15481
873.561	15667
873.69	15473
873.819	15458
873.948	15633
874.077	15485
874.206	15534
874.335	15557
874.464	15595
874.593	15846
874.722	15766
874.851	15816
874.979	15819
875.108	15918
875.237	15797
875.365	15644
875.494	15835
875.623	15922
875.751	15762
875.88	15922
876.008	15956
876.136	16082
876.265	16261
876.393	16344
876.521	16219
876.65	16344
876.778	16219
876.906	16158
877.034	16082
877.162	16211
877.29	16139
877.418	16329
877.546	16341
877.674	16249
877.802	16207
877.93	16287
878.058	16280
878.185	16276
878.313	16322
878.441	16219
878.568	16181
878.696	16211
878.824	16318
878.951	16367
879.079	16516
879.206	16702
879.333	16504
879.461	16432
879.588	16523
879.715	16694
879.842	16672
879.97	16459
880.097	16181
880.224	16128
880.351	16276
880.478	16143
880.605	16116
880.732	16097
880.859	16306
880.986	16131
881.112	16177
881.239	16059
881.366	16032
881.493	15842
881.619	15762
881.746	15793
881.872	15781
881.999	15804
882.125	15732
882.252	15873
882.378	15831
882.505	15922
882.631	15751
882.757	15614
882.883	15606
883.01	15705
883.136	15526
883.262	15458
883.388	15435
883.514	15682
883.64	15709
883.766	15496
883.892	15420
884.018	15466
884.143	15591
884.269	15652
884.395	15408
884.52	15355
884.646	15393
884.772	15203
884.897	15188
885.023	15412
885.148	15454
885.274	15496
885.399	15401
885.524	15340
885.65	15302
885.775	15332
885.9	15249
886.025	15466
886.15	15317
886.275	15275
886.4	15252
886.525	15237
886.65	15256
886.775	15260
886.9	15367
887.025	15538
887.149	15264
887.274	15097
887.399	15097
887.523	15074
887.648	15093
887.773	15024
887.897	15123
888.021	15055
888.146	15077
888.27	15123
888.395	15184
888.519	15142
888.643	15150
888.767	15154
888.891	14975
889.015	15024
889.139	14948
889.263	14975
889.387	15169
889.511	15207
889.635	15100
889.759	14971
889.883	14929
890.006	14956
890.13	15036
890.254	14731
890.377	14963
890.501	14686
890.624	14705
890.748	14765
890.871	14739
890.995	14621
891.118	14598
891.241	14667
891.364	14724
891.488	14701
891.611	14617
891.734	14644
891.857	14739
891.98	14610
892.103	14697
892.226	14621
892.349	14602
892.471	14385
892.594	14598
892.717	14617
892.839	14610
892.962	14689
893.085	14598
893.207	14625
893.33	14488
893.452	14537
893.575	14625
893.697	14590
893.819	14845
893.941	14739
894.064	14762
894.186	14560
894.308	14594
894.43	14735
894.552	14750
894.674	14769
894.796	14473
894.918	14693
895.04	14663
895.161	14750
895.283	14758
895.405	14739
895.526	14682
895.648	14765
895.769	14800
895.891	14720
896.012	14792
896.134	14785
896.255	14765
896.376	14739
896.498	14754
896.619	14887
896.74	14777
896.861	14853
896.982	15173
897.103	15256
897.224	15051
897.345	14956
897.466	14994
897.587	14982
897.708	15089
897.828	15066
897.949	15055
898.07	14853
898.19	15028
898.311	15256
898.431	15047
898.552	15089
898.672	15157
898.792	15154
898.913	15142
899.033	15024
899.153	14963
899.273	14906
899.393	14967
899.513	14963
899.633	15028
899.753	15074
899.873	14910
899.993	15001
900.113	14929
900.232	14948
900.352	14952
900.472	14891
900.591	14773
900.711	14857
900.83	14750
900.95	14929
901.069	14868
901.189	14800
901.308	14568
901.427	14518
901.546	14537
901.665	14507
901.784	14476
901.904	14377
902.023	14332
902.141	14123
902.26	14020
902.379	14149
902.498	14115
902.617	14077
902.735	14088
902.854	14103
902.973	14012
903.091	13868
903.21	13715
903.328	13780
903.446	13712
903.565	13628
903.683	13636
903.801	13476
903.919	13655
904.038	13632
904.156	13426
904.274	13495
904.392	13460
904.51	13422
904.627	13430
904.745	13457
904.863	13502
904.981	13282
905.098	13038
905.216	13050
905.334	13145
905.451	13015
905.569	13004
905.686	13126
905.803	13175
905.921	12909
906.038	12970
906.155	12875
906.272	12783
906.389	12897
906.506	12639
906.623	12665
906.74	12696
906.857	12589
906.974	12612
907.091	12730
907.208	12787
907.324	12719
907.441	12654
907.557	12460
907.674	12513
907.79	12369
907.907	12410
908.023	12460
908.139	12380
908.256	12372
908.372	12407
908.488	12304
908.604	12247
908.72	12087
908.836	12152
908.952	12171
909.068	12205
909.184	12247
909.3	12205
909.415	12235
909.531	12209
909.647	11984
909.762	11954
909.878	11927
909.993	12011
910.108	11954
910.224	11916
910.339	11958
910.454	11863
910.57	11760
910.685	11760
910.8	12003
910.915	12007
911.03	11859
911.145	11691
911.259	11688
911.374	11665
911.489	11566
911.604	11509
911.718	11353
911.833	11414
911.947	11288
912.062	11299
912.176	11436
912.291	11452
912.405	11326
912.519	11528
912.633	11581
912.748	11486
912.862	11296
912.976	11296
913.09	11174
913.204	11220
913.318	11258
913.431	11345
913.545	11349
913.659	11345
913.772	11193
913.886	11174
914	11128
914.113	11174
914.226	11254
914.34	11140
914.453	11124
914.566	11204
914.68	11041
914.793	11121
914.906	10889
915.019	10835
915.132	10824
915.245	10847
915.358	10949
915.47	10911
915.583	10908
915.696	10927
915.809	10961
915.921	11162
916.034	10812
916.146	10858
916.259	10717
916.371	10831
916.483	10839
916.595	10778
916.708	10790
916.82	10831
916.932	10847
917.044	10721
917.156	10729
917.268	10645
917.38	10649
917.491	10694
917.603	10729
917.715	10809
917.826	10736
917.938	10706
918.049	10558
918.161	10649
918.272	10862
918.384	10763
918.495	10664
918.606	10558
918.717	10481
918.828	10615
918.939	10573
919.05	10481
919.161	10588
919.272	10405
919.383	10504
919.494	10656
919.604	10812
919.715	10565
919.826	10474
919.936	10577
920.047	10607
920.157	10569
920.267	10820
920.378	10561
920.488	10516
920.598	10744
920.708	10980
920.818	10771
920.928	10759
921.038	10908
921.148	10900
921.258	10653
921.368	10550
921.477	10493
921.587	10386
921.697	10249
921.806	10402
921.916	10322
922.025	10150
922.134	10188
922.244	10055
922.353	10109
922.462	10010
922.571	9926
922.68	9823
922.789	9797
922.898	9819
923.007	9781
923.116	9838
923.224	9907
923.333	9850
923.442	9717
923.55	9671
923.659	9755
923.767	9759
923.876	9644
923.984	9751
924.092	9595
924.201	9709
924.309	9690
924.417	9705
924.525	9629
924.633	9614
924.741	10379
924.849	9416
924.956	9523
925.064	9428
925.172	9348
925.279	9412
925.387	9397
925.494	9405
925.602	9595
925.709	9534
925.816	9405
925.924	9435
926.031	9504
926.138	9496
926.245	9462
926.352	9458
926.459	9485
926.566	9488
926.673	9363
926.779	9294
926.886	9279
926.993	9188
927.099	9089
927.206	9036
927.312	9119
927.419	9218
927.525	9127
927.631	9306
927.737	9062
927.843	8986
927.95	8872
928.056	8986
928.162	9112
928.267	9116
928.373	9679
928.479	9131
928.585	8941
928.69	9097
928.796	9093
928.901	8937
929.007	8838
929.112	8925
929.218	8941
929.323	8845
929.428	8804
929.533	8941
929.638	8842
929.743	8868
929.848	8883
929.953	8762
930.058	8697
930.163	8610
930.267	8644
930.372	8800
930.477	8575
930.581	8853
930.685	8659
930.79	8537
930.894	8579
930.998	8568
931.103	8682
931.207	8381
931.311	8263
931.415	8221
931.519	8027
931.623	8027
