Data from test_V78500241_656.txt Node
Date: Fri Mar 25 14:38:17 CST 2022
User: usil
Spectrometer: V785-0024
Trigger mode: 0
Integration Time (sec): 4.000000E-1
Scans to average: 1
Nonlinearity correction enabled: false
Boxcar width: 0
Storing dark spectrum: false
XAxis mode: Wavelengths
Number of Pixels in Spectrum: 1024
>>>>>Begin Spectral Data<<<<<
801.071	28196
801.214	27804
801.356	27766
801.499	27576
801.641	27663
801.783	27313
801.926	27283
802.068	27287
802.211	27230
802.353	27051
802.496	27017
802.638	26982
802.78	26967
802.923	26815
803.065	26880
803.208	26857
803.35	26773
803.492	27020
803.635	27062
803.777	27081
803.919	27199
804.061	27306
804.204	27142
804.346	27146
804.488	26967
804.63	27055
804.773	27096
804.915	27222
805.057	27549
805.199	27214
805.341	27526
805.483	27698
805.626	27519
805.768	27610
805.91	27694
806.052	27857
806.194	27903
806.336	28257
806.478	28166
806.62	28356
806.762	28752
806.904	28991
807.046	29463
807.188	29813
807.33	30281
807.472	30875
807.614	31381
807.756	32103
807.898	33085
808.04	34451
808.182	36414
808.324	38758
808.465	41570
808.607	44594
808.749	47098
808.891	48867
809.033	48878
809.174	47375
809.316	44777
809.458	41642
809.6	38396
809.741	36045
809.883	34105
810.025	32823
810.166	31681
810.308	31027
810.45	30349
810.591	29874
810.733	29398
810.875	29113
811.016	28915
811.158	28611
811.299	28592
811.441	28462
811.582	28360
811.724	28135
811.865	27880
812.007	28017
812.148	27770
812.29	27812
812.431	27899
812.573	27835
812.714	28051
812.855	27987
812.997	27941
813.138	28310
813.279	28025
813.421	27968
813.562	27899
813.703	27644
813.845	27420
813.986	26975
814.127	26963
814.268	26807
814.41	26731
814.551	26826
814.692	26697
814.833	26583
814.974	26533
815.115	26705
815.256	26571
815.397	26431
815.539	26282
815.68	26229
815.821	26263
815.962	26225
816.103	26096
816.244	25966
816.385	25947
816.526	25894
816.666	25662
816.807	25521
816.948	25575
817.089	25605
817.23	25662
817.371	25518
817.512	25552
817.653	25544
817.793	25274
817.934	25506
818.075	25518
818.216	25304
818.356	25449
818.497	25384
818.638	25198
818.778	25209
818.919	25129
819.06	25148
819.2	25266
819.341	25263
819.481	25339
819.622	25384
819.762	25704
819.903	25578
820.043	25445
820.184	25369
820.324	25362
820.465	25426
820.605	25434
820.746	25339
820.886	25244
821.026	25289
821.167	25198
821.307	25274
821.447	25088
821.588	24992
821.728	24871
821.868	24791
822.008	24646
822.149	24673
822.289	24479
822.429	24376
822.569	24258
822.709	24247
822.849	23977
822.99	24038
823.13	23988
823.27	23908
823.41	23855
823.55	23752
823.69	23809
823.83	23771
823.97	23832
824.11	23528
824.25	23596
824.389	23501
824.529	23497
824.669	23535
824.809	23813
824.949	23741
825.089	23657
825.228	23535
825.368	23391
825.508	23467
825.648	23478
825.787	23433
825.927	23414
826.067	23368
826.206	23216
826.346	23452
826.485	23269
826.625	23395
826.765	23387
826.904	23417
827.044	23204
827.183	23052
827.323	23052
827.462	23204
827.601	22965
827.741	22987
827.88	23014
828.02	22873
828.159	23086
828.298	22976
828.437	23056
828.577	23052
828.716	23109
828.855	22987
828.994	22691
829.134	22782
829.273	22774
829.412	22706
829.551	22584
829.69	22577
829.829	22672
829.968	22694
830.107	22824
830.246	22622
830.385	22588
830.524	22637
830.663	22447
830.802	22432
830.941	22341
831.08	22341
831.219	22337
831.357	22299
831.496	22322
831.635	22356
831.774	22150
831.913	22261
832.051	22082
832.19	22010
832.329	22177
832.467	22025
832.606	22147
832.744	22166
832.883	22200
833.022	22158
833.16	22291
833.299	22428
833.437	22440
833.576	22740
833.714	22710
833.852	23041
833.991	23037
834.129	23223
834.267	23098
834.406	23102
834.544	23033
834.682	22965
834.821	22786
834.959	22877
835.097	22618
835.235	22550
835.373	22386
835.511	22284
835.65	22105
835.788	22067
835.926	21838
836.064	21720
836.202	21755
836.34	21911
836.478	21888
836.615	21804
836.753	21838
836.891	21876
837.029	21728
837.167	21686
837.305	21694
837.443	21595
837.58	21568
837.718	21682
837.856	21633
837.993	21466
838.131	21477
838.269	21336
838.406	21428
838.544	21401
838.681	21351
838.819	21142
838.956	21028
839.094	21051
839.231	21096
839.369	21058
839.506	21447
839.643	21256
839.781	21032
839.918	20952
840.055	20895
840.193	20906
840.33	20887
840.467	20960
840.604	21058
840.742	21169
840.879	20944
841.016	20906
841.153	20963
841.29	21062
841.427	20979
841.564	21009
841.701	20861
841.838	20929
841.975	20910
842.112	20857
842.249	20887
842.385	20659
842.522	20872
842.659	20716
842.796	20663
842.933	20754
843.069	20765
843.206	20785
843.343	20891
843.479	20823
843.616	20819
843.752	20720
843.889	20868
844.025	20990
844.162	20796
844.298	21119
844.435	21138
844.571	21306
844.708	21652
844.844	22032
844.98	22291
845.117	22946
845.253	23707
845.389	25358
845.525	28675
845.661	33895
845.798	40238
845.934	44815
846.07	46812
846.206	45408
846.342	41212
846.478	35014
846.614	29490
846.75	25887
846.886	23786
847.022	22774
847.158	21785
847.294	21272
847.429	20967
847.565	20720
847.701	20785
847.837	20244
847.972	20130
848.108	20221
848.244	20092
848.379	19913
848.515	19780
848.65	19799
848.786	19765
848.921	19757
849.057	19746
849.192	19776
849.328	19731
849.463	19624
849.598	19613
849.734	19567
849.869	19426
850.004	19403
850.14	19369
850.275	19381
850.41	19289
850.545	19316
850.68	19247
850.815	19377
850.95	19335
851.085	19460
851.22	19487
851.355	19472
851.49	19392
851.625	19350
851.76	19209
851.895	19259
852.03	19270
852.165	19324
852.299	19365
852.434	19476
852.569	19335
852.703	19384
852.838	19422
852.973	19582
853.107	19559
853.242	19453
853.376	19384
853.511	19285
853.645	19350
853.78	19518
853.914	19472
854.048	19468
854.183	19453
854.317	19575
854.451	19727
854.585	19426
854.72	19510
854.854	19594
854.988	19438
855.122	19350
855.256	19285
855.39	19441
855.524	19575
855.658	19377
855.792	19324
855.926	19266
856.06	19365
856.194	19247
856.327	19164
856.461	19076
856.595	19137
856.729	19129
856.862	19206
856.996	19103
857.13	19198
857.263	19274
857.397	19152
857.53	19107
857.664	19168
857.797	19118
857.931	19213
858.064	19133
858.197	19145
858.331	19057
858.464	19015
858.597	18856
858.731	19065
858.864	18989
858.997	18909
859.13	19050
859.263	19099
859.396	19137
859.529	18989
859.662	19004
859.795	19027
859.928	18954
860.061	19175
860.194	19156
860.327	18989
860.46	18932
860.592	19122
860.725	19263
860.858	19114
860.99	18901
861.123	18894
861.256	18833
861.388	18916
861.521	19639
861.653	18935
861.786	18749
861.918	18852
862.05	18932
862.183	18913
862.315	19069
862.447	19034
862.58	18943
862.712	18722
862.844	18673
862.976	18779
863.108	18738
863.24	19027
863.372	18593
863.504	18738
863.636	18635
863.768	18760
863.9	18669
864.032	18578
864.164	18578
864.296	18616
864.428	18661
864.559	18639
864.691	18772
864.823	18635
864.954	18585
865.086	18661
865.217	18620
865.349	18525
865.48	18555
865.612	18513
865.743	18673
865.875	18509
866.006	18639
866.137	18570
866.269	18456
866.4	18471
866.531	18414
866.662	18460
866.793	18418
866.924	18483
867.055	18551
867.186	18506
867.317	18536
867.448	18418
867.579	18585
867.71	18414
867.841	18334
867.972	18525
868.103	18528
868.233	18445
868.364	18525
868.495	18627
868.625	18703
868.756	18871
868.886	18760
869.017	18715
869.147	18833
869.278	18909
869.408	18745
869.539	18719
869.669	18981
869.799	18840
869.929	18886
870.06	18909
870.19	19103
870.32	19076
870.45	19145
870.58	19171
870.71	19270
870.84	19339
870.97	19240
871.1	19312
871.23	19343
871.36	19384
871.489	19407
871.619	19426
871.749	19540
871.879	19499
872.008	19590
872.138	19457
872.267	19521
872.397	19480
872.526	19346
872.656	19407
872.785	19472
872.915	19575
873.044	19807
873.173	19674
873.303	19788
873.432	19765
873.561	19761
873.69	19674
873.819	19677
873.948	19868
874.077	19738
874.206	19818
874.335	19852
874.464	19883
874.593	20259
874.722	20237
874.851	20347
874.979	20282
875.108	20328
875.237	20218
875.365	20077
875.494	20389
875.623	20408
875.751	20408
875.88	20602
876.008	20552
876.136	20697
876.265	20826
876.393	21138
876.521	21195
876.65	21195
876.778	21184
876.906	21157
877.034	21386
877.162	21306
877.29	21298
877.418	21386
877.546	21481
877.674	21614
877.802	21831
877.93	21861
878.058	22010
878.185	22185
878.313	22386
878.441	22831
878.568	22930
878.696	23611
878.824	24384
878.951	25396
879.079	26735
879.206	28615
879.333	30654
879.461	32210
879.588	33085
879.715	33165
879.842	32362
879.97	30646
880.097	28660
880.224	27218
880.351	26084
880.478	25320
880.605	24757
880.732	24395
880.859	24346
880.986	23973
881.112	23912
881.239	23767
881.366	23611
881.493	23558
881.619	23490
881.746	23570
881.872	23391
881.999	23486
882.125	23455
882.252	23615
882.378	23600
882.505	23790
882.631	23547
882.757	23493
882.883	23600
883.01	23535
883.136	23577
883.262	23227
883.388	23353
883.514	23425
883.64	23459
883.766	23353
883.892	23265
884.018	23292
884.143	23425
884.269	23524
884.395	23220
884.52	23174
884.646	23277
884.772	23143
884.897	23064
885.023	23159
885.148	23166
885.274	23337
885.399	23071
885.524	22961
885.65	22835
885.775	22717
885.9	22653
886.025	22599
886.15	22508
886.275	22109
886.4	21915
886.525	22036
886.65	21751
886.775	21698
886.9	21770
887.025	21682
887.149	21329
887.274	21169
887.399	21074
887.523	20944
887.648	20823
887.773	20800
887.897	20811
888.021	20773
888.146	20640
888.27	20754
888.395	20609
888.519	20564
888.643	20636
888.767	20549
888.891	20427
889.015	20130
889.139	20248
889.263	20126
889.387	20263
889.511	20225
889.635	20271
889.759	19951
889.883	19967
890.006	19909
890.13	20149
890.254	19788
890.377	19746
890.501	19582
890.624	19559
890.748	19635
890.871	19548
890.995	19324
891.118	19247
891.241	19411
891.364	19225
891.488	19373
891.611	19240
891.734	19141
891.857	19324
891.98	19171
892.103	19213
892.226	19175
892.349	19065
892.471	18996
892.594	18970
892.717	18958
892.839	18783
892.962	18962
893.085	18897
893.207	18810
893.33	18658
893.452	18757
893.575	18825
893.697	18612
893.819	18783
893.941	18856
894.064	18802
894.186	18521
894.308	18654
894.43	18692
894.552	18677
894.674	18692
894.796	18452
894.918	18494
895.04	18509
895.161	18593
895.283	18635
895.405	18464
895.526	18559
895.648	18403
895.769	18456
895.891	18471
896.012	18486
896.134	18475
896.255	18422
896.376	18395
896.498	18372
896.619	18403
896.74	18388
896.861	18521
896.982	18730
897.103	18894
897.224	18810
897.345	18623
897.466	18464
897.587	18604
897.708	18787
897.828	18563
897.949	18532
898.07	18410
898.19	18509
898.311	18635
898.431	18399
898.552	18544
898.672	18582
898.792	18681
898.913	18563
899.033	18467
899.153	18407
899.273	18327
899.393	18403
899.513	18399
899.633	18323
899.753	18365
899.873	18319
899.993	18452
900.113	18372
900.232	18441
900.352	18266
900.472	18163
900.591	18144
900.711	18171
900.83	18148
900.95	18254
901.069	18213
901.189	18098
901.308	17870
901.427	17668
901.546	17752
901.665	17767
901.784	17729
901.904	17532
902.023	17383
902.141	17284
902.26	17239
902.379	17303
902.498	17189
902.617	17242
902.735	17174
902.854	17098
902.973	17124
903.091	16790
903.21	16869
903.328	16805
903.446	16755
903.565	16618
903.683	16580
903.801	16447
903.919	16580
904.038	16493
904.156	16375
904.274	16413
904.392	16371
904.51	16344
904.627	16432
904.745	16417
904.863	16360
904.981	16207
905.098	16082
905.216	15972
905.334	16067
905.451	15941
905.569	15880
905.686	15937
905.803	15994
905.921	15781
906.038	15842
906.155	15865
906.272	15656
906.389	15759
906.506	15572
906.623	15492
906.74	15485
906.857	15348
906.974	15500
907.091	15530
907.208	15637
907.324	15492
907.441	15405
907.557	15275
907.674	15112
907.79	15154
907.907	15275
908.023	15165
908.139	15157
908.256	15176
908.372	15108
908.488	15070
908.604	14910
908.72	14891
908.836	14944
908.952	14918
909.068	14933
909.184	14921
909.3	14891
909.415	14941
909.531	14857
909.647	14632
909.762	14686
909.878	14667
909.993	14701
910.108	14632
910.224	14583
910.339	14697
910.454	14465
910.57	14313
910.685	14366
910.8	14598
910.915	14606
911.03	14499
911.145	14164
911.259	14225
911.374	14286
911.489	14161
911.604	14153
911.718	14001
911.833	13917
911.947	13818
912.062	13833
912.176	14024
912.291	14016
912.405	13906
912.519	14233
912.633	14050
912.748	14024
912.862	13989
912.976	13845
913.09	13704
913.204	13803
913.318	13837
913.431	13909
913.545	13757
913.659	13898
913.772	13898
913.886	13746
914	13708
914.113	13708
914.226	13799
914.34	13761
914.453	13590
914.566	13761
914.68	13647
914.793	13514
914.906	13384
915.019	13339
915.132	13343
915.245	13346
915.358	13415
915.47	13365
915.583	13278
915.696	13419
915.809	13430
915.921	13537
916.034	13373
916.146	13324
916.259	13285
916.371	13403
916.483	13316
916.595	13274
916.708	13240
916.82	13255
916.932	13263
917.044	13247
917.156	13293
917.268	13103
917.38	13156
917.491	13110
917.603	13095
917.715	13126
917.826	13187
917.938	12981
918.049	12913
918.161	13050
918.272	13126
918.384	13118
918.495	13057
918.606	12935
918.717	12817
918.828	12928
918.939	12878
919.05	12703
919.161	12776
919.272	12665
919.383	12696
919.494	12882
919.604	13114
919.715	12810
919.826	12711
919.936	12745
920.047	12913
920.157	12890
920.267	13004
920.378	12821
920.488	12726
920.598	12935
920.708	13168
920.818	12932
920.928	12962
921.038	13095
921.148	13061
921.258	12764
921.368	12738
921.477	12608
921.587	12631
921.697	12418
921.806	12517
921.916	12483
922.025	12228
922.134	12205
922.244	12171
922.353	12251
922.462	12133
922.571	12038
922.68	11916
922.789	11874
922.898	11939
923.007	11764
923.116	11851
923.224	11885
923.333	11843
923.442	11798
923.55	11714
923.659	11668
923.767	11707
923.876	11668
923.984	11748
924.092	11634
924.201	11726
924.309	11604
924.417	11634
924.525	11554
924.633	11646
924.741	12353
924.849	11459
924.956	11535
925.064	11414
925.172	11288
925.279	11326
925.387	11372
925.494	11433
925.602	11490
925.709	11497
925.816	11265
925.924	11353
926.031	11395
926.138	11337
926.245	11383
926.352	11235
926.459	11440
926.566	11387
926.673	11318
926.779	11220
926.886	11170
926.993	11041
927.099	11048
927.206	11018
927.312	10923
927.419	11022
927.525	11064
927.631	11014
927.737	10949
927.843	10877
927.95	10698
928.056	10812
928.162	10862
928.267	10934
928.373	11391
928.479	10946
928.585	10736
928.69	10782
928.796	10854
928.901	10759
929.007	10660
929.112	10717
929.218	10706
929.323	10691
929.428	10675
929.533	10847
929.638	10527
929.743	10542
929.848	10683
929.953	10573
930.058	10443
930.163	10348
930.267	10371
930.372	10478
930.477	10295
930.581	10542
930.685	10413
930.79	10291
930.894	10314
930.998	10207
931.103	10329
931.207	10006
931.311	9987
931.415	9888
931.519	9644
931.623	9740
