Data from test_V78500241_1698.txt Node
Date: Fri Mar 25 14:45:32 CST 2022
User: usil
Spectrometer: V785-0024
Trigger mode: 0
Integration Time (sec): 4.000000E-1
Scans to average: 1
Nonlinearity correction enabled: false
Boxcar width: 0
Storing dark spectrum: false
XAxis mode: Wavelengths
Number of Pixels in Spectrum: 1024
>>>>>Begin Spectral Data<<<<<
801.071	22242
801.214	22139
801.356	21888
801.499	21785
801.641	21587
801.783	21523
801.926	21622
802.068	21549
802.211	21466
802.353	21336
802.496	21245
802.638	21195
802.78	21146
802.923	21077
803.065	20982
803.208	20880
803.35	20925
803.492	20975
803.635	21070
803.777	20830
803.919	21043
804.061	21310
804.204	20952
804.346	20937
804.488	20914
804.63	20834
804.773	20762
804.915	20933
805.057	20929
805.199	20788
805.341	20979
805.483	20986
805.626	20952
805.768	20952
805.91	20929
806.052	20845
806.194	20891
806.336	21009
806.478	20891
806.62	20864
806.762	20902
806.904	21009
807.046	21275
807.188	21252
807.33	21237
807.472	21222
807.614	21184
807.756	21195
807.898	21173
808.04	20872
808.182	20842
808.324	21032
808.465	21020
808.607	21077
808.749	21291
808.891	21370
809.033	21477
809.174	21291
809.316	21317
809.458	21241
809.6	21260
809.741	21443
809.883	21287
810.025	21473
810.166	21424
810.308	21454
810.45	21386
810.591	21287
810.733	21291
810.875	21024
811.016	21036
811.158	20986
811.299	21165
811.441	21302
811.582	21093
811.724	20967
811.865	20963
812.007	20937
812.148	21096
812.29	21043
812.431	21195
812.573	21405
812.714	21389
812.855	21492
812.997	21671
813.138	21717
813.279	21587
813.421	21545
813.562	21511
813.703	21336
813.845	21173
813.986	20853
814.127	20788
814.268	20579
814.41	20594
814.551	20583
814.692	20678
814.833	20518
814.974	20556
815.115	20545
815.256	20438
815.397	20389
815.539	20450
815.68	20343
815.821	20233
815.962	20214
816.103	20183
816.244	20119
816.385	20020
816.526	20054
816.666	19944
816.807	19830
816.948	19856
817.089	19936
817.23	19776
817.371	19788
817.512	19666
817.653	19799
817.793	19681
817.934	19769
818.075	19742
818.216	19795
818.356	19632
818.497	19533
818.638	19460
818.778	19438
818.919	19445
819.06	19518
819.2	19620
819.341	19590
819.481	19586
819.622	19734
819.762	19951
819.903	19906
820.043	19890
820.184	19605
820.324	19662
820.465	19738
820.605	19742
820.746	19776
820.886	19609
821.026	19609
821.167	19590
821.307	19605
821.447	19643
821.588	19601
821.728	19426
821.868	19145
822.008	19027
822.149	19118
822.289	19080
822.429	18878
822.569	18829
822.709	18787
822.849	18563
822.99	18585
823.13	18612
823.27	18612
823.41	18490
823.55	18361
823.69	18369
823.83	18391
823.97	18395
824.11	18247
824.25	18194
824.389	18300
824.529	18403
824.669	18136
824.809	18323
824.949	18289
825.089	18327
825.228	18163
825.368	18068
825.508	18041
825.648	17984
825.787	18034
825.927	18140
826.067	17980
826.206	17923
826.346	17992
826.485	17996
826.625	18015
826.765	17984
826.904	17958
827.044	17741
827.183	17752
827.323	17634
827.462	17691
827.601	17649
827.741	17653
827.88	17680
828.02	17562
828.159	17634
828.298	17668
828.437	17672
828.577	17535
828.716	17767
828.855	17638
828.994	17493
829.134	17509
829.273	17524
829.412	17490
829.551	17349
829.69	17505
829.829	17425
829.968	17520
830.107	17452
830.246	17391
830.385	17398
830.524	17284
830.663	17170
830.802	17250
830.941	17181
831.08	17079
831.219	17155
831.357	17193
831.496	17364
831.635	17090
831.774	16927
831.913	16965
832.051	16900
832.19	16896
832.329	16847
832.467	16767
832.606	16778
832.744	16721
832.883	16725
833.022	16702
833.16	16721
833.299	16824
833.437	16767
833.576	16839
833.714	16869
833.852	16824
833.991	16740
834.129	16854
834.267	16778
834.406	16782
834.544	16793
834.682	16767
834.821	16828
834.959	16957
835.097	16767
835.235	16873
835.373	16774
835.511	16866
835.65	16733
835.788	16698
835.926	16641
836.064	16421
836.202	16474
836.34	16702
836.478	16812
836.615	16656
836.753	16668
836.891	16831
837.029	16691
837.167	16668
837.305	16687
837.443	16580
837.58	16546
837.718	16531
837.856	16596
837.993	16516
838.131	16489
838.269	16466
838.406	16462
838.544	16546
838.681	16215
838.819	16223
838.956	16082
839.094	16109
839.231	16166
839.369	16249
839.506	16379
839.643	16348
839.781	16139
839.918	16093
840.055	16139
840.193	16097
840.33	16063
840.467	16036
840.604	16128
840.742	16409
840.879	15937
841.016	16090
841.153	15941
841.29	16105
841.427	15994
841.564	16188
841.701	16112
841.838	15937
841.975	16154
842.112	16029
842.249	15907
842.385	15808
842.522	16021
842.659	15880
842.796	15827
842.933	15873
843.069	15762
843.206	15819
843.343	16021
843.479	15926
843.616	15846
843.752	15713
843.889	15739
844.025	15907
844.162	15603
844.298	15819
844.435	15739
844.571	15648
844.708	15789
844.844	15850
844.98	15930
845.117	15736
845.253	15591
845.389	15481
845.525	15568
845.661	15587
845.798	15545
845.934	15599
846.07	15500
846.206	15534
846.342	15599
846.478	15530
846.614	15313
846.75	15256
846.886	15283
847.022	15359
847.158	15294
847.294	15241
847.429	15363
847.565	15199
847.701	15462
847.837	14994
847.972	15017
848.108	15039
848.244	14990
848.379	14883
848.515	14792
848.65	14906
848.786	14842
848.921	14902
849.057	15001
849.192	14853
849.328	14853
849.463	14891
849.598	14754
849.734	14758
849.869	14746
850.004	14545
850.14	14708
850.275	14518
850.41	14537
850.545	14564
850.68	14583
850.815	14590
850.95	14648
851.085	14804
851.22	14731
851.355	14560
851.49	14667
851.625	14571
851.76	14503
851.895	14511
852.03	14427
852.165	14583
852.299	14621
852.434	14629
852.569	14682
852.703	14610
852.838	14674
852.973	14845
853.107	14720
853.242	14598
853.376	14507
853.511	14385
853.645	14404
853.78	14579
853.914	14450
854.048	14457
854.183	14431
854.317	14476
854.451	14686
854.585	14507
854.72	14423
854.854	14473
854.988	14358
855.122	14465
855.256	14351
855.39	14488
855.524	14602
855.658	14537
855.792	14454
855.926	14484
856.06	14568
856.194	14625
856.327	14427
856.461	14381
856.595	14450
856.729	14355
856.862	14526
856.996	14473
857.13	14511
857.263	14571
857.397	14606
857.53	14442
857.664	14552
857.797	14579
857.931	14636
858.064	14537
858.197	14492
858.331	14476
858.464	14355
858.597	14385
858.731	14450
858.864	14423
858.997	14423
859.13	14488
859.263	14457
859.396	14461
859.529	14400
859.662	14385
859.795	14499
859.928	14408
860.061	14530
860.194	14579
860.327	14499
860.46	14442
860.592	14511
860.725	14617
860.858	14549
860.99	14480
861.123	14377
861.256	14476
861.388	14461
861.521	14963
861.653	14240
861.786	14275
861.918	14324
862.05	14381
862.183	14393
862.315	14514
862.447	14450
862.58	14389
862.712	14134
862.844	14149
862.976	14389
863.108	14362
863.24	14724
863.372	14100
863.504	14210
863.636	14248
863.768	14218
863.9	14267
864.032	14157
864.164	14229
864.296	14286
864.428	14358
864.559	14214
864.691	14389
864.823	14240
864.954	14183
865.086	14233
865.217	14237
865.349	14157
865.48	14225
865.612	14138
865.743	14419
865.875	14153
866.006	14157
866.137	14202
866.269	14229
866.4	14237
866.531	14157
866.662	14092
866.793	14172
866.924	14145
867.055	14252
867.186	14096
867.317	14119
867.448	14081
867.579	14206
867.71	14149
867.841	14069
867.972	14225
868.103	14267
868.233	14176
868.364	14328
868.495	14377
868.625	14469
868.756	14514
868.886	14317
869.017	14457
869.147	14511
869.278	14674
869.408	14503
869.539	14434
869.669	14533
869.799	14476
869.929	14636
870.06	14632
870.19	14735
870.32	14796
870.45	14769
870.58	14754
870.71	14891
870.84	15009
870.97	14823
871.1	14842
871.23	15009
871.36	14963
871.489	15055
871.619	14979
871.749	15100
871.879	15112
872.008	15180
872.138	15036
872.267	15036
872.397	15005
872.526	14815
872.656	14861
872.785	14971
872.915	15127
873.044	15176
873.173	15066
873.303	15138
873.432	15131
873.561	15157
873.69	15180
873.819	15043
873.948	15157
874.077	15089
874.206	15131
874.335	15123
874.464	15268
874.593	15374
874.722	15256
874.851	15488
874.979	15420
875.108	15439
875.237	15439
875.365	15336
875.494	15252
875.623	15458
875.751	15370
875.88	15405
876.008	15488
876.136	15705
876.265	15873
876.393	16010
876.521	15934
876.65	15949
876.778	15793
876.906	15770
877.034	15785
877.162	15800
877.29	15755
877.418	15797
877.546	15888
877.674	15789
877.802	15759
877.93	15869
878.058	15789
878.185	15663
878.313	15755
878.441	15945
878.568	15686
878.696	15717
878.824	15903
878.951	15895
879.079	16002
879.206	16109
879.333	15975
879.461	15823
879.588	15895
879.715	16063
879.842	16131
879.97	15945
880.097	15694
880.224	15614
880.351	15686
880.478	15762
880.605	15660
880.732	15614
880.859	15846
880.986	15717
881.112	15739
881.239	15553
881.366	15504
881.493	15420
881.619	15329
881.746	15279
881.872	15412
881.999	15252
882.125	15344
882.252	15447
882.378	15355
882.505	15428
882.631	15313
882.757	15093
882.883	15214
883.01	15157
883.136	15077
883.262	15104
883.388	15032
883.514	15218
883.64	15249
883.766	15161
883.892	15017
884.018	15005
884.143	15161
884.269	15188
884.395	14960
884.52	14819
884.646	14891
884.772	14769
884.897	14765
885.023	14914
885.148	14952
885.274	15001
885.399	14986
885.524	14891
885.65	14857
885.775	14944
885.9	14804
886.025	14944
886.15	14876
886.275	14845
886.4	14811
886.525	14842
886.65	14800
886.775	14727
886.9	14921
887.025	15028
887.149	14743
887.274	14712
887.399	14636
887.523	14674
887.648	14530
887.773	14533
887.897	14823
888.021	14720
888.146	14629
888.27	14826
888.395	14765
888.519	14724
888.643	14823
888.767	14788
888.891	14533
889.015	14537
889.139	14610
889.263	14583
889.387	14587
889.511	14712
889.635	14678
889.759	14530
889.883	14530
890.006	14575
890.13	14659
890.254	14476
890.377	14541
890.501	14381
890.624	14244
890.748	14324
890.871	14313
890.995	14164
891.118	14221
891.241	14233
891.364	14240
891.488	14320
891.611	14134
891.734	14206
891.857	14229
891.98	14324
892.103	14301
892.226	14263
892.349	14267
892.471	14202
892.594	14240
892.717	14214
892.839	14199
892.962	14202
893.085	14301
893.207	14244
893.33	14043
893.452	14161
893.575	14278
893.697	14275
893.819	14454
893.941	14431
894.064	14339
894.186	14130
894.308	14206
894.43	14434
894.552	14412
894.674	14366
894.796	14161
894.918	14275
895.04	14271
895.161	14271
895.283	14362
895.405	14305
895.526	14343
895.648	14298
895.769	14324
895.891	14454
896.012	14476
896.134	14461
896.255	14461
896.376	14309
896.498	14396
896.619	14381
896.74	14423
896.861	14476
896.982	14830
897.103	14872
897.224	14720
897.345	14693
897.466	14541
897.587	14636
897.708	14819
897.828	14781
897.949	14636
898.07	14514
898.19	14621
898.311	14769
898.431	14651
898.552	14826
898.672	14796
898.792	14918
898.913	14739
899.033	14693
899.153	14640
899.273	14602
899.393	14571
899.513	14610
899.633	14727
899.753	14537
899.873	14636
899.993	14701
900.113	14545
900.232	14568
900.352	14648
900.472	14442
900.591	14412
900.711	14499
900.83	14473
900.95	14480
901.069	14606
901.189	14442
901.308	14164
901.427	14058
901.546	14172
901.665	14145
901.784	14298
901.904	14050
902.023	13993
902.141	13849
902.26	13719
902.379	13780
902.498	13666
902.617	13647
902.735	13894
902.854	13685
902.973	13563
903.091	13480
903.21	13434
903.328	13384
903.446	13320
903.565	13327
903.683	13403
903.801	13149
903.919	13175
904.038	13251
904.156	13209
904.274	13129
904.392	13061
904.51	13015
904.627	13122
904.745	13133
904.863	13141
904.981	12867
905.098	12882
905.216	12749
905.334	12707
905.451	12738
905.569	12703
905.686	12764
905.803	12776
905.921	12570
906.038	12806
906.155	12570
906.272	12532
906.389	12532
906.506	12254
906.623	12414
906.74	12350
906.857	12266
906.974	12262
907.091	12429
907.208	12426
907.324	12422
907.441	12323
907.557	12209
907.674	12121
907.79	12030
907.907	12102
908.023	12125
908.139	12117
908.256	12167
908.372	12041
908.488	12076
908.604	11901
908.72	11733
908.836	11912
908.952	11847
909.068	11847
909.184	11996
909.3	11836
909.415	11992
909.531	11901
909.647	11653
909.762	11672
909.878	11592
909.993	11726
910.108	11611
910.224	11585
910.339	11581
910.454	11535
910.57	11448
910.685	11410
910.8	11775
910.915	11665
911.03	11505
911.145	11406
911.259	11326
911.374	11372
911.489	11193
911.604	11216
911.718	11102
911.833	11083
911.947	10980
912.062	10911
912.176	10927
912.291	11052
912.405	11155
912.519	11284
912.633	11341
912.748	11181
912.862	11090
912.976	10938
913.09	10733
913.204	10930
913.318	10915
913.431	11037
913.545	10972
913.659	11090
913.772	10991
913.886	10835
914	10858
914.113	10904
914.226	10953
914.34	10965
914.453	10824
914.566	10968
914.68	10793
914.793	10839
914.906	10641
915.019	10535
915.132	10542
915.245	10546
915.358	10527
915.47	10622
915.583	10683
915.696	10641
915.809	10740
915.921	10706
916.034	10584
916.146	10573
916.259	10489
916.371	10687
916.483	10584
916.595	10569
916.708	10531
916.82	10523
916.932	10436
917.044	10470
917.156	10481
917.268	10398
917.38	10379
917.491	10341
917.603	10466
917.715	10558
917.826	10565
917.938	10337
918.049	10322
918.161	10421
918.272	10538
918.384	10580
918.495	10363
918.606	10284
918.717	10246
918.828	10306
918.939	10261
919.05	10272
919.161	10280
919.272	10013
919.383	10185
919.494	10287
919.604	10535
919.715	10337
919.826	10215
919.936	10310
920.047	10337
920.157	10329
920.267	10542
920.378	10394
920.488	10379
920.598	10485
920.708	10607
920.818	10519
920.928	10577
921.038	10596
921.148	10516
921.258	10348
921.368	10249
921.477	10120
921.587	10249
921.697	10044
921.806	10185
921.916	10074
922.025	9903
922.134	9804
922.244	9823
922.353	9873
922.462	9770
922.571	9698
922.68	9545
922.789	9515
922.898	9564
923.007	9504
923.116	9610
923.224	9595
923.333	9485
923.442	9420
923.55	9450
923.659	9386
923.767	9481
923.876	9447
923.984	9420
924.092	9329
924.201	9348
924.309	9450
924.417	9412
924.525	9401
924.633	9405
924.741	10284
924.849	9176
924.956	9359
925.064	9211
925.172	9116
925.279	9222
925.387	9222
925.494	9180
925.602	9306
925.709	9241
925.816	9127
925.924	9256
926.031	9264
926.138	9154
926.245	9260
926.352	9180
926.459	9275
926.566	9348
926.673	9214
926.779	9039
926.886	9097
926.993	9058
927.099	8891
927.206	8807
927.312	8857
927.419	8971
927.525	8963
927.631	8910
927.737	8834
927.843	8906
927.95	8648
928.056	8762
928.162	8811
928.267	8853
928.373	9504
928.479	8944
928.585	8705
928.69	8785
928.796	8883
928.901	8720
929.007	8613
929.112	8697
929.218	8689
929.323	8632
929.428	8587
929.533	8796
929.638	8499
929.743	8602
929.848	8663
929.953	8545
930.058	8511
930.163	8434
930.267	8461
930.372	8488
930.477	8336
930.581	8625
930.685	8469
930.79	8332
930.894	8400
930.998	8339
931.103	8476
931.207	8172
931.311	8050
931.415	8046
931.519	7864
931.623	7906
