Data from test_V78500241_2456.txt Node
Date: Fri Mar 25 14:50:48 CST 2022
User: usil
Spectrometer: V785-0024
Trigger mode: 0
Integration Time (sec): 4.000000E-1
Scans to average: 1
Nonlinearity correction enabled: false
Boxcar width: 0
Storing dark spectrum: false
XAxis mode: Wavelengths
Number of Pixels in Spectrum: 1024
>>>>>Begin Spectral Data<<<<<
801.071	22090
801.214	21945
801.356	21717
801.499	21713
801.641	21530
801.783	21408
801.926	21363
802.068	21393
802.211	21367
802.353	21188
802.496	21100
802.638	20986
802.78	20952
802.923	20785
803.065	20724
803.208	20849
803.35	20811
803.492	20834
803.635	20819
803.777	20933
803.919	20883
804.061	21131
804.204	20861
804.346	20876
804.488	20716
804.63	20834
804.773	20636
804.915	20640
805.057	20849
805.199	20640
805.341	20701
805.483	20804
805.626	20735
805.768	20651
805.91	20758
806.052	20712
806.194	20590
806.336	20834
806.478	20678
806.62	20678
806.762	20769
806.904	20929
807.046	21043
807.188	21058
807.33	21017
807.472	21051
807.614	20910
807.756	20918
807.898	20868
808.04	20796
808.182	20712
808.324	20921
808.465	20804
808.607	21043
808.749	21157
808.891	21237
809.033	21230
809.174	21173
809.316	21135
809.458	21024
809.6	20956
809.741	21074
809.883	21138
810.025	21382
810.166	21237
810.308	21195
810.45	21233
810.591	21108
810.733	21001
810.875	20864
811.016	20781
811.158	20701
811.299	20899
811.441	20956
811.582	20956
811.724	20872
811.865	20762
812.007	20849
812.148	20815
812.29	20864
812.431	21070
812.573	21207
812.714	21218
812.855	21302
812.997	21283
813.138	21629
813.279	21401
813.421	21454
813.562	21192
813.703	21055
813.845	21100
813.986	20754
814.127	20564
814.268	20541
814.41	20511
814.551	20415
814.692	20492
814.833	20339
814.974	20434
815.115	20336
815.256	20298
815.397	20199
815.539	20298
815.68	20103
815.821	20008
815.962	20084
816.103	20153
816.244	19940
816.385	19913
816.526	19826
816.666	19795
816.807	19441
816.948	19544
817.089	19567
817.23	19586
817.371	19499
817.512	19518
817.653	19514
817.793	19472
817.934	19491
818.075	19559
818.216	19533
818.356	19510
818.497	19426
818.638	19343
818.778	19240
818.919	19190
819.06	19187
819.2	19419
819.341	19358
819.481	19392
819.622	19533
819.762	19746
819.903	19677
820.043	19655
820.184	19499
820.324	19502
820.465	19525
820.605	19487
820.746	19468
820.886	19343
821.026	19403
821.167	19441
821.307	19662
821.447	19373
821.588	19362
821.728	19137
821.868	19042
822.008	18856
822.149	18935
822.289	18859
822.429	18639
822.569	18578
822.709	18601
822.849	18327
822.99	18498
823.13	18464
823.27	18395
823.41	18194
823.55	18209
823.69	18182
823.83	18315
823.97	18136
824.11	17992
824.25	17988
824.389	17996
824.529	18022
824.669	17961
824.809	18087
824.949	18083
825.089	17965
825.228	17828
825.368	17783
825.508	17771
825.648	17771
825.787	17779
825.927	17638
826.067	17680
826.206	17726
826.346	17783
826.485	17828
826.625	17821
826.765	17870
826.904	17790
827.044	17589
827.183	17532
827.323	17474
827.462	17512
827.601	17452
827.741	17471
827.88	17474
828.02	17341
828.159	17364
828.298	17493
828.437	17490
828.577	17402
828.716	17596
828.855	17486
828.994	17258
829.134	17269
829.273	17250
829.412	17212
829.551	17098
829.69	17086
829.829	17280
829.968	17265
830.107	17406
830.246	17189
830.385	17227
830.524	17181
830.663	17071
830.802	16911
830.941	16828
831.08	16774
831.219	16885
831.357	16904
831.496	16995
831.635	16858
831.774	16668
831.913	16767
832.051	16565
832.19	16694
832.329	16668
832.467	16630
832.606	16470
832.744	16497
832.883	16386
833.022	16512
833.16	16436
833.299	16527
833.437	16409
833.576	16542
833.714	16577
833.852	16516
833.991	16542
834.129	16523
834.267	16637
834.406	16519
834.544	16554
834.682	16516
834.821	16584
834.959	16748
835.097	16535
835.235	16611
835.373	16531
835.511	16596
835.65	16398
835.788	16402
835.926	16398
836.064	16379
836.202	16348
836.34	16436
836.478	16558
836.615	16402
836.753	16580
836.891	16527
837.029	16523
837.167	16413
837.305	16352
837.443	16276
837.58	16485
837.718	16428
837.856	16436
837.993	16272
838.131	16280
838.269	16303
838.406	16306
838.544	16211
838.681	16067
838.819	16036
838.956	15895
839.094	15819
839.231	15949
839.369	15941
839.506	16341
839.643	16158
839.781	15915
839.918	15880
840.055	16036
840.193	15850
840.33	15934
840.467	15793
840.604	15934
840.742	16097
840.879	15861
841.016	15785
841.153	15808
841.29	15953
841.427	15941
841.564	15880
841.701	15934
841.838	15797
841.975	15778
842.112	15797
842.249	15667
842.385	15580
842.522	15884
842.659	15736
842.796	15701
842.933	15743
843.069	15724
843.206	15618
843.343	15770
843.479	15614
843.616	15641
843.752	15439
843.889	15473
844.025	15690
844.162	15405
844.298	15606
844.435	15416
844.571	15363
844.708	15542
844.844	15545
844.98	15492
845.117	15523
845.253	15435
845.389	15317
845.525	15408
845.661	15291
845.798	15233
845.934	15294
846.07	15173
846.206	15325
846.342	15344
846.478	15306
846.614	15097
846.75	15020
846.886	15005
847.022	15005
847.158	15047
847.294	15005
847.429	15001
847.565	14944
847.701	15313
847.837	14739
847.972	14826
848.108	14845
848.244	14853
848.379	14708
848.515	14575
848.65	14655
848.786	14659
848.921	14655
849.057	14765
849.192	14689
849.328	14705
849.463	14644
849.598	14621
849.734	14583
849.869	14549
850.004	14450
850.14	14461
850.275	14298
850.41	14317
850.545	14305
850.68	14385
850.815	14351
850.95	14408
851.085	14530
851.22	14575
851.355	14358
851.49	14351
851.625	14370
851.76	14336
851.895	14290
852.03	14309
852.165	14415
852.299	14446
852.434	14484
852.569	14465
852.703	14358
852.838	14461
852.973	14514
853.107	14590
853.242	14427
853.376	14320
853.511	14092
853.645	14256
853.78	14298
853.914	14240
854.048	14252
854.183	14176
854.317	14290
854.451	14313
854.585	14244
854.72	14195
854.854	14404
854.988	14240
855.122	14183
855.256	14138
855.39	14294
855.524	14256
855.658	14362
855.792	14309
855.926	14343
856.06	14317
856.194	14290
856.327	14130
856.461	14145
856.595	14313
856.729	14286
856.862	14309
856.996	14343
857.13	14358
857.263	14370
857.397	14408
857.53	14210
857.664	14282
857.797	14457
857.931	14396
858.064	14339
858.197	14366
858.331	14187
858.464	14164
858.597	14187
858.731	14271
858.864	14263
858.997	14206
859.13	14259
859.263	14343
859.396	14419
859.529	14229
859.662	14199
859.795	14252
859.928	14252
860.061	14412
860.194	14499
860.327	14259
860.46	14225
860.592	14404
860.725	14431
860.858	14351
860.99	14339
861.123	14176
861.256	14134
861.388	14313
861.521	14826
861.653	13993
861.786	14138
861.918	14103
862.05	14153
862.183	14225
862.315	14252
862.447	14290
862.58	14240
862.712	14020
862.844	14050
862.976	14130
863.108	14115
863.24	14495
863.372	13936
863.504	14054
863.636	14039
863.768	14024
863.9	14050
864.032	13955
864.164	14035
864.296	14054
864.428	14195
864.559	14191
864.691	14195
864.823	14069
864.954	14039
865.086	14039
865.217	14020
865.349	13951
865.48	13986
865.612	14008
865.743	14161
865.875	14046
866.006	13890
866.137	13925
866.269	14027
866.4	14024
866.531	13963
866.662	13883
866.793	13982
866.924	14016
867.055	14027
867.186	13982
867.317	13970
867.448	13944
867.579	13936
867.71	13959
867.841	14001
867.972	14024
868.103	13963
868.233	13989
868.364	14054
868.495	14107
868.625	14218
868.756	14400
868.886	14183
869.017	14244
869.147	14396
869.278	14370
869.408	14294
869.539	14214
869.669	14412
869.799	14313
869.929	14347
870.06	14347
870.19	14632
870.32	14613
870.45	14632
870.58	14743
870.71	14708
870.84	14720
870.97	14724
871.1	14636
871.23	14781
871.36	14785
871.489	14743
871.619	14796
871.749	14743
871.879	14887
872.008	14910
872.138	14830
872.267	14842
872.397	14754
872.526	14708
872.656	14640
872.785	14678
872.915	14910
873.044	14823
873.173	14880
873.303	14891
873.432	14944
873.561	14979
873.69	14967
873.819	14998
873.948	14979
874.077	14895
874.206	14910
874.335	14933
874.464	15017
874.593	15192
874.722	15142
874.851	15370
874.979	15268
875.108	15283
875.237	15184
875.365	15161
875.494	15272
875.623	15370
875.751	15180
875.88	15332
876.008	15321
876.136	15447
876.265	15584
876.393	15800
876.521	15633
876.65	15781
876.778	15656
876.906	15724
877.034	15667
877.162	15618
877.29	15671
877.418	15591
877.546	15705
877.674	15614
877.802	15644
877.93	15732
878.058	15698
878.185	15481
878.313	15637
878.441	15603
878.568	15450
878.696	15568
878.824	15595
878.951	15679
879.079	15842
879.206	15895
879.333	15911
879.461	15808
879.588	15800
879.715	15857
879.842	15972
879.97	15793
880.097	15496
880.224	15462
880.351	15561
880.478	15568
880.605	15538
880.732	15553
880.859	15762
880.986	15698
881.112	15557
881.239	15355
881.366	15359
881.493	15169
881.619	15195
881.746	15230
881.872	15097
881.999	15154
882.125	15161
882.252	15214
882.378	15207
882.505	15294
882.631	15188
882.757	15119
882.883	15119
883.01	15051
883.136	14979
883.262	14910
883.388	14887
883.514	15070
883.64	15005
883.766	15039
883.892	14887
884.018	14868
884.143	15001
884.269	15085
884.395	14849
884.52	14686
884.646	14617
884.772	14621
884.897	14686
885.023	14686
885.148	14815
885.274	14910
885.399	14765
885.524	14762
885.65	14754
885.775	14670
885.9	14667
886.025	14883
886.15	14769
886.275	14724
886.4	14613
886.525	14674
886.65	14686
886.775	14663
886.9	14788
887.025	14929
887.149	14697
887.274	14606
887.399	14465
887.523	14530
887.648	14434
887.773	14526
887.897	14632
888.021	14552
888.146	14564
888.27	14670
888.395	14705
888.519	14632
888.643	14594
888.767	14583
888.891	14461
889.015	14442
889.139	14412
889.263	14336
889.387	14476
889.511	14629
889.635	14621
889.759	14450
889.883	14370
890.006	14461
890.13	14651
890.254	14309
890.377	14374
890.501	14256
890.624	14142
890.748	14404
890.871	14149
890.995	14092
891.118	13974
891.241	14065
891.364	14149
891.488	14202
891.611	13986
891.734	14123
891.857	14210
891.98	14164
892.103	14142
892.226	14183
892.349	14096
892.471	13917
892.594	14145
892.717	14119
892.839	14084
892.962	14183
893.085	14210
893.207	14039
893.33	13970
893.452	13947
893.575	14214
893.697	14058
893.819	14240
893.941	14305
894.064	14298
894.186	13982
894.308	13989
894.43	14229
894.552	14252
894.674	14282
894.796	14119
894.918	14145
895.04	14187
895.161	14176
895.283	14298
895.405	14126
895.526	14187
895.648	14202
895.769	14256
895.891	14286
896.012	14404
896.134	14298
896.255	14317
896.376	14294
896.498	14301
896.619	14309
896.74	14248
896.861	14298
896.982	14594
897.103	14823
897.224	14667
897.345	14499
897.466	14488
897.587	14598
897.708	14708
897.828	14587
897.949	14461
898.07	14423
898.19	14583
898.311	14663
898.431	14606
898.552	14651
898.672	14758
898.792	14674
898.913	14678
899.033	14682
899.153	14503
899.273	14446
899.393	14617
899.513	14503
899.633	14522
899.753	14545
899.873	14495
899.993	14484
900.113	14495
900.232	14552
900.352	14503
900.472	14358
900.591	14396
900.711	14427
900.83	14305
900.95	14457
901.069	14450
901.189	14256
901.308	14012
901.427	14027
901.546	13989
901.665	14088
901.784	14027
901.904	13947
902.023	13860
902.141	13628
902.26	13639
902.379	13734
902.498	13597
902.617	13533
902.735	13715
902.854	13582
902.973	13491
903.091	13320
903.21	13350
903.328	13384
903.446	13179
903.565	13183
903.683	13270
903.801	13080
903.919	13122
904.038	13217
904.156	12890
904.274	13080
904.392	12985
904.51	12966
904.627	12966
904.745	13076
904.863	12970
904.981	12791
905.098	12639
905.216	12627
905.334	12821
905.451	12681
905.569	12585
905.686	12646
905.803	12665
905.921	12483
906.038	12593
906.155	12563
906.272	12380
906.389	12479
906.506	12232
906.623	12239
906.74	12155
906.857	12194
906.974	12197
907.091	12338
907.208	12403
907.324	12266
907.441	12144
907.557	11946
907.674	12038
907.79	12015
907.907	11923
908.023	12038
908.139	11996
908.256	11961
908.372	11836
908.488	11950
908.604	11870
908.72	11752
908.836	11790
908.952	11767
909.068	11805
909.184	11859
909.3	11775
909.415	11745
909.531	11695
909.647	11600
909.762	11482
909.878	11516
909.993	11509
910.108	11619
910.224	11444
910.339	11566
910.454	11440
910.57	11402
910.685	11284
910.8	11547
910.915	11581
911.03	11417
911.145	11288
911.259	11227
911.374	11277
911.489	11178
911.604	11071
911.718	10915
911.833	10991
911.947	10892
912.062	10839
912.176	10942
912.291	11060
912.405	11018
912.519	11212
912.633	11239
912.748	11045
912.862	11029
912.976	10854
913.09	10729
913.204	10835
913.318	10869
913.431	10991
913.545	10919
913.659	10942
913.772	10805
913.886	10774
914	10790
914.113	10858
914.226	10797
914.34	10801
914.453	10645
914.566	10801
914.68	10721
914.793	10653
914.906	10504
915.019	10440
915.132	10440
915.245	10455
915.358	10550
915.47	10573
915.583	10531
915.696	10508
915.809	10550
915.921	10626
916.034	10470
916.146	10428
916.259	10424
916.371	10554
916.483	10508
916.595	10390
916.708	10478
916.82	10348
916.932	10352
917.044	10462
917.156	10363
917.268	10318
917.38	10310
917.491	10341
917.603	10303
917.715	10436
917.826	10352
917.938	10257
918.049	10238
918.161	10329
918.272	10428
918.384	10523
918.495	10394
918.606	10227
918.717	10143
918.828	10215
918.939	10215
919.05	10059
919.161	10196
919.272	10017
919.383	10116
919.494	10249
919.604	10360
919.715	10291
919.826	10204
919.936	10246
920.047	10287
920.157	10306
920.267	10455
920.378	10253
920.488	10169
920.598	10462
920.708	10588
920.818	10489
920.928	10440
921.038	10630
921.148	10573
921.258	10352
921.368	10147
921.477	10071
921.587	10021
921.697	9911
921.806	10078
921.916	9915
922.025	9800
922.134	9808
922.244	9701
922.353	9873
922.462	9656
922.571	9618
922.68	9481
922.789	9450
922.898	9545
923.007	9374
923.116	9534
923.224	9496
923.333	9481
923.442	9397
923.55	9351
923.659	9408
923.767	9424
923.876	9367
923.984	9367
924.092	9294
924.201	9370
924.309	9378
924.417	9378
924.525	9287
924.633	9412
924.741	10036
924.849	9116
924.956	9245
925.064	9165
925.172	9051
925.279	9093
925.387	9024
925.494	9112
925.602	9249
925.709	9233
925.816	9077
925.924	9104
926.031	9241
926.138	9119
926.245	9180
926.352	9135
926.459	9169
926.566	9245
926.673	9062
926.779	8921
926.886	8937
926.993	8811
927.099	8838
927.206	8777
927.312	8804
927.419	8925
927.525	8849
927.631	8796
927.737	8777
927.843	8800
927.95	8629
928.056	8754
928.162	8724
928.267	8800
928.373	9405
928.479	8853
928.585	8594
928.69	8720
928.796	8724
928.901	8686
929.007	8461
929.112	8716
929.218	8693
929.323	8590
929.428	8560
929.533	8659
929.638	8469
929.743	8549
929.848	8590
929.953	8530
930.058	8370
930.163	8347
930.267	8301
930.372	8499
930.477	8286
930.581	8583
930.685	8389
930.79	8290
930.894	8191
930.998	8233
931.103	8400
931.207	8107
931.311	8039
931.415	7944
931.519	7769
931.623	7738
