Data from test_V78500241_3121.txt Node
Date: Fri Mar 25 14:55:26 CST 2022
User: usil
Spectrometer: V785-0024
Trigger mode: 0
Integration Time (sec): 4.000000E-1
Scans to average: 1
Nonlinearity correction enabled: false
Boxcar width: 0
Storing dark spectrum: false
XAxis mode: Wavelengths
Number of Pixels in Spectrum: 1024
>>>>>Begin Spectral Data<<<<<
801.071	21960
801.214	21907
801.356	21648
801.499	21603
801.641	21534
801.783	21450
801.926	21439
802.068	21332
802.211	21367
802.353	21226
802.496	21032
802.638	20948
802.78	21020
802.923	20807
803.065	20758
803.208	20697
803.35	20701
803.492	20758
803.635	20956
803.777	20842
803.919	20857
804.061	21154
804.204	20872
804.346	20705
804.488	20583
804.63	20705
804.773	20670
804.915	20750
805.057	20716
805.199	20587
805.341	20800
805.483	20781
805.626	20762
805.768	20708
805.91	20689
806.052	20602
806.194	20640
806.336	20826
806.478	20545
806.62	20590
806.762	20686
806.904	20899
807.046	21157
807.188	21028
807.33	20975
807.472	21157
807.614	21024
807.756	20891
807.898	20762
808.04	20804
808.182	20750
808.324	20819
808.465	20762
808.607	20887
808.749	21055
808.891	21146
809.033	21268
809.174	21161
809.316	20975
809.458	21055
809.6	20948
809.741	20994
809.883	20944
810.025	21226
810.166	21211
810.308	21214
810.45	21089
810.591	20883
810.733	20948
810.875	20895
811.016	20670
811.158	20659
811.299	20838
811.441	20979
811.582	20952
811.724	20838
811.865	20720
812.007	20769
812.148	20609
812.29	20830
812.431	20963
812.573	21005
812.714	21211
812.855	21123
812.997	21386
813.138	21526
813.279	21355
813.421	21237
813.562	21131
813.703	21100
813.845	21039
813.986	20705
814.127	20480
814.268	20370
814.41	20412
814.551	20389
814.692	20317
814.833	20336
814.974	20145
815.115	20427
815.256	20172
815.397	20107
815.539	20317
815.68	20062
815.821	20081
815.962	20081
816.103	20024
816.244	19906
816.385	19887
816.526	19746
816.666	19597
816.807	19343
816.948	19521
817.089	19582
817.23	19601
817.371	19457
817.512	19487
817.653	19426
817.793	19377
817.934	19362
818.075	19480
818.216	19396
818.356	19426
818.497	19244
818.638	19156
818.778	19107
818.919	19168
819.06	19053
819.2	19255
819.341	19289
819.481	19350
819.622	19441
819.762	19563
819.903	19582
820.043	19544
820.184	19449
820.324	19476
820.465	19464
820.605	19426
820.746	19495
820.886	19282
821.026	19419
821.167	19327
821.307	19441
821.447	19381
821.588	19278
821.728	19148
821.868	18890
822.008	18795
822.149	18871
822.289	18783
822.429	18642
822.569	18532
822.709	18612
822.849	18353
822.99	18342
823.13	18323
823.27	18266
823.41	18178
823.55	18091
823.69	18095
823.83	18125
823.97	18133
824.11	17980
824.25	17832
824.389	17897
824.529	18060
824.669	17817
824.809	18076
824.949	17958
825.089	17912
825.228	17866
825.368	17722
825.508	17585
825.648	17680
825.787	17695
825.927	17642
826.067	17581
826.206	17661
826.346	17638
826.485	17699
826.625	17627
826.765	17741
826.904	17718
827.044	17383
827.183	17395
827.323	17376
827.462	17376
827.601	17387
827.741	17387
827.88	17250
828.02	17269
828.159	17349
828.298	17471
828.437	17482
828.577	17311
828.716	17490
828.855	17391
828.994	17105
829.134	17212
829.273	17140
829.412	16984
829.551	17075
829.69	17170
829.829	17105
829.968	17273
830.107	17090
830.246	17159
830.385	17075
830.524	17025
830.663	16965
830.802	16797
830.941	16656
831.08	16698
831.219	16889
831.357	16774
831.496	16923
831.635	16835
831.774	16702
831.913	16687
832.051	16577
832.19	16462
832.329	16409
832.467	16409
832.606	16322
832.744	16390
832.883	16466
833.022	16379
833.16	16409
833.299	16478
833.437	16436
833.576	16451
833.714	16474
833.852	16436
833.991	16527
834.129	16580
834.267	16535
834.406	16459
834.544	16512
834.682	16512
834.821	16421
834.959	16588
835.097	16394
835.235	16542
835.373	16443
835.511	16584
835.65	16318
835.788	16409
835.926	16211
836.064	16105
836.202	16173
836.34	16405
836.478	16489
836.615	16447
836.753	16405
836.891	16538
837.029	16337
837.167	16405
837.305	16287
837.443	16337
837.58	16181
837.718	16272
837.856	16219
837.993	16173
838.131	16257
838.269	16150
838.406	16154
838.544	16120
838.681	15922
838.819	15983
838.956	15854
839.094	15838
839.231	15766
839.369	15873
839.506	16150
839.643	16086
839.781	15793
839.918	15816
840.055	15778
840.193	15778
840.33	15660
840.467	15789
840.604	15789
840.742	16090
840.879	15652
841.016	15724
841.153	15622
841.29	15895
841.427	15842
841.564	15854
841.701	15709
841.838	15808
841.975	15743
842.112	15766
842.249	15542
842.385	15606
842.522	15812
842.659	15652
842.796	15530
842.933	15534
843.069	15549
843.206	15606
843.343	15705
843.479	15526
843.616	15595
843.752	15378
843.889	15386
844.025	15515
844.162	15268
844.298	15466
844.435	15348
844.571	15298
844.708	15393
844.844	15580
844.98	15431
845.117	15458
845.253	15272
845.389	15268
845.525	15340
845.661	15218
845.798	15192
845.934	15287
846.07	15100
846.206	15100
846.342	15336
846.478	15218
846.614	14967
846.75	14921
846.886	15043
847.022	15119
847.158	14929
847.294	14948
847.429	15043
847.565	14842
847.701	15043
847.837	14727
847.972	14625
848.108	14826
848.244	14708
848.379	14602
848.515	14446
848.65	14594
848.786	14419
848.921	14541
849.057	14659
849.192	14564
849.328	14461
849.463	14575
849.598	14537
849.734	14469
849.869	14412
850.004	14305
850.14	14377
850.275	14244
850.41	14164
850.545	14271
850.68	14195
850.815	14294
850.95	14301
851.085	14457
851.22	14305
851.355	14385
851.49	14317
851.625	14267
851.76	14271
851.895	14199
852.03	14206
852.165	14290
852.299	14355
852.434	14385
852.569	14385
852.703	14301
852.838	14404
852.973	14438
853.107	14499
853.242	14305
853.376	14149
853.511	13989
853.645	14020
853.78	14275
853.914	14130
854.048	14119
854.183	14168
854.317	14157
854.451	14282
854.585	14149
854.72	14191
854.854	14187
854.988	14107
855.122	14130
855.256	14005
855.39	14142
855.524	14214
855.658	14100
855.792	14195
855.926	14237
856.06	14145
856.194	14225
856.327	14221
856.461	14103
856.595	14073
856.729	14088
856.862	14305
856.996	14161
857.13	14107
857.263	14290
857.397	14320
857.53	14107
857.664	14271
857.797	14366
857.931	14328
858.064	14214
858.197	14218
858.331	14206
858.464	14092
858.597	14027
858.731	14062
858.864	14221
858.997	14168
859.13	14305
859.263	14145
859.396	14221
859.529	14130
859.662	14069
859.795	14142
859.928	14229
860.061	14267
860.194	14328
860.327	14248
860.46	14134
860.592	14355
860.725	14313
860.858	14317
860.99	14088
861.123	14016
861.256	14096
861.388	14126
861.521	14826
861.653	13955
861.786	13989
861.918	14035
862.05	14126
862.183	14107
862.315	14145
862.447	14176
862.58	14123
862.712	13871
862.844	13822
862.976	14008
863.108	14001
863.24	14358
863.372	13879
863.504	14024
863.636	13982
863.768	13951
863.9	13936
864.032	13928
864.164	14008
864.296	14024
864.428	14039
864.559	14164
864.691	13986
864.823	13982
864.954	14077
865.086	13898
865.217	13890
865.349	13909
865.48	13913
865.612	13982
865.743	14119
865.875	13913
866.006	13955
866.137	13894
866.269	13871
866.4	13989
866.531	13883
866.662	13875
866.793	13875
866.924	13921
867.055	13936
867.186	13871
867.317	13871
867.448	13826
867.579	13856
867.71	13841
867.841	13795
867.972	13913
868.103	13913
868.233	13959
868.364	13883
868.495	14077
868.625	14240
868.756	14259
868.886	14172
869.017	14138
869.147	14240
869.278	14298
869.408	14153
869.539	14218
869.669	14286
869.799	14111
869.929	14195
870.06	14282
870.19	14438
870.32	14484
870.45	14469
870.58	14507
870.71	14670
870.84	14644
870.97	14473
871.1	14564
871.23	14712
871.36	14819
871.489	14758
871.619	14625
871.749	14758
871.879	14754
872.008	14811
872.138	14815
872.267	14682
872.397	14659
872.526	14541
872.656	14648
872.785	14651
872.915	14834
873.044	14929
873.173	14944
873.303	14952
873.432	14872
873.561	14910
873.69	14819
873.819	14800
873.948	14914
874.077	14883
874.206	14800
874.335	14830
874.464	14986
874.593	15047
874.722	15020
874.851	15199
874.979	15123
875.108	15291
875.237	15097
875.365	15051
875.494	15089
875.623	15138
875.751	15138
875.88	15230
876.008	15302
876.136	15332
876.265	15549
876.393	15724
876.521	15728
876.65	15606
876.778	15580
876.906	15599
877.034	15507
877.162	15587
877.29	15382
877.418	15553
877.546	15526
877.674	15515
877.802	15549
877.93	15526
878.058	15534
878.185	15416
878.313	15545
878.441	15492
878.568	15481
878.696	15424
878.824	15469
878.951	15690
879.079	15797
879.206	15781
879.333	15755
879.461	15610
879.588	15717
879.715	15759
879.842	15793
879.97	15572
880.097	15420
880.224	15477
880.351	15359
880.478	15370
880.605	15428
880.732	15336
880.859	15572
880.986	15416
881.112	15488
881.239	15317
881.366	15241
881.493	15157
881.619	15047
881.746	15074
881.872	15127
881.999	15127
882.125	14937
882.252	15093
882.378	15051
882.505	15195
882.631	15009
882.757	14868
882.883	14956
883.01	14925
883.136	14861
883.262	14750
883.388	14743
883.514	14849
883.64	14979
883.766	14758
883.892	14659
884.018	14781
884.143	14891
884.269	14952
884.395	14575
884.52	14556
884.646	14533
884.772	14537
884.897	14507
885.023	14651
885.148	14613
885.274	14735
885.399	14678
885.524	14564
885.65	14693
885.775	14613
885.9	14541
886.025	14640
886.15	14705
886.275	14583
886.4	14495
886.525	14488
886.65	14625
886.775	14526
886.9	14724
887.025	14868
887.149	14636
887.274	14419
887.399	14400
887.523	14294
887.648	14385
887.773	14313
887.897	14434
888.021	14469
888.146	14328
888.27	14533
888.395	14655
888.519	14450
888.643	14457
888.767	14419
888.891	14370
889.015	14248
889.139	14259
889.263	14221
889.387	14347
889.511	14473
889.635	14530
889.759	14271
889.883	14320
890.006	14355
890.13	14404
890.254	14347
890.377	14191
890.501	14195
890.624	14035
890.748	14237
890.871	14031
890.995	13913
891.118	13986
891.241	14054
891.364	13925
891.488	14134
891.611	14020
891.734	14027
891.857	14073
891.98	14031
892.103	14043
892.226	14016
892.349	14027
892.471	13852
892.594	13986
892.717	14111
892.839	14035
892.962	13989
893.085	14027
893.207	14005
893.33	13868
893.452	13951
893.575	13974
893.697	13955
893.819	14157
893.941	14244
894.064	14149
894.186	14001
894.308	13974
894.43	14225
894.552	14149
894.674	14134
894.796	14027
894.918	14119
895.04	13970
895.161	14043
895.283	14119
895.405	13989
895.526	14100
895.648	14073
895.769	14153
895.891	14195
896.012	14210
896.134	14130
896.255	14138
896.376	14176
896.498	14092
896.619	14218
896.74	14191
896.861	14240
896.982	14606
897.103	14644
897.224	14412
897.345	14374
897.466	14328
897.587	14438
897.708	14571
897.828	14492
897.949	14366
898.07	14278
898.19	14419
898.311	14575
898.431	14507
898.552	14450
898.672	14579
898.792	14583
898.913	14522
899.033	14393
899.153	14514
899.273	14252
899.393	14298
899.513	14419
899.633	14301
899.753	14442
899.873	14347
899.993	14393
900.113	14412
900.232	14415
900.352	14393
900.472	14191
900.591	14294
900.711	14328
900.83	14138
900.95	14431
901.069	14370
901.189	14199
901.308	13989
901.427	13925
901.546	13940
901.665	13875
901.784	13852
901.904	13803
902.023	13833
902.141	13597
902.26	13506
902.379	13552
902.498	13499
902.617	13434
902.735	13518
902.854	13422
902.973	13407
903.091	13225
903.21	13198
903.328	13228
903.446	13118
903.565	13118
903.683	13149
903.801	12951
903.919	13023
904.038	13038
904.156	12852
904.274	12951
904.392	12810
904.51	12802
904.627	12787
904.745	12928
904.863	12905
904.981	12757
905.098	12601
905.216	12547
905.334	12559
905.451	12574
905.569	12429
905.686	12555
905.803	12665
905.921	12369
906.038	12509
906.155	12380
906.272	12292
906.389	12330
906.506	12292
906.623	12155
906.74	12159
906.857	12091
906.974	12117
907.091	12220
907.208	12258
907.324	12262
907.441	12098
907.557	11950
907.674	11939
907.79	11775
907.907	11893
908.023	11897
908.139	11961
908.256	11824
908.372	11821
908.488	11805
908.604	11691
908.72	11665
908.836	11684
908.952	11558
909.068	11760
909.184	11817
909.3	11627
909.415	11661
909.531	11707
909.647	11558
909.762	11406
909.878	11368
909.993	11509
910.108	11474
910.224	11471
910.339	11512
910.454	11387
910.57	11280
910.685	11239
910.8	11516
910.915	11474
911.03	11341
911.145	11136
911.259	11124
911.374	11128
911.489	11071
911.604	10984
911.718	10873
911.833	10934
911.947	10786
912.062	10672
912.176	10942
912.291	10889
912.405	10991
912.519	11056
912.633	11048
912.748	11014
912.862	10923
912.976	10820
913.09	10729
913.204	10672
913.318	10866
913.431	10892
913.545	10862
913.659	10869
913.772	10850
913.886	10615
914	10675
914.113	10733
914.226	10755
914.34	10698
914.453	10630
914.566	10744
914.68	10588
914.793	10698
914.906	10459
915.019	10371
915.132	10329
915.245	10379
915.358	10424
915.47	10462
915.583	10390
915.696	10424
915.809	10565
915.921	10508
916.034	10432
916.146	10329
916.259	10310
916.371	10466
916.483	10432
916.595	10322
916.708	10428
916.82	10402
916.932	10284
917.044	10318
917.156	10268
917.268	10162
917.38	10249
917.491	10204
917.603	10337
917.715	10318
917.826	10253
917.938	10227
918.049	10086
918.161	10242
918.272	10436
918.384	10417
918.495	10310
918.606	10188
918.717	10051
918.828	10227
918.939	10188
919.05	10013
919.161	10128
919.272	9869
919.383	9926
919.494	10162
919.604	10322
919.715	10124
919.826	10109
919.936	10063
920.047	10173
920.157	10158
920.267	10352
920.378	10090
920.488	10207
920.598	10219
920.708	10451
920.818	10352
920.928	10382
921.038	10512
921.148	10493
921.258	10162
921.368	10059
921.477	10021
921.587	9964
921.697	9892
921.806	10036
921.916	9861
922.025	9694
922.134	9774
922.244	9701
922.353	9797
922.462	9584
922.571	9572
922.68	9405
922.789	9382
922.898	9405
923.007	9428
923.116	9443
923.224	9313
923.333	9370
923.442	9306
923.55	9279
923.659	9294
923.767	9386
923.876	9283
923.984	9351
924.092	9233
924.201	9241
924.309	9279
924.417	9253
924.525	9195
924.633	9184
924.741	10150
924.849	8956
924.956	9203
925.064	9085
925.172	8933
925.279	8960
925.387	9097
925.494	9070
925.602	9157
925.709	9138
925.816	8994
925.924	9032
926.031	9104
926.138	9097
926.245	9154
926.352	8960
926.459	9116
926.566	9245
926.673	9001
926.779	8883
926.886	8895
926.993	8777
927.099	8758
927.206	8746
927.312	8716
927.419	8819
927.525	8800
927.631	8819
927.737	8769
927.843	8705
927.95	8537
928.056	8701
928.162	8693
928.267	8739
928.373	9214
928.479	8750
928.585	8507
928.69	8648
928.796	8640
928.901	8571
929.007	8503
929.112	8625
929.218	8610
929.323	8549
929.428	8495
929.533	8632
929.638	8434
929.743	8431
929.848	8495
929.953	8434
930.058	8438
930.163	8187
930.267	8275
930.372	8396
930.477	8183
930.581	8499
930.685	8347
930.79	8210
930.894	8263
930.998	8195
931.103	8385
931.207	8012
931.311	7902
931.415	7913
931.519	7651
931.623	7689
