Data from test_V78500241_2037.txt Node
Date: Fri Mar 25 14:47:53 CST 2022
User: usil
Spectrometer: V785-0024
Trigger mode: 0
Integration Time (sec): 4.000000E-1
Scans to average: 1
Nonlinearity correction enabled: false
Boxcar width: 0
Storing dark spectrum: false
XAxis mode: Wavelengths
Number of Pixels in Spectrum: 1024
>>>>>Begin Spectral Data<<<<<
801.071	22139
801.214	22029
801.356	21778
801.499	21675
801.641	21523
801.783	21447
801.926	21618
802.068	21526
802.211	21443
802.353	21272
802.496	21039
802.638	20929
802.78	20906
802.923	20781
803.065	20724
803.208	20777
803.35	20872
803.492	20853
803.635	20906
803.777	20716
803.919	21017
804.061	21020
804.204	20842
804.346	20769
804.488	20621
804.63	20811
804.773	20659
804.915	20883
805.057	20834
805.199	20674
805.341	20739
805.483	20880
805.626	20773
805.768	20708
805.91	20773
806.052	20826
806.194	20670
806.336	20933
806.478	20785
806.62	20727
806.762	20826
806.904	20880
807.046	21104
807.188	21032
807.33	21116
807.472	21051
807.614	20941
807.756	20979
807.898	20990
808.04	20902
808.182	20724
808.324	20914
808.465	20853
808.607	21116
808.749	21100
808.891	21272
809.033	21237
809.174	21116
809.316	21009
809.458	21233
809.6	21119
809.741	21146
809.883	21154
810.025	21310
810.166	21218
810.308	21188
810.45	21188
810.591	21089
810.733	20967
810.875	20887
811.016	20807
811.158	20804
811.299	20994
811.441	21009
811.582	20937
811.724	21028
811.865	20788
812.007	20811
812.148	20845
812.29	20872
812.431	21009
812.573	21165
812.714	21252
812.855	21256
812.997	21443
813.138	21690
813.279	21443
813.421	21397
813.562	21378
813.703	21104
813.845	21020
813.986	20758
814.127	20625
814.268	20473
814.41	20434
814.551	20465
814.692	20545
814.833	20415
814.974	20438
815.115	20317
815.256	20301
815.397	20465
815.539	20294
815.68	20248
815.821	20119
815.962	20187
816.103	20252
816.244	20069
816.385	19913
816.526	19894
816.666	19723
816.807	19605
816.948	19677
817.089	19818
817.23	19635
817.371	19647
817.512	19540
817.653	19586
817.793	19487
817.934	19438
818.075	19689
818.216	19559
818.356	19563
818.497	19388
818.638	19244
818.778	19183
818.919	19266
819.06	19301
819.2	19282
819.341	19365
819.481	19392
819.622	19487
819.762	19788
819.903	19738
820.043	19651
820.184	19567
820.324	19495
820.465	19605
820.605	19529
820.746	19533
820.886	19468
821.026	19552
821.167	19529
821.307	19609
821.447	19548
821.588	19297
821.728	19244
821.868	19236
822.008	19069
822.149	19069
822.289	18871
822.429	18795
822.569	18646
822.709	18692
822.849	18445
822.99	18391
823.13	18471
823.27	18433
823.41	18372
823.55	18155
823.69	18319
823.83	18296
823.97	18194
824.11	17923
824.25	18026
824.389	18038
824.529	18079
824.669	17939
824.809	18068
824.949	18136
825.089	18087
825.228	18064
825.368	17916
825.508	17817
825.648	17786
825.787	17870
825.927	17878
826.067	17802
826.206	17756
826.346	17764
826.485	17878
826.625	17840
826.765	17798
826.904	17836
827.044	17558
827.183	17627
827.323	17539
827.462	17570
827.601	17520
827.741	17448
827.88	17452
828.02	17402
828.159	17474
828.298	17532
828.437	17482
828.577	17516
828.716	17634
828.855	17459
828.994	17311
829.134	17311
829.273	17379
829.412	17200
829.551	17284
829.69	17185
829.829	17326
829.968	17292
830.107	17185
830.246	17296
830.385	17208
830.524	17170
830.663	17048
830.802	17056
830.941	16858
831.08	16850
831.219	16930
831.357	16866
831.496	17014
831.635	16904
831.774	16843
831.913	16778
832.051	16767
832.19	16694
832.329	16790
832.467	16645
832.606	16481
832.744	16538
832.883	16645
833.022	16603
833.16	16535
833.299	16668
833.437	16672
833.576	16618
833.714	16664
833.852	16664
833.991	16710
834.129	16698
834.267	16660
834.406	16679
834.544	16694
834.682	16580
834.821	16679
834.959	16839
835.097	16653
835.235	16752
835.373	16729
835.511	16607
835.65	16519
835.788	16519
835.926	16367
836.064	16375
836.202	16337
836.34	16527
836.478	16630
836.615	16512
836.753	16519
836.891	16656
837.029	16512
837.167	16440
837.305	16493
837.443	16459
837.58	16421
837.718	16519
837.856	16478
837.993	16375
838.131	16440
838.269	16249
838.406	16310
838.544	16280
838.681	16177
838.819	15968
838.956	15888
839.094	15983
839.231	16040
839.369	16154
839.506	16325
839.643	16242
839.781	15994
839.918	15994
840.055	15956
840.193	15972
840.33	15964
840.467	15994
840.604	16017
840.742	16234
840.879	15835
841.016	15854
841.153	15850
841.29	16048
841.427	16021
841.564	15869
841.701	15979
841.838	15987
841.975	15846
842.112	15857
842.249	15747
842.385	15671
842.522	15869
842.659	15808
842.796	15747
842.933	15720
843.069	15709
843.206	15770
843.343	15789
843.479	15770
843.616	15797
843.752	15553
843.889	15469
844.025	15606
844.162	15534
844.298	15713
844.435	15526
844.571	15561
844.708	15652
844.844	15671
844.98	15610
845.117	15542
845.253	15458
845.389	15412
845.525	15488
845.661	15336
845.798	15214
845.934	15428
846.07	15336
846.206	15340
846.342	15397
846.478	15287
846.614	15180
846.75	15138
846.886	14998
847.022	15233
847.158	15112
847.294	15180
847.429	15173
847.565	15085
847.701	15310
847.837	14819
847.972	14777
848.108	14971
848.244	14937
848.379	14769
848.515	14708
848.65	14590
848.786	14765
848.921	14758
849.057	14781
849.192	14785
849.328	14842
849.463	14762
849.598	14613
849.734	14701
849.869	14568
850.004	14465
850.14	14533
850.275	14461
850.41	14393
850.545	14385
850.68	14351
850.815	14438
850.95	14461
851.085	14720
851.22	14575
851.355	14385
851.49	14351
851.625	14404
851.76	14450
851.895	14328
852.03	14339
852.165	14374
852.299	14446
852.434	14511
852.569	14522
852.703	14594
852.838	14530
852.973	14533
853.107	14575
853.242	14476
853.376	14313
853.511	14218
853.645	14317
853.78	14396
853.914	14400
854.048	14370
854.183	14259
854.317	14408
854.451	14560
854.585	14271
854.72	14404
854.854	14389
854.988	14214
855.122	14336
855.256	14164
855.39	14320
855.524	14328
855.658	14343
855.792	14313
855.926	14343
856.06	14431
856.194	14408
856.327	14366
856.461	14202
856.595	14301
856.729	14275
856.862	14492
856.996	14446
857.13	14389
857.263	14377
857.397	14355
857.53	14381
857.664	14374
857.797	14431
857.931	14518
858.064	14381
858.197	14469
858.331	14339
858.464	14290
858.597	14191
858.731	14320
858.864	14290
858.997	14317
859.13	14473
859.263	14298
859.396	14381
859.529	14282
859.662	14267
859.795	14275
859.928	14328
860.061	14454
860.194	14526
860.327	14358
860.46	14366
860.592	14423
860.725	14461
860.858	14385
860.99	14351
861.123	14142
861.256	14286
861.388	14351
861.521	15097
861.653	14275
861.786	14058
861.918	14187
862.05	14244
862.183	14298
862.315	14313
862.447	14263
862.58	14202
862.712	14115
862.844	14043
862.976	14180
863.108	14149
863.24	14484
863.372	14123
863.504	14126
863.636	14073
863.768	14153
863.9	14088
864.032	14096
864.164	14065
864.296	14054
864.428	14237
864.559	14233
864.691	14233
864.823	14077
864.954	14168
865.086	14119
865.217	14168
865.349	14031
865.48	14145
865.612	14115
865.743	14225
865.875	14065
866.006	14081
866.137	14073
866.269	14084
866.4	14081
866.531	14107
866.662	13940
866.793	14054
866.924	14077
867.055	14096
867.186	14065
867.317	14081
867.448	13955
867.579	14024
867.71	13974
867.841	14024
867.972	14103
868.103	14138
868.233	14027
868.364	14020
868.495	14161
868.625	14324
868.756	14454
868.886	14237
869.017	14393
869.147	14362
869.278	14412
869.408	14393
869.539	14358
869.669	14434
869.799	14324
869.929	14469
870.06	14457
870.19	14705
870.32	14594
870.45	14655
870.58	14792
870.71	14796
870.84	14762
870.97	14720
871.1	14712
871.23	14998
871.36	14937
871.489	14769
871.619	14990
871.749	14979
871.879	14952
872.008	15024
872.138	14956
872.267	14918
872.397	14819
872.526	14712
872.656	14735
872.785	14815
872.915	14971
873.044	14998
873.173	15066
873.303	15157
873.432	15032
873.561	14994
873.69	14914
873.819	14975
873.948	15017
874.077	15055
874.206	14944
874.335	15089
874.464	15116
874.593	15233
874.722	15233
874.851	15351
874.979	15329
875.108	15298
875.237	15272
875.365	15184
875.494	15264
875.623	15306
875.751	15195
875.88	15450
876.008	15507
876.136	15568
876.265	15785
876.393	15842
876.521	15778
876.65	15759
876.778	15732
876.906	15698
877.034	15709
877.162	15762
877.29	15637
877.418	15652
877.546	15751
877.674	15595
877.802	15770
877.93	15743
878.058	15690
878.185	15576
878.313	15770
878.441	15789
878.568	15580
878.696	15603
878.824	15774
878.951	15892
879.079	15941
879.206	16040
879.333	15850
879.461	15743
879.588	15842
879.715	15911
879.842	16010
879.97	15819
880.097	15595
880.224	15599
880.351	15633
880.478	15595
880.605	15534
880.732	15587
880.859	15865
880.986	15595
881.112	15576
881.239	15447
881.366	15370
881.493	15287
881.619	15237
881.746	15264
881.872	15249
881.999	15279
882.125	15161
882.252	15386
882.378	15268
882.505	15340
882.631	15146
882.757	15043
882.883	15173
883.01	15005
883.136	15017
883.262	14963
883.388	14838
883.514	15176
883.64	15131
883.766	15001
883.892	14857
884.018	14887
884.143	15039
884.269	15070
884.395	14785
884.52	14762
884.646	14750
884.772	14689
884.897	14560
885.023	14811
885.148	14895
885.274	14830
885.399	14804
885.524	14720
885.65	14746
885.775	14712
885.9	14712
886.025	14796
886.15	14762
886.275	14739
886.4	14602
886.525	14678
886.65	14701
886.775	14724
886.9	14823
887.025	15024
887.149	14746
887.274	14575
887.399	14617
887.523	14598
887.648	14522
887.773	14503
887.897	14629
888.021	14617
888.146	14457
888.27	14629
888.395	14670
888.519	14636
888.643	14613
888.767	14625
888.891	14602
889.015	14480
889.139	14492
889.263	14461
889.387	14568
889.511	14678
889.635	14568
889.759	14484
889.883	14385
890.006	14412
890.13	14476
890.254	14351
890.377	14431
890.501	14244
890.624	14168
890.748	14339
890.871	14233
890.995	14077
891.118	14202
891.241	14206
891.364	14153
891.488	14275
891.611	14145
891.734	14183
891.857	14233
891.98	14111
892.103	14164
892.226	14115
892.349	14027
892.471	13944
892.594	14180
892.717	14130
892.839	14142
892.962	14092
893.085	14206
893.207	14168
893.33	14008
893.452	13997
893.575	14202
893.697	14084
893.819	14298
893.941	14408
894.064	14328
894.186	14096
894.308	14138
894.43	14286
894.552	14366
894.674	14290
894.796	14126
894.918	14206
895.04	14149
895.161	14290
895.283	14347
895.405	14149
895.526	14225
895.648	14298
895.769	14206
895.891	14358
896.012	14355
896.134	14351
896.255	14309
896.376	14351
896.498	14275
896.619	14385
896.74	14267
896.861	14408
896.982	14667
897.103	14868
897.224	14640
897.345	14568
897.466	14594
897.587	14473
897.708	14731
897.828	14697
897.949	14670
898.07	14370
898.19	14568
898.311	14701
898.431	14667
898.552	14659
898.672	14758
898.792	14762
898.913	14708
899.033	14560
899.153	14484
899.273	14404
899.393	14438
899.513	14511
899.633	14549
899.753	14541
899.873	14499
899.993	14659
900.113	14522
900.232	14511
900.352	14434
900.472	14400
900.591	14351
900.711	14385
900.83	14286
900.95	14499
901.069	14640
901.189	14317
901.308	14225
901.427	14012
901.546	14035
901.665	14119
901.784	14103
901.904	13947
902.023	13811
902.141	13666
902.26	13693
902.379	13681
902.498	13571
902.617	13552
902.735	13685
902.854	13628
902.973	13521
903.091	13358
903.21	13381
903.328	13335
903.446	13278
903.565	13141
903.683	13149
903.801	13095
903.919	13171
904.038	13084
904.156	13008
904.274	13107
904.392	12985
904.51	12932
904.627	12928
904.745	13080
904.863	13015
904.981	12859
905.098	12635
905.216	12715
905.334	12738
905.451	12665
905.569	12604
905.686	12768
905.803	12669
905.921	12536
906.038	12665
906.155	12570
906.272	12399
906.389	12433
906.506	12319
906.623	12353
906.74	12228
906.857	12087
906.974	12213
907.091	12445
907.208	12399
907.324	12323
907.441	12216
907.557	12083
907.674	12003
907.79	11935
907.907	12007
908.023	12022
908.139	11980
908.256	11931
908.372	11927
908.488	11904
908.604	11893
908.72	11817
908.836	11752
908.952	11786
909.068	11866
909.184	11912
909.3	11863
909.415	11745
909.531	11760
909.647	11566
909.762	11547
909.878	11512
909.993	11543
910.108	11433
910.224	11497
910.339	11528
910.454	11581
910.57	11459
910.685	11265
910.8	11680
910.915	11505
911.03	11486
911.145	11273
911.259	11220
911.374	11299
911.489	11265
911.604	11227
911.718	10987
911.833	11090
911.947	10919
912.062	10820
912.176	10968
912.291	10942
912.405	10999
912.519	11239
912.633	11239
912.748	11090
912.862	10911
912.976	10953
913.09	10793
913.204	10839
913.318	10904
913.431	11003
913.545	10961
913.659	11037
913.772	10927
913.886	10729
914	10744
914.113	10812
914.226	10896
914.34	10820
914.453	10698
914.566	10843
914.68	10702
914.793	10668
914.906	10512
915.019	10519
915.132	10413
915.245	10508
915.358	10554
915.47	10485
915.583	10550
915.696	10592
915.809	10698
915.921	10645
916.034	10512
916.146	10512
916.259	10451
916.371	10531
916.483	10538
916.595	10402
916.708	10421
916.82	10504
916.932	10417
917.044	10421
917.156	10470
917.268	10306
917.38	10382
917.491	10409
917.603	10348
917.715	10413
917.826	10421
917.938	10249
918.049	10341
918.161	10295
918.272	10440
918.384	10447
918.495	10329
918.606	10185
918.717	10173
918.828	10234
918.939	10306
919.05	10150
919.161	10227
919.272	10059
919.383	10006
919.494	10356
919.604	10485
919.715	10105
919.826	10143
919.936	10257
920.047	10382
920.157	10265
920.267	10485
920.378	10325
920.488	10211
920.598	10447
920.708	10603
920.818	10417
920.928	10481
921.038	10538
921.148	10615
921.258	10303
921.368	10147
921.477	10093
921.587	10162
921.697	9903
921.806	10154
921.916	9991
922.025	9865
922.134	9766
922.244	9789
922.353	9880
922.462	9698
922.571	9671
922.68	9504
922.789	9595
922.898	9507
923.007	9447
923.116	9507
923.224	9496
923.333	9507
923.442	9405
923.55	9386
923.659	9420
923.767	9500
923.876	9332
923.984	9515
924.092	9332
924.201	9340
924.309	9382
924.417	9420
924.525	9382
924.633	9275
924.741	10234
924.849	9161
924.956	9275
925.064	9146
925.172	9104
925.279	9207
925.387	9097
925.494	9112
925.602	9241
925.709	9192
925.816	9024
925.924	9165
926.031	9218
926.138	9135
926.245	9161
926.352	9154
926.459	9241
926.566	9272
926.673	9127
926.779	9062
926.886	8925
926.993	8826
927.099	8849
927.206	8834
927.312	8838
927.419	8982
927.525	8815
927.631	8887
927.737	8769
927.843	8746
927.95	8594
928.056	8800
928.162	8746
928.267	8746
928.373	9447
928.479	8891
928.585	8606
928.69	8697
928.796	8807
928.901	8712
929.007	8488
929.112	8720
929.218	8575
929.323	8575
929.428	8590
929.533	8663
929.638	8518
929.743	8587
929.848	8705
929.953	8549
930.058	8457
930.163	8355
930.267	8358
930.372	8492
930.477	8320
930.581	8598
930.685	8461
930.79	8290
930.894	8320
930.998	8259
931.103	8389
931.207	8065
931.311	8001
931.415	7951
931.519	7772
931.623	7738
