Data from test_V78500241_539.txt Node
Date: Fri Mar 25 14:37:28 CST 2022
User: usil
Spectrometer: V785-0024
Trigger mode: 0
Integration Time (sec): 4.000000E-1
Scans to average: 1
Nonlinearity correction enabled: false
Boxcar width: 0
Storing dark spectrum: false
XAxis mode: Wavelengths
Number of Pixels in Spectrum: 1024
>>>>>Begin Spectral Data<<<<<
801.071	27595
801.214	27233
801.356	27005
801.499	27028
801.641	26906
801.783	26868
801.926	26785
802.068	26754
802.211	26731
802.353	26678
802.496	26393
802.638	26442
802.78	26423
802.923	26324
803.065	26248
803.208	26343
803.35	26442
803.492	26313
803.635	26511
803.777	26252
803.919	26427
804.061	26697
804.204	26355
804.346	26343
804.488	26237
804.63	26389
804.773	26282
804.915	26389
805.057	26602
805.199	26480
805.341	26537
805.483	26530
805.626	26644
805.768	26442
805.91	26625
806.052	26697
806.194	26788
806.336	26842
806.478	26807
806.62	26925
806.762	27024
806.904	27241
807.046	27545
807.188	27720
807.33	27800
807.472	28169
807.614	28276
807.756	28538
807.898	28820
808.04	29387
808.182	30140
808.324	31065
808.465	32149
808.607	33287
808.749	34481
808.891	35010
809.033	34965
809.174	34295
809.316	33313
809.458	32122
809.6	30795
809.741	30053
809.883	29356
810.025	29033
810.166	28409
810.308	28386
810.45	27945
810.591	27781
810.733	27526
810.875	27359
811.016	27135
811.158	27211
811.299	27127
811.441	27230
811.582	27199
811.724	26982
811.865	26940
812.007	26731
812.148	26872
812.29	26895
812.431	26929
812.573	27081
812.714	27135
812.855	27195
812.997	27507
813.138	27439
813.279	27275
813.421	27188
813.562	27154
813.703	26982
813.845	26857
813.986	26404
814.127	26282
814.268	26202
814.41	26237
814.551	26161
814.692	26404
814.833	26054
814.974	26161
815.115	26180
815.256	26005
815.397	26020
815.539	25928
815.68	25772
815.821	25860
815.962	25936
816.103	25757
816.244	25700
816.385	25643
816.526	25506
816.666	25308
816.807	25240
816.948	25266
817.089	25343
817.23	25247
817.371	25152
817.512	25232
817.653	25168
817.793	25133
817.934	25126
818.075	25171
818.216	25069
818.356	25069
818.497	24878
818.638	24696
818.778	24779
818.919	24894
819.06	25015
819.2	25088
819.341	25019
819.481	24966
819.622	25118
819.762	25335
819.903	25228
820.043	25255
820.184	25152
820.324	25110
820.465	25122
820.605	25152
820.746	24996
820.886	25015
821.026	24977
821.167	24973
821.307	25065
821.447	24935
821.588	24791
821.728	24730
821.868	24570
822.008	24292
822.149	24410
822.289	24289
822.429	24133
822.569	24057
822.709	23999
822.849	23843
822.99	23790
823.13	23779
823.27	23771
823.41	23619
823.55	23577
823.69	23570
823.83	23520
823.97	23501
824.11	23307
824.25	23250
824.389	23326
824.529	23448
824.669	23448
824.809	23402
824.949	23216
825.089	23391
825.228	23391
825.368	23220
825.508	23143
825.648	23162
825.787	23094
825.927	23147
826.067	23128
826.206	23090
826.346	23269
826.485	22965
826.625	23094
826.765	23250
826.904	23143
827.044	22968
827.183	22900
827.323	22755
827.462	22793
827.601	22854
827.741	22774
827.88	22923
828.02	22660
828.159	22816
828.298	22820
828.437	22850
828.577	22736
828.716	22854
828.855	22698
828.994	22527
829.134	22611
829.273	22474
829.412	22405
829.551	22451
829.69	22409
829.829	22386
829.968	22611
830.107	22466
830.246	22485
830.385	22398
830.524	22306
830.663	22249
830.802	22097
830.941	22112
831.08	21979
831.219	22082
831.357	22166
831.496	22226
831.635	21983
831.774	21903
831.913	21979
832.051	21842
832.19	21949
832.329	21926
832.467	21739
832.606	21762
832.744	21671
832.883	21720
833.022	21770
833.16	21884
833.299	21854
833.437	21907
833.576	22101
833.714	22006
833.852	22128
833.991	22192
834.129	22162
834.267	22280
834.406	22131
834.544	22223
834.682	22150
834.821	21991
834.959	22169
835.097	21899
835.235	21998
835.373	21869
835.511	21762
835.65	21671
835.788	21705
835.926	21340
836.064	21485
836.202	21496
836.34	21614
836.478	21644
836.615	21500
836.753	21450
836.891	21625
837.029	21515
837.167	21549
837.305	21485
837.443	21344
837.58	21374
837.718	21393
837.856	21462
837.993	21298
838.131	21435
838.269	21291
838.406	21256
838.544	21184
838.681	21055
838.819	21013
838.956	20746
839.094	20823
839.231	21001
839.369	20948
839.506	21146
839.643	21135
839.781	20845
839.918	20602
840.055	20743
840.193	20746
840.33	20853
840.467	20731
840.604	20796
840.742	21017
840.879	20701
841.016	20689
841.153	20636
841.29	20883
841.427	20678
841.564	20693
841.701	20693
841.838	20674
841.975	20602
842.112	20655
842.249	20613
842.385	20518
842.522	20674
842.659	20560
842.796	20438
842.933	20480
843.069	20518
843.206	20377
843.343	20522
843.479	20549
843.616	20423
843.752	20294
843.889	20282
844.025	20480
844.162	20408
844.298	20499
844.435	20552
844.571	20454
844.708	20640
844.844	20724
844.98	21028
845.117	21294
845.253	21450
845.389	21949
845.525	23010
845.661	24894
845.798	27214
845.934	29056
846.07	29859
846.206	29535
846.342	28226
846.478	25731
846.614	23467
846.75	22029
846.886	21283
847.022	20891
847.158	20389
847.294	20256
847.429	20244
847.565	19940
847.701	20138
847.837	19632
847.972	19556
848.108	19677
848.244	19658
848.379	19480
848.515	19506
848.65	19350
848.786	19358
848.921	19339
849.057	19377
849.192	19449
849.328	19346
849.463	19350
849.598	19255
849.734	19274
849.869	19190
850.004	18977
850.14	19065
850.275	19038
850.41	19004
850.545	19015
850.68	18947
850.815	19038
850.95	18981
851.085	19171
851.22	19164
851.355	19015
851.49	18981
851.625	18993
851.76	18951
851.895	18973
852.03	18833
852.165	18867
852.299	18962
852.434	19019
852.569	19061
852.703	19046
852.838	18981
852.973	19187
853.107	19145
853.242	18996
853.376	18928
853.511	18833
853.645	18954
853.78	19004
853.914	18996
854.048	18875
854.183	18928
854.317	19137
854.451	19118
854.585	18875
854.72	19004
854.854	18973
854.988	18856
855.122	18928
855.256	18810
855.39	18802
855.524	18909
855.658	18958
855.792	18920
855.926	18795
856.06	18817
856.194	18928
856.327	18924
856.461	18760
856.595	18916
856.729	18814
856.862	18905
856.996	18920
857.13	18916
857.263	18943
857.397	18909
857.53	18814
857.664	18859
857.797	18916
857.931	18848
858.064	18776
858.197	19015
858.331	18795
858.464	18639
858.597	18700
858.731	18825
858.864	18764
858.997	18734
859.13	18688
859.263	18715
859.396	18837
859.529	18661
859.662	18787
859.795	18700
859.928	18646
860.061	18837
860.194	18749
860.327	18745
860.46	18684
860.592	18875
860.725	18791
860.858	18886
860.99	18810
861.123	18646
861.256	18681
861.388	18696
861.521	19445
861.653	18494
861.786	18464
861.918	18479
862.05	18696
862.183	18646
862.315	18741
862.447	18913
862.58	18730
862.712	18483
862.844	18426
862.976	18551
863.108	18467
863.24	18798
863.372	18327
863.504	18498
863.636	18407
863.768	18384
863.9	18410
864.032	18270
864.164	18361
864.296	18410
864.428	18532
864.559	18486
864.691	18532
864.823	18467
864.954	18437
865.086	18372
865.217	18353
865.349	18281
865.48	18243
865.612	18300
865.743	18578
865.875	18369
866.006	18315
866.137	18384
866.269	18357
866.4	18357
866.531	18262
866.662	18285
866.793	18262
866.924	18296
867.055	18346
867.186	18277
867.317	18304
867.448	18205
867.579	18224
867.71	18152
867.841	18136
867.972	18285
868.103	18232
868.233	18338
868.364	18315
868.495	18243
868.625	18570
868.756	18681
868.886	18365
869.017	18544
869.147	18566
869.278	18566
869.408	18555
869.539	18464
869.669	18707
869.799	18540
869.929	18722
870.06	18635
870.19	18844
870.32	18825
870.45	18878
870.58	18901
870.71	19046
870.84	19046
870.97	18935
871.1	19031
871.23	19072
871.36	19164
871.489	19061
871.619	19114
871.749	19133
871.879	19183
872.008	19297
872.138	19270
872.267	19164
872.397	19076
872.526	19057
872.656	19057
872.785	19023
872.915	19232
873.044	19301
873.173	19266
873.303	19293
873.432	19282
873.561	19346
873.69	19278
873.819	19247
873.948	19343
874.077	19324
874.206	19274
874.335	19358
874.464	19453
874.593	19632
874.722	19510
874.851	19689
874.979	19582
875.108	19571
875.237	19658
875.365	19552
875.494	19693
875.623	19696
875.751	19704
875.88	19784
876.008	19860
876.136	19917
876.265	20168
876.393	20313
876.521	20191
876.65	20358
876.778	20275
876.906	20206
877.034	20324
877.162	20347
877.29	20187
877.418	20469
877.546	20320
877.674	20351
877.802	20393
877.93	20457
878.058	20590
878.185	20495
878.313	20720
878.441	20830
878.568	20815
878.696	20986
878.824	21412
878.951	21759
879.079	22523
879.206	23216
879.333	23958
879.461	24517
879.588	25000
879.715	24939
879.842	24810
879.97	23942
880.097	22999
880.224	22470
880.351	21949
880.478	21648
880.605	21416
880.732	21332
880.859	21477
880.986	21207
881.112	21173
881.239	21051
881.366	21062
881.493	20849
881.619	20777
881.746	20918
881.872	20750
881.999	20804
882.125	20796
882.252	20811
882.378	20880
882.505	21005
882.631	20720
882.757	20655
882.883	20754
883.01	20663
883.136	20537
883.262	20419
883.388	20351
883.514	20674
883.64	20465
883.766	20465
883.892	20469
884.018	20393
884.143	20583
884.269	20625
884.395	20374
884.52	20180
884.646	20434
884.772	20256
884.897	20210
885.023	20259
885.148	20256
885.274	20385
885.399	20256
885.524	20271
885.65	20107
885.775	20153
885.9	19989
886.025	20142
886.15	20073
886.275	19784
886.4	19704
886.525	19715
886.65	19712
886.775	19791
886.9	19723
887.025	19955
887.149	19624
887.274	19464
887.399	19335
887.523	19255
887.648	19183
887.773	19221
887.897	19384
888.021	19324
888.146	19232
888.27	19324
888.395	19266
888.519	19209
888.643	19118
888.767	19091
888.891	19076
889.015	18920
889.139	18863
889.263	18810
889.387	19012
889.511	19110
889.635	18947
889.759	18795
889.883	18760
890.006	18760
890.13	18783
890.254	18738
890.377	18681
890.501	18452
890.624	18589
890.748	18578
890.871	18452
890.995	18315
891.118	18308
891.241	18353
891.364	18266
891.488	18441
891.611	18311
891.734	18365
891.857	18369
891.98	18361
892.103	18376
892.226	18273
892.349	18266
892.471	18068
892.594	18167
892.717	18155
892.839	18194
892.962	18125
893.085	18167
893.207	17992
893.33	18057
893.452	18106
893.575	18182
893.697	18106
893.819	18391
893.941	18311
894.064	18163
894.186	17988
894.308	17984
894.43	18140
894.552	18159
894.674	18034
894.796	17931
894.918	18049
895.04	17977
895.161	18159
895.283	18087
895.405	17996
895.526	18003
895.648	17992
895.769	18148
895.891	17999
896.012	18148
896.134	18117
896.255	18049
896.376	18057
896.498	18087
896.619	18098
896.74	17961
896.861	18133
896.982	18502
897.103	18559
897.224	18418
897.345	18266
897.466	18216
897.587	18235
897.708	18361
897.828	18300
897.949	18216
898.07	18190
898.19	18167
898.311	18388
898.431	18277
898.552	18220
898.672	18395
898.792	18372
898.913	18239
899.033	18224
899.153	18178
899.273	18022
899.393	18019
899.513	18140
899.633	18026
899.753	18182
899.873	17969
899.993	18140
900.113	18030
900.232	18045
900.352	18015
900.472	17950
900.591	17859
900.711	17901
900.83	17908
900.95	17897
901.069	17954
901.189	17729
901.308	17474
901.427	17471
901.546	17520
901.665	17551
901.784	17406
901.904	17433
902.023	17227
902.141	17113
902.26	16987
902.379	17121
902.498	16896
902.617	16984
902.735	17060
902.854	16885
902.973	16915
903.091	16649
903.21	16717
903.328	16618
903.446	16527
903.565	16440
903.683	16531
903.801	16230
903.919	16295
904.038	16402
904.156	16322
904.274	16295
904.392	16181
904.51	16177
904.627	16249
904.745	16253
904.863	16253
904.981	16025
905.098	15785
905.216	15884
905.334	15831
905.451	15926
905.569	15724
905.686	15884
905.803	15785
905.921	15739
906.038	15724
906.155	15564
906.272	15485
906.389	15431
906.506	15378
906.623	15279
906.74	15416
906.857	15268
906.974	15272
907.091	15507
907.208	15523
907.324	15336
907.441	15150
907.557	15127
907.674	15036
907.79	15028
907.907	14899
908.023	15051
908.139	15013
908.256	15043
908.372	14868
908.488	14914
908.604	14724
908.72	14708
908.836	14754
908.952	14682
909.068	14773
909.184	14781
909.3	14689
909.415	14705
909.531	14739
909.647	14549
909.762	14480
909.878	14408
909.993	14404
910.108	14457
910.224	14450
910.339	14503
910.454	14419
910.57	14301
910.685	14214
910.8	14526
910.915	14412
911.03	14309
911.145	14161
911.259	14031
911.374	14100
911.489	13997
911.604	13913
911.718	13879
911.833	13811
911.947	13712
912.062	13601
912.176	13712
912.291	13864
912.405	13807
912.519	13947
912.633	14107
912.748	13913
912.862	13761
912.976	13689
913.09	13567
913.204	13559
913.318	13685
913.431	13753
913.545	13738
913.659	13670
913.772	13700
913.886	13514
914	13480
914.113	13578
914.226	13578
914.34	13586
914.453	13407
914.566	13514
914.68	13434
914.793	13464
914.906	13228
915.019	13160
915.132	13126
915.245	13133
915.358	13221
915.47	13247
915.583	13206
915.696	13289
915.809	13285
915.921	13293
916.034	13232
916.146	13004
916.259	13183
916.371	13244
916.483	13190
916.595	13122
916.708	13057
916.82	13107
916.932	13072
917.044	13103
917.156	13099
917.268	12966
917.38	13015
917.491	12829
917.603	12954
917.715	13084
917.826	13099
917.938	12951
918.049	12821
918.161	12833
918.272	13137
918.384	13042
918.495	12890
918.606	12787
918.717	12654
918.828	12646
918.939	12814
919.05	12673
919.161	12677
919.272	12555
919.383	12650
919.494	12677
919.604	12856
919.715	12665
919.826	12646
919.936	12684
920.047	12753
920.157	12730
920.267	12935
920.378	12608
920.488	12631
920.598	12837
920.708	12981
920.818	12825
920.928	12779
921.038	12954
921.148	12947
921.258	12741
921.368	12506
921.477	12566
921.587	12475
921.697	12327
921.806	12486
921.916	12414
922.025	12155
922.134	12095
922.244	12095
922.353	12239
922.462	11984
922.571	11935
922.68	11874
922.789	11718
922.898	11836
923.007	11760
923.116	11790
923.224	11737
923.333	11771
923.442	11695
923.55	11619
923.659	11672
923.767	11627
923.876	11573
923.984	11710
924.092	11551
924.201	11547
924.309	11490
924.417	11543
924.525	11433
924.633	11505
924.741	12232
924.849	11330
924.956	11387
925.064	11307
925.172	11254
925.279	11231
925.387	11277
925.494	11296
925.602	11391
925.709	11330
925.816	11170
925.924	11326
926.031	11353
926.138	11360
926.245	11303
926.352	11246
926.459	11303
926.566	11455
926.673	11231
926.779	11105
926.886	11109
926.993	10999
927.099	10923
927.206	10850
927.312	10961
927.419	11003
927.525	10942
927.631	10896
927.737	10839
927.843	10778
927.95	10771
928.056	10790
928.162	10672
928.267	10793
928.373	11387
928.479	10885
928.585	10622
928.69	10721
928.796	10812
928.901	10519
929.007	10512
929.112	10656
929.218	10634
929.323	10538
929.428	10535
929.533	10752
929.638	10432
929.743	10531
929.848	10592
929.953	10474
930.058	10386
930.163	10284
930.267	10253
930.372	10314
930.477	10253
930.581	10447
930.685	10280
930.79	10192
930.894	10185
930.998	10162
931.103	10310
931.207	9831
931.311	9827
931.415	9838
931.519	9545
931.623	9629
