Data from test_V78500241_607.txt Node
Date: Fri Mar 25 14:37:56 CST 2022
User: usil
Spectrometer: V785-0024
Trigger mode: 0
Integration Time (sec): 4.000000E-1
Scans to average: 1
Nonlinearity correction enabled: false
Boxcar width: 0
Storing dark spectrum: false
XAxis mode: Wavelengths
Number of Pixels in Spectrum: 1024
>>>>>Begin Spectral Data<<<<<
801.071	28101
801.214	27869
801.356	27671
801.499	27481
801.641	27348
801.783	27401
801.926	27454
802.068	27226
802.211	27291
802.353	27123
802.496	26948
802.638	26948
802.78	26948
802.923	26933
803.065	26663
803.208	26746
803.35	26811
803.492	26990
803.635	27096
803.777	27013
803.919	27032
804.061	27351
804.204	26872
804.346	27028
804.488	26990
804.63	27218
804.773	26998
804.915	27176
805.057	27252
805.199	27176
805.341	27382
805.483	27473
805.626	27447
805.768	27443
805.91	27485
806.052	27595
806.194	27618
806.336	27994
806.478	27953
806.62	28109
806.762	28409
806.904	28668
807.046	29041
807.188	29414
807.33	29429
807.472	29996
807.614	30395
807.756	30935
807.898	31810
808.04	32910
808.182	34261
808.324	36110
808.465	38244
808.607	40721
808.749	42703
808.891	43772
809.033	43970
809.174	42677
809.316	40576
809.458	38412
809.6	35942
809.741	33911
809.883	32602
810.025	31556
810.166	30859
810.308	30304
810.45	29657
810.591	29322
810.733	29048
810.875	28710
811.016	28318
811.158	28223
811.299	28177
811.441	28268
811.582	28093
811.724	27930
811.865	27884
812.007	27816
812.148	27667
812.29	27774
812.431	27846
812.573	27781
812.714	27800
812.855	28158
812.997	28010
813.138	28044
813.279	28070
813.421	27922
813.562	27728
813.703	27690
813.845	27526
813.986	27085
814.127	27013
814.268	26811
814.41	26811
814.551	26762
814.692	26849
814.833	26632
814.974	26587
815.115	26769
815.256	26564
815.397	26465
815.539	26385
815.68	26389
815.821	26240
815.962	26393
816.103	26229
816.244	26058
816.385	26016
816.526	26020
816.666	25849
816.807	25655
816.948	25628
817.089	25746
817.23	25647
817.371	25552
817.512	25681
817.653	25628
817.793	25563
817.934	25518
818.075	25620
818.216	25441
818.356	25499
818.497	25362
818.638	25247
818.778	25183
818.919	25331
819.06	25350
819.2	25407
819.341	25601
819.481	25525
819.622	25601
819.762	25757
819.903	25731
820.043	25594
820.184	25559
820.324	25601
820.465	25510
820.605	25525
820.746	25479
820.886	25346
821.026	25445
821.167	25479
821.307	25445
821.447	25289
821.588	25289
821.728	25175
821.868	25012
822.008	24776
822.149	24669
822.289	24623
822.429	24555
822.569	24391
822.709	24330
822.849	24285
822.99	24285
823.13	24232
823.27	24114
823.41	23965
823.55	23878
823.69	23961
823.83	23916
823.97	23988
824.11	23699
824.25	23680
824.389	23737
824.529	23718
824.669	23733
824.809	23847
824.949	23802
825.089	23707
825.228	23722
825.368	23429
825.508	23596
825.648	23558
825.787	23531
825.927	23570
826.067	23376
826.206	23486
826.346	23554
826.485	23490
826.625	23493
826.765	23501
826.904	23364
827.044	23220
827.183	23235
827.323	23098
827.462	23121
827.601	23105
827.741	23193
827.88	23143
828.02	23060
828.159	23178
828.298	23025
828.437	23018
828.577	23060
828.716	23223
828.855	23094
828.994	22850
829.134	22843
829.273	22809
829.412	22786
829.551	22698
829.69	22752
829.829	22755
829.968	22862
830.107	22820
830.246	22683
830.385	22725
830.524	22660
830.663	22664
830.802	22500
830.941	22322
831.08	22470
831.219	22489
831.357	22519
831.496	22584
831.635	22356
831.774	22375
831.913	22367
832.051	22295
832.19	22253
832.329	22211
832.467	22150
832.606	22135
832.744	22135
832.883	22177
833.022	22177
833.16	22295
833.299	22443
833.437	22413
833.576	22729
833.714	22634
833.852	22824
833.991	22900
834.129	23033
834.267	23003
834.406	22866
834.544	22991
834.682	22717
834.821	22641
834.959	22664
835.097	22500
835.235	22409
835.373	22356
835.511	22215
835.65	22105
835.788	22006
835.926	21979
836.064	21797
836.202	21728
836.34	21979
836.478	22139
836.615	21899
836.753	21789
836.891	22036
837.029	21873
837.167	21861
837.305	21857
837.443	21759
837.58	21709
837.718	21823
837.856	21709
837.993	21580
838.131	21606
838.269	21523
838.406	21526
838.544	21542
838.681	21332
838.819	21298
838.956	20994
839.094	21283
839.231	21161
839.369	21359
839.506	21595
839.643	21370
839.781	21081
839.918	21077
840.055	21173
840.193	21131
840.33	21009
840.467	21066
840.604	20994
840.742	21252
840.879	20823
841.016	21020
841.153	20925
841.29	21020
841.427	21138
841.564	21039
841.701	21043
841.838	20990
841.975	20982
842.112	20887
842.249	20743
842.385	20785
842.522	20941
842.659	20986
842.796	20849
842.933	20864
843.069	20910
843.206	20785
843.343	21005
843.479	20971
843.616	21013
843.752	20807
843.889	20731
844.025	20921
844.162	20868
844.298	21081
844.435	21039
844.571	21096
844.708	21393
844.844	21736
844.98	22040
845.117	22500
845.253	23159
845.389	24220
845.525	26587
845.661	30661
845.798	35535
845.934	39184
846.07	40694
846.206	39774
846.342	36654
846.478	31784
846.614	27656
846.75	24760
846.886	23143
847.022	22211
847.158	21504
847.294	21062
847.429	21039
847.565	20587
847.701	20689
847.837	20240
847.972	20081
848.108	20195
848.244	20031
848.379	19887
848.515	19871
848.65	19704
848.786	19818
848.921	19715
849.057	19822
849.192	19826
849.328	19784
849.463	19704
849.598	19613
849.734	19582
849.869	19609
850.004	19445
850.14	19415
850.275	19419
850.41	19236
850.545	19324
850.68	19400
850.815	19400
850.95	19320
851.085	19491
851.22	19559
851.355	19453
851.49	19392
851.625	19263
851.76	19236
851.895	19209
852.03	19255
852.165	19373
852.299	19441
852.434	19392
852.569	19392
852.703	19434
852.838	19597
852.973	19578
853.107	19453
853.242	19426
853.376	19354
853.511	19278
853.645	19282
853.78	19571
853.914	19540
854.048	19464
854.183	19365
854.317	19472
854.451	19685
854.585	19453
854.72	19552
854.854	19514
854.988	19236
855.122	19453
855.256	19232
855.39	19255
855.524	19350
855.658	19449
855.792	19343
855.926	19259
856.06	19247
856.194	19316
856.327	19259
856.461	19107
856.595	19202
856.729	19152
856.862	19278
856.996	19362
857.13	19175
857.263	19202
857.397	19316
857.53	19171
857.664	19179
857.797	19270
857.931	19270
858.064	19072
858.197	19236
858.331	19076
858.464	19046
858.597	18935
858.731	19046
858.864	19008
858.997	19126
859.13	19072
859.263	19069
859.396	19266
859.529	19015
859.662	19065
859.795	19031
859.928	18993
860.061	19206
860.194	19255
860.327	19004
860.46	19038
860.592	19080
860.725	19255
860.858	19095
860.99	19080
861.123	18875
861.256	18970
861.388	19023
861.521	19799
861.653	18951
861.786	18848
861.918	18852
862.05	18954
862.183	19103
862.315	19126
862.447	19088
862.58	19084
862.712	18776
862.844	18650
862.976	18779
863.108	18878
863.24	19099
863.372	18658
863.504	18760
863.636	18745
863.768	18730
863.9	18852
864.032	18669
864.164	18627
864.296	18658
864.428	18844
864.559	18814
864.691	18791
864.823	18753
864.954	18688
865.086	18741
865.217	18730
865.349	18490
865.48	18612
865.612	18707
865.743	18749
865.875	18665
866.006	18547
866.137	18563
866.269	18661
866.4	18646
866.531	18563
866.662	18570
866.793	18654
866.924	18532
867.055	18578
867.186	18574
867.317	18555
867.448	18414
867.579	18601
867.71	18426
867.841	18532
867.972	18566
868.103	18642
868.233	18673
868.364	18631
868.495	18574
868.625	18749
868.756	18875
868.886	18692
869.017	18878
869.147	18970
869.278	18882
869.408	18840
869.539	18802
869.669	18932
869.799	18954
869.929	19004
870.06	18935
870.19	19156
870.32	19266
870.45	19118
870.58	19304
870.71	19403
870.84	19453
870.97	19304
871.1	19392
871.23	19472
871.36	19540
871.489	19460
871.619	19384
871.749	19578
871.879	19544
872.008	19693
872.138	19616
872.267	19578
872.397	19453
872.526	19339
872.656	19491
872.785	19464
872.915	19624
873.044	19822
873.173	19590
873.303	19655
873.432	19616
873.561	19833
873.69	19662
873.819	19879
873.948	19917
874.077	19799
874.206	19765
874.335	19715
874.464	19898
874.593	20058
874.722	19963
874.851	20138
874.979	20362
875.108	20233
875.237	20214
875.365	20176
875.494	20218
875.623	20393
875.751	20396
875.88	20396
876.008	20545
876.136	20644
876.265	20910
876.393	21085
876.521	21013
876.65	21020
876.778	20990
876.906	20982
877.034	20929
877.162	21047
877.29	21081
877.418	21241
877.546	21249
877.674	21252
877.802	21424
877.93	21496
878.058	21603
878.185	21717
878.313	22040
878.441	22291
878.568	22348
878.696	22820
878.824	23429
878.951	24224
879.079	25285
879.206	26823
879.333	28249
879.461	29318
879.588	30247
879.715	30494
879.842	29615
879.97	28276
880.097	26800
880.224	25483
880.351	24597
880.478	24034
880.605	23668
880.732	23452
880.859	23391
880.986	23105
881.112	22961
881.239	22968
881.366	22752
881.493	22683
881.619	22596
881.746	22675
881.872	22649
881.999	22713
882.125	22710
882.252	22809
882.378	22729
882.505	22835
882.631	22752
882.757	22531
882.883	22599
883.01	22698
883.136	22592
883.262	22405
883.388	22432
883.514	22615
883.64	22630
883.766	22504
883.892	22249
884.018	22360
884.143	22478
884.269	22577
884.395	22257
884.52	22238
884.646	22287
884.772	22166
884.897	22238
885.023	22242
885.148	22253
885.274	22272
885.399	22261
885.524	22044
885.65	21994
885.775	21907
885.9	21831
886.025	21827
886.15	21774
886.275	21386
886.4	21313
886.525	21275
886.65	21001
886.775	21176
886.9	21150
887.025	21138
887.149	20895
887.274	20602
887.399	20587
887.523	20503
887.648	20431
887.773	20313
887.897	20454
888.021	20366
888.146	20320
888.27	20385
888.395	20256
888.519	20206
888.643	20157
888.767	20126
888.891	20012
889.015	19860
889.139	19959
889.263	19814
889.387	19932
889.511	19955
889.635	19864
889.759	19727
889.883	19537
890.006	19662
890.13	19700
890.254	19445
890.377	19529
890.501	19335
890.624	19331
890.748	19198
890.871	19213
890.995	19187
891.118	18962
891.241	19118
891.364	19141
891.488	19152
891.611	18996
891.734	19110
891.857	19141
891.98	19012
892.103	19027
892.226	18981
892.349	18837
892.471	18715
892.594	18772
892.717	18787
892.839	18726
892.962	18764
893.085	18738
893.207	18707
893.33	18551
893.452	18471
893.575	18711
893.697	18612
893.819	18757
893.941	18829
894.064	18764
894.186	18673
894.308	18441
894.43	18646
894.552	18703
894.674	18589
894.796	18410
894.918	18517
895.04	18490
895.161	18544
895.283	18433
895.405	18471
895.526	18502
895.648	18475
895.769	18506
895.891	18475
896.012	18544
896.134	18494
896.255	18418
896.376	18429
896.498	18486
896.619	18380
896.74	18471
896.861	18528
896.982	18719
897.103	18962
897.224	18582
897.345	18711
897.466	18521
897.587	18703
897.708	18802
897.828	18642
897.949	18585
898.07	18452
898.19	18559
898.311	18700
898.431	18608
898.552	18601
898.672	18661
898.792	18669
898.913	18661
899.033	18448
899.153	18471
899.273	18315
899.393	18422
899.513	18327
899.633	18357
899.753	18296
899.873	18338
899.993	18350
900.113	18338
900.232	18277
900.352	18346
900.472	18315
900.591	18159
900.711	18186
900.83	18133
900.95	18353
901.069	18369
901.189	18087
901.308	17923
901.427	17710
901.546	17775
901.665	17756
901.784	17821
901.904	17722
902.023	17528
902.141	17337
902.26	17280
902.379	17334
902.498	17166
902.617	17269
902.735	17216
902.854	17140
902.973	17045
903.091	16980
903.21	16801
903.328	16908
903.446	16725
903.565	16584
903.683	16748
903.801	16577
903.919	16531
904.038	16462
904.156	16417
904.274	16462
904.392	16489
904.51	16318
904.627	16493
904.745	16459
904.863	16318
904.981	16223
905.098	16147
905.216	16021
905.334	16017
905.451	16120
905.569	16013
905.686	16055
905.803	15991
905.921	15819
906.038	15876
906.155	15831
906.272	15698
906.389	15739
906.506	15652
906.623	15561
906.74	15595
906.857	15431
906.974	15458
907.091	15667
907.208	15641
907.324	15599
907.441	15481
907.557	15298
907.674	15226
907.79	15218
907.907	15233
908.023	15199
908.139	15306
908.256	15173
908.372	15142
908.488	15043
908.604	15020
908.72	14929
908.836	15028
908.952	15070
909.068	15058
909.184	15028
909.3	14941
909.415	14982
909.531	14960
909.647	14708
909.762	14625
909.878	14636
909.993	14739
910.108	14705
910.224	14682
910.339	14670
910.454	14522
910.57	14522
910.685	14343
910.8	14712
910.915	14636
911.03	14568
911.145	14362
911.259	14225
911.374	14301
911.489	14214
911.604	14149
911.718	14157
911.833	14008
911.947	13906
912.062	13795
912.176	14145
912.291	14031
912.405	14008
912.519	14229
912.633	14115
912.748	14077
912.862	14084
912.976	13883
913.09	13769
913.204	13890
913.318	13841
913.431	14084
913.545	14001
913.659	14054
913.772	13769
913.886	13814
914	13624
914.113	13795
914.226	13822
914.34	13837
914.453	13594
914.566	13788
914.68	13681
914.793	13666
914.906	13540
915.019	13464
915.132	13350
915.245	13362
915.358	13419
915.47	13327
915.583	13419
915.696	13460
915.809	13533
915.921	13578
916.034	13312
916.146	13400
916.259	13316
916.371	13480
916.483	13392
916.595	13339
916.708	13464
916.82	13358
916.932	13171
917.044	13221
917.156	13240
917.268	13179
917.38	13187
917.491	13160
917.603	13179
917.715	13179
917.826	13213
917.938	13095
918.049	12932
918.161	13080
918.272	13213
918.384	13206
918.495	13042
918.606	12981
918.717	12905
918.828	12977
918.939	12943
919.05	12757
919.161	12848
919.272	12738
919.383	12776
919.494	12890
919.604	13069
919.715	12947
919.826	12814
919.936	12776
920.047	12939
920.157	12829
920.267	12996
920.378	12905
920.488	12791
920.598	13000
920.708	13114
920.818	13012
920.928	13004
921.038	13107
921.148	13042
921.258	12814
921.368	12749
921.477	12639
921.587	12684
921.697	12403
921.806	12574
921.916	12426
922.025	12315
922.134	12239
922.244	12262
922.353	12243
922.462	12201
922.571	12045
922.68	12072
922.789	11950
922.898	11969
923.007	11824
923.116	11912
923.224	11942
923.333	11901
923.442	11752
923.55	11707
923.659	11745
923.767	11786
923.876	11707
923.984	11847
924.092	11589
924.201	11710
924.309	11748
924.417	11748
924.525	11756
924.633	11638
924.741	12445
924.849	11421
924.956	11570
925.064	11417
925.172	11292
925.279	11372
925.387	11471
925.494	11520
925.602	11547
925.709	11436
925.816	11330
925.924	11341
926.031	11467
926.138	11414
926.245	11433
926.352	11406
926.459	11444
926.566	11395
926.673	11322
926.779	11151
926.886	11254
926.993	11109
927.099	11117
927.206	10995
927.312	10946
927.419	11105
927.525	11025
927.631	11105
927.737	10923
927.843	10889
927.95	10782
928.056	10930
928.162	10911
928.267	10942
928.373	11410
928.479	10942
928.585	10744
928.69	10854
928.796	10847
928.901	10835
929.007	10763
929.112	10755
929.218	10744
929.323	10733
929.428	10596
929.533	10809
929.638	10584
929.743	10653
929.848	10672
929.953	10679
930.058	10500
930.163	10386
930.267	10394
930.372	10493
930.477	10367
930.581	10538
930.685	10485
930.79	10284
930.894	10310
930.998	10295
931.103	10382
931.207	10048
931.311	9968
931.415	9915
931.519	9743
931.623	9713
