Data from test_V78500241_1447.txt Node
Date: Fri Mar 25 14:43:47 CST 2022
User: usil
Spectrometer: V785-0024
Trigger mode: 0
Integration Time (sec): 4.000000E-1
Scans to average: 1
Nonlinearity correction enabled: false
Boxcar width: 0
Storing dark spectrum: false
XAxis mode: Wavelengths
Number of Pixels in Spectrum: 1024
>>>>>Begin Spectral Data<<<<<
801.071	22542
801.214	22318
801.356	22093
801.499	21972
801.641	21812
801.783	21888
801.926	21861
802.068	21755
802.211	21656
802.353	21583
802.496	21454
802.638	21256
802.78	21321
802.923	21218
803.065	21043
803.208	21089
803.35	21138
803.492	21252
803.635	21298
803.777	21150
803.919	21340
804.061	21599
804.204	21268
804.346	21085
804.488	21066
804.63	21077
804.773	21001
804.915	21085
805.057	21199
805.199	21089
805.341	21226
805.483	21363
805.626	21127
805.768	21058
805.91	20975
806.052	21100
806.194	20986
806.336	21096
806.478	21051
806.62	21028
806.762	21013
806.904	21165
807.046	21492
807.188	21576
807.33	21408
807.472	21564
807.614	21462
807.756	21477
807.898	21329
808.04	21374
808.182	21180
808.324	21302
808.465	21370
808.607	21603
808.749	21705
808.891	21789
809.033	21781
809.174	21793
809.316	21705
809.458	21656
809.6	21412
809.741	21625
809.883	21614
810.025	21644
810.166	21728
810.308	21713
810.45	21599
810.591	21648
810.733	21355
810.875	21207
811.016	21199
811.158	21123
811.299	21401
811.441	21382
811.582	21416
811.724	21207
811.865	21199
812.007	21256
812.148	21272
812.29	21241
812.431	21405
812.573	21576
812.714	21641
812.855	21690
812.997	21892
813.138	21994
813.279	21831
813.421	21781
813.562	21690
813.703	21576
813.845	21431
813.986	21165
814.127	20979
814.268	20811
814.41	20845
814.551	20819
814.692	20914
814.833	20762
814.974	20773
815.115	20853
815.256	20712
815.397	20659
815.539	20579
815.68	20541
815.821	20450
815.962	20579
816.103	20632
816.244	20427
816.385	20358
816.526	20263
816.666	20119
816.807	19898
816.948	20077
817.089	20001
817.23	20050
817.371	19913
817.512	19970
817.653	19940
817.793	19951
817.934	19959
818.075	19932
818.216	19902
818.356	19982
818.497	19750
818.638	19632
818.778	19647
818.919	19643
819.06	19666
819.2	19590
819.341	19761
819.481	19833
819.622	19955
819.762	20153
819.903	20134
820.043	19856
820.184	19883
820.324	19833
820.465	19909
820.605	19868
820.746	19875
820.886	19776
821.026	19864
821.167	19890
821.307	19902
821.447	19925
821.588	19765
821.728	19708
821.868	19495
822.008	19384
822.149	19411
822.289	19304
822.429	19080
822.569	19069
822.709	19008
822.849	18878
822.99	18810
823.13	18795
823.27	18669
823.41	18635
823.55	18517
823.69	18585
823.83	18661
823.97	18616
824.11	18380
824.25	18403
824.389	18384
824.529	18429
824.669	18483
824.809	18566
824.949	18525
825.089	18551
825.228	18437
825.368	18144
825.508	18194
825.648	18178
825.787	18239
825.927	18254
826.067	18091
826.206	18152
826.346	18216
826.485	18296
826.625	18216
826.765	18338
826.904	18232
827.044	17984
827.183	17878
827.323	17855
827.462	17973
827.601	17859
827.741	18026
827.88	17748
828.02	17661
828.159	17836
828.298	17794
828.437	17935
828.577	17813
828.716	17935
828.855	17863
828.994	17729
829.134	17627
829.273	17676
829.412	17581
829.551	17623
829.69	17524
829.829	17627
829.968	17775
830.107	17726
830.246	17649
830.385	17539
830.524	17543
830.663	17486
830.802	17239
830.941	17197
831.08	17227
831.219	17299
831.357	17303
831.496	17398
831.635	17185
831.774	17117
831.913	17246
832.051	16987
832.19	16999
832.329	17056
832.467	16927
832.606	16793
832.744	16854
832.883	16957
833.022	16896
833.16	16961
833.299	16984
833.437	16946
833.576	17045
833.714	16919
833.852	16991
833.991	17064
834.129	17075
834.267	17083
834.406	17041
834.544	16991
834.682	17022
834.821	16980
834.959	17147
835.097	16873
835.235	17041
835.373	16889
835.511	16946
835.65	16904
835.788	16976
835.926	16653
836.064	16668
836.202	16694
836.34	16812
836.478	17025
836.615	16763
836.753	16820
836.891	17022
837.029	16949
837.167	16812
837.305	16736
837.443	16736
837.58	16634
837.718	16771
837.856	16717
837.993	16698
838.131	16736
838.269	16626
838.406	16675
838.544	16573
838.681	16325
838.819	16363
838.956	16234
839.094	16257
839.231	16253
839.369	16424
839.506	16542
839.643	16451
839.781	16314
839.918	16200
840.055	16295
840.193	16284
840.33	16230
840.467	16272
840.604	16314
840.742	16565
840.879	16139
841.016	16131
841.153	16150
841.29	16470
841.427	16318
841.564	16280
841.701	16333
841.838	16253
841.975	16120
842.112	16219
842.249	16029
842.385	16051
842.522	16204
842.659	16093
842.796	16025
842.933	16002
843.069	16013
843.206	15941
843.343	16162
843.479	16055
843.616	15991
843.752	15831
843.889	15842
844.025	15975
844.162	15861
844.298	15781
844.435	15838
844.571	15739
844.708	15968
844.844	15937
844.98	15945
845.117	15903
845.253	15819
845.389	15747
845.525	15861
845.661	15835
845.798	15819
845.934	15975
846.07	15888
846.206	15975
846.342	16032
846.478	15808
846.614	15587
846.75	15500
846.886	15393
847.022	15549
847.158	15416
847.294	15435
847.429	15500
847.565	15382
847.701	15606
847.837	15116
847.972	15062
848.108	15237
848.244	15279
848.379	15036
848.515	14956
848.65	15024
848.786	14986
848.921	14956
849.057	15176
849.192	15074
849.328	15001
849.463	15093
849.598	14891
849.734	14895
849.869	14853
850.004	14842
850.14	14792
850.275	14735
850.41	14697
850.545	14731
850.68	14655
850.815	14769
850.95	14689
851.085	14956
851.22	14823
851.355	14705
851.49	14743
851.625	14792
851.76	14758
851.895	14674
852.03	14659
852.165	14640
852.299	14743
852.434	14807
852.569	14750
852.703	14705
852.838	14777
852.973	14830
853.107	14842
853.242	14629
853.376	14587
853.511	14602
853.645	14613
853.78	14731
853.914	14636
854.048	14667
854.183	14682
854.317	14651
854.451	14773
854.585	14644
854.72	14594
854.854	14606
854.988	14514
855.122	14632
855.256	14408
855.39	14655
855.524	14625
855.658	14670
855.792	14632
855.926	14598
856.06	14758
856.194	14762
856.327	14678
856.461	14564
856.595	14545
856.729	14632
856.862	14792
856.996	14644
857.13	14712
857.263	14739
857.397	14754
857.53	14716
857.664	14697
857.797	14579
857.931	14769
858.064	14598
858.197	14727
858.331	14575
858.464	14594
858.597	14454
858.731	14621
858.864	14587
858.997	14545
859.13	14629
859.263	14689
859.396	14705
859.529	14560
859.662	14511
859.795	14606
859.928	14590
860.061	14712
860.194	14853
860.327	14678
860.46	14556
860.592	14610
860.725	14807
860.858	14788
860.99	14606
861.123	14560
861.256	14526
861.388	14655
861.521	15344
861.653	14412
861.786	14442
861.918	14423
862.05	14625
862.183	14545
862.315	14602
862.447	14640
862.58	14442
862.712	14492
862.844	14328
862.976	14511
863.108	14537
863.24	14826
863.372	14237
863.504	14389
863.636	14347
863.768	14469
863.9	14431
864.032	14377
864.164	14393
864.296	14454
864.428	14431
864.559	14518
864.691	14499
864.823	14526
864.954	14461
865.086	14450
865.217	14366
865.349	14214
865.48	14309
865.612	14442
865.743	14488
865.875	14347
866.006	14438
866.137	14381
866.269	14362
866.4	14362
866.531	14366
866.662	14309
866.793	14328
866.924	14366
867.055	14404
867.186	14252
867.317	14317
867.448	14252
867.579	14290
867.71	14240
867.841	14298
867.972	14404
868.103	14415
868.233	14389
868.364	14358
868.495	14389
868.625	14568
868.756	14682
868.886	14476
869.017	14678
869.147	14716
869.278	14727
869.408	14629
869.539	14655
869.669	14754
869.799	14765
869.929	14800
870.06	14720
870.19	14880
870.32	14906
870.45	14941
870.58	15005
870.71	15169
870.84	14998
870.97	15036
871.1	14982
871.23	15123
871.36	15203
871.489	14998
871.619	15089
871.749	15256
871.879	15294
872.008	15291
872.138	15195
872.267	15127
872.397	15036
872.526	15005
872.656	15108
872.785	15058
872.915	15336
873.044	15237
873.173	15184
873.303	15272
873.432	15252
873.561	15275
873.69	15237
873.819	15279
873.948	15252
874.077	15264
874.206	15226
874.335	15351
874.464	15367
874.593	15622
874.722	15515
874.851	15667
874.979	15660
875.108	15694
875.237	15564
875.365	15462
875.494	15553
875.623	15705
875.751	15538
875.88	15663
876.008	15755
876.136	15739
876.265	15911
876.393	16154
876.521	15964
876.65	16006
876.778	15994
876.906	15987
877.034	15991
877.162	15945
877.29	15846
877.418	15907
877.546	16090
877.674	16059
877.802	15994
877.93	16002
878.058	15953
878.185	15926
878.313	16090
878.441	16040
878.568	15895
878.696	15953
878.824	15945
878.951	16048
879.079	16211
879.206	16436
879.333	16306
879.461	16196
879.588	16230
879.715	16173
879.842	16379
879.97	16074
880.097	15873
880.224	15854
880.351	15892
880.478	15789
880.605	15823
880.732	15873
880.859	16112
880.986	15804
881.112	15983
881.239	15675
881.366	15709
881.493	15431
881.619	15587
881.746	15591
881.872	15545
881.999	15485
882.125	15576
882.252	15576
882.378	15519
882.505	15652
882.631	15500
882.757	15291
882.883	15443
883.01	15367
883.136	15249
883.262	15180
883.388	15180
883.514	15340
883.64	15378
883.766	15351
883.892	15154
884.018	15272
884.143	15252
884.269	15412
884.395	15097
884.52	15074
884.646	15074
884.772	15020
884.897	14948
885.023	15043
885.148	15180
885.274	15176
885.399	15135
885.524	15074
885.65	15074
885.775	15009
885.9	14982
886.025	15142
886.15	15146
886.275	15127
886.4	14880
886.525	14990
886.65	14891
886.775	14975
886.9	15203
887.025	15313
887.149	14948
887.274	14933
887.399	14842
887.523	14785
887.648	14720
887.773	14785
887.897	15017
888.021	14910
888.146	14815
888.27	14918
888.395	14929
888.519	14937
888.643	14883
888.767	14967
888.891	14781
889.015	14636
889.139	14792
889.263	14682
889.387	14826
889.511	14899
889.635	14731
889.759	14617
889.883	14678
890.006	14762
890.13	14823
890.254	14621
890.377	14670
890.501	14457
890.624	14530
890.748	14556
890.871	14396
890.995	14320
891.118	14320
891.241	14404
891.364	14393
891.488	14537
891.611	14377
891.734	14339
891.857	14438
891.98	14415
892.103	14457
892.226	14423
892.349	14362
892.471	14290
892.594	14377
892.717	14461
892.839	14286
892.962	14362
893.085	14507
893.207	14404
893.33	14271
893.452	14305
893.575	14427
893.697	14393
893.819	14507
893.941	14545
894.064	14556
894.186	14362
894.308	14263
894.43	14438
894.552	14568
894.674	14533
894.796	14336
894.918	14396
895.04	14381
895.161	14541
895.283	14503
895.405	14404
895.526	14503
895.648	14587
895.769	14511
895.891	14583
896.012	14621
896.134	14545
896.255	14564
896.376	14526
896.498	14530
896.619	14560
896.74	14541
896.861	14568
896.982	14899
897.103	15100
897.224	14868
897.345	14781
897.466	14724
897.587	14804
897.708	14826
897.828	14819
897.949	14838
898.07	14667
898.19	14804
898.311	15039
898.431	14826
898.552	14982
898.672	14925
898.792	14975
898.913	14960
899.033	14857
899.153	14777
899.273	14617
899.393	14731
899.513	14621
899.633	14754
899.753	14750
899.873	14701
899.993	14697
900.113	14701
900.232	14826
900.352	14613
900.472	14659
900.591	14659
900.711	14606
900.83	14667
900.95	14705
901.069	14815
901.189	14625
901.308	14263
901.427	14328
901.546	14191
901.665	14389
901.784	14244
901.904	14145
902.023	14058
902.141	13921
902.26	13974
902.379	13955
902.498	13761
902.617	13784
902.735	13913
902.854	13826
902.973	13788
903.091	13582
903.21	13590
903.328	13613
903.446	13491
903.565	13422
903.683	13400
903.801	13339
903.919	13365
904.038	13312
904.156	13278
904.274	13331
904.392	13266
904.51	13221
904.627	13190
904.745	13293
904.863	13278
904.981	13057
905.098	12856
905.216	12840
905.334	12993
905.451	12970
905.569	12882
905.686	12951
905.803	12890
905.921	12749
906.038	12825
906.155	12722
906.272	12604
906.389	12688
906.506	12418
906.623	12547
906.74	12544
906.857	12296
906.974	12410
907.091	12585
907.208	12642
907.324	12555
907.441	12399
907.557	12243
907.674	12251
907.79	12079
907.907	12182
908.023	12159
908.139	12194
908.256	12304
908.372	12144
908.488	12136
908.604	12011
908.72	11931
908.836	11992
908.952	11901
909.068	12022
909.184	12076
909.3	11912
909.415	12026
909.531	11996
909.647	11779
909.762	11821
909.878	11748
909.993	11756
910.108	11748
910.224	11722
910.339	11805
910.454	11638
910.57	11592
910.685	11512
910.8	11859
910.915	11775
911.03	11634
911.145	11505
911.259	11524
911.374	11497
911.489	11387
911.604	11341
911.718	11208
911.833	11220
911.947	11121
912.062	11033
912.176	11181
912.291	11204
912.405	11132
912.519	11387
912.633	11353
912.748	11204
912.862	11280
912.976	11086
913.09	10938
913.204	10976
913.318	11090
913.431	11208
913.545	11227
913.659	11204
913.772	11067
913.886	10934
914	10930
914.113	11060
914.226	11094
914.34	11075
914.453	10900
914.566	10984
914.68	10911
914.793	10869
914.906	10664
915.019	10740
915.132	10630
915.245	10607
915.358	10752
915.47	10664
915.583	10752
915.696	10755
915.809	10828
915.921	10866
916.034	10714
916.146	10744
916.259	10603
916.371	10717
916.483	10641
916.595	10527
916.708	10672
916.82	10607
916.932	10577
917.044	10554
917.156	10622
917.268	10470
917.38	10584
917.491	10527
917.603	10481
917.715	10584
917.826	10592
917.938	10462
918.049	10436
918.161	10516
918.272	10668
918.384	10668
918.495	10596
918.606	10337
918.717	10287
918.828	10455
918.939	10402
919.05	10280
919.161	10398
919.272	10177
919.383	10272
919.494	10462
919.604	10641
919.715	10459
919.826	10314
919.936	10367
920.047	10443
920.157	10459
920.267	10626
920.378	10474
920.488	10390
920.598	10584
920.708	10729
920.818	10504
920.928	10577
921.038	10820
921.148	10729
921.258	10462
921.368	10398
921.477	10295
921.587	10234
921.697	10131
921.806	10234
921.916	10188
922.025	9991
922.134	9876
922.244	9911
922.353	9968
922.462	9857
922.571	9793
922.68	9618
922.789	9660
922.898	9614
923.007	9530
923.116	9595
923.224	9618
923.333	9629
923.442	9564
923.55	9511
923.659	9580
923.767	9587
923.876	9507
923.984	9606
924.092	9496
924.201	9507
924.309	9477
924.417	9504
924.525	9469
924.633	9519
924.741	10436
924.849	9291
924.956	9477
925.064	9241
925.172	9211
925.279	9180
925.387	9310
925.494	9260
925.602	9370
925.709	9367
925.816	9249
925.924	9302
926.031	9329
926.138	9367
926.245	9374
926.352	9146
926.459	9405
926.566	9389
926.673	9279
926.779	9154
926.886	9154
926.993	9081
927.099	9001
927.206	8952
927.312	8941
927.419	9005
927.525	8960
927.631	9055
927.737	8887
927.843	8876
927.95	8838
928.056	8899
928.162	8933
928.267	8941
928.373	9591
928.479	8990
928.585	8766
928.69	8925
928.796	8975
928.901	8845
929.007	8648
929.112	8804
929.218	8785
929.323	8739
929.428	8655
929.533	8887
929.638	8651
929.743	8655
929.848	8735
929.953	8686
930.058	8648
930.163	8484
930.267	8469
930.372	8640
930.477	8431
930.581	8686
930.685	8575
930.79	8419
930.894	8488
930.998	8415
931.103	8571
931.207	8229
931.311	8134
931.415	8062
931.519	7890
931.623	7917
