Data from test_V78500241_1461.txt Node
Date: Fri Mar 25 14:43:53 CST 2022
User: usil
Spectrometer: V785-0024
Trigger mode: 0
Integration Time (sec): 4.000000E-1
Scans to average: 1
Nonlinearity correction enabled: false
Boxcar width: 0
Storing dark spectrum: false
XAxis mode: Wavelengths
Number of Pixels in Spectrum: 1024
>>>>>Begin Spectral Data<<<<<
801.071	22413
801.214	22325
801.356	22158
801.499	22078
801.641	21861
801.783	21869
801.926	21873
802.068	21819
802.211	21759
802.353	21618
802.496	21458
802.638	21287
802.78	21237
802.923	21245
803.065	21085
803.208	20998
803.35	21089
803.492	21184
803.635	21329
803.777	21085
803.919	21192
804.061	21443
804.204	21093
804.346	21081
804.488	20914
804.63	21112
804.773	21100
804.915	21123
805.057	21245
805.199	21024
805.341	21154
805.483	21176
805.626	21176
805.768	20986
805.91	21184
806.052	21001
806.194	20861
806.336	21249
806.478	21142
806.62	20986
806.762	21157
806.904	21180
807.046	21530
807.188	21310
807.33	21488
807.472	21313
807.614	21389
807.756	21473
807.898	21348
808.04	21230
808.182	21207
808.324	21226
808.465	21428
808.607	21656
808.749	21614
808.891	21762
809.033	21865
809.174	21842
809.316	21572
809.458	21728
809.6	21633
809.741	21625
809.883	21622
810.025	21717
810.166	21644
810.308	21793
810.45	21595
810.591	21526
810.733	21473
810.875	21176
811.016	21085
811.158	21180
811.299	21291
811.441	21416
811.582	21473
811.724	21294
811.865	21188
812.007	21325
812.148	21359
812.29	21218
812.431	21450
812.573	21450
812.714	21633
812.855	21713
812.997	21953
813.138	21964
813.279	21907
813.421	21755
813.562	21622
813.703	21587
813.845	21374
813.986	21287
814.127	21074
814.268	20872
814.41	20941
814.551	20819
814.692	20918
814.833	20788
814.974	20583
815.115	20815
815.256	20743
815.397	20606
815.539	20674
815.68	20541
815.821	20526
815.962	20613
816.103	20522
816.244	20347
816.385	20275
816.526	20320
816.666	20210
816.807	19932
816.948	20100
817.089	20100
817.23	20058
817.371	19917
817.512	19944
817.653	19951
817.793	19852
817.934	20016
818.075	19951
818.216	19909
818.356	19807
818.497	19757
818.638	19662
818.778	19662
818.919	19597
819.06	19616
819.2	19761
819.341	19700
819.481	19959
819.622	19928
819.762	20054
819.903	20012
820.043	19898
820.184	19925
820.324	19803
820.465	19936
820.605	19963
820.746	19982
820.886	19761
821.026	19951
821.167	19807
821.307	19989
821.447	19791
821.588	19852
821.728	19693
821.868	19483
822.008	19274
822.149	19221
822.289	19270
822.429	19095
822.569	18966
822.709	19008
822.849	18776
822.99	18757
823.13	18848
823.27	18654
823.41	18692
823.55	18566
823.69	18642
823.83	18631
823.97	18506
824.11	18384
824.25	18327
824.389	18445
824.529	18395
824.669	18350
824.809	18585
824.949	18372
825.089	18452
825.228	18365
825.368	18254
825.508	18205
825.648	18209
825.787	18319
825.927	18140
826.067	18155
826.206	18030
826.346	18148
826.485	18213
826.625	18133
826.765	18163
826.904	18262
827.044	17916
827.183	17950
827.323	17923
827.462	17923
827.601	17870
827.741	17843
827.88	17961
828.02	17760
828.159	17847
828.298	17893
828.437	17783
828.577	17786
828.716	18087
828.855	17680
828.994	17600
829.134	17474
829.273	17630
829.412	17630
829.551	17505
829.69	17581
829.829	17642
829.968	17707
830.107	17653
830.246	17630
830.385	17558
830.524	17497
830.663	17406
830.802	17337
830.941	17159
831.08	17178
831.219	17288
831.357	17273
831.496	17421
831.635	17223
831.774	17178
831.913	17067
832.051	16995
832.19	16919
832.329	17014
832.467	16946
832.606	16892
832.744	16866
832.883	16866
833.022	16957
833.16	16934
833.299	16972
833.437	17098
833.576	16972
833.714	17010
833.852	16896
833.991	16873
834.129	16957
834.267	16923
834.406	16850
834.544	17052
834.682	17029
834.821	16885
834.959	17060
835.097	16965
835.235	17010
835.373	16999
835.511	17033
835.65	16850
835.788	16961
835.926	16672
836.064	16611
836.202	16668
836.34	16980
836.478	16885
836.615	16797
836.753	16759
836.891	16908
837.029	16873
837.167	16858
837.305	16717
837.443	16729
837.58	16702
837.718	16759
837.856	16850
837.993	16694
838.131	16771
838.269	16596
838.406	16584
838.544	16474
838.681	16379
838.819	16436
838.956	16303
839.094	16162
839.231	16211
839.369	16432
839.506	16641
839.643	16527
839.781	16249
839.918	16192
840.055	16287
840.193	16314
840.33	16196
840.467	16093
840.604	16230
840.742	16455
840.879	16036
841.016	16105
841.153	16150
841.29	16394
841.427	16325
841.564	16246
841.701	16249
841.838	16238
841.975	16074
842.112	16219
842.249	15972
842.385	15994
842.522	16196
842.659	16101
842.796	15979
842.933	16101
843.069	15983
843.206	16025
843.343	16059
843.479	16017
843.616	16044
843.752	15808
843.889	15827
844.025	15873
844.162	15641
844.298	15911
844.435	15831
844.571	15781
844.708	15922
844.844	15911
844.98	15934
845.117	15964
845.253	15732
845.389	15766
845.525	15838
845.661	15869
845.798	15854
845.934	15956
846.07	15850
846.206	15873
846.342	15895
846.478	15835
846.614	15622
846.75	15454
846.886	15412
847.022	15542
847.158	15348
847.294	15389
847.429	15450
847.565	15431
847.701	15553
847.837	15116
847.972	15097
848.108	15222
848.244	15135
848.379	14941
848.515	15024
848.65	14925
848.786	14944
848.921	14998
849.057	15055
849.192	15001
849.328	15043
849.463	14956
849.598	14975
849.734	14872
849.869	14880
850.004	14743
850.14	14796
850.275	14735
850.41	14610
850.545	14663
850.68	14693
850.815	14724
850.95	14765
851.085	14899
851.22	14773
851.355	14777
851.49	14667
851.625	14613
851.76	14811
851.895	14610
852.03	14613
852.165	14777
852.299	14765
852.434	14754
852.569	14788
852.703	14712
852.838	14773
852.973	14914
853.107	14834
853.242	14819
853.376	14705
853.511	14499
853.645	14511
853.78	14754
853.914	14575
854.048	14552
854.183	14613
854.317	14670
854.451	14678
854.585	14629
854.72	14648
854.854	14640
854.988	14530
855.122	14610
855.256	14537
855.39	14575
855.524	14606
855.658	14648
855.792	14606
855.926	14686
856.06	14556
856.194	14663
856.327	14575
856.461	14530
856.595	14549
856.729	14564
856.862	14708
856.996	14629
857.13	14686
857.263	14750
857.397	14727
857.53	14613
857.664	14716
857.797	14682
857.931	14678
858.064	14731
858.197	14735
858.331	14640
858.464	14629
858.597	14484
858.731	14670
858.864	14594
858.997	14613
859.13	14560
859.263	14670
859.396	14625
859.529	14499
859.662	14621
859.795	14659
859.928	14640
860.061	14788
860.194	14724
860.327	14667
860.46	14518
860.592	14682
860.725	14716
860.858	14686
860.99	14659
861.123	14526
861.256	14583
861.388	14575
861.521	15291
861.653	14404
861.786	14488
861.918	14381
862.05	14545
862.183	14594
862.315	14606
862.447	14693
862.58	14533
862.712	14343
862.844	14313
862.976	14499
863.108	14400
863.24	14880
863.372	14248
863.504	14442
863.636	14347
863.768	14450
863.9	14393
864.032	14275
864.164	14396
864.296	14446
864.428	14454
864.559	14530
864.691	14461
864.823	14355
864.954	14412
865.086	14355
865.217	14336
865.349	14332
865.48	14358
865.612	14343
865.743	14461
865.875	14438
866.006	14438
866.137	14400
866.269	14358
866.4	14358
866.531	14290
866.662	14263
866.793	14248
866.924	14301
867.055	14377
867.186	14431
867.317	14366
867.448	14168
867.579	14259
867.71	14294
867.841	14294
867.972	14400
868.103	14301
868.233	14343
868.364	14381
868.495	14343
868.625	14594
868.756	14644
868.886	14526
869.017	14648
869.147	14564
869.278	14625
869.408	14613
869.539	14705
869.669	14731
869.799	14667
869.929	14746
870.06	14743
870.19	14899
870.32	14864
870.45	14960
870.58	14963
870.71	15036
870.84	15104
870.97	15009
871.1	15051
871.23	15226
871.36	15173
871.489	15097
871.619	15211
871.749	15214
871.879	15294
872.008	15233
872.138	15249
872.267	15161
872.397	14971
872.526	14998
872.656	15074
872.785	14960
872.915	15264
873.044	15283
873.173	15211
873.303	15340
873.432	15264
873.561	15340
873.69	15310
873.819	15256
873.948	15348
874.077	15176
874.206	15211
874.335	15260
874.464	15458
874.593	15568
874.722	15519
874.851	15466
874.979	15580
875.108	15599
875.237	15485
875.365	15572
875.494	15542
875.623	15698
875.751	15534
875.88	15561
876.008	15701
876.136	15770
876.265	16036
876.393	16101
876.521	15964
876.65	15926
876.778	15968
876.906	15831
877.034	15880
877.162	16013
877.29	15915
877.418	15895
877.546	16067
877.674	15960
877.802	15926
877.93	15968
878.058	15903
878.185	15895
878.313	15945
878.441	15964
878.568	15865
878.696	15903
878.824	16055
878.951	16044
879.079	16162
879.206	16337
879.333	16261
879.461	16036
879.588	16249
879.715	16276
879.842	16375
879.97	16284
880.097	15937
880.224	15846
880.351	15804
880.478	15876
880.605	15808
880.732	15857
880.859	16112
880.986	15819
881.112	15903
881.239	15751
881.366	15603
881.493	15568
881.619	15466
881.746	15412
881.872	15549
881.999	15431
882.125	15466
882.252	15595
882.378	15549
882.505	15667
882.631	15450
882.757	15294
882.883	15481
883.01	15237
883.136	15279
883.262	15256
883.388	15195
883.514	15279
883.64	15401
883.766	15348
883.892	15112
884.018	15184
884.143	15340
884.269	15405
884.395	15055
884.52	15017
884.646	15028
884.772	14902
884.897	14971
885.023	15066
885.148	15066
885.274	15237
885.399	15028
885.524	14979
885.65	15013
885.775	14994
885.9	15024
886.025	15051
886.15	15154
886.275	14925
886.4	14853
886.525	14998
886.65	15043
886.775	15005
886.9	15097
887.025	15192
887.149	14994
887.274	14887
887.399	14834
887.523	14796
887.648	14754
887.773	14777
887.897	14815
888.021	14872
888.146	14796
888.27	14971
888.395	14933
888.519	14921
888.643	14883
888.767	14895
888.891	14754
889.015	14731
889.139	14716
889.263	14670
889.387	14754
889.511	14906
889.635	14815
889.759	14777
889.883	14735
890.006	14716
890.13	14830
890.254	14613
890.377	14651
890.501	14404
890.624	14530
890.748	14579
890.871	14370
890.995	14339
891.118	14317
891.241	14412
891.364	14343
891.488	14511
891.611	14313
891.734	14366
891.857	14389
891.98	14374
892.103	14518
892.226	14522
892.349	14366
892.471	14233
892.594	14313
892.717	14419
892.839	14339
892.962	14286
893.085	14393
893.207	14415
893.33	14328
893.452	14259
893.575	14362
893.697	14389
893.819	14511
893.941	14613
894.064	14549
894.186	14412
894.308	14336
894.43	14427
894.552	14590
894.674	14556
894.796	14362
894.918	14419
895.04	14404
895.161	14518
895.283	14522
895.405	14442
895.526	14442
895.648	14457
895.769	14499
895.891	14488
896.012	14583
896.134	14530
896.255	14454
896.376	14495
896.498	14583
896.619	14583
896.74	14568
896.861	14613
896.982	14891
897.103	15001
897.224	14800
897.345	14785
897.466	14682
897.587	14785
897.708	14876
897.828	14792
897.949	14693
898.07	14674
898.19	14750
898.311	14891
898.431	14781
898.552	14899
898.672	14975
898.792	14963
898.913	14933
899.033	14796
899.153	14792
899.273	14651
899.393	14758
899.513	14773
899.633	14648
899.753	14743
899.873	14701
899.993	14910
900.113	14746
900.232	14735
900.352	14670
900.472	14575
900.591	14560
900.711	14670
900.83	14552
900.95	14708
901.069	14739
901.189	14522
901.308	14343
901.427	14149
901.546	14210
901.665	14168
901.784	14267
901.904	14077
902.023	14119
902.141	13811
902.26	13860
902.379	13917
902.498	13879
902.617	13708
902.735	13883
902.854	13902
902.973	13856
903.091	13499
903.21	13590
903.328	13540
903.446	13540
903.565	13407
903.683	13430
903.801	13278
903.919	13480
904.038	13274
904.156	13160
904.274	13369
904.392	13259
904.51	13263
904.627	13133
904.745	13221
904.863	13263
904.981	13069
905.098	12981
905.216	12871
905.334	12939
905.451	12894
905.569	12867
905.686	12947
905.803	12859
905.921	12772
906.038	12806
906.155	12741
906.272	12700
906.389	12669
906.506	12513
906.623	12570
906.74	12456
906.857	12334
906.974	12399
907.091	12570
907.208	12623
907.324	12506
907.441	12380
907.557	12228
907.674	12243
907.79	12148
907.907	12136
908.023	12216
908.139	12194
908.256	12197
908.372	12136
908.488	12110
908.604	11939
908.72	11916
908.836	11912
908.952	11840
909.068	12015
909.184	12167
909.3	12007
909.415	12045
909.531	12015
909.647	11760
909.762	11729
909.878	11752
909.993	11798
910.108	11649
910.224	11775
910.339	11767
910.454	11619
910.57	11627
910.685	11478
910.8	11821
910.915	11741
911.03	11653
911.145	11471
911.259	11478
911.374	11471
911.489	11429
911.604	11376
911.718	11246
911.833	11284
911.947	11117
912.062	11018
912.176	11178
912.291	11242
912.405	11220
912.519	11478
912.633	11444
912.748	11254
912.862	11235
912.976	11064
913.09	11018
913.204	11029
913.318	11098
913.431	11159
913.545	11181
913.659	11239
913.772	11128
913.886	10949
914	10911
914.113	11086
914.226	11208
914.34	11056
914.453	11006
914.566	10984
914.68	10946
914.793	10980
914.906	10736
915.019	10721
915.132	10683
915.245	10729
915.358	10714
915.47	10774
915.583	10733
915.696	10752
915.809	10850
915.921	10850
916.034	10759
916.146	10656
916.259	10721
916.371	10774
916.483	10744
916.595	10687
916.708	10687
916.82	10679
916.932	10630
917.044	10577
917.156	10626
917.268	10470
917.38	10466
917.491	10538
917.603	10626
917.715	10588
917.826	10637
917.938	10561
918.049	10424
918.161	10527
918.272	10755
918.384	10634
918.495	10649
918.606	10474
918.717	10424
918.828	10485
918.939	10424
919.05	10337
919.161	10379
919.272	10215
919.383	10200
919.494	10485
919.604	10634
919.715	10459
919.826	10481
919.936	10398
920.047	10519
920.157	10405
920.267	10694
920.378	10470
920.488	10379
920.598	10592
920.708	10763
920.818	10706
920.928	10634
921.038	10831
921.148	10710
921.258	10405
921.368	10348
921.477	10318
921.587	10211
921.697	10173
921.806	10234
921.916	10204
922.025	10032
922.134	10025
922.244	10036
922.353	10040
922.462	9804
922.571	9785
922.68	9625
922.789	9637
922.898	9720
923.007	9625
923.116	9781
923.224	9759
923.333	9660
923.442	9591
923.55	9496
923.659	9584
923.767	9603
923.876	9542
923.984	9622
924.092	9523
924.201	9538
924.309	9481
924.417	9488
924.525	9428
924.633	9507
924.741	10451
924.849	9294
924.956	9485
925.064	9268
925.172	9207
925.279	9283
925.387	9363
925.494	9306
925.602	9469
925.709	9393
925.816	9222
925.924	9306
926.031	9431
926.138	9287
926.245	9306
926.352	9195
926.459	9389
926.566	9428
926.673	9226
926.779	9203
926.886	9211
926.993	9097
927.099	9043
927.206	8982
927.312	8960
927.419	9028
927.525	9028
927.631	9119
927.737	8914
927.843	8918
927.95	8811
928.056	8842
928.162	8899
928.267	8994
928.373	9603
928.479	9093
928.585	8804
928.69	8906
928.796	8986
928.901	8788
929.007	8674
929.112	8921
929.218	8876
929.323	8754
929.428	8781
929.533	8838
929.638	8701
929.743	8663
929.848	8804
929.953	8727
930.058	8655
930.163	8495
930.267	8488
930.372	8648
930.477	8476
930.581	8746
930.685	8644
930.79	8434
930.894	8495
930.998	8370
931.103	8644
931.207	8240
931.311	8180
931.415	8115
931.519	8016
931.623	7944
