Data from test_V78500241_579.txt Node
Date: Fri Mar 25 14:37:45 CST 2022
User: usil
Spectrometer: V785-0024
Trigger mode: 0
Integration Time (sec): 4.000000E-1
Scans to average: 1
Nonlinearity correction enabled: false
Boxcar width: 0
Storing dark spectrum: false
XAxis mode: Wavelengths
Number of Pixels in Spectrum: 1024
>>>>>Begin Spectral Data<<<<<
801.071	27854
801.214	27614
801.356	27435
801.499	27321
801.641	27241
801.783	27150
801.926	27241
802.068	27005
802.211	26861
802.353	26849
802.496	26853
802.638	26640
802.78	26636
802.923	26663
803.065	26609
803.208	26632
803.35	26743
803.492	26731
803.635	26868
803.777	26819
803.919	26838
804.061	27142
804.204	26864
804.346	26838
804.488	26861
804.63	26804
804.773	26807
804.915	26883
805.057	27001
805.199	26990
805.341	26986
805.483	27058
805.626	27119
805.768	27150
805.91	27245
806.052	27317
806.194	27370
806.336	27488
806.478	27587
806.62	27648
806.762	27911
806.904	28177
807.046	28717
807.188	28885
807.33	29033
807.472	29512
807.614	29653
807.756	30182
807.898	30859
808.04	31772
808.182	33070
808.324	34645
808.465	36300
808.607	38244
808.749	40101
808.891	41071
809.033	41090
809.174	40051
809.316	38301
809.458	36262
809.6	34181
809.741	32579
809.883	31441
810.025	30757
810.166	30003
810.308	29417
810.45	29189
810.591	28828
810.733	28584
810.875	28276
811.016	27907
811.158	27956
811.299	27816
811.441	27941
811.582	27876
811.724	27545
811.865	27519
812.007	27405
812.148	27393
812.29	27534
812.431	27443
812.573	27576
812.714	27500
812.855	27644
812.997	27789
813.138	27846
813.279	27789
813.421	27675
813.562	27652
813.703	27435
813.845	27180
813.986	27154
814.127	26739
814.268	26613
814.41	26632
814.551	26530
814.692	26549
814.833	26484
814.974	26419
815.115	26575
815.256	26164
815.397	26218
815.539	26347
815.68	26164
815.821	26111
815.962	26161
816.103	25944
816.244	25951
816.385	25944
816.526	25833
816.666	25658
816.807	25426
816.948	25529
817.089	25712
817.23	25548
817.371	25228
817.512	25529
817.653	25438
817.793	25266
817.934	25362
818.075	25346
818.216	25468
818.356	25377
818.497	25388
818.638	25031
818.778	25065
818.919	25129
819.06	25175
819.2	25293
819.341	25350
819.481	25278
819.622	25430
819.762	25609
819.903	25616
820.043	25533
820.184	25525
820.324	25301
820.465	25411
820.605	25339
820.746	25304
820.886	25244
821.026	25228
821.167	25255
821.307	25171
821.447	25160
821.588	25129
821.728	24875
821.868	24875
822.008	24700
822.149	24601
822.289	24525
822.429	24395
822.569	24330
822.709	24292
822.849	24144
822.99	23996
823.13	24155
823.27	24015
823.41	23843
823.55	23767
823.69	23756
823.83	23748
823.97	23699
824.11	23535
824.25	23581
824.389	23608
824.529	23570
824.669	23699
824.809	23600
824.949	23729
825.089	23630
825.228	23539
825.368	23318
825.508	23463
825.648	23421
825.787	23398
825.927	23330
826.067	23360
826.206	23398
826.346	23280
826.485	23414
826.625	23326
826.765	23467
826.904	23467
827.044	23140
827.183	23231
827.323	23010
827.462	23109
827.601	23071
827.741	22953
827.88	22999
828.02	22786
828.159	23006
828.298	23029
828.437	23044
828.577	22850
828.716	23067
828.855	22938
828.994	22679
829.134	22725
829.273	22755
829.412	22687
829.551	22668
829.69	22694
829.829	22717
829.968	22824
830.107	22839
830.246	22767
830.385	22531
830.524	22702
830.663	22523
830.802	22398
830.941	22299
831.08	22207
831.219	22459
831.357	22299
831.496	22584
831.635	22322
831.774	22249
831.913	22192
832.051	22093
832.19	22090
832.329	22116
832.467	21934
832.606	21983
832.744	22021
832.883	22109
833.022	22086
833.16	22196
833.299	22348
833.437	22299
833.576	22417
833.714	22428
833.852	22531
833.991	22668
834.129	22915
834.267	22900
834.406	22630
834.544	22634
834.682	22660
834.821	22550
834.959	22653
835.097	22405
835.235	22409
835.373	22249
835.511	22109
835.65	22032
835.788	21907
835.926	21762
836.064	21705
836.202	21648
836.34	21842
836.478	21903
836.615	21876
836.753	21816
836.891	21873
837.029	21743
837.167	21755
837.305	21755
837.443	21633
837.58	21625
837.718	21618
837.856	21671
837.993	21622
838.131	21633
838.269	21557
838.406	21580
838.544	21507
838.681	21287
838.819	21313
838.956	21176
839.094	21135
839.231	21024
839.369	21199
839.506	21325
839.643	21211
839.781	21089
839.918	21055
840.055	21036
840.193	20982
840.33	20948
840.467	21013
840.604	21028
840.742	21325
840.879	20834
841.016	20921
841.153	20933
841.29	21070
841.427	21001
841.564	20971
841.701	20857
841.838	20944
841.975	20937
842.112	20948
842.249	20765
842.385	20720
842.522	20944
842.659	20842
842.796	20724
842.933	20754
843.069	20705
843.206	20777
843.343	20807
843.479	20921
843.616	20918
843.752	20705
843.889	20613
844.025	20849
844.162	20716
844.298	20861
844.435	20864
844.571	21043
844.708	21165
844.844	21504
844.98	21842
845.117	22074
845.253	22527
845.389	23440
845.525	25559
845.661	28626
845.798	32845
845.934	35912
846.07	37266
846.206	36677
846.342	34158
846.478	29939
846.614	26202
846.75	23999
846.886	22538
847.022	21728
847.158	21222
847.294	20914
847.429	20724
847.565	20484
847.701	20537
847.837	20145
847.972	19986
848.108	19986
848.244	19951
848.379	19818
848.515	19712
848.65	19609
848.786	19559
848.921	19643
849.057	19715
849.192	19734
849.328	19662
849.463	19502
849.598	19491
849.734	19422
849.869	19445
850.004	19316
850.14	19381
850.275	19266
850.41	19270
850.545	19285
850.68	19324
850.815	19327
850.95	19327
851.085	19464
851.22	19365
851.355	19228
851.49	19221
851.625	19183
851.76	19327
851.895	19107
852.03	19198
852.165	19259
852.299	19263
852.434	19502
852.569	19308
852.703	19304
852.838	19400
852.973	19480
853.107	19438
853.242	19358
853.376	19206
853.511	19137
853.645	19217
853.78	19301
853.914	19377
854.048	19190
854.183	19232
854.317	19350
854.451	19464
854.585	19354
854.72	19259
854.854	19297
854.988	19217
855.122	19312
855.256	19122
855.39	19103
855.524	19137
855.658	19270
855.792	19232
855.926	19160
856.06	19228
856.194	19236
856.327	19050
856.461	19027
856.595	19065
856.729	19114
856.862	19297
856.996	19095
857.13	19175
857.263	19126
857.397	19168
857.53	19057
857.664	19061
857.797	19152
857.931	19209
858.064	19110
858.197	19072
858.331	19099
858.464	19015
858.597	18924
858.731	19065
858.864	19012
858.997	18928
859.13	18951
859.263	19004
859.396	19031
859.529	18973
859.662	18943
859.795	19004
859.928	19046
860.061	19080
860.194	19046
860.327	19042
860.46	18996
860.592	18981
860.725	19069
860.858	19129
860.99	18939
861.123	18890
861.256	18909
861.388	18935
861.521	19624
861.653	18760
861.786	18882
861.918	18901
862.05	18909
862.183	18894
862.315	18954
862.447	19050
862.58	18973
862.712	18783
862.844	18654
862.976	18719
863.108	18776
863.24	19110
863.372	18597
863.504	18741
863.636	18608
863.768	18627
863.9	18540
864.032	18517
864.164	18650
864.296	18585
864.428	18601
864.559	18711
864.691	18814
864.823	18616
864.954	18601
865.086	18677
865.217	18597
865.349	18559
865.48	18566
865.612	18525
865.743	18681
865.875	18631
866.006	18585
866.137	18585
866.269	18578
866.4	18585
866.531	18494
866.662	18437
866.793	18334
866.924	18506
867.055	18494
867.186	18532
867.317	18475
867.448	18448
867.579	18502
867.71	18464
867.841	18441
867.972	18532
868.103	18414
868.233	18528
868.364	18559
868.495	18528
868.625	18741
868.756	18726
868.886	18745
869.017	18719
869.147	18905
869.278	18905
869.408	18878
869.539	18776
869.669	18871
869.799	18875
869.929	18779
870.06	18947
870.19	19057
870.32	19076
870.45	19133
870.58	19152
870.71	19304
870.84	19282
870.97	19232
871.1	19217
871.23	19343
871.36	19438
871.489	19388
871.619	19304
871.749	19403
871.879	19586
872.008	19567
872.138	19529
872.267	19422
872.397	19445
872.526	19289
872.656	19327
872.785	19350
872.915	19582
873.044	19620
873.173	19544
873.303	19616
873.432	19647
873.561	19655
873.69	19639
873.819	19586
873.948	19734
874.077	19696
874.206	19681
874.335	19803
874.464	19837
874.593	19913
874.722	19947
874.851	20039
874.979	20065
875.108	20100
875.237	19944
875.365	20020
875.494	20134
875.623	20191
875.751	20039
875.88	20206
876.008	20385
876.136	20317
876.265	20670
876.393	20765
876.521	20788
876.65	20838
876.778	20590
876.906	20807
877.034	20853
877.162	20906
877.29	20845
877.418	20967
877.546	20883
877.674	21142
877.802	21173
877.93	21184
878.058	21272
878.185	21302
878.313	21720
878.441	21778
878.568	21869
878.696	22257
878.824	22877
878.951	23364
879.079	24494
879.206	25715
879.333	26918
879.461	27865
879.588	28504
879.715	28752
879.842	28143
879.97	26986
880.097	25537
880.224	24555
880.351	23931
880.478	23425
880.605	23025
880.732	22828
880.859	22904
880.986	22527
881.112	22451
881.239	22413
881.366	22200
881.493	22051
881.619	22055
881.746	22131
881.872	22032
881.999	22154
882.125	22055
882.252	22131
882.378	22154
882.505	22265
882.631	22215
882.757	21911
882.883	22078
883.01	21983
883.136	21922
883.262	21800
883.388	21854
883.514	21998
883.64	21907
883.766	21854
883.892	21739
884.018	21743
884.143	21785
884.269	22013
884.395	21717
884.52	21656
884.646	21625
884.772	21542
884.897	21568
885.023	21698
885.148	21633
885.274	21595
885.399	21591
885.524	21473
885.65	21458
885.775	21431
885.9	21294
886.025	21222
886.15	21222
886.275	20868
886.4	20864
886.525	20804
886.65	20716
886.775	20636
886.9	20739
887.025	20857
887.149	20530
887.274	20343
887.399	20214
887.523	20225
887.648	20183
887.773	20031
887.897	20199
888.021	20107
888.146	19883
888.27	19989
888.395	19993
888.519	19879
888.643	19902
888.767	19871
888.891	19837
889.015	19624
889.139	19605
889.263	19525
889.387	19586
889.511	19655
889.635	19582
889.759	19537
889.883	19388
890.006	19438
890.13	19472
890.254	19225
890.377	19384
890.501	19080
890.624	19069
890.748	19141
890.871	19034
890.995	18882
891.118	18901
891.241	18844
891.364	18760
891.488	18962
891.611	18905
891.734	18806
891.857	18791
891.98	18798
892.103	18806
892.226	18909
892.349	18623
892.471	18563
892.594	18608
892.717	18711
892.839	18551
892.962	18669
893.085	18646
893.207	18509
893.33	18547
893.452	18429
893.575	18578
893.697	18536
893.819	18669
893.941	18574
894.064	18513
894.186	18445
894.308	18388
894.43	18521
894.552	18593
894.674	18502
894.796	18315
894.918	18407
895.04	18243
895.161	18414
895.283	18437
895.405	18243
895.526	18346
895.648	18270
895.769	18342
895.891	18220
896.012	18422
896.134	18429
896.255	18410
896.376	18163
896.498	18346
896.619	18433
896.74	18319
896.861	18384
896.982	18627
897.103	18844
897.224	18593
897.345	18525
897.466	18574
897.587	18452
897.708	18623
897.828	18608
897.949	18407
898.07	18327
898.19	18532
898.311	18639
898.431	18525
898.552	18445
898.672	18513
898.792	18555
898.913	18574
899.033	18426
899.153	18281
899.273	18178
899.393	18262
899.513	18319
899.633	18342
899.753	18281
899.873	18174
899.993	18338
900.113	18235
900.232	18289
900.352	18194
900.472	18102
900.591	18064
900.711	18125
900.83	18098
900.95	18197
901.069	18273
901.189	18045
901.308	17802
901.427	17718
901.546	17733
901.665	17691
901.784	17608
901.904	17611
902.023	17490
902.141	17143
902.26	17136
902.379	17162
902.498	17242
902.617	17060
902.735	17124
902.854	17117
902.973	16984
903.091	16889
903.21	16854
903.328	16797
903.446	16740
903.565	16717
903.683	16584
903.801	16615
903.919	16504
904.038	16474
904.156	16367
904.274	16527
904.392	16379
904.51	16363
904.627	16344
904.745	16360
904.863	16405
904.981	16097
905.098	16067
905.216	16063
905.334	16109
905.451	16048
905.569	15964
905.686	16059
905.803	16002
905.921	15804
906.038	15869
906.155	15808
906.272	15705
906.389	15705
906.506	15496
906.623	15553
906.74	15515
906.857	15351
906.974	15485
907.091	15625
907.208	15660
907.324	15519
907.441	15477
907.557	15268
907.674	15195
907.79	15135
907.907	15241
908.023	15260
908.139	15306
908.256	15211
908.372	15195
908.488	15108
908.604	15013
908.72	15013
908.836	14918
908.952	14979
909.068	14921
909.184	15020
909.3	14952
909.415	14914
909.531	14994
909.647	14705
909.762	14655
909.878	14610
909.993	14659
910.108	14663
910.224	14674
910.339	14697
910.454	14457
910.57	14518
910.685	14473
910.8	14651
910.915	14629
911.03	14556
911.145	14370
911.259	14301
911.374	14233
911.489	14210
911.604	14229
911.718	14050
911.833	14024
911.947	13894
912.062	13871
912.176	14058
912.291	14012
912.405	13940
912.519	14240
912.633	14259
912.748	14103
912.862	14031
912.976	13780
913.09	13719
913.204	13841
913.318	13902
913.431	13974
913.545	13936
913.659	13925
913.772	13837
913.886	13734
914	13613
914.113	13830
914.226	13875
914.34	13814
914.453	13616
914.566	13814
914.68	13601
914.793	13662
914.906	13491
915.019	13400
915.132	13316
915.245	13331
915.358	13392
915.47	13430
915.583	13415
915.696	13441
915.809	13537
915.921	13594
916.034	13354
916.146	13373
916.259	13388
916.371	13457
916.483	13426
916.595	13331
916.708	13244
916.82	13384
916.932	13285
917.044	13285
917.156	13160
917.268	13187
917.38	13126
917.491	13057
917.603	13133
917.715	13194
917.826	13091
917.938	13061
918.049	12993
918.161	12989
918.272	13297
918.384	13164
918.495	13031
918.606	12939
918.717	12890
918.828	12871
918.939	12890
919.05	12810
919.161	12806
919.272	12711
919.383	12738
919.494	12905
919.604	13122
919.715	12890
919.826	12703
919.936	12806
920.047	12951
920.157	12890
920.267	13027
920.378	12840
920.488	12776
920.598	13019
920.708	13053
920.818	12920
920.928	12977
921.038	13187
921.148	13133
921.258	12783
921.368	12772
921.477	12612
921.587	12559
921.697	12521
921.806	12597
921.916	12490
922.025	12330
922.134	12338
922.244	12197
922.353	12239
922.462	12247
922.571	12159
922.68	11961
922.789	11878
922.898	11977
923.007	11802
923.116	11828
923.224	11870
923.333	11950
923.442	11676
923.55	11771
923.659	11805
923.767	11824
923.876	11672
923.984	11775
924.092	11672
924.201	11722
924.309	11676
924.417	11779
924.525	11600
924.633	11642
924.741	12433
924.849	11414
924.956	11592
925.064	11410
925.172	11311
925.279	11379
925.387	11455
925.494	11387
925.602	11543
925.709	11524
925.816	11341
925.924	11417
926.031	11425
926.138	11337
926.245	11471
926.352	11254
926.459	11379
926.566	11474
926.673	11288
926.779	11181
926.886	11197
926.993	11109
927.099	11121
927.206	10980
927.312	10965
927.419	11090
927.525	11083
927.631	11155
927.737	10896
927.843	10881
927.95	10797
928.056	10896
928.162	10877
928.267	10957
928.373	11410
928.479	10976
928.585	10736
928.69	10892
928.796	10877
928.901	10752
929.007	10634
929.112	10790
929.218	10702
929.323	10736
929.428	10664
929.533	10778
929.638	10645
929.743	10717
929.848	10683
929.953	10561
930.058	10512
930.163	10398
930.267	10428
930.372	10466
930.477	10405
930.581	10558
930.685	10489
930.79	10177
930.894	10287
930.998	10242
931.103	10379
931.207	9994
931.311	9903
931.415	9895
931.519	9751
931.623	9755
