Data from test_V78500241_1971.txt Node
Date: Fri Mar 25 14:47:26 CST 2022
User: usil
Spectrometer: V785-0024
Trigger mode: 0
Integration Time (sec): 4.000000E-1
Scans to average: 1
Nonlinearity correction enabled: false
Boxcar width: 0
Storing dark spectrum: false
XAxis mode: Wavelengths
Number of Pixels in Spectrum: 1024
>>>>>Begin Spectral Data<<<<<
801.071	22120
801.214	22059
801.356	21587
801.499	21660
801.641	21454
801.783	21542
801.926	21580
802.068	21447
802.211	21313
802.353	21157
802.496	21093
802.638	20979
802.78	20925
802.923	20830
803.065	20792
803.208	20800
803.35	20804
803.492	20952
803.635	20906
803.777	20708
803.919	20883
804.061	21180
804.204	20921
804.346	20724
804.488	20648
804.63	20689
804.773	20621
804.915	20701
805.057	20735
805.199	20686
805.341	20663
805.483	20891
805.626	20807
805.768	20674
805.91	20629
806.052	20697
806.194	20621
806.336	20948
806.478	20781
806.62	20667
806.762	20746
806.904	20979
807.046	21138
807.188	21009
807.33	21051
807.472	21104
807.614	20895
807.756	20876
807.898	20773
808.04	20731
808.182	20762
808.324	20697
808.465	20853
808.607	20963
808.749	21081
808.891	21154
809.033	21256
809.174	21207
809.316	21066
809.458	21066
809.6	21093
809.741	21051
809.883	21233
810.025	21230
810.166	21211
810.308	21340
810.45	21192
810.591	21241
810.733	20952
810.875	20864
811.016	20750
811.158	20788
811.299	20998
811.441	21028
811.582	20963
811.724	20861
811.865	20781
812.007	20804
812.148	20701
812.29	20842
812.431	21013
812.573	21070
812.714	21310
812.855	21245
812.997	21462
813.138	21633
813.279	21454
813.421	21344
813.562	21283
813.703	21188
813.845	21081
813.986	20758
814.127	20587
814.268	20427
814.41	20484
814.551	20434
814.692	20431
814.833	20377
814.974	20347
815.115	20488
815.256	20267
815.397	20180
815.539	20248
815.68	20069
815.821	20122
815.962	20195
816.103	20122
816.244	19986
816.385	19913
816.526	19898
816.666	19708
816.807	19590
816.948	19620
817.089	19689
817.23	19655
817.371	19476
817.512	19460
817.653	19464
817.793	19544
817.934	19597
818.075	19483
818.216	19651
818.356	19449
818.497	19316
818.638	19099
818.778	19255
818.919	19171
819.06	19221
819.2	19320
819.341	19533
819.481	19552
819.622	19483
819.762	19784
819.903	19643
820.043	19590
820.184	19643
820.324	19430
820.465	19578
820.605	19514
820.746	19529
820.886	19339
821.026	19514
821.167	19518
821.307	19563
821.447	19491
821.588	19422
821.728	19221
821.868	19084
822.008	18920
822.149	19012
822.289	18848
822.429	18684
822.569	18582
822.709	18654
822.849	18441
822.99	18490
823.13	18342
823.27	18372
823.41	18174
823.55	18182
823.69	18296
823.83	18285
823.97	18087
824.11	18102
824.25	17996
824.389	18007
824.529	18079
824.669	17980
824.809	18133
824.949	18114
825.089	18015
825.228	18125
825.368	17779
825.508	17828
825.648	17760
825.787	17775
825.927	17923
826.067	17741
826.206	17718
826.346	17840
826.485	17843
826.625	17767
826.765	17882
826.904	17748
827.044	17505
827.183	17512
827.323	17433
827.462	17474
827.601	17493
827.741	17455
827.88	17493
828.02	17448
828.159	17391
828.298	17516
828.437	17554
828.577	17341
828.716	17611
828.855	17360
828.994	17261
829.134	17307
829.273	17220
829.412	17181
829.551	17083
829.69	17132
829.829	17303
829.968	17311
830.107	17250
830.246	17258
830.385	17239
830.524	17204
830.663	17094
830.802	16904
830.941	16774
831.08	16915
831.219	16957
831.357	16862
831.496	17056
831.635	16900
831.774	16679
831.913	16687
832.051	16641
832.19	16717
832.329	16664
832.467	16565
832.606	16474
832.744	16474
832.883	16493
833.022	16497
833.16	16603
833.299	16634
833.437	16630
833.576	16588
833.714	16607
833.852	16622
833.991	16634
834.129	16603
834.267	16653
834.406	16577
834.544	16611
834.682	16607
834.821	16558
834.959	16774
835.097	16577
835.235	16596
835.373	16580
835.511	16599
835.65	16493
835.788	16478
835.926	16360
836.064	16322
836.202	16306
836.34	16538
836.478	16542
836.615	16478
836.753	16580
836.891	16611
837.029	16516
837.167	16462
837.305	16500
837.443	16398
837.58	16280
837.718	16459
837.856	16394
837.993	16348
838.131	16424
838.269	16303
838.406	16382
838.544	16299
838.681	16105
838.819	16048
838.956	15994
839.094	15876
839.231	15983
839.369	16120
839.506	16322
839.643	16120
839.781	15953
839.918	15915
840.055	16032
840.193	15949
840.33	15884
840.467	15964
840.604	15941
840.742	16162
840.879	15762
841.016	15865
841.153	15911
841.29	16006
841.427	15960
841.564	15979
841.701	15964
841.838	15831
841.975	15857
842.112	15842
842.249	15762
842.385	15633
842.522	15930
842.659	15679
842.796	15717
842.933	15778
843.069	15705
843.206	15667
843.343	15838
843.479	15774
843.616	15778
843.752	15443
843.889	15507
844.025	15629
844.162	15466
844.298	15762
844.435	15443
844.571	15458
844.708	15599
844.844	15641
844.98	15637
845.117	15584
845.253	15466
845.389	15477
845.525	15428
845.661	15401
845.798	15264
845.934	15416
846.07	15291
846.206	15329
846.342	15443
846.478	15344
846.614	15077
846.75	14979
846.886	15066
847.022	15154
847.158	15074
847.294	15192
847.429	15146
847.565	15077
847.701	15397
847.837	14819
847.972	14743
848.108	14906
848.244	14941
848.379	14705
848.515	14644
848.65	14575
848.786	14735
848.921	14659
849.057	14800
849.192	14716
849.328	14785
849.463	14792
849.598	14644
849.734	14632
849.869	14526
850.004	14419
850.14	14526
850.275	14434
850.41	14305
850.545	14427
850.68	14469
850.815	14469
850.95	14423
851.085	14651
851.22	14552
851.355	14503
851.49	14396
851.625	14518
851.76	14309
851.895	14347
852.03	14294
852.165	14492
852.299	14507
852.434	14404
852.569	14412
852.703	14454
852.838	14518
852.973	14541
853.107	14560
853.242	14446
853.376	14377
853.511	14199
853.645	14259
853.78	14412
853.914	14400
854.048	14282
854.183	14301
854.317	14301
854.451	14404
854.585	14267
854.72	14328
854.854	14301
854.988	14202
855.122	14347
855.256	14168
855.39	14358
855.524	14301
855.658	14514
855.792	14404
855.926	14362
856.06	14396
856.194	14469
856.327	14305
856.461	14351
856.595	14180
856.729	14195
856.862	14450
856.996	14328
857.13	14317
857.263	14419
857.397	14355
857.53	14282
857.664	14476
857.797	14434
857.931	14298
858.064	14301
858.197	14545
858.331	14324
858.464	14301
858.597	14164
858.731	14252
858.864	14370
858.997	14229
859.13	14313
859.263	14267
859.396	14351
859.529	14278
859.662	14278
859.795	14187
859.928	14267
860.061	14575
860.194	14514
860.327	14336
860.46	14271
860.592	14370
860.725	14438
860.858	14461
860.99	14286
861.123	14233
861.256	14240
861.388	14320
861.521	14941
861.653	14218
861.786	14123
861.918	14168
862.05	14157
862.183	14301
862.315	14309
862.447	14240
862.58	14252
862.712	14024
862.844	14012
862.976	14149
863.108	14119
863.24	14457
863.372	14012
863.504	13978
863.636	13951
863.768	14183
863.9	14126
864.032	14043
864.164	14100
864.296	14058
864.428	14180
864.559	14237
864.691	14221
864.823	14176
864.954	14065
865.086	14077
865.217	14016
865.349	14054
865.48	14024
865.612	14111
865.743	14244
865.875	14073
866.006	14134
866.137	14062
866.269	14031
866.4	14016
866.531	14096
866.662	14027
866.793	13978
866.924	14001
867.055	14157
867.186	14111
867.317	14050
867.448	13921
867.579	14012
867.71	14062
867.841	14039
867.972	14149
868.103	14107
868.233	14035
868.364	14107
868.495	14176
868.625	14336
868.756	14454
868.886	14172
869.017	14355
869.147	14381
869.278	14412
869.408	14389
869.539	14320
869.669	14370
869.799	14450
869.929	14454
870.06	14484
870.19	14636
870.32	14651
870.45	14651
870.58	14712
870.71	14906
870.84	14842
870.97	14682
871.1	14724
871.23	14849
871.36	14933
871.489	14918
871.619	14921
871.749	14914
871.879	15013
872.008	15032
872.138	14902
872.267	14929
872.397	14815
872.526	14705
872.656	14689
872.785	14777
872.915	15001
873.044	15051
873.173	14963
873.303	14990
873.432	15020
873.561	14982
873.69	15039
873.819	14982
873.948	15058
874.077	15039
874.206	14933
874.335	14914
874.464	15104
874.593	15264
874.722	15157
874.851	15370
874.979	15393
875.108	15355
875.237	15188
875.365	15127
875.494	15317
875.623	15355
875.751	15226
875.88	15351
876.008	15477
876.136	15515
876.265	15778
876.393	15880
876.521	15739
876.65	15743
876.778	15698
876.906	15679
877.034	15675
877.162	15747
877.29	15614
877.418	15709
877.546	15694
877.674	15701
877.802	15736
877.93	15690
878.058	15713
878.185	15622
878.313	15656
878.441	15755
878.568	15504
878.696	15671
878.824	15728
878.951	15808
879.079	15918
879.206	15975
879.333	15903
879.461	15797
879.588	15842
879.715	15975
879.842	16032
879.97	15759
880.097	15530
880.224	15572
880.351	15519
880.478	15599
880.605	15599
880.732	15542
880.859	15812
880.986	15614
881.112	15595
881.239	15473
881.366	15294
881.493	15207
881.619	15207
881.746	15173
881.872	15230
881.999	15169
882.125	15173
882.252	15237
882.378	15214
882.505	15291
882.631	15085
882.757	15020
882.883	15024
883.01	15032
883.136	15074
883.262	14914
883.388	14883
883.514	15108
883.64	15089
883.766	14956
883.892	14853
884.018	14880
884.143	15005
884.269	15089
884.395	14796
884.52	14579
884.646	14610
884.772	14727
884.897	14579
885.023	14701
885.148	14826
885.274	14861
885.399	14887
885.524	14754
885.65	14727
885.775	14682
885.9	14754
886.025	14849
886.15	14739
886.275	14686
886.4	14636
886.525	14636
886.65	14674
886.775	14602
886.9	14807
887.025	14853
887.149	14682
887.274	14632
887.399	14503
887.523	14454
887.648	14533
887.773	14499
887.897	14629
888.021	14651
888.146	14556
888.27	14705
888.395	14750
888.519	14663
888.643	14670
888.767	14621
888.891	14381
889.015	14415
889.139	14541
889.263	14400
889.387	14488
889.511	14621
889.635	14507
889.759	14465
889.883	14427
890.006	14514
890.13	14556
890.254	14301
890.377	14317
890.501	14138
890.624	14199
890.748	14320
890.871	14225
890.995	14058
891.118	14008
891.241	14145
891.364	14233
891.488	14161
891.611	14145
891.734	14046
891.857	14237
891.98	14183
892.103	14183
892.226	14180
892.349	14138
892.471	13978
892.594	14065
892.717	14164
892.839	14138
892.962	14024
893.085	14172
893.207	14050
893.33	14016
893.452	14039
893.575	14256
893.697	13970
893.819	14324
893.941	14248
894.064	14210
894.186	14024
894.308	14138
894.43	14229
894.552	14313
894.674	14298
894.796	14088
894.918	14134
895.04	14202
895.161	14286
895.283	14149
895.405	14199
895.526	14187
895.648	14153
895.769	14263
895.891	14259
896.012	14298
896.134	14324
896.255	14256
896.376	14252
896.498	14366
896.619	14351
896.74	14313
896.861	14328
896.982	14598
897.103	14834
897.224	14663
897.345	14552
897.466	14526
897.587	14499
897.708	14549
897.828	14549
897.949	14579
898.07	14434
898.19	14613
898.311	14579
898.431	14617
898.552	14655
898.672	14781
898.792	14720
898.913	14640
899.033	14629
899.153	14503
899.273	14427
899.393	14473
899.513	14484
899.633	14556
899.753	14446
899.873	14507
899.993	14541
900.113	14537
900.232	14461
900.352	14556
900.472	14526
900.591	14298
900.711	14347
900.83	14389
900.95	14480
901.069	14495
901.189	14225
901.308	14142
901.427	13951
901.546	13989
901.665	14130
901.784	14164
901.904	13909
902.023	13791
902.141	13715
902.26	13537
902.379	13677
902.498	13575
902.617	13495
902.735	13643
902.854	13533
902.973	13487
903.091	13350
903.21	13331
903.328	13236
903.446	13228
903.565	13213
903.683	13194
903.801	13114
903.919	13069
904.038	13133
904.156	12985
904.274	13084
904.392	13042
904.51	12909
904.627	12886
904.745	13000
904.863	13019
904.981	12829
905.098	12738
905.216	12589
905.334	12768
905.451	12722
905.569	12669
905.686	12654
905.803	12654
905.921	12506
906.038	12616
906.155	12551
906.272	12407
906.389	12384
906.506	12216
906.623	12201
906.74	12338
906.857	12190
906.974	12216
907.091	12365
907.208	12376
907.324	12372
907.441	12175
907.557	12095
907.674	11996
907.79	11912
907.907	11954
908.023	12030
908.139	12060
908.256	11882
908.372	11889
908.488	11931
908.604	11771
908.72	11771
908.836	11760
908.952	11760
909.068	11775
909.184	11897
909.3	11737
909.415	11767
909.531	11794
909.647	11577
909.762	11558
909.878	11478
909.993	11535
910.108	11490
910.224	11471
910.339	11486
910.454	11490
910.57	11395
910.685	11337
910.8	11562
910.915	11539
911.03	11387
911.145	11292
911.259	11231
911.374	11223
911.489	11155
911.604	11193
911.718	11052
911.833	11048
911.947	10824
912.062	10805
912.176	10987
912.291	10984
912.405	11060
912.519	11193
912.633	11181
912.748	10995
912.862	11048
912.976	10946
913.09	10816
913.204	10889
913.318	10927
913.431	11041
913.545	10927
913.659	11025
913.772	10866
913.886	10774
914	10637
914.113	10869
914.226	10900
914.34	10835
914.453	10679
914.566	10881
914.68	10755
914.793	10679
914.906	10504
915.019	10462
915.132	10382
915.245	10481
915.358	10565
915.47	10516
915.583	10504
915.696	10538
915.809	10656
915.921	10679
916.034	10504
916.146	10432
916.259	10398
916.371	10584
916.483	10504
916.595	10424
916.708	10474
916.82	10382
916.932	10470
917.044	10402
917.156	10500
917.268	10303
917.38	10352
917.491	10310
917.603	10352
917.715	10417
917.826	10489
917.938	10249
918.049	10238
918.161	10295
918.272	10424
918.384	10489
918.495	10360
918.606	10162
918.717	10166
918.828	10329
918.939	10234
919.05	10211
919.161	10169
919.272	10010
919.383	10082
919.494	10265
919.604	10367
919.715	10219
919.826	10162
919.936	10238
920.047	10310
920.157	10318
920.267	10424
920.378	10299
920.488	10166
920.598	10409
920.708	10554
920.818	10440
920.928	10348
921.038	10599
921.148	10649
921.258	10249
921.368	10234
921.477	10059
921.587	10097
921.697	9987
921.806	10086
921.916	9956
922.025	9846
922.134	9819
922.244	9717
922.353	9873
922.462	9751
922.571	9595
922.68	9534
922.789	9447
922.898	9477
923.007	9435
923.116	9454
923.224	9447
923.333	9469
923.442	9325
923.55	9302
923.659	9374
923.767	9401
923.876	9275
923.984	9488
924.092	9313
924.201	9386
924.309	9359
924.417	9386
924.525	9340
924.633	9256
924.741	10211
924.849	9062
924.956	9291
925.064	9138
925.172	8986
925.279	9165
925.387	9192
925.494	9161
925.602	9222
925.709	9283
925.816	9070
925.924	9081
926.031	9321
926.138	9135
926.245	9283
926.352	8986
926.459	9192
926.566	9302
926.673	9058
926.779	8994
926.886	8994
926.993	8861
927.099	8849
927.206	8815
927.312	8842
927.419	8883
927.525	8853
927.631	8902
927.737	8746
927.843	8735
927.95	8667
928.056	8754
928.162	8819
928.267	8807
928.373	9367
928.479	8876
928.585	8682
928.69	8689
928.796	8823
928.901	8750
929.007	8537
929.112	8632
929.218	8594
929.323	8575
929.428	8629
929.533	8750
929.638	8549
929.743	8552
929.848	8564
929.953	8568
930.058	8507
930.163	8290
930.267	8324
930.372	8469
930.477	8313
930.581	8495
930.685	8389
930.79	8271
930.894	8343
930.998	8271
931.103	8400
931.207	8050
931.311	7967
931.415	7982
931.519	7788
931.623	7776
