Data from test_V78500241_3158.txt Node
Date: Fri Mar 25 14:55:42 CST 2022
User: usil
Spectrometer: V785-0024
Trigger mode: 0
Integration Time (sec): 4.000000E-1
Scans to average: 1
Nonlinearity correction enabled: false
Boxcar width: 0
Storing dark spectrum: false
XAxis mode: Wavelengths
Number of Pixels in Spectrum: 1024
>>>>>Begin Spectral Data<<<<<
801.071	22036
801.214	21937
801.356	21793
801.499	21587
801.641	21435
801.783	21428
801.926	21420
802.068	21363
802.211	21283
802.353	21142
802.496	21051
802.638	20883
802.78	20876
802.923	20716
803.065	20609
803.208	20636
803.35	20792
803.492	20880
803.635	20921
803.777	20720
803.919	20788
804.061	21051
804.204	20807
804.346	20826
804.488	20674
804.63	20781
804.773	20621
804.915	20697
805.057	20720
805.199	20613
805.341	20781
805.483	20788
805.626	20785
805.768	20590
805.91	20735
806.052	20651
806.194	20663
806.336	20724
806.478	20712
806.62	20629
806.762	20800
806.904	20960
807.046	21058
807.188	21100
807.33	20975
807.472	20933
807.614	20830
807.756	20788
807.898	20796
808.04	20697
808.182	20644
808.324	20758
808.465	20769
808.607	21013
808.749	21043
808.891	21116
809.033	21222
809.174	21047
809.316	20963
809.458	20971
809.6	20838
809.741	21077
809.883	20982
810.025	21207
810.166	21161
810.308	21127
810.45	21165
810.591	21039
810.733	20872
810.875	20880
811.016	20762
811.158	20857
811.299	20830
811.441	21005
811.582	20853
811.724	20781
811.865	20762
812.007	20762
812.148	20754
812.29	20895
812.431	20979
812.573	21085
812.714	21275
812.855	21188
812.997	21329
813.138	21610
813.279	21511
813.421	21386
813.562	21268
813.703	21077
813.845	21009
813.986	20708
814.127	20488
814.268	20339
814.41	20431
814.551	20301
814.692	20396
814.833	20259
814.974	20294
815.115	20256
815.256	20259
815.397	20161
815.539	20119
815.68	19989
815.821	20027
815.962	20138
816.103	20084
816.244	20008
816.385	19841
816.526	19849
816.666	19590
816.807	19499
816.948	19521
817.089	19601
817.23	19514
817.371	19476
817.512	19441
817.653	19441
817.793	19400
817.934	19537
818.075	19502
818.216	19552
818.356	19578
818.497	19244
818.638	19091
818.778	19225
818.919	19198
819.06	19232
819.2	19426
819.341	19403
819.481	19400
819.622	19419
819.762	19639
819.903	19567
820.043	19510
820.184	19472
820.324	19365
820.465	19506
820.605	19346
820.746	19228
820.886	19278
821.026	19441
821.167	19263
821.307	19403
821.447	19396
821.588	19282
821.728	19008
821.868	18928
822.008	18859
822.149	18829
822.289	18852
822.429	18536
822.569	18521
822.709	18498
822.849	18323
822.99	18270
823.13	18357
823.27	18346
823.41	18182
823.55	18102
823.69	18262
823.83	18216
823.97	18049
824.11	17912
824.25	17904
824.389	17977
824.529	18011
824.669	17885
824.809	17954
824.949	18076
825.089	17980
825.228	17961
825.368	17699
825.508	17649
825.648	17752
825.787	17684
825.927	17775
826.067	17668
826.206	17657
826.346	17672
826.485	17687
826.625	17623
826.765	17756
826.904	17657
827.044	17490
827.183	17482
827.323	17258
827.462	17364
827.601	17383
827.741	17299
827.88	17410
828.02	17330
828.159	17383
828.298	17463
828.437	17520
828.577	17376
828.716	17463
828.855	17280
828.994	17132
829.134	17162
829.273	17136
829.412	17105
829.551	17045
829.69	17079
829.829	17056
829.968	17212
830.107	17151
830.246	17098
830.385	17083
830.524	17003
830.663	17056
830.802	16759
830.941	16694
831.08	16622
831.219	16786
831.357	16721
831.496	17045
831.635	16752
831.774	16622
831.913	16660
832.051	16512
832.19	16554
832.329	16573
832.467	16394
832.606	16337
832.744	16527
832.883	16500
833.022	16428
833.16	16341
833.299	16402
833.437	16417
833.576	16455
833.714	16409
833.852	16546
833.991	16546
834.129	16519
834.267	16569
834.406	16447
834.544	16565
834.682	16493
834.821	16462
834.959	16577
835.097	16459
835.235	16489
835.373	16519
835.511	16421
835.65	16344
835.788	16360
835.926	16284
836.064	16181
836.202	16265
836.34	16421
836.478	16413
836.615	16295
836.753	16306
836.891	16470
837.029	16500
837.167	16360
837.305	16322
837.443	16284
837.58	16226
837.718	16253
837.856	16234
837.993	16185
838.131	16318
838.269	16105
838.406	16154
838.544	16071
838.681	15888
838.819	15968
838.956	15732
839.094	15701
839.231	15812
839.369	15934
839.506	16207
839.643	16090
839.781	15884
839.918	15838
840.055	15778
840.193	15694
840.33	15755
840.467	15778
840.604	15842
840.742	16086
840.879	15694
841.016	15770
841.153	15732
841.29	15808
841.427	15800
841.564	15747
841.701	15846
841.838	15785
841.975	15694
842.112	15774
842.249	15610
842.385	15549
842.522	15698
842.659	15538
842.796	15538
842.933	15656
843.069	15663
843.206	15549
843.343	15641
843.479	15504
843.616	15629
843.752	15382
843.889	15416
844.025	15450
844.162	15329
844.298	15507
844.435	15401
844.571	15279
844.708	15424
844.844	15507
844.98	15530
845.117	15545
845.253	15401
845.389	15268
845.525	15268
845.661	15169
845.798	15180
845.934	15245
846.07	15043
846.206	15203
846.342	15256
846.478	15047
846.614	14937
846.75	15001
846.886	14868
847.022	15081
847.158	14929
847.294	14857
847.429	14902
847.565	14826
847.701	15188
847.837	14712
847.972	14625
848.108	14743
848.244	14670
848.379	14594
848.515	14499
848.65	14408
848.786	14564
848.921	14590
849.057	14590
849.192	14583
849.328	14598
849.463	14522
849.598	14560
849.734	14419
849.869	14419
850.004	14343
850.14	14347
850.275	14347
850.41	14290
850.545	14267
850.68	14233
850.815	14305
850.95	14374
851.085	14495
851.22	14419
851.355	14339
851.49	14233
851.625	14328
851.76	14286
851.895	14225
852.03	14164
852.165	14259
852.299	14347
852.434	14355
852.569	14362
852.703	14233
852.838	14427
852.973	14537
853.107	14495
853.242	14199
853.376	14199
853.511	14107
853.645	14138
853.78	14339
853.914	14161
854.048	14092
854.183	14111
854.317	14176
854.451	14381
854.585	14107
854.72	14164
854.854	14313
854.988	14084
855.122	14088
855.256	14012
855.39	14153
855.524	14259
855.658	14229
855.792	14206
855.926	14176
856.06	14202
856.194	14259
856.327	14142
856.461	14164
856.595	14145
856.729	14206
856.862	14259
856.996	14210
857.13	14320
857.263	14233
857.397	14298
857.53	14248
857.664	14195
857.797	14385
857.931	14362
858.064	14210
858.197	14161
858.331	14233
858.464	14168
858.597	14100
858.731	14187
858.864	14107
858.997	14275
859.13	14282
859.263	14153
859.396	14240
859.529	14168
859.662	14183
859.795	14084
859.928	14233
860.061	14298
860.194	14324
860.327	14206
860.46	14157
860.592	14355
860.725	14328
860.858	14286
860.99	14130
861.123	14020
861.256	14134
861.388	14107
861.521	14876
861.653	14046
861.786	13944
861.918	14024
862.05	14138
862.183	14157
862.315	14225
862.447	14218
862.58	14065
862.712	13871
862.844	13928
862.976	14058
863.108	13997
863.24	14339
863.372	13883
863.504	13989
863.636	13932
863.768	13947
863.9	13951
864.032	13951
864.164	13826
864.296	14035
864.428	14123
864.559	14168
864.691	14062
864.823	14077
864.954	13993
865.086	13936
865.217	13963
865.349	13898
865.48	13932
865.612	13970
865.743	14027
865.875	13936
866.006	13898
866.137	13856
866.269	13871
866.4	13917
866.531	13860
866.662	13799
866.793	13909
866.924	13963
867.055	14001
867.186	13932
867.317	13906
867.448	13902
867.579	13807
867.71	13833
867.841	13909
867.972	13932
868.103	13906
868.233	13951
868.364	13989
868.495	14012
868.625	14176
868.756	14263
868.886	14096
869.017	14126
869.147	14225
869.278	14332
869.408	14237
869.539	14142
869.669	14256
869.799	14252
869.929	14278
870.06	14332
870.19	14587
870.32	14415
870.45	14571
870.58	14518
870.71	14621
870.84	14689
870.97	14552
871.1	14613
871.23	14701
871.36	14765
871.489	14731
871.619	14724
871.749	14746
871.879	14830
872.008	14845
872.138	14800
872.267	14868
872.397	14625
872.526	14663
872.656	14632
872.785	14568
872.915	14708
873.044	14872
873.173	14842
873.303	14876
873.432	14929
873.561	14845
873.69	14941
873.819	14948
873.948	14948
874.077	14785
874.206	14925
874.335	14895
874.464	15032
874.593	15165
874.722	15089
874.851	15203
874.979	15226
875.108	15146
875.237	15176
875.365	15089
875.494	15180
875.623	15249
875.751	15062
875.88	15222
876.008	15302
876.136	15435
876.265	15587
876.393	15679
876.521	15747
876.65	15671
876.778	15610
876.906	15496
877.034	15526
877.162	15576
877.29	15473
877.418	15618
877.546	15500
877.674	15496
877.802	15599
877.93	15641
878.058	15530
878.185	15462
878.313	15431
878.441	15587
878.568	15393
878.696	15580
878.824	15526
878.951	15686
879.079	15698
879.206	15930
879.333	15732
879.461	15652
879.588	15641
879.715	15709
879.842	15755
879.97	15667
880.097	15488
880.224	15454
880.351	15450
880.478	15462
880.605	15428
880.732	15393
880.859	15682
880.986	15424
881.112	15492
881.239	15340
881.366	15161
881.493	15089
881.619	15089
881.746	15074
881.872	15066
881.999	15062
882.125	14990
882.252	15142
882.378	15066
882.505	15283
882.631	15028
882.757	14941
882.883	14956
883.01	14891
883.136	14876
883.262	14868
883.388	14727
883.514	14952
883.64	14982
883.766	14826
883.892	14765
884.018	14655
884.143	14845
884.269	15001
884.395	14712
884.52	14575
884.646	14667
884.772	14537
884.897	14568
885.023	14697
885.148	14712
885.274	14750
885.399	14712
885.524	14674
885.65	14610
885.775	14651
885.9	14659
886.025	14743
886.15	14678
886.275	14560
886.4	14552
886.525	14530
886.65	14571
886.775	14541
886.9	14621
887.025	14864
887.149	14674
887.274	14530
887.399	14415
887.523	14396
887.648	14396
887.773	14290
887.897	14526
888.021	14465
888.146	14423
888.27	14495
888.395	14575
888.519	14423
888.643	14533
888.767	14507
888.891	14339
889.015	14275
889.139	14366
889.263	14248
889.387	14423
889.511	14556
889.635	14434
889.759	14351
889.883	14259
890.006	14362
890.13	14393
890.254	14168
890.377	14225
890.501	14107
890.624	14126
890.748	14123
890.871	14008
890.995	13989
891.118	13986
891.241	13989
891.364	14054
891.488	14077
891.611	14039
891.734	13993
891.857	14107
891.98	14027
892.103	13978
892.226	14024
892.349	13936
892.471	13887
892.594	13978
892.717	14111
892.839	13932
892.962	14020
893.085	14115
893.207	13974
893.33	13989
893.452	13997
893.575	14046
893.697	14005
893.819	14115
893.941	14202
894.064	14176
894.186	13963
894.308	13959
894.43	14100
894.552	14142
894.674	14176
894.796	14024
894.918	14043
895.04	14126
895.161	14130
895.283	14187
895.405	13997
895.526	14058
895.648	14073
895.769	14153
895.891	14206
896.012	14210
896.134	14126
896.255	14092
896.376	14157
896.498	14271
896.619	14229
896.74	14244
896.861	14294
896.982	14564
897.103	14568
897.224	14499
897.345	14450
897.466	14328
897.587	14480
897.708	14606
897.828	14503
897.949	14389
898.07	14385
898.19	14434
898.311	14560
898.431	14339
898.552	14560
898.672	14655
898.792	14594
898.913	14598
899.033	14442
899.153	14400
899.273	14278
899.393	14328
899.513	14351
899.633	14431
899.753	14469
899.873	14343
899.993	14457
900.113	14355
900.232	14412
900.352	14412
900.472	14324
900.591	14248
900.711	14294
900.83	14180
900.95	14393
901.069	14263
901.189	14153
901.308	14054
901.427	13830
901.546	13860
901.665	13963
901.784	14069
901.904	13811
902.023	13719
902.141	13533
902.26	13544
902.379	13632
902.498	13495
902.617	13396
902.735	13483
902.854	13445
902.973	13396
903.091	13263
903.21	13225
903.328	13225
903.446	13194
903.565	13095
903.683	13084
903.801	12924
903.919	13031
904.038	13012
904.156	12935
904.274	12996
904.392	12935
904.51	12833
904.627	12825
904.745	12897
904.863	12932
904.981	12692
905.098	12536
905.216	12658
905.334	12627
905.451	12719
905.569	12528
905.686	12673
905.803	12631
905.921	12399
906.038	12498
906.155	12460
906.272	12285
906.389	12365
906.506	12232
906.623	12175
906.74	12159
906.857	12072
906.974	12114
907.091	12251
907.208	12304
907.324	12197
907.441	12011
907.557	11954
907.674	11920
907.79	11794
907.907	11912
908.023	11916
908.139	11973
908.256	11882
908.372	11893
908.488	11882
908.604	11733
908.72	11611
908.836	11691
908.952	11653
909.068	11680
909.184	11786
909.3	11809
909.415	11699
909.531	11630
909.647	11516
909.762	11425
909.878	11425
909.993	11440
910.108	11414
910.224	11417
910.339	11421
910.454	11307
910.57	11258
910.685	11296
910.8	11490
910.915	11471
911.03	11334
911.145	11174
911.259	11098
911.374	11155
911.489	11052
911.604	10995
911.718	10900
911.833	10965
911.947	10820
912.062	10702
912.176	10873
912.291	10987
912.405	10869
912.519	11067
912.633	11197
912.748	11014
912.862	10862
912.976	10778
913.09	10679
913.204	10805
913.318	10858
913.431	10908
913.545	10824
913.659	10877
913.772	10801
913.886	10656
914	10687
914.113	10797
914.226	10835
914.34	10828
914.453	10584
914.566	10752
914.68	10569
914.793	10630
914.906	10402
915.019	10455
915.132	10310
915.245	10390
915.358	10432
915.47	10348
915.583	10512
915.696	10474
915.809	10546
915.921	10538
916.034	10428
916.146	10394
916.259	10329
916.371	10421
916.483	10394
916.595	10375
916.708	10306
916.82	10382
916.932	10390
917.044	10341
917.156	10329
917.268	10253
917.38	10234
917.491	10253
917.603	10253
917.715	10333
917.826	10318
917.938	10219
918.049	10143
918.161	10295
918.272	10523
918.384	10417
918.495	10325
918.606	10166
918.717	10082
918.828	10112
918.939	10154
919.05	10116
919.161	10135
919.272	9991
919.383	10044
919.494	10219
919.604	10348
919.715	10101
919.826	10059
919.936	10154
920.047	10181
920.157	10154
920.267	10379
920.378	10169
920.488	10188
920.598	10436
920.708	10497
920.818	10363
920.928	10360
921.038	10504
921.148	10535
921.258	10192
921.368	10067
921.477	10032
921.587	10036
921.697	9873
921.806	10032
921.916	9918
922.025	9778
922.134	9701
922.244	9641
922.353	9709
922.462	9576
922.571	9595
922.68	9435
922.789	9431
922.898	9435
923.007	9370
923.116	9515
923.224	9424
923.333	9492
923.442	9298
923.55	9268
923.659	9325
923.767	9454
923.876	9233
923.984	9348
924.092	9268
924.201	9370
924.309	9218
924.417	9237
924.525	9218
924.633	9207
924.741	10185
924.849	9055
924.956	9195
925.064	9119
925.172	8967
925.279	8986
925.387	9104
925.494	9085
925.602	9157
925.709	9097
925.816	8998
925.924	9062
926.031	9119
926.138	9055
926.245	9123
926.352	8998
926.459	9123
926.566	9211
926.673	9055
926.779	8941
926.886	8929
926.993	8804
927.099	8830
927.206	8735
927.312	8739
927.419	8849
927.525	8731
927.631	8785
927.737	8773
927.843	8636
927.95	8549
928.056	8621
928.162	8720
928.267	8766
928.373	9218
928.479	8773
928.585	8541
928.69	8686
928.796	8762
928.901	8568
929.007	8545
929.112	8594
929.218	8617
929.323	8560
929.428	8431
929.533	8621
929.638	8473
929.743	8427
929.848	8514
929.953	8461
930.058	8404
930.163	8305
930.267	8286
930.372	8370
930.477	8199
930.581	8457
930.685	8336
930.79	8180
930.894	8221
930.998	8191
931.103	8355
931.207	8016
931.311	8058
931.415	7906
931.519	7693
931.623	7727
