Data from test_V78500241_286.txt Node
Date: Fri Mar 25 14:35:42 CST 2022
User: usil
Spectrometer: V785-0024
Trigger mode: 0
Integration Time (sec): 4.000000E-1
Scans to average: 1
Nonlinearity correction enabled: false
Boxcar width: 0
Storing dark spectrum: false
XAxis mode: Wavelengths
Number of Pixels in Spectrum: 1024
>>>>>Begin Spectral Data<<<<<
801.071	27275
801.214	27291
801.356	26815
801.499	26864
801.641	26644
801.783	26689
801.926	26682
802.068	26724
802.211	26594
802.353	26499
802.496	26393
802.638	26305
802.78	26161
802.923	26187
803.065	26039
803.208	26058
803.35	26138
803.492	26305
803.635	26317
803.777	26195
803.919	26385
804.061	26438
804.204	26259
804.346	26134
804.488	26126
804.63	26134
804.773	25993
804.915	26180
805.057	26282
805.199	26199
805.341	26301
805.483	26187
805.626	26202
805.768	26134
805.91	26221
806.052	26286
806.194	26195
806.336	26366
806.478	26393
806.62	26138
806.762	26408
806.904	26427
807.046	26648
807.188	26606
807.33	26758
807.472	26727
807.614	26541
807.756	26549
807.898	26564
808.04	26351
808.182	26503
808.324	26473
808.465	26366
808.607	26705
808.749	26800
808.891	26845
809.033	26986
809.174	26921
809.316	26762
809.458	26823
809.6	26750
809.741	26804
809.883	26834
810.025	26937
810.166	26975
810.308	27017
810.45	26830
810.591	26708
810.733	26758
810.875	26648
811.016	26423
811.158	26476
811.299	26655
811.441	26670
811.582	26708
811.724	26495
811.865	26457
812.007	26590
812.148	26465
812.29	26549
812.431	26670
812.573	26800
812.714	26944
812.855	27036
812.997	27077
813.138	27268
813.279	27108
813.421	27131
813.562	27074
813.703	26914
813.845	26712
813.986	26480
814.127	26336
814.268	26142
814.41	26210
814.551	26119
814.692	26142
814.833	26077
814.974	26172
815.115	26077
815.256	25982
815.397	25852
815.539	25966
815.68	25833
815.821	25841
815.962	25928
816.103	25765
816.244	25750
816.385	25624
816.526	25635
816.666	25388
816.807	25171
816.948	25308
817.089	25335
817.23	25221
817.371	25209
817.512	25304
817.653	25270
817.793	25259
817.934	25175
818.075	25289
818.216	25278
818.356	25133
818.497	25027
818.638	25008
818.778	24966
818.919	24833
819.06	25023
819.2	25069
819.341	25122
819.481	25076
819.622	25209
819.762	25487
819.903	25483
820.043	25202
820.184	25255
820.324	25308
820.465	25270
820.605	25278
820.746	25213
820.886	25114
821.026	25061
821.167	25217
821.307	25301
821.447	25133
821.588	24989
821.728	24992
821.868	24719
822.008	24711
822.149	24612
822.289	24509
822.429	24338
822.569	24117
822.709	24224
822.849	24003
822.99	23984
823.13	24076
823.27	24076
823.41	23775
823.55	23809
823.69	23809
823.83	23809
823.97	23703
824.11	23623
824.25	23627
824.389	23608
824.529	23661
824.669	23467
824.809	23661
824.949	23615
825.089	23699
825.228	23630
825.368	23387
825.508	23406
825.648	23551
825.787	23482
825.927	23486
826.067	23516
826.206	23322
826.346	23383
826.485	23448
826.625	23467
826.765	23414
826.904	23592
827.044	23155
827.183	23044
827.323	23105
827.462	23025
827.601	23022
827.741	23025
827.88	23083
828.02	22968
828.159	23132
828.298	23090
828.437	23071
828.577	23098
828.716	23147
828.855	22889
828.994	22797
829.134	22759
829.273	22752
829.412	22710
829.551	22755
829.69	22596
829.829	22793
829.968	22786
830.107	22755
830.246	22755
830.385	22721
830.524	22618
830.663	22592
830.802	22577
830.941	22402
831.08	22299
831.219	22367
831.357	22603
831.496	22596
831.635	22291
831.774	22173
831.913	22192
832.051	22048
832.19	22116
832.329	22040
832.467	21994
832.606	21964
832.744	21998
832.883	21979
833.022	21892
833.16	21937
833.299	21918
833.437	21975
833.576	21880
833.714	22040
833.852	22067
833.991	22154
834.129	22120
834.267	21895
834.406	21960
834.544	21983
834.682	21869
834.821	22025
834.959	22143
835.097	21975
835.235	21968
835.373	22048
835.511	21842
835.65	21800
835.788	21854
835.926	21755
836.064	21572
836.202	21629
836.34	21888
836.478	21915
836.615	21846
836.753	21857
836.891	21819
837.029	21865
837.167	21728
837.305	21739
837.443	21698
837.58	21679
837.718	21610
837.856	21545
837.993	21652
838.131	21610
838.269	21496
838.406	21496
838.544	21401
838.681	21332
838.819	21382
838.956	21032
839.094	21127
839.231	21127
839.369	21192
839.506	21424
839.643	21359
839.781	21108
839.918	20979
840.055	21013
840.193	21070
840.33	20979
840.467	21081
840.604	21066
840.742	21230
840.879	20857
841.016	20842
841.153	20838
841.29	20990
841.427	21020
841.564	20998
841.701	20982
841.838	20933
841.975	20823
842.112	20914
842.249	20861
842.385	20617
842.522	20921
842.659	20727
842.796	20659
842.933	20587
843.069	20670
843.206	20754
843.343	20750
843.479	20693
843.616	20781
843.752	20495
843.889	20469
844.025	20606
844.162	20385
844.298	20518
844.435	20488
844.571	20389
844.708	20465
844.844	20678
844.98	20583
845.117	20583
845.253	20465
845.389	20389
845.525	20427
845.661	20419
845.798	20278
845.934	20446
846.07	20374
846.206	20427
846.342	20370
846.478	20294
846.614	20069
846.75	20001
846.886	19852
847.022	19932
847.158	19986
847.294	19898
847.429	20062
847.565	20008
847.701	20191
847.837	19613
847.972	19502
848.108	19681
848.244	19757
848.379	19499
848.515	19540
848.65	19491
848.786	19510
848.921	19567
849.057	19685
849.192	19571
849.328	19483
849.463	19575
849.598	19362
849.734	19343
849.869	19312
850.004	19312
850.14	19316
850.275	19232
850.41	19137
850.545	19198
850.68	19240
850.815	19206
850.95	19129
851.085	19407
851.22	19316
851.355	19171
851.49	19103
851.625	19175
851.76	19152
851.895	19141
852.03	19110
852.165	19103
852.299	19278
852.434	19247
852.569	19190
852.703	19179
852.838	19285
852.973	19304
853.107	19304
853.242	19099
853.376	19145
853.511	18973
853.645	19050
853.78	19103
853.914	19076
854.048	18863
854.183	19057
854.317	19031
854.451	19099
854.585	19042
854.72	18894
854.854	19088
854.988	18916
855.122	19012
855.256	18939
855.39	18989
855.524	19088
855.658	19080
855.792	19053
855.926	19148
856.06	19031
856.194	19076
856.327	19046
856.461	19023
856.595	19015
856.729	18886
856.862	19004
856.996	18962
857.13	19004
857.263	19133
857.397	18981
857.53	18901
857.664	19050
857.797	19046
857.931	19095
858.064	18878
858.197	19088
858.331	19019
858.464	18909
858.597	18863
858.731	18928
858.864	18977
858.997	18859
859.13	18973
859.263	18996
859.396	19031
859.529	18947
859.662	18901
859.795	18817
859.928	18882
860.061	19088
860.194	19171
860.327	18973
860.46	18947
860.592	19038
860.725	19076
860.858	18943
860.99	18928
861.123	18954
861.256	18856
861.388	18928
861.521	19533
861.653	18947
861.786	18757
861.918	18840
862.05	18943
862.183	18897
862.315	18928
862.447	19038
862.58	18886
862.712	18722
862.844	18650
862.976	18779
863.108	18776
863.24	19133
863.372	18642
863.504	18597
863.636	18707
863.768	18783
863.9	18612
864.032	18654
864.164	18677
864.296	18795
864.428	18722
864.559	18654
864.691	18749
864.823	18787
864.954	18673
865.086	18612
865.217	18642
865.349	18483
865.48	18506
865.612	18528
865.743	18726
865.875	18593
866.006	18528
866.137	18593
866.269	18669
866.4	18681
866.531	18589
866.662	18559
866.793	18414
866.924	18601
867.055	18658
867.186	18601
867.317	18521
867.448	18471
867.579	18536
867.71	18407
867.841	18369
867.972	18498
868.103	18608
868.233	18589
868.364	18547
868.495	18601
868.625	18856
868.756	18772
868.886	18544
869.017	18646
869.147	18939
869.278	18951
869.408	18738
869.539	18730
869.669	18890
869.799	18783
869.929	18897
870.06	18958
870.19	19152
870.32	19069
870.45	19046
870.58	19164
870.71	19346
870.84	19141
870.97	19266
871.1	19099
871.23	19392
871.36	19388
871.489	19301
871.619	19247
871.749	19373
871.879	19392
872.008	19419
872.138	19373
872.267	19384
872.397	19289
872.526	19236
872.656	19168
872.785	19213
872.915	19316
873.044	19362
873.173	19350
873.303	19419
873.432	19480
873.561	19506
873.69	19426
873.819	19415
873.948	19506
874.077	19396
874.206	19502
874.335	19346
874.464	19567
874.593	19594
874.722	19605
874.851	19742
874.979	19731
875.108	19769
875.237	19521
875.365	19594
875.494	19712
875.623	19666
875.751	19750
875.88	19856
876.008	19818
876.136	19921
876.265	19982
876.393	20183
876.521	20176
876.65	20244
876.778	20054
876.906	20069
877.034	19928
877.162	19967
877.29	19951
877.418	20096
877.546	20077
877.674	20027
877.802	20103
877.93	19974
878.058	20024
878.185	19887
878.313	20161
878.441	19986
878.568	19780
878.696	19940
878.824	20111
878.951	20115
879.079	20275
879.206	20404
879.333	20301
879.461	20172
879.588	20218
879.715	20317
879.842	20324
879.97	20240
880.097	19887
880.224	19837
880.351	19947
880.478	20035
880.605	19974
880.732	20001
880.859	20168
880.986	20005
881.112	19906
881.239	19845
881.366	19670
881.493	19540
881.619	19575
881.746	19533
881.872	19518
881.999	19472
882.125	19502
882.252	19499
882.378	19544
882.505	19670
882.631	19480
882.757	19324
882.883	19403
883.01	19278
883.136	19282
883.262	19137
883.388	19247
883.514	19289
883.64	19419
883.766	19251
883.892	19126
884.018	19145
884.143	19278
884.269	19213
884.395	19034
884.52	18913
884.646	18973
884.772	18871
884.897	18776
885.023	18989
885.148	19027
885.274	19023
885.399	19088
885.524	19027
885.65	18916
885.775	18973
885.9	18970
886.025	18981
886.15	19061
886.275	18829
886.4	18882
886.525	18890
886.65	18935
886.775	18715
886.9	19023
887.025	19088
887.149	18935
887.274	18753
887.399	18635
887.523	18715
887.648	18627
887.773	18551
887.897	18757
888.021	18726
888.146	18585
888.27	18665
888.395	18798
888.519	18772
888.643	18741
888.767	18658
888.891	18578
889.015	18407
889.139	18479
889.263	18418
889.387	18532
889.511	18635
889.635	18612
889.759	18506
889.883	18437
890.006	18517
890.13	18509
890.254	18437
890.377	18433
890.501	18330
890.624	18228
890.748	18262
890.871	18136
890.995	18133
891.118	18003
891.241	18167
891.364	18064
891.488	18243
891.611	18068
891.734	18129
891.857	18190
891.98	18079
892.103	18205
892.226	18102
892.349	18102
892.471	17946
892.594	18034
892.717	18095
892.839	17942
892.962	18110
893.085	18030
893.207	18091
893.33	17935
893.452	17977
893.575	18114
893.697	17973
893.819	18190
893.941	18239
894.064	18083
894.186	18026
894.308	17923
894.43	18159
894.552	18239
894.674	18213
894.796	17874
894.918	17939
895.04	17965
895.161	18106
895.283	18057
895.405	18079
895.526	17992
895.648	17999
895.769	18072
895.891	18136
896.012	18117
896.134	18194
896.255	18136
896.376	18068
896.498	18095
896.619	18243
896.74	18205
896.861	18182
896.982	18346
897.103	18601
897.224	18353
897.345	18414
897.466	18247
897.587	18346
897.708	18429
897.828	18315
897.949	18300
898.07	18190
898.19	18308
898.311	18429
898.431	18304
898.552	18357
898.672	18384
898.792	18342
898.913	18372
899.033	18182
899.153	18091
899.273	18136
899.393	18076
899.513	18232
899.633	18155
899.753	18095
899.873	17961
899.993	18038
900.113	17946
900.232	18076
900.352	18049
900.472	17885
900.591	17958
900.711	17965
900.83	17939
900.95	18034
901.069	18034
901.189	17855
901.308	17623
901.427	17539
901.546	17547
901.665	17539
901.784	17585
901.904	17421
902.023	17277
902.141	17090
902.26	17159
902.379	17094
902.498	17162
902.617	17128
902.735	17136
902.854	16972
902.973	16946
903.091	16896
903.21	16850
903.328	16752
903.446	16725
903.565	16615
903.683	16527
903.801	16440
903.919	16569
904.038	16413
904.156	16337
904.274	16417
904.392	16253
904.51	16291
904.627	16421
904.745	16390
904.863	16443
904.981	16181
905.098	16101
905.216	16078
905.334	15968
905.451	16029
905.569	15949
905.686	15994
905.803	16025
905.921	15850
906.038	15941
906.155	15915
906.272	15610
906.389	15747
906.506	15485
906.623	15667
906.74	15572
906.857	15454
906.974	15458
907.091	15675
907.208	15709
907.324	15534
907.441	15386
907.557	15310
907.674	15268
907.79	15268
907.907	15211
908.023	15348
908.139	15363
908.256	15169
908.372	15154
908.488	15104
908.604	14994
908.72	14933
908.836	14937
908.952	14891
909.068	14998
909.184	15089
909.3	14937
909.415	14952
909.531	15039
909.647	14792
909.762	14708
909.878	14678
909.993	14686
910.108	14606
910.224	14568
910.339	14651
910.454	14518
910.57	14457
910.685	14366
910.8	14655
910.915	14648
911.03	14522
911.145	14332
911.259	14195
911.374	14336
911.489	14229
911.604	14195
911.718	14092
911.833	14020
911.947	14016
912.062	13841
912.176	13947
912.291	14054
912.405	14050
912.519	14210
912.633	14240
912.748	14054
912.862	14062
912.976	13818
913.09	13738
913.204	13765
913.318	13875
913.431	13940
913.545	13925
913.659	14001
913.772	13887
913.886	13677
914	13647
914.113	13750
914.226	13830
914.34	13822
914.453	13662
914.566	13784
914.68	13601
914.793	13575
914.906	13339
915.019	13339
915.132	13236
915.245	13304
915.358	13392
915.47	13411
915.583	13369
915.696	13377
915.809	13460
915.921	13400
916.034	13213
916.146	13320
916.259	13221
916.371	13403
916.483	13289
916.595	13244
916.708	13187
916.82	13209
916.932	13240
917.044	13198
917.156	13141
917.268	13046
917.38	13103
917.491	13099
917.603	13057
917.715	13152
917.826	13129
917.938	12905
918.049	12897
918.161	13103
918.272	13133
918.384	13187
918.495	13046
918.606	12886
918.717	12802
918.828	12901
918.939	12837
919.05	12696
919.161	12825
919.272	12722
919.383	12700
919.494	12867
919.604	13152
919.715	12806
919.826	12760
919.936	12768
920.047	12932
920.157	12833
920.267	12977
920.378	12840
920.488	12783
920.598	12993
920.708	13122
920.818	12947
920.928	12977
921.038	13217
921.148	12966
921.258	12741
921.368	12730
921.477	12654
921.587	12536
921.697	12467
921.806	12620
921.916	12498
922.025	12270
922.134	12266
922.244	12239
922.353	12281
922.462	12178
922.571	12003
922.68	11866
922.789	11866
922.898	11969
923.007	11878
923.116	11843
923.224	11942
923.333	11874
923.442	11802
923.55	11707
923.659	11802
923.767	11817
923.876	11699
923.984	11824
924.092	11604
924.201	11710
924.309	11794
924.417	11615
924.525	11570
924.633	11577
924.741	12521
924.849	11429
924.956	11600
925.064	11364
925.172	11372
925.279	11376
925.387	11444
925.494	11448
925.602	11532
925.709	11448
925.816	11318
925.924	11463
926.031	11410
926.138	11334
926.245	11391
926.352	11277
926.459	11452
926.566	11452
926.673	11315
926.779	11201
926.886	11220
926.993	11006
927.099	11060
927.206	11033
927.312	10972
927.419	11067
927.525	11060
927.631	10999
927.737	10976
927.843	10904
927.95	10797
928.056	10835
928.162	10831
928.267	10946
928.373	11391
928.479	11018
928.585	10675
928.69	10839
928.796	10908
928.901	10740
929.007	10668
929.112	10744
929.218	10748
929.323	10668
929.428	10607
929.533	10790
929.638	10664
929.743	10622
929.848	10592
929.953	10542
930.058	10561
930.163	10405
930.267	10440
930.372	10447
930.477	10325
930.581	10569
930.685	10436
930.79	10234
930.894	10314
930.998	10219
931.103	10424
931.207	10074
931.311	9960
931.415	9873
931.519	9679
931.623	9686
