Data from test_V78500241_2335.txt Node
Date: Fri Mar 25 14:49:58 CST 2022
User: usil
Spectrometer: V785-0024
Trigger mode: 0
Integration Time (sec): 4.000000E-1
Scans to average: 1
Nonlinearity correction enabled: false
Boxcar width: 0
Storing dark spectrum: false
XAxis mode: Wavelengths
Number of Pixels in Spectrum: 1024
>>>>>Begin Spectral Data<<<<<
801.071	22185
801.214	21934
801.356	21808
801.499	21766
801.641	21515
801.783	21511
801.926	21629
802.068	21557
802.211	21511
802.353	21260
802.496	21150
802.638	21116
802.78	21077
802.923	21032
803.065	20960
803.208	20815
803.35	21032
803.492	20941
803.635	21058
803.777	20960
803.919	21043
804.061	21256
804.204	20762
804.346	20800
804.488	20804
804.63	20788
804.773	20807
804.915	20762
805.057	20857
805.199	20731
805.341	20830
805.483	21039
805.626	20891
805.768	20819
805.91	20872
806.052	20883
806.194	20781
806.336	21074
806.478	20895
806.62	20777
806.762	20746
806.904	21085
807.046	21157
807.188	21089
807.33	21173
807.472	21214
807.614	21066
807.756	21093
807.898	21032
808.04	20902
808.182	20971
808.324	20963
808.465	20982
808.607	21199
808.749	21180
808.891	21351
809.033	21344
809.174	21218
809.316	21203
809.458	21161
809.6	21066
809.741	21093
809.883	21184
810.025	21386
810.166	21378
810.308	21310
810.45	21237
810.591	21173
810.733	20963
810.875	21123
811.016	20895
811.158	20921
811.299	21036
811.441	21135
811.582	21146
811.724	20960
811.865	20872
812.007	20834
812.148	20925
812.29	21009
812.431	21165
812.573	21317
812.714	21313
812.855	21557
812.997	21622
813.138	21660
813.279	21580
813.421	21519
813.562	21313
813.703	21135
813.845	21039
813.986	20887
814.127	20644
814.268	20549
814.41	20587
814.551	20579
814.692	20746
814.833	20355
814.974	20507
815.115	20465
815.256	20347
815.397	20374
815.539	20366
815.68	20252
815.821	20176
815.962	20393
816.103	20138
816.244	20088
816.385	19925
816.526	20012
816.666	19750
816.807	19620
816.948	19746
817.089	19674
817.23	19750
817.371	19635
817.512	19624
817.653	19571
817.793	19597
817.934	19662
818.075	19677
818.216	19731
818.356	19601
818.497	19457
818.638	19240
818.778	19362
818.919	19445
819.06	19411
819.2	19453
819.341	19635
819.481	19567
819.622	19715
819.762	19784
819.903	19799
820.043	19693
820.184	19742
820.324	19453
820.465	19753
820.605	19601
820.746	19514
820.886	19464
821.026	19651
821.167	19521
821.307	19674
821.447	19556
821.588	19480
821.728	19293
821.868	19289
822.008	19023
822.149	18977
822.289	18993
822.429	18764
822.569	18753
822.709	18646
822.849	18551
822.99	18467
823.13	18330
823.27	18536
823.41	18262
823.55	18232
823.69	18372
823.83	18319
823.97	18197
824.11	18129
824.25	18057
824.389	18076
824.529	18182
824.669	18019
824.809	18174
824.949	18273
825.089	18079
825.228	18102
825.368	17912
825.508	17805
825.648	17756
825.787	17897
825.927	17901
826.067	17821
826.206	17866
826.346	17931
826.485	17821
826.625	17764
826.765	17950
826.904	17851
827.044	17634
827.183	17505
827.323	17562
827.462	17532
827.601	17653
827.741	17543
827.88	17528
828.02	17493
828.159	17581
828.298	17551
828.437	17547
828.577	17505
828.716	17630
828.855	17600
828.994	17368
829.134	17223
829.273	17379
829.412	17140
829.551	17273
829.69	17227
829.829	17334
829.968	17463
830.107	17372
830.246	17261
830.385	17231
830.524	17166
830.663	17121
830.802	16995
830.941	16946
831.08	16927
831.219	17018
831.357	17003
831.496	17189
831.635	16968
831.774	16771
831.913	16805
832.051	16626
832.19	16687
832.329	16691
832.467	16637
832.606	16622
832.744	16634
832.883	16679
833.022	16516
833.16	16603
833.299	16618
833.437	16656
833.576	16656
833.714	16618
833.852	16546
833.991	16702
834.129	16675
834.267	16531
834.406	16618
834.544	16717
834.682	16694
834.821	16607
834.959	16805
835.097	16611
835.235	16626
835.373	16645
835.511	16592
835.65	16493
835.788	16527
835.926	16424
836.064	16363
836.202	16352
836.34	16519
836.478	16626
836.615	16542
836.753	16462
836.891	16615
837.029	16546
837.167	16512
837.305	16466
837.443	16436
837.58	16303
837.718	16405
837.856	16436
837.993	16394
838.131	16367
838.269	16329
838.406	16447
838.544	16265
838.681	16173
838.819	16128
838.956	15880
839.094	15941
839.231	15922
839.369	15987
839.506	16246
839.643	16223
839.781	15937
839.918	15835
840.055	15998
840.193	15888
840.33	15930
840.467	16002
840.604	15968
840.742	16139
840.879	15770
841.016	15835
841.153	15838
841.29	16029
841.427	15895
841.564	16021
841.701	15972
841.838	15953
841.975	15800
842.112	15816
842.249	15808
842.385	15755
842.522	15941
842.659	15755
842.796	15732
842.933	15713
843.069	15629
843.206	15698
843.343	15709
843.479	15736
843.616	15789
843.752	15462
843.889	15481
844.025	15595
844.162	15443
844.298	15720
844.435	15492
844.571	15386
844.708	15511
844.844	15751
844.98	15633
845.117	15549
845.253	15378
845.389	15416
845.525	15329
845.661	15336
845.798	15294
845.934	15389
846.07	15348
846.206	15359
846.342	15428
846.478	15275
846.614	15066
846.75	15116
846.886	14998
847.022	15066
847.158	15077
847.294	15009
847.429	15074
847.565	15116
847.701	15386
847.837	14697
847.972	14663
848.108	14864
848.244	14925
848.379	14682
848.515	14636
848.65	14636
848.786	14636
848.921	14701
849.057	14686
849.192	14758
849.328	14743
849.463	14568
849.598	14655
849.734	14594
849.869	14583
850.004	14465
850.14	14492
850.275	14434
850.41	14320
850.545	14450
850.68	14442
850.815	14381
850.95	14362
851.085	14621
851.22	14492
851.355	14457
851.49	14355
851.625	14336
851.76	14423
851.895	14381
852.03	14412
852.165	14389
852.299	14507
852.434	14522
852.569	14465
852.703	14393
852.838	14564
852.973	14556
853.107	14541
853.242	14431
853.376	14286
853.511	14233
853.645	14301
853.78	14324
853.914	14210
854.048	14240
854.183	14263
854.317	14290
854.451	14530
854.585	14282
854.72	14218
854.854	14404
854.988	14100
855.122	14298
855.256	14244
855.39	14362
855.524	14362
855.658	14347
855.792	14355
855.926	14358
856.06	14400
856.194	14385
856.327	14267
856.461	14210
856.595	14164
856.729	14298
856.862	14385
856.996	14419
857.13	14427
857.263	14374
857.397	14461
857.53	14374
857.664	14381
857.797	14408
857.931	14404
858.064	14328
858.197	14385
858.331	14225
858.464	14157
858.597	14142
858.731	14313
858.864	14343
858.997	14199
859.13	14336
859.263	14278
859.396	14271
859.529	14248
859.662	14282
859.795	14336
859.928	14332
860.061	14381
860.194	14434
860.327	14320
860.46	14317
860.592	14355
860.725	14488
860.858	14476
860.99	14385
861.123	14252
861.256	14309
861.388	14362
861.521	14727
861.653	14206
861.786	14054
861.918	14153
862.05	14237
862.183	14294
862.315	14263
862.447	14339
862.58	14202
862.712	14012
862.844	14001
862.976	14142
863.108	14100
863.24	14415
863.372	14084
863.504	14206
863.636	14088
863.768	14180
863.9	14100
864.032	13970
864.164	14024
864.296	14161
864.428	14126
864.559	14130
864.691	14130
864.823	14126
864.954	14012
865.086	14092
865.217	14107
865.349	14073
865.48	14111
865.612	14050
865.743	14214
865.875	14012
866.006	14073
866.137	14107
866.269	14187
866.4	13982
866.531	14024
866.662	13963
866.793	13963
866.924	14008
867.055	14054
867.186	14024
867.317	13921
867.448	13871
867.579	13982
867.71	13944
867.841	14027
867.972	14024
868.103	14123
868.233	14043
868.364	14069
868.495	14073
868.625	14240
868.756	14469
868.886	14229
869.017	14183
869.147	14434
869.278	14434
869.408	14301
869.539	14240
869.669	14389
869.799	14305
869.929	14377
870.06	14511
870.19	14579
870.32	14545
870.45	14739
870.58	14746
870.71	14769
870.84	14910
870.97	14693
871.1	14674
871.23	14937
871.36	14834
871.489	14899
871.619	14815
871.749	14868
871.879	15001
872.008	14952
872.138	14921
872.267	14868
872.397	14796
872.526	14781
872.656	14663
872.785	14724
872.915	14902
873.044	15001
873.173	14948
873.303	14990
873.432	14998
873.561	15013
873.69	14929
873.819	14883
873.948	15009
874.077	14998
874.206	14937
874.335	14971
874.464	15100
874.593	15264
874.722	15131
874.851	15256
874.979	15279
875.108	15279
875.237	15214
875.365	15104
875.494	15199
875.623	15294
875.751	15207
875.88	15279
876.008	15321
876.136	15504
876.265	15690
876.393	15888
876.521	15846
876.65	15797
876.778	15698
876.906	15724
877.034	15652
877.162	15724
877.29	15648
877.418	15679
877.546	15625
877.674	15599
877.802	15690
877.93	15663
878.058	15682
878.185	15679
878.313	15572
878.441	15538
878.568	15507
878.696	15526
878.824	15641
878.951	15724
879.079	15812
879.206	15934
879.333	15861
879.461	15793
879.588	15846
879.715	15800
879.842	16059
879.97	15762
880.097	15485
880.224	15538
880.351	15549
880.478	15572
880.605	15462
880.732	15526
880.859	15755
880.986	15469
881.112	15515
881.239	15424
881.366	15344
881.493	15249
881.619	15233
881.746	15233
881.872	15135
881.999	15074
882.125	15097
882.252	15184
882.378	15207
882.505	15351
882.631	15180
882.757	14868
882.883	15001
883.01	15051
883.136	14998
883.262	14956
883.388	14769
883.514	15138
883.64	14986
883.766	14895
883.892	14777
884.018	14758
884.143	14990
884.269	15074
884.395	14746
884.52	14697
884.646	14743
884.772	14651
884.897	14613
885.023	14632
885.148	14849
885.274	14819
885.399	14731
885.524	14735
885.65	14689
885.775	14727
885.9	14743
886.025	14815
886.15	14743
886.275	14640
886.4	14560
886.525	14762
886.65	14632
886.775	14663
886.9	14891
887.025	14914
887.149	14773
887.274	14484
887.399	14431
887.523	14469
887.648	14518
887.773	14484
887.897	14556
888.021	14598
888.146	14526
888.27	14651
888.395	14701
888.519	14606
888.643	14533
888.767	14533
888.891	14530
889.015	14454
889.139	14389
889.263	14298
889.387	14526
889.511	14636
889.635	14442
889.759	14396
889.883	14393
890.006	14560
890.13	14469
890.254	14355
890.377	14256
890.501	14240
890.624	14157
890.748	14259
890.871	14187
890.995	14073
891.118	13967
891.241	14172
891.364	14183
891.488	14221
891.611	14100
891.734	14115
891.857	14168
891.98	14115
892.103	14119
892.226	14138
892.349	14092
892.471	13871
892.594	14096
892.717	14187
892.839	14062
892.962	14039
893.085	14107
893.207	14039
893.33	14020
893.452	14012
893.575	14115
893.697	14100
893.819	14229
893.941	14328
894.064	14301
894.186	14134
894.308	14001
894.43	14149
894.552	14263
894.674	14214
894.796	14134
894.918	14199
895.04	14115
895.161	14180
895.283	14229
895.405	14142
895.526	14157
895.648	14180
895.769	14282
895.891	14317
896.012	14286
896.134	14320
896.255	14336
896.376	14183
896.498	14328
896.619	14389
896.74	14286
896.861	14362
896.982	14632
897.103	14708
897.224	14503
897.345	14514
897.466	14431
897.587	14469
897.708	14693
897.828	14655
897.949	14552
898.07	14374
898.19	14518
898.311	14682
898.431	14568
898.552	14632
898.672	14682
898.792	14739
898.913	14651
899.033	14495
899.153	14431
899.273	14358
899.393	14461
899.513	14465
899.633	14381
899.753	14473
899.873	14507
899.993	14488
900.113	14438
900.232	14522
900.352	14499
900.472	14385
900.591	14313
900.711	14370
900.83	14290
900.95	14423
901.069	14400
901.189	14294
901.308	14043
901.427	14054
901.546	14035
901.665	14123
901.784	14020
901.904	14008
902.023	13715
902.141	13624
902.26	13662
902.379	13674
902.498	13647
902.617	13533
902.735	13628
902.854	13727
902.973	13472
903.091	13289
903.21	13232
903.328	13377
903.446	13285
903.565	13141
903.683	13232
903.801	13084
903.919	13145
904.038	13149
904.156	12977
904.274	13034
904.392	13004
904.51	13012
904.627	12966
904.745	13057
904.863	13008
904.981	12722
905.098	12635
905.216	12764
905.334	12741
905.451	12662
905.569	12658
905.686	12646
905.803	12612
905.921	12570
906.038	12547
906.155	12547
906.272	12376
906.389	12448
906.506	12292
906.623	12247
906.74	12239
906.857	12133
906.974	12121
907.091	12315
907.208	12289
907.324	12330
907.441	12152
907.557	12053
907.674	12030
907.79	12003
907.907	11923
908.023	11992
908.139	11992
908.256	11977
908.372	11984
908.488	11885
908.604	11794
908.72	11668
908.836	11745
908.952	11809
909.068	11824
909.184	11843
909.3	11859
909.415	11798
909.531	11756
909.647	11562
909.762	11615
909.878	11455
909.993	11501
910.108	11501
910.224	11429
910.339	11448
910.454	11307
910.57	11353
910.685	11376
910.8	11615
910.915	11512
911.03	11402
911.145	11223
911.259	11208
911.374	11132
911.489	11162
911.604	11121
911.718	10991
911.833	11045
911.947	10908
912.062	10805
912.176	11041
912.291	10881
912.405	11010
912.519	11155
912.633	11239
912.748	11041
912.862	10953
912.976	10847
913.09	10725
913.204	10809
913.318	10904
913.431	10957
913.545	10953
913.659	10949
913.772	10869
913.886	10767
914	10710
914.113	10820
914.226	10843
914.34	10793
914.453	10660
914.566	10942
914.68	10679
914.793	10611
914.906	10565
915.019	10413
915.132	10348
915.245	10512
915.358	10474
915.47	10504
915.583	10493
915.696	10546
915.809	10599
915.921	10774
916.034	10424
916.146	10432
916.259	10382
916.371	10569
916.483	10538
916.595	10459
916.708	10443
916.82	10398
916.932	10485
917.044	10333
917.156	10348
917.268	10299
917.38	10348
917.491	10280
917.603	10306
917.715	10451
917.826	10455
917.938	10379
918.049	10219
918.161	10329
918.272	10481
918.384	10535
918.495	10367
918.606	10188
918.717	10158
918.828	10173
918.939	10188
919.05	10071
919.161	10215
919.272	9975
919.383	10093
919.494	10272
919.604	10409
919.715	10280
919.826	10139
919.936	10185
920.047	10299
920.157	10253
920.267	10478
920.378	10246
920.488	10211
920.598	10390
920.708	10474
920.818	10417
920.928	10417
921.038	10588
921.148	10500
921.258	10253
921.368	10215
921.477	10082
921.587	10093
921.697	9972
921.806	10120
921.916	9998
922.025	9812
922.134	9743
922.244	9717
922.353	9793
922.462	9667
922.571	9603
922.68	9408
922.789	9424
922.898	9500
923.007	9374
923.116	9523
923.224	9485
923.333	9466
923.442	9378
923.55	9287
923.659	9378
923.767	9382
923.876	9386
923.984	9355
924.092	9245
924.201	9359
924.309	9325
924.417	9321
924.525	9245
924.633	9279
924.741	10044
924.849	9112
924.956	9260
925.064	9176
925.172	9036
925.279	9093
925.387	9165
925.494	9199
925.602	9226
925.709	9154
925.816	9070
925.924	9123
926.031	9245
926.138	9112
926.245	9165
926.352	9009
926.459	9192
926.566	9226
926.673	9116
926.779	9001
926.886	8937
926.993	8887
927.099	8807
927.206	8792
927.312	8819
927.419	8857
927.525	8861
927.631	8883
927.737	8804
927.843	8712
927.95	8541
928.056	8720
928.162	8758
928.267	8838
928.373	9351
928.479	8777
928.585	8564
928.69	8693
928.796	8792
928.901	8606
929.007	8499
929.112	8735
929.218	8655
929.323	8602
929.428	8587
929.533	8659
929.638	8446
929.743	8492
929.848	8610
929.953	8549
930.058	8457
930.163	8282
930.267	8355
930.372	8549
930.477	8324
930.581	8533
930.685	8351
930.79	8240
930.894	8317
930.998	8252
931.103	8415
931.207	8054
931.311	8005
931.415	7898
931.519	7769
931.623	7750
