Data from test_V78500241_2403.txt Node
Date: Fri Mar 25 14:50:26 CST 2022
User: usil
Spectrometer: V785-0024
Trigger mode: 0
Integration Time (sec): 4.000000E-1
Scans to average: 1
Nonlinearity correction enabled: false
Boxcar width: 0
Storing dark spectrum: false
XAxis mode: Wavelengths
Number of Pixels in Spectrum: 1024
>>>>>Begin Spectral Data<<<<<
801.071	22162
801.214	21964
801.356	21781
801.499	21690
801.641	21439
801.783	21435
801.926	21583
802.068	21382
802.211	21348
802.353	21374
802.496	21077
802.638	21093
802.78	20921
802.923	20834
803.065	20701
803.208	20823
803.35	20849
803.492	20853
803.635	20952
803.777	20842
803.919	20975
804.061	21169
804.204	20796
804.346	20769
804.488	20590
804.63	20868
804.773	20769
804.915	20712
805.057	20853
805.199	20571
805.341	20811
805.483	20918
805.626	20796
805.768	20651
805.91	20792
806.052	20842
806.194	20575
806.336	20720
806.478	20621
806.62	20773
806.762	20743
806.904	20918
807.046	21275
807.188	21066
807.33	20990
807.472	21176
807.614	21001
807.756	20971
807.898	20792
808.04	20876
808.182	20678
808.324	20773
808.465	20769
808.607	20990
808.749	21112
808.891	21188
809.033	21310
809.174	21245
809.316	21142
809.458	21127
809.6	21165
809.741	21169
809.883	21131
810.025	21287
810.166	21336
810.308	21272
810.45	21294
810.591	21074
810.733	20876
810.875	20823
811.016	20804
811.158	20769
811.299	20914
811.441	20986
811.582	20887
811.724	20918
811.865	20937
812.007	20811
812.148	20914
812.29	20925
812.431	21062
812.573	21214
812.714	21321
812.855	21321
812.997	21477
813.138	21603
813.279	21530
813.421	21393
813.562	21279
813.703	21089
813.845	20982
813.986	20804
814.127	20583
814.268	20427
814.41	20678
814.551	20389
814.692	20583
814.833	20362
814.974	20275
815.115	20366
815.256	20263
815.397	20355
815.539	20423
815.68	20176
815.821	20100
815.962	20298
816.103	20145
816.244	19951
816.385	19837
816.526	19944
816.666	19795
816.807	19662
816.948	19674
817.089	19788
817.23	19601
817.371	19548
817.512	19544
817.653	19537
817.793	19487
817.934	19635
818.075	19483
818.216	19628
818.356	19525
818.497	19362
818.638	19247
818.778	19316
818.919	19293
819.06	19278
819.2	19335
819.341	19480
819.481	19438
819.622	19643
819.762	19784
819.903	19674
820.043	19586
820.184	19544
820.324	19552
820.465	19559
820.605	19628
820.746	19506
820.886	19434
821.026	19426
821.167	19502
821.307	19518
821.447	19518
821.588	19316
821.728	19232
821.868	19183
822.008	18932
822.149	19015
822.289	18844
822.429	18654
822.569	18563
822.709	18749
822.849	18429
822.99	18395
823.13	18388
823.27	18388
823.41	18361
823.55	18205
823.69	18334
823.83	18258
823.97	18197
824.11	17961
824.25	17992
824.389	18053
824.529	18102
824.669	17935
824.809	18060
824.949	18057
825.089	17988
825.228	18053
825.368	17722
825.508	17824
825.648	17828
825.787	17828
825.927	17923
826.067	17832
826.206	17767
826.346	17748
826.485	17802
826.625	17771
826.765	17863
826.904	17783
827.044	17471
827.183	17497
827.323	17292
827.462	17520
827.601	17497
827.741	17490
827.88	17482
828.02	17322
828.159	17353
828.298	17501
828.437	17535
828.577	17539
828.716	17585
828.855	17516
828.994	17269
829.134	17227
829.273	17246
829.412	17124
829.551	17254
829.69	17174
829.829	17296
829.968	17345
830.107	17277
830.246	17204
830.385	17189
830.524	17189
830.663	17048
830.802	17003
830.941	16820
831.08	16869
831.219	16885
831.357	16820
831.496	17025
831.635	16843
831.774	16759
831.913	16733
832.051	16710
832.19	16580
832.329	16721
832.467	16596
832.606	16398
832.744	16500
832.883	16500
833.022	16398
833.16	16451
833.299	16634
833.437	16428
833.576	16538
833.714	16664
833.852	16622
833.991	16675
834.129	16702
834.267	16725
834.406	16478
834.544	16550
834.682	16588
834.821	16577
834.959	16744
835.097	16489
835.235	16611
835.373	16596
835.511	16588
835.65	16531
835.788	16466
835.926	16344
836.064	16314
836.202	16356
836.34	16592
836.478	16573
836.615	16405
836.753	16485
836.891	16523
837.029	16542
837.167	16360
837.305	16295
837.443	16447
837.58	16371
837.718	16333
837.856	16234
837.993	16352
838.131	16344
838.269	16299
838.406	16200
838.544	16253
838.681	16010
838.819	16059
838.956	15854
839.094	15876
839.231	15934
839.369	16074
839.506	16310
839.643	16063
839.781	16002
839.918	15861
840.055	15880
840.193	15869
840.33	15823
840.467	15835
840.604	15926
840.742	16154
840.879	15819
841.016	15918
841.153	15747
841.29	15987
841.427	15892
841.564	15869
841.701	15846
841.838	15835
841.975	15812
842.112	15861
842.249	15747
842.385	15648
842.522	15949
842.659	15759
842.796	15564
842.933	15690
843.069	15580
843.206	15542
843.343	15797
843.479	15698
843.616	15648
843.752	15389
843.889	15462
844.025	15568
844.162	15416
844.298	15553
844.435	15485
844.571	15298
844.708	15473
844.844	15599
844.98	15622
845.117	15538
845.253	15447
845.389	15287
845.525	15386
845.661	15317
845.798	15188
845.934	15317
846.07	15188
846.206	15283
846.342	15389
846.478	15203
846.614	14933
846.75	14918
846.886	14887
847.022	15119
847.158	15032
847.294	15058
847.429	15047
847.565	14918
847.701	15176
847.837	14769
847.972	14746
848.108	14853
848.244	14788
848.379	14651
848.515	14564
848.65	14511
848.786	14613
848.921	14625
849.057	14765
849.192	14678
849.328	14613
849.463	14651
849.598	14606
849.734	14476
849.869	14556
850.004	14484
850.14	14313
850.275	14362
850.41	14393
850.545	14385
850.68	14305
850.815	14404
850.95	14347
851.085	14492
851.22	14518
851.355	14347
851.49	14370
851.625	14343
851.76	14408
851.895	14298
852.03	14278
852.165	14320
852.299	14385
852.434	14457
852.569	14476
852.703	14450
852.838	14552
852.973	14545
853.107	14465
853.242	14431
853.376	14336
853.511	14214
853.645	14263
853.78	14362
853.914	14240
854.048	14298
854.183	14282
854.317	14351
854.451	14450
854.585	14355
854.72	14244
854.854	14343
854.988	14199
855.122	14358
855.256	14092
855.39	14278
855.524	14351
855.658	14351
855.792	14286
855.926	14301
856.06	14332
856.194	14408
856.327	14336
856.461	14328
856.595	14256
856.729	14267
856.862	14412
856.996	14278
857.13	14259
857.263	14351
857.397	14518
857.53	14336
857.664	14294
857.797	14427
857.931	14476
858.064	14412
858.197	14381
858.331	14256
858.464	14218
858.597	14282
858.731	14339
858.864	14336
858.997	14240
859.13	14301
859.263	14294
859.396	14317
859.529	14339
859.662	14187
859.795	14244
859.928	14336
860.061	14469
860.194	14454
860.327	14275
860.46	14377
860.592	14446
860.725	14469
860.858	14404
860.99	14309
861.123	14191
861.256	14168
861.388	14210
861.521	14864
861.653	14130
861.786	14172
861.918	14202
862.05	14119
862.183	14263
862.315	14309
862.447	14298
862.58	14202
862.712	14115
862.844	14016
862.976	14237
863.108	14100
863.24	14381
863.372	14058
863.504	14024
863.636	14077
863.768	14084
863.9	14145
864.032	14100
864.164	14096
864.296	14027
864.428	14206
864.559	14187
864.691	14202
864.823	14199
864.954	14149
865.086	14145
865.217	13997
865.349	14077
865.48	14103
865.612	14069
865.743	14252
865.875	14012
866.006	14043
866.137	14031
866.269	14046
866.4	14008
866.531	14031
866.662	13944
866.793	13993
866.924	13978
867.055	14058
867.186	14088
867.317	13989
867.448	14039
867.579	14043
867.71	14001
867.841	13928
867.972	14050
868.103	14058
868.233	14073
868.364	14016
868.495	14039
868.625	14172
868.756	14351
868.886	14157
869.017	14332
869.147	14332
869.278	14415
869.408	14358
869.539	14339
869.669	14343
869.799	14396
869.929	14431
870.06	14412
870.19	14583
870.32	14526
870.45	14674
870.58	14697
870.71	14804
870.84	14849
870.97	14708
871.1	14651
871.23	14937
871.36	14899
871.489	14777
871.619	14834
871.749	14914
871.879	14937
872.008	15020
872.138	14872
872.267	14933
872.397	14804
872.526	14750
872.656	14758
872.785	14686
872.915	15005
873.044	15081
873.173	14956
873.303	14963
873.432	14944
873.561	15005
873.69	14906
873.819	14941
873.948	15024
874.077	14944
874.206	14910
874.335	14975
874.464	15070
874.593	15287
874.722	15116
874.851	15313
874.979	15302
875.108	15298
875.237	15306
875.365	15154
875.494	15291
875.623	15325
875.751	15184
875.88	15325
876.008	15351
876.136	15428
876.265	15789
876.393	15816
876.521	15827
876.65	15690
876.778	15747
876.906	15679
877.034	15701
877.162	15564
877.29	15496
877.418	15762
877.546	15690
877.674	15545
877.802	15656
877.93	15633
878.058	15603
878.185	15690
878.313	15709
878.441	15610
878.568	15481
878.696	15568
878.824	15690
878.951	15701
879.079	15968
879.206	16055
879.333	15846
879.461	15679
879.588	15728
879.715	15880
879.842	16036
879.97	15698
880.097	15545
880.224	15549
880.351	15549
880.478	15504
880.605	15530
880.732	15534
880.859	15838
880.986	15648
881.112	15507
881.239	15378
881.366	15397
881.493	15256
881.619	15116
881.746	15123
881.872	15203
881.999	15024
882.125	15169
882.252	15173
882.378	15176
882.505	15313
882.631	15195
882.757	15028
882.883	15058
883.01	15032
883.136	14910
883.262	14792
883.388	14781
883.514	14960
883.64	15028
883.766	15013
883.892	14765
884.018	14842
884.143	14986
884.269	15180
884.395	14735
884.52	14724
884.646	14636
884.772	14644
884.897	14606
885.023	14663
885.148	14891
885.274	14830
885.399	14823
885.524	14678
885.65	14629
885.775	14693
885.9	14750
886.025	14845
886.15	14743
886.275	14640
886.4	14689
886.525	14712
886.65	14575
886.775	14629
886.9	14845
887.025	14910
887.149	14750
887.274	14469
887.399	14579
887.523	14518
887.648	14476
887.773	14461
887.897	14625
888.021	14613
888.146	14446
888.27	14590
888.395	14739
888.519	14636
888.643	14583
888.767	14533
888.891	14492
889.015	14469
889.139	14446
889.263	14438
889.387	14533
889.511	14674
889.635	14473
889.759	14259
889.883	14412
890.006	14427
890.13	14514
890.254	14362
890.377	14305
890.501	14244
890.624	14214
890.748	14229
890.871	14153
890.995	13978
891.118	13986
891.241	14088
891.364	14084
891.488	14183
891.611	14062
891.734	14050
891.857	14134
891.98	13978
892.103	14115
892.226	14187
892.349	13997
892.471	13928
892.594	14111
892.717	14134
892.839	14077
892.962	14039
893.085	14069
893.207	14077
893.33	13997
893.452	13959
893.575	14164
893.697	14043
893.819	14233
893.941	14252
894.064	14221
894.186	14103
894.308	14050
894.43	14187
894.552	14339
894.674	14237
894.796	14077
894.918	14138
895.04	14149
895.161	14202
895.283	14328
895.405	14119
895.526	14244
895.648	14263
895.769	14332
895.891	14149
896.012	14286
896.134	14248
896.255	14263
896.376	14221
896.498	14305
896.619	14294
896.74	14252
896.861	14290
896.982	14632
897.103	14762
897.224	14537
897.345	14488
897.466	14495
897.587	14659
897.708	14568
897.828	14678
897.949	14514
898.07	14381
898.19	14438
898.311	14693
898.431	14594
898.552	14697
898.672	14663
898.792	14716
898.913	14716
899.033	14511
899.153	14533
899.273	14419
899.393	14404
899.513	14556
899.633	14564
899.753	14507
899.873	14476
899.993	14579
900.113	14362
900.232	14514
900.352	14408
900.472	14404
900.591	14290
900.711	14355
900.83	14313
900.95	14400
901.069	14476
901.189	14248
901.308	14046
901.427	14046
901.546	13978
901.665	14039
901.784	14126
901.904	13898
902.023	13883
902.141	13609
902.26	13590
902.379	13647
902.498	13636
902.617	13518
902.735	13643
902.854	13594
902.973	13495
903.091	13346
903.21	13266
903.328	13365
903.446	13259
903.565	13103
903.683	13118
903.801	13034
903.919	13122
904.038	13171
904.156	13019
904.274	13065
904.392	12977
904.51	12913
904.627	12951
904.745	13004
904.863	13012
904.981	12814
905.098	12730
905.216	12635
905.334	12741
905.451	12726
905.569	12688
905.686	12673
905.803	12623
905.921	12528
906.038	12559
906.155	12479
906.272	12308
906.389	12376
906.506	12190
906.623	12243
906.74	12273
906.857	12106
906.974	12235
907.091	12232
907.208	12437
907.324	12285
907.441	12182
907.557	12015
907.674	12003
907.79	11958
907.907	11942
908.023	12045
908.139	12022
908.256	11942
908.372	11882
908.488	11897
908.604	11798
908.72	11779
908.836	11760
908.952	11718
909.068	11832
909.184	11828
909.3	11767
909.415	11767
909.531	11729
909.647	11562
909.762	11554
909.878	11455
909.993	11535
910.108	11558
910.224	11600
910.339	11581
910.454	11459
910.57	11452
910.685	11280
910.8	11676
910.915	11467
911.03	11433
911.145	11216
911.259	11208
911.374	11181
911.489	11102
911.604	11178
911.718	10991
911.833	10995
911.947	10866
912.062	10873
912.176	10923
912.291	10980
912.405	10957
912.519	11242
912.633	11181
912.748	11037
912.862	10995
912.976	10908
913.09	10714
913.204	10847
913.318	10869
913.431	10972
913.545	11018
913.659	11003
913.772	10831
913.886	10774
914	10637
914.113	10824
914.226	10896
914.34	10881
914.453	10653
914.566	10771
914.68	10626
914.793	10611
914.906	10531
915.019	10523
915.132	10424
915.245	10478
915.358	10485
915.47	10493
915.583	10474
915.696	10531
915.809	10660
915.921	10607
916.034	10489
916.146	10428
916.259	10436
916.371	10481
916.483	10455
916.595	10375
916.708	10405
916.82	10432
916.932	10489
917.044	10379
917.156	10348
917.268	10238
917.38	10352
917.491	10314
917.603	10436
917.715	10409
917.826	10337
917.938	10238
918.049	10200
918.161	10276
918.272	10417
918.384	10459
918.495	10379
918.606	10181
918.717	10166
918.828	10200
918.939	10249
919.05	10112
919.161	10257
919.272	10021
919.383	10071
919.494	10249
919.604	10440
919.715	10204
919.826	10215
919.936	10192
920.047	10249
920.157	10253
920.267	10481
920.378	10261
920.488	10280
920.598	10455
920.708	10573
920.818	10371
920.928	10432
921.038	10615
921.148	10592
921.258	10306
921.368	10185
921.477	10139
921.587	10074
921.697	9934
921.806	10124
921.916	9922
922.025	9835
922.134	9812
922.244	9819
922.353	9846
922.462	9728
922.571	9656
922.68	9526
922.789	9488
922.898	9447
923.007	9469
923.116	9576
923.224	9488
923.333	9530
923.442	9386
923.55	9344
923.659	9348
923.767	9507
923.876	9370
923.984	9412
924.092	9279
924.201	9374
924.309	9374
924.417	9389
924.525	9359
924.633	9260
924.741	10082
924.849	9176
924.956	9340
925.064	9108
925.172	9058
925.279	9058
925.387	9192
925.494	9169
925.602	9329
925.709	9203
925.816	9093
925.924	9135
926.031	9275
926.138	9203
926.245	9218
926.352	9100
926.459	9245
926.566	9329
926.673	9093
926.779	8967
926.886	8963
926.993	8876
927.099	8849
927.206	8792
927.312	8842
927.419	8849
927.525	8842
927.631	8921
927.737	8830
927.843	8739
927.95	8598
928.056	8788
928.162	8785
928.267	8834
928.373	9355
928.479	8853
928.585	8670
928.69	8769
928.796	8792
928.901	8720
929.007	8533
929.112	8629
929.218	8686
929.323	8674
929.428	8575
929.533	8712
929.638	8522
929.743	8518
929.848	8602
929.953	8552
930.058	8507
930.163	8339
930.267	8336
930.372	8469
930.477	8374
930.581	8511
930.685	8339
930.79	8301
930.894	8309
930.998	8313
931.103	8473
931.207	8107
931.311	7982
931.415	8035
931.519	7799
931.623	7826
