Data from test_V78500241_848.txt Node
Date: Fri Mar 25 14:39:37 CST 2022
User: usil
Spectrometer: V785-0024
Trigger mode: 0
Integration Time (sec): 4.000000E-1
Scans to average: 1
Nonlinearity correction enabled: false
Boxcar width: 0
Storing dark spectrum: false
XAxis mode: Wavelengths
Number of Pixels in Spectrum: 1024
>>>>>Begin Spectral Data<<<<<
801.071	25997
801.214	25822
801.356	25601
801.499	25499
801.641	25388
801.783	25263
801.926	25396
802.068	25095
802.211	25137
802.353	25023
802.496	24783
802.638	24852
802.78	24776
802.923	24787
803.065	24620
803.208	24604
803.35	24601
803.492	24840
803.635	24840
803.777	24696
803.919	24863
804.061	25095
804.204	24764
804.346	24768
804.488	24665
804.63	24871
804.773	24700
804.915	24856
805.057	25091
805.199	24848
805.341	24852
805.483	25015
805.626	25080
805.768	25084
805.91	25118
806.052	25266
806.194	25240
806.336	25552
806.478	25605
806.62	25483
806.762	25807
806.904	26035
807.046	26408
807.188	26469
807.33	26830
807.472	27074
807.614	27302
807.756	27994
807.898	28440
808.04	29303
808.182	30437
808.324	31795
808.465	33644
808.607	35269
808.749	36947
808.891	37833
809.033	37921
809.174	37004
809.316	35280
809.458	33408
809.6	31742
809.741	30247
809.883	29185
810.025	28360
810.166	27857
810.308	27355
810.45	26933
810.591	26575
810.733	26195
810.875	26172
811.016	25765
811.158	25753
811.299	25780
811.441	25685
811.582	25620
811.724	25419
811.865	25297
812.007	25285
812.148	25320
812.29	25228
812.431	25339
812.573	25563
812.714	25597
812.855	25772
812.997	25693
813.138	25837
813.279	25685
813.421	25605
813.562	25544
813.703	25384
813.845	25198
813.986	24901
814.127	24604
814.268	24502
814.41	24589
814.551	24418
814.692	24608
814.833	24448
814.974	24426
815.115	24338
815.256	24239
815.397	24289
815.539	24277
815.68	24091
815.821	24034
815.962	24110
816.103	24087
816.244	23999
816.385	23851
816.526	23798
816.666	23604
816.807	23410
816.948	23425
817.089	23478
817.23	23421
817.371	23501
817.512	23516
817.653	23372
817.793	23315
817.934	23379
818.075	23444
818.216	23444
818.356	23414
818.497	23200
818.638	23060
818.778	23079
818.919	22991
819.06	23003
819.2	23162
819.341	23136
819.481	23170
819.622	23372
819.762	23581
819.903	23512
820.043	23417
820.184	23345
820.324	23326
820.465	23448
820.605	23250
820.746	23391
820.886	23014
821.026	23216
821.167	23250
821.307	23212
821.447	23178
821.588	23102
821.728	22824
821.868	22710
822.008	22485
822.149	22607
822.289	22622
822.429	22284
822.569	22409
822.709	22158
822.849	22120
822.99	21994
823.13	21934
823.27	22010
823.41	21846
823.55	21652
823.69	21857
823.83	21789
823.97	21713
824.11	21599
824.25	21671
824.389	21667
824.529	21648
824.669	21538
824.809	21739
824.949	21656
825.089	21705
825.228	21610
825.368	21359
825.508	21504
825.648	21431
825.787	21374
825.927	21408
826.067	21336
826.206	21374
826.346	21370
826.485	21492
826.625	21268
826.765	21466
826.904	21530
827.044	21017
827.183	21119
827.323	21150
827.462	21279
827.601	20941
827.741	21047
827.88	20982
828.02	20982
828.159	20899
828.298	21108
828.437	21165
828.577	20960
828.716	21165
828.855	20902
828.994	20777
829.134	20880
829.273	20731
829.412	20807
829.551	20518
829.69	20731
829.829	20731
829.968	20788
830.107	20823
830.246	20758
830.385	20708
830.524	20648
830.663	20518
830.802	20488
830.941	20301
831.08	20221
831.219	20499
831.357	20488
831.496	20575
831.635	20358
831.774	20290
831.913	20271
832.051	20142
832.19	20225
832.329	20206
832.467	20122
832.606	20073
832.744	20142
832.883	20153
833.022	20218
833.16	20278
833.299	20301
833.437	20248
833.576	20438
833.714	20503
833.852	20629
833.991	20788
834.129	20606
834.267	20735
834.406	20636
834.544	20804
834.682	20609
834.821	20396
834.959	20609
835.097	20286
835.235	20301
835.373	20278
835.511	20301
835.65	20142
835.788	19944
835.926	19928
836.064	19769
836.202	19845
836.34	19940
836.478	19959
836.615	19814
836.753	19841
836.891	19925
837.029	19890
837.167	19875
837.305	19681
837.443	19734
837.58	19609
837.718	19742
837.856	19753
837.993	19582
838.131	19651
838.269	19499
838.406	19571
838.544	19563
838.681	19365
838.819	19335
838.956	19160
839.094	19179
839.231	19270
839.369	19304
839.506	19487
839.643	19373
839.781	19145
839.918	18935
840.055	19190
840.193	19099
840.33	19053
840.467	19118
840.604	19107
840.742	19324
840.879	18989
841.016	19004
841.153	18970
841.29	19137
841.427	19084
841.564	19053
841.701	19206
841.838	18970
841.975	19050
842.112	19012
842.249	18943
842.385	18825
842.522	19069
842.659	18871
842.796	18787
842.933	18897
843.069	18806
843.206	18844
843.343	18993
843.479	18954
843.616	18920
843.752	18795
843.889	18837
844.025	18897
844.162	18859
844.298	18973
844.435	19023
844.571	18996
844.708	19312
844.844	19601
844.98	19772
845.117	20031
845.253	20518
845.389	21283
845.525	23083
845.661	26065
845.798	29726
845.934	32640
846.07	33968
846.206	33188
846.342	31145
846.478	27367
846.614	24053
846.75	21827
846.886	20469
847.022	19879
847.158	19327
847.294	19027
847.429	18829
847.565	18566
847.701	18749
847.837	18167
847.972	18178
848.108	18140
848.244	18129
848.379	17904
848.515	17863
848.65	17802
848.786	17878
848.921	17756
849.057	17935
849.192	17893
849.328	17874
849.463	17726
849.598	17794
849.734	17680
849.869	17710
850.004	17581
850.14	17497
850.275	17554
850.41	17341
850.545	17566
850.68	17505
850.815	17611
850.95	17406
851.085	17714
851.22	17646
851.355	17425
851.49	17436
851.625	17463
851.76	17490
851.895	17493
852.03	17337
852.165	17414
852.299	17551
852.434	17535
852.569	17516
852.703	17509
852.838	17535
852.973	17684
853.107	17646
853.242	17532
853.376	17417
853.511	17334
853.645	17307
853.78	17592
853.914	17535
854.048	17512
854.183	17532
854.317	17577
854.451	17786
854.585	17573
854.72	17478
854.854	17657
854.988	17417
855.122	17486
855.256	17387
855.39	17326
855.524	17528
855.658	17471
855.792	17406
855.926	17402
856.06	17455
856.194	17490
856.327	17406
856.461	17334
856.595	17376
856.729	17330
856.862	17535
856.996	17292
857.13	17406
857.263	17395
857.397	17341
857.53	17273
857.664	17337
857.797	17433
857.931	17360
858.064	17318
858.197	17356
858.331	17208
858.464	17277
858.597	17170
858.731	17288
858.864	17280
858.997	17212
859.13	17284
859.263	17277
859.396	17345
859.529	17231
859.662	17132
859.795	17151
859.928	17231
860.061	17341
860.194	17490
860.327	17242
860.46	17204
860.592	17364
860.725	17379
860.858	17330
860.99	17185
861.123	17140
861.256	17174
861.388	17174
861.521	17813
861.653	17010
861.786	16972
861.918	17056
862.05	17170
862.183	17056
862.315	17212
862.447	17189
862.58	17185
862.712	17022
862.844	17022
862.976	17010
863.108	16995
863.24	17372
863.372	16797
863.504	16805
863.636	16866
863.768	16915
863.9	17014
864.032	16911
864.164	16881
864.296	16862
864.428	16999
864.559	17041
864.691	17060
864.823	16991
864.954	16927
865.086	16938
865.217	16858
865.349	16850
865.48	16793
865.612	16862
865.743	16961
865.875	16828
866.006	16793
866.137	16866
866.269	16862
866.4	16820
866.531	16717
866.662	16793
866.793	16843
866.924	16854
867.055	16801
867.186	16801
867.317	16763
867.448	16809
867.579	16885
867.71	16831
867.841	16618
867.972	16748
868.103	16790
868.233	16786
868.364	16793
868.495	16942
868.625	17071
868.756	17067
868.886	17018
869.017	17090
869.147	17216
869.278	17322
869.408	17170
869.539	17075
869.669	17136
869.799	17098
869.929	17208
870.06	17258
870.19	17440
870.32	17353
870.45	17452
870.58	17429
870.71	17687
870.84	17657
870.97	17474
871.1	17581
871.23	17798
871.36	17718
871.489	17642
871.619	17615
871.749	17687
871.879	17729
872.008	17802
872.138	17840
872.267	17737
872.397	17668
872.526	17627
872.656	17585
872.785	17687
872.915	17870
873.044	17931
873.173	17813
873.303	17923
873.432	17969
873.561	17920
873.69	17901
873.819	17920
873.948	18034
874.077	18095
874.206	17916
874.335	17980
874.464	18228
874.593	18228
874.722	18197
874.851	18376
874.979	18247
875.108	18365
875.237	18422
875.365	18403
875.494	18414
875.623	18486
875.751	18350
875.88	18559
876.008	18623
876.136	18772
876.265	18943
876.393	19084
876.521	19031
876.65	19259
876.778	19069
876.906	18981
877.034	19053
877.162	19107
877.29	19061
877.418	19263
877.546	19266
877.674	19255
877.802	19434
877.93	19320
878.058	19586
878.185	19392
878.313	19860
878.441	19947
878.568	20027
878.696	20461
878.824	20785
878.951	21447
879.079	22375
879.206	23630
879.333	24604
879.461	25651
879.588	26134
879.715	26122
879.842	25822
879.97	24821
880.097	23379
880.224	22417
880.351	21827
880.478	21401
880.605	21028
880.732	20887
880.859	21001
880.986	20697
881.112	20568
881.239	20381
881.366	20385
881.493	20225
881.619	20138
881.746	20005
881.872	20100
881.999	20199
882.125	20237
882.252	20355
882.378	20290
882.505	20446
882.631	20301
882.757	20180
882.883	20183
883.01	20081
883.136	19997
883.262	20031
883.388	19921
883.514	20054
883.64	19963
883.766	20058
883.892	19970
884.018	19894
884.143	20084
884.269	20092
884.395	19769
884.52	19666
884.646	19765
884.772	19750
884.897	19609
885.023	19753
885.148	19841
885.274	19841
885.399	19795
885.524	19620
885.65	19548
885.775	19556
885.9	19590
886.025	19548
886.15	19434
886.275	19164
886.4	18935
886.525	19046
886.65	18890
886.775	18966
886.9	19027
887.025	19141
887.149	18703
887.274	18528
887.399	18521
887.523	18429
887.648	18334
887.773	18319
887.897	18304
888.021	18319
888.146	18239
888.27	18270
888.395	18391
888.519	18228
888.643	18239
888.767	18140
888.891	17996
889.015	17908
889.139	17969
889.263	17882
889.387	17916
889.511	18167
889.635	17969
889.759	17813
889.883	17642
890.006	17790
890.13	17882
890.254	17691
890.377	17623
890.501	17528
890.624	17482
890.748	17520
890.871	17330
890.995	17364
891.118	17178
891.241	17174
891.364	17299
891.488	17414
891.611	17258
891.734	17136
891.857	17277
891.98	17143
892.103	17220
892.226	17200
892.349	17041
892.471	17060
892.594	17155
892.717	17128
892.839	17052
892.962	17018
893.085	17117
893.207	16995
893.33	16877
893.452	16942
893.575	17006
893.697	16961
893.819	17033
893.941	17124
894.064	16999
894.186	16927
894.308	16816
894.43	16946
894.552	17052
894.674	16980
894.796	16733
894.918	16801
895.04	16934
895.161	16942
895.283	16835
895.405	16816
895.526	16854
895.648	16968
895.769	16923
895.891	16885
896.012	16938
896.134	16896
896.255	16900
896.376	16771
896.498	16763
896.619	16934
896.74	16862
896.861	16839
896.982	17208
897.103	17337
897.224	17067
897.345	17216
897.466	17045
897.587	17079
897.708	17105
897.828	17037
897.949	17010
898.07	16889
898.19	16946
898.311	17113
898.431	17056
898.552	17170
898.672	17136
898.792	17269
898.913	17060
899.033	16999
899.153	16850
899.273	16866
899.393	16786
899.513	16999
899.633	16946
899.753	16976
899.873	16900
899.993	16930
900.113	16908
900.232	16946
900.352	16869
900.472	16828
900.591	16683
900.711	16752
900.83	16675
900.95	16755
901.069	16904
901.189	16637
901.308	16531
901.427	16386
901.546	16390
901.665	16413
901.784	16371
901.904	16246
902.023	16143
902.141	15975
902.26	16006
902.379	16017
902.498	15819
902.617	15816
902.735	15918
902.854	15785
902.973	15800
903.091	15507
903.21	15637
903.328	15564
903.446	15393
903.565	15393
903.683	15431
903.801	15173
903.919	15233
904.038	15332
904.156	15138
904.274	15203
904.392	15184
904.51	15077
904.627	15013
904.745	15165
904.863	15135
904.981	15043
905.098	14754
905.216	14712
905.334	14708
905.451	14754
905.569	14727
905.686	14815
905.803	14648
905.921	14568
906.038	14617
906.155	14488
906.272	14465
906.389	14404
906.506	14240
906.623	14320
906.74	14301
906.857	14115
906.974	14100
907.091	14351
907.208	14393
907.324	14275
907.441	14202
907.557	14077
907.674	14031
907.79	13879
907.907	13913
908.023	14062
908.139	13986
908.256	13887
908.372	13928
908.488	13868
908.604	13814
908.72	13601
908.836	13677
908.952	13719
909.068	13811
909.184	13776
909.3	13772
909.415	13738
909.531	13700
909.647	13582
909.762	13392
909.878	13441
909.993	13540
910.108	13487
910.224	13445
910.339	13415
910.454	13365
910.57	13251
910.685	13324
910.8	13537
910.915	13495
911.03	13304
911.145	13145
911.259	13114
911.374	13141
911.489	13065
911.604	12909
911.718	12798
911.833	12829
911.947	12749
912.062	12662
912.176	12844
912.291	12787
912.405	12875
912.519	13053
912.633	13015
912.748	12924
912.862	12920
912.976	12700
913.09	12589
913.204	12658
913.318	12722
913.431	12715
913.545	12768
913.659	12844
913.772	12726
913.886	12559
914	12631
914.113	12570
914.226	12688
914.34	12692
914.453	12506
914.566	12604
914.68	12490
914.793	12448
914.906	12384
915.019	12315
915.132	12186
915.245	12254
915.358	12327
915.47	12289
915.583	12361
915.696	12292
915.809	12395
915.921	12380
916.034	12296
916.146	12228
916.259	12178
916.371	12273
916.483	12327
916.595	12186
916.708	12239
916.82	12152
916.932	12186
917.044	12175
917.156	12216
917.268	12159
917.38	12068
917.491	12076
917.603	12079
917.715	12083
917.826	12163
917.938	12019
918.049	11901
918.161	11923
918.272	12171
918.384	12117
918.495	11980
918.606	11832
918.717	11718
918.828	11885
918.939	11840
919.05	11714
919.161	11798
919.272	11684
919.383	11714
919.494	11977
919.604	12019
919.715	11885
919.826	11760
919.936	11729
920.047	11817
920.157	11817
920.267	11992
920.378	11775
920.488	11866
920.598	11977
920.708	12155
920.818	11977
920.928	11950
921.038	12136
921.148	11999
921.258	11912
921.368	11771
921.477	11668
921.587	11600
921.697	11509
921.806	11577
921.916	11516
922.025	11364
922.134	11303
922.244	11201
922.353	11337
922.462	11212
922.571	11143
922.68	10965
922.789	10942
922.898	10965
923.007	10866
923.116	10965
923.224	10919
923.333	10927
923.442	10843
923.55	10763
923.659	10862
923.767	10843
923.876	10809
923.984	10869
924.092	10694
924.201	10805
924.309	10755
924.417	10828
924.525	10714
924.633	10641
924.741	11619
924.849	10550
924.956	10649
925.064	10554
925.172	10432
925.279	10542
925.387	10611
925.494	10493
925.602	10653
925.709	10603
925.816	10428
925.924	10493
926.031	10538
926.138	10481
926.245	10504
926.352	10413
926.459	10535
926.566	10649
926.673	10447
926.779	10337
926.886	10280
926.993	10116
927.099	10162
927.206	10188
927.312	10169
927.419	10207
927.525	10230
927.631	10303
927.737	10074
927.843	10105
927.95	9934
928.056	10063
928.162	10010
928.267	10067
928.373	10759
928.479	10158
928.585	9880
928.69	10071
928.796	10074
928.901	9991
929.007	9819
929.112	10010
929.218	9873
929.323	9922
929.428	9827
929.533	9945
929.638	9759
929.743	9937
929.848	9831
929.953	9880
930.058	9766
930.163	9572
930.267	9641
930.372	9804
930.477	9496
930.581	9823
930.685	9667
930.79	9519
930.894	9534
930.998	9488
931.103	9568
931.207	9279
931.311	9222
931.415	9112
931.519	8994
931.623	9039
