Data from test_V78500241_107.txt Node
Date: Fri Mar 25 14:34:28 CST 2022
User: usil
Spectrometer: V785-0024
Trigger mode: 0
Integration Time (sec): 4.000000E-1
Scans to average: 1
Nonlinearity correction enabled: false
Boxcar width: 0
Storing dark spectrum: false
XAxis mode: Wavelengths
Number of Pixels in Spectrum: 1024
>>>>>Begin Spectral Data<<<<<
801.071	29562
801.214	29444
801.356	29094
801.499	29083
801.641	29052
801.783	29124
801.926	29033
802.068	28919
802.211	28934
802.353	28717
802.496	28607
802.638	28778
802.78	28641
802.923	28577
803.065	28736
803.208	28672
803.35	28622
803.492	28892
803.635	28938
803.777	28691
803.919	28828
804.061	29299
804.204	29060
804.346	28900
804.488	28790
804.63	28858
804.773	28866
804.915	28949
805.057	29102
805.199	29105
805.341	29242
805.483	29121
805.626	29102
805.768	29216
805.91	29231
806.052	29337
806.194	29284
806.336	29596
806.478	29433
806.62	29444
806.762	29562
806.904	29939
807.046	30319
807.188	30517
807.33	30540
807.472	30722
807.614	30913
807.756	31198
807.898	31750
808.04	32210
808.182	33005
808.324	33964
808.465	35128
808.607	36266
808.749	37430
808.891	38092
809.033	38210
809.174	37434
809.316	36342
809.458	34968
809.6	33781
809.741	32910
809.883	32016
810.025	31700
810.166	31289
810.308	30966
810.45	30768
810.591	30429
810.733	30270
810.875	30030
811.016	29935
811.158	29748
811.299	29923
811.441	29874
811.582	29775
811.724	29512
811.865	29718
812.007	29695
812.148	29471
812.29	29600
812.431	29604
812.573	29771
812.714	29760
812.855	29901
812.997	29885
813.138	30110
813.279	30053
813.421	29878
813.562	29756
813.703	29653
813.845	29501
813.986	29277
814.127	28957
814.268	28847
814.41	28984
814.551	28763
814.692	29033
814.833	28797
814.974	28767
815.115	28888
815.256	28683
815.397	28603
815.539	28660
815.68	28538
815.821	28535
815.962	28580
816.103	28481
816.244	28390
816.385	28154
816.526	28192
816.666	28048
816.807	27804
816.948	27823
817.089	27956
817.23	27850
817.371	27857
817.512	27857
817.653	27751
817.793	27922
817.934	27907
818.075	27793
818.216	27838
818.356	27774
818.497	27709
818.638	27435
818.778	27557
818.919	27720
819.06	27542
819.2	27694
819.341	27629
819.481	27724
819.622	27949
819.762	28135
819.903	27960
820.043	27846
820.184	27975
820.324	27835
820.465	27926
820.605	27797
820.746	27827
820.886	27553
821.026	27663
821.167	27663
821.307	27705
821.447	27561
821.588	27469
821.728	27408
821.868	27222
822.008	27081
822.149	27066
822.289	27055
822.429	26960
822.569	26743
822.709	26792
822.849	26575
822.99	26480
823.13	26423
823.27	26366
823.41	26168
823.55	26183
823.69	26446
823.83	26294
823.97	26161
824.11	26138
824.25	26111
824.389	26001
824.529	26324
824.669	26031
824.809	26031
824.949	26180
825.089	26058
825.228	26119
825.368	25856
825.508	25845
825.648	25868
825.787	25856
825.927	25944
826.067	25822
826.206	25890
826.346	25993
826.485	25921
826.625	26020
826.765	25982
826.904	25864
827.044	25575
827.183	25468
827.323	25483
827.462	25613
827.601	25643
827.741	25468
827.88	25537
828.02	25445
828.159	25449
828.298	25464
828.437	25647
828.577	25495
828.716	25571
828.855	25316
828.994	25206
829.134	25202
829.273	25255
829.412	25164
829.551	25148
829.69	25259
829.829	25145
829.968	25297
830.107	25152
830.246	25110
830.385	25164
830.524	25061
830.663	24947
830.802	24951
830.941	24878
831.08	24795
831.219	24745
831.357	24837
831.496	24966
831.635	24669
831.774	24768
831.913	24589
832.051	24426
832.19	24582
832.329	24635
832.467	24498
832.606	24513
832.744	24464
832.883	24498
833.022	24384
833.16	24464
833.299	24582
833.437	24612
833.576	24684
833.714	24745
833.852	24905
833.991	24920
834.129	24913
834.267	24901
834.406	24806
834.544	24973
834.682	24719
834.821	24650
834.959	24798
835.097	24547
835.235	24593
835.373	24559
835.511	24471
835.65	24311
835.788	24346
835.926	24178
836.064	24163
836.202	24155
836.34	24289
836.478	24254
836.615	24026
836.753	24209
836.891	24319
837.029	24144
837.167	24205
837.305	24148
837.443	24144
837.58	24015
837.718	24049
837.856	24038
837.993	23988
838.131	24114
838.269	23939
838.406	23908
838.544	23729
838.681	23695
838.819	23573
838.956	23368
839.094	23425
839.231	23493
839.369	23600
839.506	23813
839.643	23608
839.781	23524
839.918	23296
840.055	23159
840.193	23334
840.33	23208
840.467	23273
840.604	23353
840.742	23611
840.879	23109
841.016	23273
841.153	23143
841.29	23452
841.427	23330
841.564	23372
841.701	23200
841.838	23189
841.975	23204
842.112	23220
842.249	23041
842.385	23029
842.522	23387
842.659	23029
842.796	23193
842.933	23048
843.069	22965
843.206	22949
843.343	23143
843.479	23128
843.616	22984
843.752	22881
843.889	22854
844.025	23037
844.162	22881
844.298	23029
844.435	22984
844.571	23109
844.708	23315
844.844	23299
844.98	23577
845.117	23710
845.253	23923
845.389	24414
845.525	25772
845.661	27854
845.798	30372
845.934	32229
846.07	33192
846.206	32629
846.342	31282
846.478	28599
846.614	26294
846.75	24654
846.886	23828
847.022	23372
847.158	23022
847.294	22668
847.429	22618
847.565	22504
847.701	22679
847.837	22215
847.972	22097
848.108	22124
848.244	22101
848.379	21907
848.515	21865
848.65	21819
848.786	21789
848.921	21835
849.057	21857
849.192	21869
849.328	21838
849.463	21785
849.598	21625
849.734	21679
849.869	21701
850.004	21526
850.14	21564
850.275	21515
850.41	21500
850.545	21443
850.68	21435
850.815	21469
850.95	21568
851.085	21679
851.22	21622
851.355	21408
851.49	21496
851.625	21435
851.76	21473
851.895	21359
852.03	21397
852.165	21504
852.299	21488
852.434	21599
852.569	21447
852.703	21439
852.838	21610
852.973	21637
853.107	21759
853.242	21534
853.376	21325
853.511	21310
853.645	21401
853.78	21496
853.914	21469
854.048	21367
854.183	21351
854.317	21405
854.451	21466
854.585	21401
854.72	21382
854.854	21469
854.988	21260
855.122	21447
855.256	21283
855.39	21355
855.524	21367
855.658	21393
855.792	21378
855.926	21370
856.06	21416
856.194	21340
856.327	21306
856.461	21154
856.595	21112
856.729	21142
856.862	21344
856.996	21317
857.13	21363
857.263	21363
857.397	21279
857.53	21192
857.664	21192
857.797	21332
857.931	21351
858.064	21291
858.197	21195
858.331	21169
858.464	20998
858.597	21184
858.731	21100
858.864	21074
858.997	21142
859.13	21081
859.263	21150
859.396	21283
859.529	21135
859.662	21077
859.795	21119
859.928	21195
860.061	21302
860.194	21211
860.327	21161
860.46	21119
860.592	21161
860.725	21154
860.858	21264
860.99	21146
861.123	20971
861.256	21131
861.388	21104
861.521	21774
861.653	20944
861.786	20918
861.918	21013
862.05	21047
862.183	21058
862.315	21203
862.447	21138
862.58	21089
862.712	21043
862.844	20880
862.976	20830
863.108	20849
863.24	21203
863.372	20815
863.504	20914
863.636	20712
863.768	20864
863.9	20902
864.032	20686
864.164	20693
864.296	20746
864.428	20857
864.559	20880
864.691	20842
864.823	20804
864.954	20815
865.086	20758
865.217	20876
865.349	20571
865.48	20648
865.612	20758
865.743	20849
865.875	20758
866.006	20670
866.137	20689
866.269	20777
866.4	20712
866.531	20697
866.662	20594
866.793	20609
866.924	20640
867.055	20697
867.186	20705
867.317	20617
867.448	20465
867.579	20583
867.71	20480
867.841	20522
867.972	20609
868.103	20583
868.233	20617
868.364	20549
868.495	20724
868.625	20731
868.756	20941
868.886	20762
869.017	20876
869.147	20998
869.278	20982
869.408	20823
869.539	20845
869.669	20967
869.799	20838
869.929	21058
870.06	20948
870.19	21203
870.32	21233
870.45	21211
870.58	21237
870.71	21336
870.84	21412
870.97	21298
871.1	21245
871.23	21332
871.36	21466
871.489	21397
871.619	21389
871.749	21466
871.879	21637
872.008	21637
872.138	21428
872.267	21595
872.397	21355
872.526	21351
872.656	21313
872.785	21382
872.915	21545
873.044	21663
873.173	21469
873.303	21671
873.432	21519
873.561	21641
873.69	21622
873.819	21625
873.948	21720
874.077	21732
874.206	21644
874.335	21622
874.464	21747
874.593	21869
874.722	21979
874.851	21827
874.979	21880
875.108	22036
875.237	21907
875.365	21953
875.494	21983
875.623	22086
875.751	22090
875.88	22074
876.008	22150
876.136	22211
876.265	22508
876.393	22535
876.521	22622
876.65	22691
876.778	22546
876.906	22607
877.034	22542
877.162	22577
877.29	22512
877.418	22733
877.546	22691
877.674	22710
877.802	22839
877.93	22862
878.058	22748
878.185	22847
878.313	23003
878.441	23140
878.568	23292
878.696	23497
878.824	23882
878.951	24190
879.079	24909
879.206	25769
879.333	26469
879.461	26956
879.588	27496
879.715	27519
879.842	27176
879.97	26343
880.097	25441
880.224	24817
880.351	24498
880.478	24045
880.605	23897
880.732	23707
880.859	23703
880.986	23680
881.112	23516
881.239	23520
881.366	23341
881.493	23185
881.619	23197
881.746	23178
881.872	23067
881.999	23261
882.125	22976
882.252	23212
882.378	23143
882.505	23455
882.631	23060
882.757	23079
882.883	23113
883.01	22946
883.136	22896
883.262	22721
883.388	22755
883.514	22908
883.64	22896
883.766	22866
883.892	22740
884.018	22774
884.143	22869
884.269	22835
884.395	22656
884.52	22546
884.646	22664
884.772	22554
884.897	22557
885.023	22733
885.148	22615
885.274	22694
885.399	22573
885.524	22405
885.65	22527
885.775	22333
885.9	22314
886.025	22360
886.15	22356
886.275	21983
886.4	22078
886.525	22150
886.65	21876
886.775	21812
886.9	22074
887.025	22143
887.149	21850
887.274	21660
887.399	21618
887.523	21660
887.648	21507
887.773	21408
887.897	21424
888.021	21458
888.146	21359
888.27	21443
888.395	21382
888.519	21367
888.643	21367
888.767	21431
888.891	21226
889.015	21077
889.139	21036
889.263	21066
889.387	21173
889.511	21074
889.635	21173
889.759	20982
889.883	20933
890.006	21028
890.13	21112
890.254	20800
890.377	20830
890.501	20864
890.624	20568
890.748	20708
890.871	20530
890.995	20355
891.118	20332
891.241	20404
891.364	20503
891.488	20503
891.611	20286
891.734	20366
891.857	20374
891.98	20396
892.103	20434
892.226	20431
892.349	20324
892.471	20096
892.594	20206
892.717	20282
892.839	20210
892.962	20240
893.085	20233
893.207	20161
893.33	20157
893.452	20126
893.575	20172
893.697	20115
893.819	20400
893.941	20244
894.064	20126
894.186	20005
894.308	19986
894.43	20122
894.552	20248
894.674	20122
894.796	19871
894.918	20020
895.04	19970
895.161	20126
895.283	20027
895.405	20001
895.526	19932
895.648	19928
895.769	19970
895.891	19982
896.012	20031
896.134	20065
896.255	20069
896.376	20020
896.498	19951
896.619	19982
896.74	19997
896.861	20077
896.982	20240
897.103	20339
897.224	20263
897.345	20252
897.466	20149
897.587	20142
897.708	20278
897.828	20210
897.949	20001
898.07	19986
898.19	20096
898.311	20195
898.431	20103
898.552	20088
898.672	20225
898.792	20233
898.913	20100
899.033	19928
899.153	19890
899.273	19799
899.393	19860
899.513	19852
899.633	19818
899.753	19852
899.873	19788
899.993	19803
900.113	19799
900.232	19708
900.352	19670
900.472	19693
900.591	19594
900.711	19559
900.83	19548
900.95	19708
901.069	19685
901.189	19518
901.308	19331
901.427	19221
901.546	19198
901.665	19240
901.784	19301
901.904	19053
902.023	18882
902.141	18753
902.26	18612
902.379	18677
902.498	18589
902.617	18566
902.735	18673
902.854	18536
902.973	18502
903.091	18266
903.21	18289
903.328	18243
903.446	18083
903.565	18083
903.683	18117
903.801	17992
903.919	18011
904.038	18041
904.156	17923
904.274	17942
904.392	17908
904.51	17840
904.627	17824
904.745	17927
904.863	17946
904.981	17661
905.098	17551
905.216	17467
905.334	17684
905.451	17520
905.569	17417
905.686	17642
905.803	17501
905.921	17376
906.038	17368
906.155	17311
906.272	17143
906.389	17212
906.506	16999
906.623	17128
906.74	16995
906.857	16911
906.974	16987
907.091	17128
907.208	17121
907.324	17124
907.441	16915
907.557	16733
907.674	16725
907.79	16626
907.907	16725
908.023	16752
908.139	16797
908.256	16683
908.372	16653
908.488	16451
908.604	16436
908.72	16402
908.836	16481
908.952	16249
909.068	16481
909.184	16550
909.3	16371
909.415	16394
909.531	16375
909.647	16147
909.762	16067
909.878	16063
909.993	16013
910.108	16017
910.224	16116
910.339	16124
910.454	16063
910.57	15987
910.685	15850
910.8	16143
910.915	16082
911.03	15994
911.145	15667
911.259	15739
911.374	15690
911.489	15587
911.604	15618
911.718	15458
911.833	15454
911.947	15370
912.062	15279
912.176	15545
912.291	15492
912.405	15424
912.519	15576
912.633	15587
912.748	15466
912.862	15447
912.976	15313
913.09	15146
913.204	15180
913.318	15249
913.431	15367
913.545	15344
913.659	15428
913.772	15252
913.886	15100
914	15009
914.113	15161
914.226	15207
914.34	15150
914.453	14929
914.566	15226
914.68	14952
914.793	14948
914.906	14811
915.019	14689
915.132	14670
915.245	14625
915.358	14689
915.47	14655
915.583	14686
915.696	14735
915.809	14705
915.921	14872
916.034	14678
916.146	14640
916.259	14560
916.371	14785
916.483	14693
916.595	14598
916.708	14545
916.82	14606
916.932	14549
917.044	14533
917.156	14450
917.268	14278
917.38	14503
917.491	14324
917.603	14457
917.715	14381
917.826	14374
917.938	14355
918.049	14210
918.161	14244
918.272	14427
918.384	14450
918.495	14275
918.606	14164
918.717	14043
918.828	14199
918.939	14073
919.05	13986
919.161	14081
919.272	13890
919.383	13940
919.494	14027
919.604	14233
919.715	14046
919.826	13906
919.936	14046
920.047	14176
920.157	14050
920.267	14206
920.378	14046
920.488	14027
920.598	14206
920.708	14317
920.818	14206
920.928	14164
921.038	14355
921.148	14210
921.258	13940
921.368	13909
921.477	13826
921.587	13757
921.697	13651
921.806	13757
921.916	13624
922.025	13480
922.134	13388
922.244	13445
922.353	13464
922.462	13282
922.571	13259
922.68	13122
922.789	13050
922.898	13000
923.007	12954
923.116	13099
923.224	13023
923.333	12939
923.442	12886
923.55	12875
923.659	12894
923.767	12935
923.876	12859
923.984	12905
924.092	12726
924.201	12829
924.309	12719
924.417	12760
924.525	12677
924.633	12650
924.741	13674
924.849	12528
924.956	12623
925.064	12452
925.172	12403
925.279	12479
925.387	12513
925.494	12433
925.602	12604
925.709	12566
925.816	12342
925.924	12464
926.031	12521
926.138	12357
926.245	12414
926.352	12441
926.459	12452
926.566	12433
926.673	12330
926.779	12228
926.886	12266
926.993	12140
927.099	11992
927.206	12007
927.312	11942
927.419	12091
927.525	12140
927.631	12057
927.737	11931
927.843	11901
927.95	11767
928.056	11855
928.162	11855
928.267	11942
928.373	12456
928.479	12011
928.585	11729
928.69	11775
928.796	11863
928.901	11786
929.007	11619
929.112	11828
929.218	11714
929.323	11684
929.428	11608
929.533	11729
929.638	11459
929.743	11520
929.848	11592
929.953	11562
930.058	11512
930.163	11288
930.267	11376
930.372	11452
930.477	11246
930.581	11459
930.685	11356
930.79	11128
930.894	11231
930.998	11132
931.103	11368
931.207	10938
931.311	10831
931.415	10733
931.519	10561
931.623	10584
