Data from test_V78500241_2026.txt Node
Date: Fri Mar 25 14:47:49 CST 2022
User: usil
Spectrometer: V785-0024
Trigger mode: 0
Integration Time (sec): 4.000000E-1
Scans to average: 1
Nonlinearity correction enabled: false
Boxcar width: 0
Storing dark spectrum: false
XAxis mode: Wavelengths
Number of Pixels in Spectrum: 1024
>>>>>Begin Spectral Data<<<<<
801.071	22044
801.214	21953
801.356	21770
801.499	21610
801.641	21511
801.783	21511
801.926	21553
802.068	21393
802.211	21336
802.353	21214
802.496	21085
802.638	20971
802.78	20883
802.923	20823
803.065	20739
803.208	20864
803.35	20899
803.492	20849
803.635	20914
803.777	20731
803.919	20929
804.061	21104
804.204	20899
804.346	20743
804.488	20746
804.63	20826
804.773	20602
804.915	20765
805.057	20880
805.199	20689
805.341	20834
805.483	20914
805.626	20800
805.768	20727
805.91	20663
806.052	20746
806.194	20648
806.336	20872
806.478	20781
806.62	20560
806.762	20804
806.904	20967
807.046	21142
807.188	21028
807.33	21070
807.472	21104
807.614	20960
807.756	20982
807.898	20762
808.04	20872
808.182	20701
808.324	20902
808.465	20891
808.607	21001
808.749	21135
808.891	21074
809.033	21169
809.174	21294
809.316	21013
809.458	21081
809.6	21112
809.741	21237
809.883	21207
810.025	21287
810.166	21279
810.308	21294
810.45	21157
810.591	21119
810.733	21013
810.875	20880
811.016	20712
811.158	20773
811.299	20910
811.441	20979
811.582	20967
811.724	20994
811.865	20838
812.007	20891
812.148	20804
812.29	20804
812.431	20967
812.573	21222
812.714	21332
812.855	21329
812.997	21420
813.138	21679
813.279	21492
813.421	21416
813.562	21176
813.703	21055
813.845	21104
813.986	20750
814.127	20659
814.268	20480
814.41	20351
814.551	20301
814.692	20549
814.833	20412
814.974	20419
815.115	20434
815.256	20252
815.397	20206
815.539	20221
815.68	20176
815.821	20244
815.962	20214
816.103	20180
816.244	20008
816.385	19902
816.526	19856
816.666	19757
816.807	19582
816.948	19628
817.089	19753
817.23	19731
817.371	19537
817.512	19586
817.653	19586
817.793	19487
817.934	19563
818.075	19643
818.216	19590
818.356	19590
818.497	19411
818.638	19282
818.778	19236
818.919	19282
819.06	19152
819.2	19316
819.341	19392
819.481	19419
819.622	19601
819.762	19788
819.903	19700
820.043	19559
820.184	19567
820.324	19521
820.465	19578
820.605	19548
820.746	19552
820.886	19339
821.026	19529
821.167	19377
821.307	19457
821.447	19495
821.588	19297
821.728	19244
821.868	19187
822.008	19015
822.149	18989
822.289	18875
822.429	18768
822.569	18604
822.709	18688
822.849	18426
822.99	18414
823.13	18376
823.27	18376
823.41	18285
823.55	18152
823.69	18277
823.83	18277
823.97	18121
824.11	18072
824.25	17939
824.389	18049
824.529	18110
824.669	18019
824.809	18102
824.949	18072
825.089	18022
825.228	17996
825.368	17840
825.508	17794
825.648	17939
825.787	17973
825.927	17802
826.067	17794
826.206	17691
826.346	17817
826.485	17897
826.625	17676
826.765	17798
826.904	17866
827.044	17551
827.183	17615
827.323	17463
827.462	17570
827.601	17520
827.741	17577
827.88	17520
828.02	17414
828.159	17322
828.298	17497
828.437	17535
828.577	17581
828.716	17532
828.855	17376
828.994	17296
829.134	17254
829.273	17231
829.412	17303
829.551	17227
829.69	17086
829.829	17322
829.968	17303
830.107	17178
830.246	17296
830.385	17121
830.524	17185
830.663	17045
830.802	16946
830.941	16873
831.08	16835
831.219	16873
831.357	16957
831.496	17102
831.635	16946
831.774	16850
831.913	16805
832.051	16694
832.19	16653
832.329	16687
832.467	16596
832.606	16508
832.744	16497
832.883	16626
833.022	16584
833.16	16592
833.299	16618
833.437	16569
833.576	16637
833.714	16538
833.852	16656
833.991	16687
834.129	16710
834.267	16653
834.406	16672
834.544	16660
834.682	16630
834.821	16558
834.959	16752
835.097	16542
835.235	16675
835.373	16687
835.511	16523
835.65	16565
835.788	16550
835.926	16432
836.064	16299
836.202	16409
836.34	16653
836.478	16565
836.615	16573
836.753	16630
836.891	16596
837.029	16531
837.167	16497
837.305	16421
837.443	16421
837.58	16337
837.718	16443
837.856	16367
837.993	16413
838.131	16405
838.269	16325
838.406	16325
838.544	16238
838.681	16078
838.819	16166
838.956	15937
839.094	15953
839.231	15975
839.369	16128
839.506	16390
839.643	16162
839.781	15915
839.918	15945
840.055	15987
840.193	15903
840.33	15983
840.467	15907
840.604	15888
840.742	16226
840.879	15888
841.016	15751
841.153	15903
841.29	16010
841.427	15888
841.564	16051
841.701	15983
841.838	15876
841.975	15888
842.112	15876
842.249	15873
842.385	15682
842.522	15903
842.659	15717
842.796	15797
842.933	15751
843.069	15739
843.206	15682
843.343	15797
843.479	15701
843.616	15720
843.752	15530
843.889	15553
844.025	15690
844.162	15477
844.298	15610
844.435	15591
844.571	15473
844.708	15557
844.844	15629
844.98	15606
845.117	15618
845.253	15477
845.389	15397
845.525	15401
845.661	15367
845.798	15313
845.934	15367
846.07	15283
846.206	15241
846.342	15428
846.478	15363
846.614	15081
846.75	15009
846.886	14967
847.022	15188
847.158	15085
847.294	15119
847.429	15161
847.565	14979
847.701	15272
847.837	14883
847.972	14769
848.108	14986
848.244	14937
848.379	14754
848.515	14686
848.65	14667
848.786	14739
848.921	14617
849.057	14804
849.192	14727
849.328	14674
849.463	14705
849.598	14632
849.734	14522
849.869	14632
850.004	14492
850.14	14488
850.275	14454
850.41	14355
850.545	14408
850.68	14389
850.815	14446
850.95	14412
851.085	14663
851.22	14522
851.355	14556
851.49	14476
851.625	14343
851.76	14305
851.895	14248
852.03	14389
852.165	14404
852.299	14438
852.434	14579
852.569	14450
852.703	14530
852.838	14484
852.973	14571
853.107	14625
853.242	14377
853.376	14320
853.511	14195
853.645	14290
853.78	14457
853.914	14347
854.048	14343
854.183	14298
854.317	14336
854.451	14473
854.585	14248
854.72	14336
854.854	14385
854.988	14244
855.122	14415
855.256	14149
855.39	14305
855.524	14396
855.658	14385
855.792	14404
855.926	14351
856.06	14408
856.194	14374
856.327	14408
856.461	14126
856.595	14229
856.729	14286
856.862	14476
856.996	14286
857.13	14454
857.263	14423
857.397	14438
857.53	14240
857.664	14309
857.797	14442
857.931	14393
858.064	14385
858.197	14389
858.331	14298
858.464	14328
858.597	14145
858.731	14320
858.864	14275
858.997	14259
859.13	14282
859.263	14400
859.396	14442
859.529	14298
859.662	14218
859.795	14240
859.928	14396
860.061	14454
860.194	14514
860.327	14233
860.46	14358
860.592	14469
860.725	14415
860.858	14431
860.99	14320
861.123	14221
861.256	14240
861.388	14294
861.521	14956
861.653	14134
861.786	14077
861.918	14153
862.05	14233
862.183	14286
862.315	14252
862.447	14404
862.58	14256
862.712	14081
862.844	14035
862.976	14164
863.108	14119
863.24	14484
863.372	14024
863.504	14107
863.636	14073
863.768	14058
863.9	14096
864.032	14001
864.164	14100
864.296	14149
864.428	14149
864.559	14237
864.691	14164
864.823	14195
864.954	14103
865.086	14069
865.217	13997
865.349	14183
865.48	14012
865.612	14123
865.743	14229
865.875	14081
866.006	13921
866.137	14115
866.269	14100
866.4	14050
866.531	14005
866.662	14020
866.793	14077
866.924	14100
867.055	14134
867.186	13997
867.317	14130
867.448	14024
867.579	14054
867.71	14058
867.841	13993
867.972	14134
868.103	14161
868.233	14145
868.364	14062
868.495	14172
868.625	14347
868.756	14370
868.886	14214
869.017	14237
869.147	14404
869.278	14526
869.408	14434
869.539	14423
869.669	14427
869.799	14446
869.929	14438
870.06	14408
870.19	14610
870.32	14625
870.45	14648
870.58	14720
870.71	14823
870.84	14891
870.97	14735
871.1	14708
871.23	14899
871.36	14914
871.489	14895
871.619	14895
871.749	14982
871.879	14990
872.008	14963
872.138	14986
872.267	14944
872.397	14845
872.526	14823
872.656	14689
872.785	14720
872.915	14937
873.044	14967
873.173	14971
873.303	14963
873.432	15001
873.561	15066
873.69	15032
873.819	15039
873.948	14914
874.077	15036
874.206	15047
874.335	14963
874.464	15256
874.593	15378
874.722	15230
874.851	15264
874.979	15336
875.108	15344
875.237	15203
875.365	15226
875.494	15218
875.623	15317
875.751	15180
875.88	15207
876.008	15557
876.136	15557
876.265	15762
876.393	15785
876.521	15789
876.65	15739
876.778	15789
876.906	15759
877.034	15728
877.162	15705
877.29	15656
877.418	15694
877.546	15591
877.674	15656
877.802	15656
877.93	15701
878.058	15603
878.185	15542
878.313	15652
878.441	15759
878.568	15523
878.696	15667
878.824	15690
878.951	15675
879.079	15838
879.206	16044
879.333	15827
879.461	15873
879.588	15831
879.715	15854
879.842	16017
879.97	15895
880.097	15587
880.224	15587
880.351	15576
880.478	15580
880.605	15431
880.732	15534
880.859	15747
880.986	15606
881.112	15595
881.239	15386
881.366	15443
881.493	15321
881.619	15252
881.746	15260
881.872	15180
881.999	15138
882.125	15218
882.252	15199
882.378	15329
882.505	15374
882.631	15161
882.757	14998
882.883	15150
883.01	15047
883.136	14914
883.262	14925
883.388	14929
883.514	14967
883.64	15020
883.766	15032
883.892	14895
884.018	14910
884.143	15081
884.269	15100
884.395	14762
884.52	14739
884.646	14712
884.772	14693
884.897	14667
885.023	14708
885.148	14853
885.274	14845
885.399	14887
885.524	14720
885.65	14617
885.775	14758
885.9	14739
886.025	14899
886.15	14750
886.275	14651
886.4	14617
886.525	14697
886.65	14640
886.775	14613
886.9	14838
887.025	14887
887.149	14792
887.274	14640
887.399	14583
887.523	14590
887.648	14613
887.773	14469
887.897	14579
888.021	14701
888.146	14469
888.27	14564
888.395	14678
888.519	14610
888.643	14667
888.767	14606
888.891	14495
889.015	14328
889.139	14473
889.263	14374
889.387	14552
889.511	14674
889.635	14530
889.759	14473
889.883	14469
890.006	14461
890.13	14545
890.254	14309
890.377	14271
890.501	14286
890.624	14301
890.748	14237
890.871	14176
890.995	14081
891.118	14050
891.241	14214
891.364	14107
891.488	14225
891.611	14161
891.734	14126
891.857	14309
891.98	14199
892.103	14214
892.226	14119
892.349	14115
892.471	14001
892.594	14145
892.717	14164
892.839	14145
892.962	14103
893.085	14221
893.207	14149
893.33	14020
893.452	14046
893.575	14221
893.697	14103
893.819	14275
893.941	14336
894.064	14294
894.186	13959
894.308	14084
894.43	14210
894.552	14328
894.674	14370
894.796	14134
894.918	14195
895.04	14206
895.161	14267
895.283	14183
895.405	14157
895.526	14172
895.648	14195
895.769	14199
895.891	14336
896.012	14305
896.134	14301
896.255	14233
896.376	14343
896.498	14161
896.619	14320
896.74	14301
896.861	14347
896.982	14674
897.103	14807
897.224	14701
897.345	14644
897.466	14419
897.587	14541
897.708	14667
897.828	14575
897.949	14526
898.07	14530
898.19	14625
898.311	14731
898.431	14655
898.552	14659
898.672	14712
898.792	14682
898.913	14705
899.033	14549
899.153	14511
899.273	14415
899.393	14526
899.513	14552
899.633	14571
899.753	14629
899.873	14389
899.993	14621
900.113	14431
900.232	14602
900.352	14507
900.472	14385
900.591	14332
900.711	14423
900.83	14366
900.95	14564
901.069	14526
901.189	14290
901.308	14054
901.427	14046
901.546	14077
901.665	14111
901.784	13963
901.904	13906
902.023	13727
902.141	13700
902.26	13594
902.379	13643
902.498	13613
902.617	13533
902.735	13613
902.854	13594
902.973	13487
903.091	13285
903.21	13293
903.328	13400
903.446	13259
903.565	13198
903.683	13187
903.801	13099
903.919	13156
904.038	13164
904.156	13023
904.274	13053
904.392	12916
904.51	12989
904.627	12973
904.745	13103
904.863	12954
904.981	12856
905.098	12722
905.216	12642
905.334	12749
905.451	12646
905.569	12677
905.686	12734
905.803	12635
905.921	12490
906.038	12547
906.155	12654
906.272	12452
906.389	12338
906.506	12353
906.623	12262
906.74	12346
906.857	12235
906.974	12251
907.091	12365
907.208	12422
907.324	12399
907.441	12163
907.557	12011
907.674	12049
907.79	12003
907.907	11973
908.023	12106
908.139	12106
908.256	11942
908.372	11939
908.488	11969
908.604	11824
908.72	11767
908.836	11752
908.952	11813
909.068	11805
909.184	11904
909.3	11695
909.415	11897
909.531	11767
909.647	11501
909.762	11577
909.878	11562
909.993	11551
910.108	11512
910.224	11512
910.339	11566
910.454	11532
910.57	11383
910.685	11360
910.8	11703
910.915	11543
911.03	11353
911.145	11220
911.259	11201
911.374	11315
911.489	11162
911.604	11132
911.718	11025
911.833	11083
911.947	10908
912.062	10786
912.176	10991
912.291	11041
912.405	10968
912.519	11189
912.633	11212
912.748	11102
912.862	11018
912.976	10889
913.09	10729
913.204	10843
913.318	10858
913.431	11033
913.545	10984
913.659	11037
913.772	10877
913.886	10786
914	10729
914.113	10896
914.226	10946
914.34	10828
914.453	10637
914.566	10885
914.68	10645
914.793	10706
914.906	10497
915.019	10470
915.132	10447
915.245	10519
915.358	10523
915.47	10512
915.583	10443
915.696	10546
915.809	10634
915.921	10710
916.034	10493
916.146	10481
916.259	10432
916.371	10500
916.483	10554
916.595	10424
916.708	10375
916.82	10394
916.932	10322
917.044	10466
917.156	10386
917.268	10367
917.38	10360
917.491	10295
917.603	10268
917.715	10474
917.826	10440
917.938	10276
918.049	10173
918.161	10337
918.272	10485
918.384	10436
918.495	10367
918.606	10215
918.717	10124
918.828	10230
918.939	10242
919.05	10166
919.161	10166
919.272	10067
919.383	10109
919.494	10249
919.604	10428
919.715	10200
919.826	10147
919.936	10207
920.047	10325
920.157	10223
920.267	10443
920.378	10223
920.488	10219
920.598	10348
920.708	10596
920.818	10455
920.928	10440
921.038	10607
921.148	10656
921.258	10306
921.368	10200
921.477	10116
921.587	10101
921.697	10082
921.806	10150
921.916	10017
922.025	9831
922.134	9838
922.244	9762
922.353	9842
922.462	9778
922.571	9652
922.68	9496
922.789	9340
922.898	9504
923.007	9473
923.116	9557
923.224	9507
923.333	9443
923.442	9431
923.55	9348
923.659	9344
923.767	9439
923.876	9397
923.984	9420
924.092	9233
924.201	9321
924.309	9325
924.417	9420
924.525	9291
924.633	9374
924.741	10268
924.849	9081
924.956	9291
925.064	9081
925.172	9043
925.279	9123
925.387	9146
925.494	9077
925.602	9306
925.709	9253
925.816	9074
925.924	9116
926.031	9233
926.138	9157
926.245	9161
926.352	9055
926.459	9176
926.566	9237
926.673	9070
926.779	8960
926.886	8941
926.993	8899
927.099	8773
927.206	8807
927.312	8773
927.419	8883
927.525	8853
927.631	9001
927.737	8720
927.843	8727
927.95	8655
928.056	8724
928.162	8743
928.267	8811
928.373	9367
928.479	8842
928.585	8629
928.69	8693
928.796	8785
928.901	8693
929.007	8545
929.112	8682
929.218	8636
929.323	8594
929.428	8564
929.533	8716
929.638	8507
929.743	8514
929.848	8648
929.953	8594
930.058	8461
930.163	8374
930.267	8355
930.372	8499
930.477	8313
930.581	8476
930.685	8396
930.79	8263
930.894	8301
930.998	8225
931.103	8438
931.207	8172
931.311	7967
931.415	7947
931.519	7792
931.623	7776
