Data from test_V78500241_2519.txt Node
Date: Fri Mar 25 14:51:15 CST 2022
User: usil
Spectrometer: V785-0024
Trigger mode: 0
Integration Time (sec): 4.000000E-1
Scans to average: 1
Nonlinearity correction enabled: false
Boxcar width: 0
Storing dark spectrum: false
XAxis mode: Wavelengths
Number of Pixels in Spectrum: 1024
>>>>>Begin Spectral Data<<<<<
801.071	21987
801.214	21972
801.356	21732
801.499	21606
801.641	21420
801.783	21412
801.926	21454
802.068	21336
802.211	21310
802.353	21150
802.496	20880
802.638	20830
802.78	20941
802.923	20663
803.065	20701
803.208	20819
803.35	20743
803.492	20823
803.635	20921
803.777	20830
803.919	20883
804.061	21116
804.204	20838
804.346	20735
804.488	20682
804.63	20674
804.773	20594
804.915	20648
805.057	20750
805.199	20606
805.341	20636
805.483	20815
805.626	20735
805.768	20678
805.91	20541
806.052	20712
806.194	20594
806.336	20708
806.478	20651
806.62	20602
806.762	20670
806.904	20857
807.046	21203
807.188	21123
807.33	21001
807.472	20963
807.614	20887
807.756	20895
807.898	20804
808.04	20651
808.182	20705
808.324	20792
808.465	20830
808.607	20880
808.749	21001
808.891	21195
809.033	21184
809.174	21085
809.316	20963
809.458	21001
809.6	21039
809.741	21096
809.883	21150
810.025	21348
810.166	21081
810.308	21176
810.45	21127
810.591	21028
810.733	20933
810.875	20918
811.016	20708
811.158	20693
811.299	20918
811.441	20857
811.582	20914
811.724	20830
811.865	20819
812.007	20762
812.148	20864
812.29	20891
812.431	20876
812.573	21074
812.714	21214
812.855	21317
812.997	21416
813.138	21458
813.279	21431
813.421	21211
813.562	21237
813.703	21070
813.845	20861
813.986	20765
814.127	20442
814.268	20415
814.41	20495
814.551	20240
814.692	20408
814.833	20267
814.974	20328
815.115	20313
815.256	20122
815.397	20122
815.539	20157
815.68	20077
815.821	20119
815.962	20115
816.103	20039
816.244	19887
816.385	19791
816.526	19776
816.666	19613
816.807	19495
816.948	19761
817.089	19597
817.23	19586
817.371	19384
817.512	19480
817.653	19422
817.793	19426
817.934	19510
818.075	19483
818.216	19480
818.356	19438
818.497	19304
818.638	19141
818.778	19152
818.919	19190
819.06	19232
819.2	19308
819.341	19415
819.481	19396
819.622	19559
819.762	19624
819.903	19670
820.043	19529
820.184	19556
820.324	19301
820.465	19430
820.605	19426
820.746	19472
820.886	19339
821.026	19354
821.167	19441
821.307	19388
821.447	19415
821.588	19148
821.728	19110
821.868	19000
822.008	18985
822.149	18837
822.289	18882
822.429	18658
822.569	18620
822.709	18585
822.849	18353
822.99	18270
823.13	18338
823.27	18308
823.41	18140
823.55	18079
823.69	18155
823.83	18140
823.97	18209
824.11	17980
824.25	17786
824.389	17927
824.529	18022
824.669	17954
824.809	18106
824.949	18049
825.089	17988
825.228	17927
825.368	17798
825.508	17722
825.648	17832
825.787	17737
825.927	17684
826.067	17748
826.206	17676
826.346	17726
826.485	17707
826.625	17668
826.765	17840
826.904	17821
827.044	17463
827.183	17379
827.323	17402
827.462	17562
827.601	17474
827.741	17444
827.88	17467
828.02	17334
828.159	17433
828.298	17402
828.437	17524
828.577	17463
828.716	17493
828.855	17444
828.994	17147
829.134	17296
829.273	17181
829.412	17185
829.551	17117
829.69	17193
829.829	17269
829.968	17334
830.107	17220
830.246	17231
830.385	17227
830.524	17109
830.663	17006
830.802	16991
830.941	16835
831.08	16717
831.219	16908
831.357	16919
831.496	16995
831.635	16835
831.774	16759
831.913	16641
832.051	16630
832.19	16565
832.329	16694
832.467	16558
832.606	16519
832.744	16451
832.883	16527
833.022	16508
833.16	16500
833.299	16485
833.437	16599
833.576	16542
833.714	16569
833.852	16554
833.991	16664
834.129	16656
834.267	16679
834.406	16523
834.544	16527
834.682	16535
834.821	16519
834.959	16820
835.097	16626
835.235	16687
835.373	16698
835.511	16542
835.65	16489
835.788	16394
835.926	16356
836.064	16318
836.202	16421
836.34	16504
836.478	16542
836.615	16436
836.753	16466
836.891	16664
837.029	16592
837.167	16447
837.305	16386
837.443	16459
837.58	16268
837.718	16443
837.856	16314
837.993	16318
838.131	16417
838.269	16306
838.406	16344
838.544	16242
838.681	16090
838.819	16032
838.956	15895
839.094	15911
839.231	15964
839.369	16093
839.506	16360
839.643	16116
839.781	15873
839.918	15876
840.055	15880
840.193	15827
840.33	15808
840.467	15865
840.604	15861
840.742	16169
840.879	15789
841.016	15838
841.153	15857
841.29	16002
841.427	15915
841.564	15899
841.701	15899
841.838	15831
841.975	15827
842.112	15694
842.249	15709
842.385	15660
842.522	15869
842.659	15667
842.796	15637
842.933	15728
843.069	15698
843.206	15660
843.343	15762
843.479	15694
843.616	15694
843.752	15458
843.889	15477
844.025	15606
844.162	15507
844.298	15515
844.435	15431
844.571	15439
844.708	15534
844.844	15618
844.98	15549
845.117	15606
845.253	15488
845.389	15321
845.525	15492
845.661	15317
845.798	15310
845.934	15332
846.07	15138
846.206	15332
846.342	15401
846.478	15222
846.614	15119
846.75	15032
846.886	15005
847.022	15093
847.158	15028
847.294	15085
847.429	15039
847.565	15085
847.701	15325
847.837	14781
847.972	14819
848.108	14849
848.244	14868
848.379	14655
848.515	14743
848.65	14621
848.786	14674
848.921	14655
849.057	14781
849.192	14743
849.328	14674
849.463	14598
849.598	14724
849.734	14530
849.869	14495
850.004	14427
850.14	14476
850.275	14393
850.41	14389
850.545	14275
850.68	14324
850.815	14404
850.95	14381
851.085	14549
851.22	14663
851.355	14419
851.49	14282
851.625	14415
851.76	14389
851.895	14351
852.03	14328
852.165	14419
852.299	14355
852.434	14412
852.569	14442
852.703	14427
852.838	14503
852.973	14560
853.107	14533
853.242	14305
853.376	14301
853.511	14202
853.645	14202
853.78	14301
853.914	14282
854.048	14191
854.183	14286
854.317	14210
854.451	14427
854.585	14290
854.72	14271
854.854	14305
854.988	14278
855.122	14202
855.256	14142
855.39	14206
855.524	14396
855.658	14176
855.792	14259
855.926	14336
856.06	14305
856.194	14278
856.327	14259
856.461	14221
856.595	14233
856.729	14298
856.862	14343
856.996	14256
857.13	14275
857.263	14381
857.397	14419
857.53	14305
857.664	14301
857.797	14358
857.931	14415
858.064	14377
858.197	14324
858.331	14225
858.464	14221
858.597	14240
858.731	14221
858.864	14187
858.997	14237
859.13	14301
859.263	14267
859.396	14366
859.529	14393
859.662	14259
859.795	14267
859.928	14339
860.061	14457
860.194	14503
860.327	14278
860.46	14332
860.592	14377
860.725	14385
860.858	14317
860.99	14237
861.123	14248
861.256	14218
861.388	14282
861.521	14887
861.653	14107
861.786	14206
861.918	14115
862.05	14126
862.183	14191
862.315	14301
862.447	14256
862.58	14191
862.712	13978
862.844	13982
862.976	14183
863.108	14130
863.24	14358
863.372	13978
863.504	13993
863.636	14084
863.768	14176
863.9	13944
864.032	14005
864.164	14084
864.296	14103
864.428	14153
864.559	14164
864.691	14142
864.823	14119
864.954	14199
865.086	14084
865.217	14016
865.349	13887
865.48	14084
865.612	14012
865.743	14081
865.875	14107
866.006	14062
866.137	14073
866.269	14058
866.4	14069
866.531	13993
866.662	14039
866.793	14001
866.924	13913
867.055	14024
867.186	14096
867.317	14035
867.448	13894
867.579	13947
867.71	13978
867.841	13959
867.972	13974
868.103	14020
868.233	14020
868.364	14065
868.495	14119
868.625	14290
868.756	14404
868.886	14202
869.017	14256
869.147	14305
869.278	14454
869.408	14290
869.539	14419
869.669	14415
869.799	14313
869.929	14446
870.06	14495
870.19	14621
870.32	14587
870.45	14629
870.58	14720
870.71	14788
870.84	14750
870.97	14678
871.1	14629
871.23	14853
871.36	14838
871.489	14754
871.619	14804
871.749	14815
871.879	14914
872.008	15032
872.138	14834
872.267	14906
872.397	14781
872.526	14769
872.656	14678
872.785	14743
872.915	14967
873.044	15036
873.173	14929
873.303	15032
873.432	15036
873.561	14963
873.69	14902
873.819	14963
873.948	15051
874.077	14944
874.206	14899
874.335	14956
874.464	15066
874.593	15184
874.722	15192
874.851	15310
874.979	15260
875.108	15260
875.237	15279
875.365	15237
875.494	15184
875.623	15298
875.751	15211
875.88	15260
876.008	15370
876.136	15481
876.265	15656
876.393	15880
876.521	15797
876.65	15713
876.778	15724
876.906	15580
877.034	15633
877.162	15694
877.29	15576
877.418	15682
877.546	15682
877.674	15663
877.802	15652
877.93	15663
878.058	15614
878.185	15610
878.313	15591
878.441	15606
878.568	15507
878.696	15595
878.824	15701
878.951	15762
879.079	15838
879.206	16086
879.333	15827
879.461	15648
879.588	15789
879.715	15835
879.842	15960
879.97	15812
880.097	15473
880.224	15564
880.351	15606
880.478	15519
880.605	15553
880.732	15576
880.859	15637
880.986	15500
881.112	15576
881.239	15367
881.366	15344
881.493	15188
881.619	15195
881.746	15150
881.872	15150
881.999	15119
882.125	15154
882.252	15241
882.378	15161
882.505	15245
882.631	15047
882.757	14994
882.883	14895
883.01	14979
883.136	15013
883.262	14902
883.388	14708
883.514	14990
883.64	15146
883.766	14819
883.892	14800
884.018	14781
884.143	14883
884.269	15100
884.395	14796
884.52	14659
884.646	14743
884.772	14655
884.897	14522
885.023	14670
885.148	14750
885.274	14895
885.399	14826
885.524	14754
885.65	14788
885.775	14746
885.9	14648
886.025	14807
886.15	14834
886.275	14724
886.4	14564
886.525	14727
886.65	14594
886.775	14678
886.9	14773
887.025	14876
887.149	14678
887.274	14564
887.399	14499
887.523	14461
887.648	14377
887.773	14377
887.897	14556
888.021	14602
888.146	14552
888.27	14632
888.395	14579
888.519	14564
888.643	14598
888.767	14473
888.891	14480
889.015	14278
889.139	14457
889.263	14419
889.387	14549
889.511	14503
889.635	14518
889.759	14393
889.883	14446
890.006	14396
890.13	14476
890.254	14385
890.377	14336
890.501	14176
890.624	14206
890.748	14202
890.871	14142
890.995	14149
891.118	14081
891.241	14092
891.364	14046
891.488	14221
891.611	14008
891.734	14069
891.857	14035
891.98	14111
892.103	14218
892.226	14119
892.349	14035
892.471	13894
892.594	14149
892.717	14183
892.839	14054
892.962	14046
893.085	13986
893.207	14054
893.33	13967
893.452	14027
893.575	14107
893.697	14058
893.819	14328
893.941	14343
894.064	14244
894.186	14024
894.308	14065
894.43	14202
894.552	14332
894.674	14244
894.796	14073
894.918	14081
895.04	14092
895.161	14286
895.283	14233
895.405	14031
895.526	14164
895.648	14134
895.769	14324
895.891	14286
896.012	14294
896.134	14358
896.255	14248
896.376	14240
896.498	14271
896.619	14320
896.74	14267
896.861	14343
896.982	14579
897.103	14781
897.224	14579
897.345	14568
897.466	14480
897.587	14541
897.708	14644
897.828	14522
897.949	14400
898.07	14377
898.19	14499
898.311	14655
898.431	14530
898.552	14648
898.672	14693
898.792	14788
898.913	14720
899.033	14511
899.153	14457
899.273	14404
899.393	14339
899.513	14358
899.633	14450
899.753	14442
899.873	14476
899.993	14537
900.113	14442
900.232	14408
900.352	14423
900.472	14385
900.591	14286
900.711	14374
900.83	14419
900.95	14301
901.069	14358
901.189	14168
901.308	14107
901.427	14027
901.546	13974
901.665	13986
901.784	14180
901.904	13868
902.023	13818
902.141	13594
902.26	13544
902.379	13575
902.498	13525
902.617	13502
902.735	13563
902.854	13559
902.973	13495
903.091	13400
903.21	13308
903.328	13240
903.446	13266
903.565	13171
903.683	13202
903.801	13050
903.919	13114
904.038	13187
904.156	13015
904.274	13065
904.392	12977
904.51	12867
904.627	12924
904.745	12954
904.863	13015
904.981	12829
905.098	12696
905.216	12654
905.334	12692
905.451	12703
905.569	12707
905.686	12715
905.803	12623
905.921	12437
906.038	12589
906.155	12464
906.272	12266
906.389	12361
906.506	12289
906.623	12319
906.74	12285
906.857	12163
906.974	12117
907.091	12266
907.208	12407
907.324	12323
907.441	12155
907.557	12060
907.674	11961
907.79	11954
907.907	11988
908.023	11996
908.139	12087
908.256	11912
908.372	11939
908.488	11870
908.604	11828
908.72	11847
908.836	11809
908.952	11760
909.068	11794
909.184	11790
909.3	11745
909.415	11840
909.531	11824
909.647	11585
909.762	11558
909.878	11512
909.993	11627
910.108	11547
910.224	11471
910.339	11524
910.454	11417
910.57	11353
910.685	11303
910.8	11596
910.915	11547
911.03	11528
911.145	11227
911.259	11223
911.374	11288
911.489	11174
911.604	11197
911.718	11041
911.833	11037
911.947	10869
912.062	10847
912.176	10953
912.291	10999
912.405	10946
912.519	11261
912.633	11197
912.748	11132
912.862	11014
912.976	10881
913.09	10717
913.204	10793
913.318	10904
913.431	10984
913.545	10923
913.659	10987
913.772	10805
913.886	10714
914	10786
914.113	10793
914.226	10896
914.34	10805
914.453	10714
914.566	10831
914.68	10782
914.793	10774
914.906	10546
915.019	10409
915.132	10455
915.245	10512
915.358	10516
915.47	10569
915.583	10512
915.696	10565
915.809	10683
915.921	10702
916.034	10497
916.146	10485
916.259	10466
916.371	10519
916.483	10561
916.595	10421
916.708	10470
916.82	10497
916.932	10409
917.044	10341
917.156	10424
917.268	10242
917.38	10360
917.491	10333
917.603	10360
917.715	10417
917.826	10447
917.938	10375
918.049	10234
918.161	10360
918.272	10519
918.384	10386
918.495	10386
918.606	10188
918.717	10200
918.828	10230
918.939	10234
919.05	10131
919.161	10238
919.272	10013
919.383	10063
919.494	10272
919.604	10459
919.715	10303
919.826	10177
919.936	10230
920.047	10325
920.157	10310
920.267	10394
920.378	10261
920.488	10284
920.598	10379
920.708	10603
920.818	10322
920.928	10398
921.038	10573
921.148	10542
921.258	10295
921.368	10169
921.477	10131
921.587	10101
921.697	9934
921.806	10131
921.916	9987
922.025	9778
922.134	9819
922.244	9709
922.353	9850
922.462	9740
922.571	9663
922.68	9534
922.789	9473
922.898	9568
923.007	9454
923.116	9504
923.224	9485
923.333	9462
923.442	9348
923.55	9435
923.659	9386
923.767	9397
923.876	9302
923.984	9363
924.092	9249
924.201	9355
924.309	9370
924.417	9370
924.525	9313
924.633	9336
924.741	10276
924.849	9138
924.956	9222
925.064	9146
925.172	9036
925.279	9165
925.387	9169
925.494	9161
925.602	9268
925.709	9188
925.816	9093
925.924	9142
926.031	9287
926.138	9127
926.245	9203
926.352	9077
926.459	9188
926.566	9226
926.673	9032
926.779	9043
926.886	8994
926.993	8925
927.099	8864
927.206	8788
927.312	8842
927.419	8902
927.525	8815
927.631	8925
927.737	8769
927.843	8750
927.95	8640
928.056	8689
928.162	8769
928.267	8788
928.373	9458
928.479	8853
928.585	8594
928.69	8769
928.796	8796
928.901	8632
929.007	8545
929.112	8598
929.218	8590
929.323	8606
929.428	8522
929.533	8758
929.638	8602
929.743	8568
929.848	8625
929.953	8590
930.058	8484
930.163	8339
930.267	8358
930.372	8400
930.477	8328
930.581	8587
930.685	8503
930.79	8275
930.894	8351
930.998	8301
931.103	8404
931.207	8100
931.311	7993
931.415	7982
931.519	7814
931.623	7776
