Data from test_V78500241_3401.txt Node
Date: Fri Mar 25 14:57:23 CST 2022
User: usil
Spectrometer: V785-0024
Trigger mode: 0
Integration Time (sec): 4.000000E-1
Scans to average: 1
Nonlinearity correction enabled: false
Boxcar width: 0
Storing dark spectrum: false
XAxis mode: Wavelengths
Number of Pixels in Spectrum: 1024
>>>>>Begin Spectral Data<<<<<
801.071	21956
801.214	21937
801.356	21530
801.499	21610
801.641	21279
801.783	21272
801.926	21359
802.068	21268
802.211	21184
802.353	21020
802.496	20986
802.638	20895
802.78	20864
802.923	20792
803.065	20724
803.208	20621
803.35	20503
803.492	20765
803.635	20773
803.777	20648
803.919	20613
804.061	20876
804.204	20765
804.346	20518
804.488	20404
804.63	20621
804.773	20442
804.915	20480
805.057	20587
805.199	20450
805.341	20575
805.483	20651
805.626	20575
805.768	20476
805.91	20499
806.052	20385
806.194	20450
806.336	20644
806.478	20514
806.62	20537
806.762	20518
806.904	20663
807.046	20929
807.188	20864
807.33	20773
807.472	20902
807.614	20735
807.756	20765
807.898	20621
808.04	20507
808.182	20533
808.324	20560
808.465	20632
808.607	20739
808.749	20883
808.891	20971
809.033	20979
809.174	20967
809.316	20849
809.458	20876
809.6	20883
809.741	20929
809.883	21001
810.025	20967
810.166	21028
810.308	20948
810.45	20880
810.591	20883
810.733	20769
810.875	20701
811.016	20579
811.158	20625
811.299	20796
811.441	20739
811.582	20750
811.724	20644
811.865	20556
812.007	20667
812.148	20602
812.29	20746
812.431	20861
812.573	20956
812.714	20986
812.855	21226
812.997	21336
813.138	21313
813.279	21192
813.421	21138
813.562	21009
813.703	20929
813.845	20686
813.986	20492
814.127	20324
814.268	20271
814.41	20309
814.551	20058
814.692	20271
814.833	20161
814.974	20012
815.115	20195
815.256	20031
815.397	20024
815.539	20077
815.68	19860
815.821	19875
815.962	19989
816.103	19841
816.244	19879
816.385	19693
816.526	19620
816.666	19377
816.807	19274
816.948	19430
817.089	19415
817.23	19304
817.371	19365
817.512	19331
817.653	19350
817.793	19194
817.934	19312
818.075	19259
818.216	19228
818.356	19304
818.497	19152
818.638	18932
818.778	19099
818.919	19031
819.06	19156
819.2	19122
819.341	19301
819.481	19221
819.622	19312
819.762	19476
819.903	19460
820.043	19422
820.184	19221
820.324	19236
820.465	19293
820.605	19251
820.746	19240
820.886	19202
821.026	19346
821.167	19217
821.307	19388
821.447	19187
821.588	19156
821.728	19141
821.868	19027
822.008	18658
822.149	18745
822.289	18669
822.429	18414
822.569	18410
822.709	18395
822.849	18178
822.99	18266
823.13	18133
823.27	18251
823.41	17916
823.55	18049
823.69	17969
823.83	17935
823.97	17916
824.11	17832
824.25	17760
824.389	17748
824.529	17878
824.669	17748
824.809	17783
824.949	17859
825.089	17843
825.228	17783
825.368	17532
825.508	17573
825.648	17516
825.787	17543
825.927	17486
826.067	17581
826.206	17589
826.346	17512
826.485	17554
826.625	17543
826.765	17623
826.904	17661
827.044	17341
827.183	17288
827.323	17265
827.462	17322
827.601	17280
827.741	17307
827.88	17197
828.02	17113
828.159	17147
828.298	17265
828.437	17364
828.577	17254
828.716	17376
828.855	17284
828.994	16949
829.134	17086
829.273	17052
829.412	16991
829.551	16835
829.69	16919
829.829	16942
829.968	17041
830.107	17048
830.246	17025
830.385	16934
830.524	16885
830.663	16771
830.802	16744
830.941	16691
831.08	16725
831.219	16622
831.357	16729
831.496	16869
831.635	16717
831.774	16607
831.913	16565
832.051	16382
832.19	16390
832.329	16451
832.467	16337
832.606	16287
832.744	16287
832.883	16291
833.022	16276
833.16	16280
833.299	16337
833.437	16371
833.576	16363
833.714	16382
833.852	16356
833.991	16421
834.129	16512
834.267	16428
834.406	16436
834.544	16390
834.682	16386
834.821	16436
834.959	16630
835.097	16405
835.235	16443
835.373	16432
835.511	16485
835.65	16344
835.788	16249
835.926	16196
836.064	16109
836.202	16143
836.34	16367
836.478	16402
836.615	16356
836.753	16257
836.891	16478
837.029	16333
837.167	16344
837.305	16303
837.443	16116
837.58	16036
837.718	16280
837.856	16261
837.993	16048
838.131	16188
838.269	16048
838.406	16036
838.544	16051
838.681	15838
838.819	15903
838.956	15785
839.094	15766
839.231	15747
839.369	15865
839.506	16112
839.643	15975
839.781	15759
839.918	15743
840.055	15679
840.193	15766
840.33	15717
840.467	15732
840.604	15816
840.742	16059
840.879	15633
841.016	15671
841.153	15584
841.29	15766
841.427	15838
841.564	15762
841.701	15743
841.838	15789
841.975	15660
842.112	15720
842.249	15534
842.385	15530
842.522	15644
842.659	15606
842.796	15473
842.933	15557
843.069	15416
843.206	15393
843.343	15515
843.479	15610
843.616	15542
843.752	15264
843.889	15351
844.025	15435
844.162	15367
844.298	15370
844.435	15279
844.571	15275
844.708	15298
844.844	15526
844.98	15504
845.117	15329
845.253	15291
845.389	15199
845.525	15283
845.661	15249
845.798	15108
845.934	15142
846.07	15032
846.206	15203
846.342	15264
846.478	15100
846.614	14967
846.75	14834
846.886	14861
847.022	14914
847.158	14876
847.294	14880
847.429	14944
847.565	14845
847.701	15089
847.837	14701
847.972	14564
848.108	14697
848.244	14746
848.379	14556
848.515	14549
848.65	14427
848.786	14480
848.921	14503
849.057	14617
849.192	14575
849.328	14552
849.463	14499
849.598	14454
849.734	14476
849.869	14336
850.004	14332
850.14	14275
850.275	14294
850.41	14138
850.545	14172
850.68	14187
850.815	14252
850.95	14138
851.085	14469
851.22	14278
851.355	14271
851.49	14195
851.625	14244
851.76	14229
851.895	14084
852.03	14126
852.165	14191
852.299	14267
852.434	14286
852.569	14282
852.703	14244
852.838	14240
852.973	14336
853.107	14415
853.242	14107
853.376	14134
853.511	13951
853.645	14107
853.78	14263
853.914	14210
854.048	14027
854.183	14142
854.317	14267
854.451	14332
854.585	14096
854.72	14073
854.854	14153
854.988	14096
855.122	14096
855.256	13959
855.39	14077
855.524	14221
855.658	14161
855.792	14195
855.926	14111
856.06	14183
856.194	14202
856.327	14187
856.461	14183
856.595	13993
856.729	14096
856.862	14130
856.996	14069
857.13	14286
857.263	14313
857.397	14168
857.53	14123
857.664	14123
857.797	14092
857.931	14351
858.064	14176
858.197	14256
858.331	14081
858.464	14065
858.597	14020
858.731	14054
858.864	14054
858.997	14005
859.13	14046
859.263	14164
859.396	14237
859.529	14130
859.662	14024
859.795	14035
859.928	14103
860.061	14183
860.194	14328
860.327	14138
860.46	14077
860.592	14115
860.725	14278
860.858	14343
860.99	14077
861.123	14050
861.256	14031
861.388	14134
861.521	14838
861.653	14024
861.786	13959
861.918	13928
862.05	14031
862.183	14027
862.315	14126
862.447	14176
862.58	14058
862.712	13917
862.844	13814
862.976	13928
863.108	13875
863.24	14324
863.372	13826
863.504	13875
863.636	14001
863.768	13936
863.9	13963
864.032	13936
864.164	13932
864.296	13894
864.428	14073
864.559	14016
864.691	14084
864.823	13944
864.954	13860
865.086	13970
865.217	13830
865.349	13856
865.48	13936
865.612	13852
865.743	14100
865.875	13986
866.006	13871
866.137	13932
866.269	13963
866.4	13814
866.531	13963
866.662	13811
866.793	13837
866.924	13826
867.055	13940
867.186	13913
867.317	13883
867.448	13757
867.579	13833
867.71	13963
867.841	13780
867.972	13894
868.103	13822
868.233	13890
868.364	13868
868.495	13921
868.625	14065
868.756	14275
868.886	14016
869.017	14134
869.147	14248
869.278	14317
869.408	14206
869.539	14088
869.669	14240
869.799	14240
869.929	14191
870.06	14263
870.19	14377
870.32	14419
870.45	14457
870.58	14560
870.71	14598
870.84	14587
870.97	14488
871.1	14511
871.23	14632
871.36	14754
871.489	14667
871.619	14739
871.749	14849
871.879	14754
872.008	14887
872.138	14686
872.267	14743
872.397	14651
872.526	14556
872.656	14571
872.785	14587
872.915	14762
873.044	14937
873.173	14800
873.303	14777
873.432	14815
873.561	14876
873.69	14815
873.819	14735
873.948	14838
874.077	14845
874.206	14785
874.335	14792
874.464	14944
874.593	15062
874.722	15070
874.851	15222
874.979	15108
875.108	15245
875.237	14967
875.365	15066
875.494	15020
875.623	15157
875.751	14960
875.88	15188
876.008	15222
876.136	15325
876.265	15564
876.393	15679
876.521	15542
876.65	15538
876.778	15530
876.906	15660
877.034	15477
877.162	15481
877.29	15481
877.418	15473
877.546	15641
877.674	15614
877.802	15500
877.93	15515
878.058	15496
878.185	15485
878.313	15481
878.441	15500
878.568	15386
878.696	15553
878.824	15492
878.951	15625
879.079	15667
879.206	15835
879.333	15629
879.461	15561
879.588	15652
879.715	15713
879.842	15835
879.97	15629
880.097	15317
880.224	15344
880.351	15412
880.478	15462
880.605	15359
880.732	15313
880.859	15686
880.986	15401
881.112	15428
881.239	15237
881.366	15173
881.493	15108
881.619	14994
881.746	15043
881.872	14994
881.999	15043
882.125	15039
882.252	15093
882.378	15039
882.505	15302
882.631	15097
882.757	14823
882.883	14842
883.01	14807
883.136	14796
883.262	14716
883.388	14720
883.514	14830
883.64	14906
883.766	14754
883.892	14651
884.018	14697
884.143	14830
884.269	14937
884.395	14659
884.52	14640
884.646	14579
884.772	14537
884.897	14495
885.023	14545
885.148	14625
885.274	14716
885.399	14667
885.524	14579
885.65	14651
885.775	14583
885.9	14670
886.025	14659
886.15	14693
886.275	14469
886.4	14473
886.525	14446
886.65	14549
886.775	14404
886.9	14796
887.025	14743
887.149	14575
887.274	14431
887.399	14339
887.523	14381
887.648	14385
887.773	14305
887.897	14427
888.021	14400
888.146	14282
888.27	14590
888.395	14590
888.519	14533
888.643	14438
888.767	14480
888.891	14408
889.015	14176
889.139	14355
889.263	14172
889.387	14404
889.511	14495
889.635	14377
889.759	14301
889.883	14267
890.006	14282
890.13	14446
890.254	14157
890.377	14218
890.501	14107
890.624	14065
890.748	14115
890.871	14012
890.995	13917
891.118	13875
891.241	14008
891.364	13993
891.488	14145
891.611	13959
891.734	13879
891.857	13940
891.98	13936
892.103	13970
892.226	13936
892.349	13871
892.471	13856
892.594	13963
892.717	14012
892.839	14043
892.962	13963
893.085	14024
893.207	14001
893.33	13913
893.452	13963
893.575	14100
893.697	13860
893.819	14145
893.941	14214
894.064	14142
894.186	13982
894.308	13959
894.43	14046
894.552	14130
894.674	14039
894.796	13997
894.918	13928
895.04	13997
895.161	14092
895.283	14050
895.405	14046
895.526	14069
895.648	14088
895.769	14073
895.891	14221
896.012	14187
896.134	14058
896.255	13974
896.376	14077
896.498	14107
896.619	14206
896.74	14176
896.861	14263
896.982	14465
897.103	14636
897.224	14545
897.345	14408
897.466	14298
897.587	14457
897.708	14499
897.828	14465
897.949	14278
898.07	14263
898.19	14396
898.311	14549
898.431	14495
898.552	14495
898.672	14412
898.792	14598
898.913	14522
899.033	14419
899.153	14400
899.273	14210
899.393	14385
899.513	14370
899.633	14412
899.753	14358
899.873	14381
899.993	14385
900.113	14381
900.232	14454
900.352	14366
900.472	14221
900.591	14180
900.711	14214
900.83	14138
900.95	14336
901.069	14259
901.189	14126
901.308	13967
901.427	13795
901.546	13871
901.665	13955
901.784	13936
901.904	13750
902.023	13719
902.141	13483
902.26	13388
902.379	13438
902.498	13434
902.617	13373
902.735	13464
902.854	13506
902.973	13521
903.091	13183
903.21	13137
903.328	13133
903.446	13065
903.565	13027
903.683	13114
903.801	12966
903.919	13038
904.038	13034
904.156	12867
904.274	12939
904.392	12837
904.51	12863
904.627	12867
904.745	12920
904.863	12939
904.981	12574
905.098	12635
905.216	12616
905.334	12525
905.451	12547
905.569	12506
905.686	12544
905.803	12509
905.921	12361
906.038	12407
906.155	12323
906.272	12270
906.389	12190
906.506	12171
906.623	12178
906.74	12087
906.857	11939
906.974	12049
907.091	12254
907.208	12281
907.324	12175
907.441	12041
907.557	11885
907.674	11859
907.79	11809
907.907	11939
908.023	11935
908.139	11927
908.256	11771
908.372	11870
908.488	11764
908.604	11699
908.72	11649
908.836	11665
908.952	11596
909.068	11649
909.184	11703
909.3	11665
909.415	11695
909.531	11786
909.647	11395
909.762	11459
909.878	11406
909.993	11398
910.108	11406
910.224	11520
910.339	11459
910.454	11322
910.57	11299
910.685	11212
910.8	11493
910.915	11467
911.03	11303
911.145	11189
911.259	11037
911.374	11197
911.489	11128
911.604	11029
911.718	10892
911.833	10892
911.947	10828
912.062	10664
912.176	10873
912.291	10892
912.405	10904
912.519	10965
912.633	11128
912.748	10900
912.862	10923
912.976	10740
913.09	10653
913.204	10717
913.318	10698
913.431	10873
913.545	10786
913.659	10900
913.772	10763
913.886	10599
914	10558
914.113	10717
914.226	10801
914.34	10801
914.453	10596
914.566	10702
914.68	10656
914.793	10607
914.906	10367
915.019	10287
915.132	10363
915.245	10367
915.358	10413
915.47	10417
915.583	10481
915.696	10363
915.809	10569
915.921	10580
916.034	10314
916.146	10322
916.259	10405
916.371	10390
916.483	10424
916.595	10291
916.708	10337
916.82	10360
916.932	10341
917.044	10280
917.156	10299
917.268	10230
917.38	10223
917.491	10166
917.603	10253
917.715	10337
917.826	10390
917.938	10219
918.049	10116
918.161	10188
918.272	10398
918.384	10436
918.495	10242
918.606	10093
918.717	10029
918.828	10131
918.939	10192
919.05	10032
919.161	10139
919.272	9907
919.383	9964
919.494	10169
919.604	10375
919.715	10116
919.826	10040
919.936	10067
920.047	10143
920.157	10177
920.267	10306
920.378	10257
920.488	10120
920.598	10306
920.708	10451
920.818	10352
920.928	10379
921.038	10504
921.148	10421
921.258	10120
921.368	10067
921.477	9941
921.587	9941
921.697	9888
921.806	10025
921.916	9918
922.025	9637
922.134	9724
922.244	9557
922.353	9717
922.462	9587
922.571	9526
922.68	9351
922.789	9359
922.898	9382
923.007	9325
923.116	9443
923.224	9344
923.333	9317
923.442	9233
923.55	9294
923.659	9283
923.767	9268
923.876	9199
923.984	9355
924.092	9214
924.201	9245
924.309	9245
924.417	9218
924.525	9241
924.633	9184
924.741	10082
924.849	9013
924.956	9192
925.064	9028
925.172	8941
925.279	9017
925.387	9100
925.494	9066
925.602	9119
925.709	9123
925.816	8963
925.924	9077
926.031	9161
926.138	9097
926.245	9154
926.352	8944
926.459	9081
926.566	9123
926.673	9051
926.779	8933
926.886	8872
926.993	8777
927.099	8762
927.206	8766
927.312	8689
927.419	8777
927.525	8754
927.631	8804
927.737	8697
927.843	8655
927.95	8571
928.056	8636
928.162	8697
928.267	8754
928.373	9325
928.479	8708
928.585	8526
928.69	8667
928.796	8735
928.901	8571
929.007	8423
929.112	8610
929.218	8511
929.323	8549
929.428	8408
929.533	8564
929.638	8423
929.743	8434
929.848	8492
929.953	8518
930.058	8362
930.163	8279
930.267	8248
930.372	8419
930.477	8187
930.581	8484
930.685	8320
930.79	8225
930.894	8172
930.998	8180
931.103	8290
931.207	7989
931.311	7932
931.415	7894
931.519	7731
931.623	7681
