Data from test_V78500241_2797.txt Node
Date: Fri Mar 25 14:53:11 CST 2022
User: usil
Spectrometer: V785-0024
Trigger mode: 0
Integration Time (sec): 4.000000E-1
Scans to average: 1
Nonlinearity correction enabled: false
Boxcar width: 0
Storing dark spectrum: false
XAxis mode: Wavelengths
Number of Pixels in Spectrum: 1024
>>>>>Begin Spectral Data<<<<<
801.071	22086
801.214	21918
801.356	21732
801.499	21675
801.641	21416
801.783	21408
801.926	21519
802.068	21325
802.211	21355
802.353	21226
802.496	20929
802.638	21009
802.78	20777
802.923	20773
803.065	20716
803.208	20762
803.35	20864
803.492	20807
803.635	20864
803.777	20701
803.919	20895
804.061	21093
804.204	20834
804.346	20678
804.488	20583
804.63	20769
804.773	20693
804.915	20716
805.057	20678
805.199	20644
805.341	20670
805.483	20838
805.626	20731
805.768	20659
805.91	20636
806.052	20769
806.194	20499
806.336	20891
806.478	20579
806.62	20689
806.762	20674
806.904	20845
807.046	21123
807.188	20834
807.33	20971
807.472	21013
807.614	20979
807.756	20914
807.898	20743
808.04	20621
808.182	20754
808.324	20712
808.465	20830
808.607	20880
808.749	21116
808.891	21058
809.033	21222
809.174	21017
809.316	21051
809.458	21028
809.6	20876
809.741	21077
809.883	21062
810.025	21081
810.166	21077
810.308	21100
810.45	21195
810.591	21081
810.733	20899
810.875	20788
811.016	20617
811.158	20750
811.299	20796
811.441	20971
811.582	20880
811.724	20830
811.865	20777
812.007	20765
812.148	20861
812.29	20845
812.431	20857
812.573	21047
812.714	21184
812.855	21249
812.997	21291
813.138	21401
813.279	21294
813.421	21332
813.562	21245
813.703	21093
813.845	20921
813.986	20617
814.127	20423
814.268	20507
814.41	20294
814.551	20309
814.692	20465
814.833	20233
814.974	20206
815.115	20278
815.256	20195
815.397	20142
815.539	20187
815.68	20138
815.821	20043
815.962	20046
816.103	20107
816.244	19932
816.385	19738
816.526	19776
816.666	19670
816.807	19346
816.948	19586
817.089	19609
817.23	19552
817.371	19468
817.512	19525
817.653	19430
817.793	19259
817.934	19445
818.075	19540
818.216	19529
818.356	19472
818.497	19232
818.638	19053
818.778	19103
818.919	19171
819.06	19183
819.2	19263
819.341	19400
819.481	19381
819.622	19472
819.762	19616
819.903	19605
820.043	19601
820.184	19422
820.324	19506
820.465	19559
820.605	19415
820.746	19430
820.886	19278
821.026	19453
821.167	19457
821.307	19472
821.447	19415
821.588	19160
821.728	19069
821.868	18943
822.008	18985
822.149	18867
822.289	18764
822.429	18544
822.569	18509
822.709	18566
822.849	18403
822.99	18266
823.13	18270
823.27	18292
823.41	18144
823.55	18163
823.69	18148
823.83	18171
823.97	18049
824.11	17923
824.25	17923
824.389	17885
824.529	17992
824.669	17897
824.809	17999
824.949	17942
825.089	18003
825.228	17866
825.368	17752
825.508	17729
825.648	17665
825.787	17851
825.927	17646
826.067	17714
826.206	17718
826.346	17684
826.485	17680
826.625	17707
826.765	17722
826.904	17695
827.044	17539
827.183	17452
827.323	17379
827.462	17372
827.601	17356
827.741	17322
827.88	17425
828.02	17299
828.159	17330
828.298	17436
828.437	17535
828.577	17337
828.716	17490
828.855	17315
828.994	17208
829.134	17037
829.273	17185
829.412	17117
829.551	16930
829.69	17155
829.829	17155
829.968	17204
830.107	17079
830.246	17174
830.385	17136
830.524	16976
830.663	16980
830.802	16896
830.941	16797
831.08	16771
831.219	16771
831.357	16835
831.496	16900
831.635	16790
831.774	16713
831.913	16592
832.051	16535
832.19	16577
832.329	16569
832.467	16455
832.606	16371
832.744	16451
832.883	16462
833.022	16325
833.16	16459
833.299	16577
833.437	16512
833.576	16504
833.714	16356
833.852	16531
833.991	16531
834.129	16580
834.267	16485
834.406	16538
834.544	16538
834.682	16531
834.821	16531
834.959	16588
835.097	16409
835.235	16508
835.373	16615
835.511	16561
835.65	16565
835.788	16409
835.926	16287
836.064	16204
836.202	16272
836.34	16538
836.478	16481
836.615	16398
836.753	16367
836.891	16459
837.029	16398
837.167	16344
837.305	16333
837.443	16272
837.58	16166
837.718	16386
837.856	16337
837.993	16291
838.131	16329
838.269	16143
838.406	16223
838.544	16067
838.681	16071
838.819	15979
838.956	15778
839.094	15884
839.231	15857
839.369	16010
839.506	16272
839.643	16059
839.781	15888
839.918	15774
840.055	15895
840.193	15812
840.33	15774
840.467	15774
840.604	15857
840.742	16074
840.879	15755
841.016	15682
841.153	15671
841.29	15884
841.427	15842
841.564	15831
841.701	15850
841.838	15743
841.975	15656
842.112	15720
842.249	15694
842.385	15690
842.522	15755
842.659	15625
842.796	15591
842.933	15622
843.069	15599
843.206	15606
843.343	15614
843.479	15686
843.616	15606
843.752	15386
843.889	15435
844.025	15523
844.162	15397
844.298	15439
844.435	15374
844.571	15325
844.708	15568
844.844	15530
844.98	15553
845.117	15420
845.253	15397
845.389	15351
845.525	15367
845.661	15272
845.798	15302
845.934	15237
846.07	15230
846.206	15241
846.342	15336
846.478	15233
846.614	14937
846.75	14910
846.886	15055
847.022	15058
847.158	14948
847.294	15017
847.429	15051
847.565	14937
847.701	15176
847.837	14697
847.972	14701
848.108	14880
848.244	14933
848.379	14613
848.515	14594
848.65	14530
848.786	14594
848.921	14640
849.057	14602
849.192	14617
849.328	14583
849.463	14670
849.598	14537
849.734	14488
849.869	14492
850.004	14320
850.14	14381
850.275	14313
850.41	14240
850.545	14199
850.68	14351
850.815	14370
850.95	14347
851.085	14541
851.22	14476
851.355	14408
851.49	14256
851.625	14336
851.76	14336
851.895	14145
852.03	14202
852.165	14317
852.299	14339
852.434	14389
852.569	14404
852.703	14400
852.838	14503
852.973	14434
853.107	14522
853.242	14362
853.376	14176
853.511	14210
853.645	14100
853.78	14240
853.914	14202
854.048	14142
854.183	14218
854.317	14187
854.451	14347
854.585	14282
854.72	14157
854.854	14328
854.988	14172
855.122	14187
855.256	14035
855.39	14183
855.524	14351
855.658	14218
855.792	14233
855.926	14244
856.06	14317
856.194	14252
856.327	14233
856.461	14176
856.595	14233
856.729	14233
856.862	14377
856.996	14259
857.13	14202
857.263	14252
857.397	14275
857.53	14271
857.664	14225
857.797	14328
857.931	14374
858.064	14294
858.197	14355
858.331	14275
858.464	14161
858.597	14138
858.731	14206
858.864	14149
858.997	14168
859.13	14221
859.263	14218
859.396	14313
859.529	14138
859.662	14161
859.795	14187
859.928	14309
860.061	14370
860.194	14427
860.327	14256
860.46	14202
860.592	14374
860.725	14336
860.858	14332
860.99	14256
861.123	14142
861.256	14126
861.388	14149
861.521	14830
861.653	14199
861.786	14016
861.918	14065
862.05	14172
862.183	14221
862.315	14206
862.447	14336
862.58	14111
862.712	14058
862.844	13921
862.976	14046
863.108	14096
863.24	14499
863.372	13925
863.504	13932
863.636	14005
863.768	13974
863.9	14005
864.032	13989
864.164	13978
864.296	14024
864.428	14050
864.559	14062
864.691	14153
864.823	14062
864.954	13909
865.086	14126
865.217	13932
865.349	13883
865.48	14016
865.612	14043
865.743	14065
865.875	13982
866.006	13864
866.137	13978
866.269	14005
866.4	13898
866.531	13814
866.662	13890
866.793	13982
866.924	13917
867.055	13967
867.186	13967
867.317	13928
867.448	13955
867.579	13959
867.71	13860
867.841	13883
867.972	13963
868.103	14027
868.233	13967
868.364	14005
868.495	14058
868.625	14221
868.756	14305
868.886	14149
869.017	14176
869.147	14305
869.278	14381
869.408	14229
869.539	14225
869.669	14286
869.799	14214
869.929	14374
870.06	14351
870.19	14621
870.32	14511
870.45	14514
870.58	14674
870.71	14663
870.84	14762
870.97	14682
871.1	14564
871.23	14804
871.36	14895
871.489	14788
871.619	14849
871.749	14815
871.879	14815
872.008	14845
872.138	14823
872.267	14796
872.397	14693
872.526	14686
872.656	14667
872.785	14720
872.915	14861
873.044	14963
873.173	14804
873.303	14906
873.432	14918
873.561	15005
873.69	14842
873.819	14956
873.948	14921
874.077	14982
874.206	14815
874.335	14899
874.464	15112
874.593	15241
874.722	15142
874.851	15245
874.979	15283
875.108	15291
875.237	15089
875.365	15188
875.494	15241
875.623	15218
875.751	15313
875.88	15332
876.008	15397
876.136	15466
876.265	15641
876.393	15808
876.521	15694
876.65	15755
876.778	15660
876.906	15595
877.034	15705
877.162	15576
877.29	15591
877.418	15644
877.546	15667
877.674	15675
877.802	15660
877.93	15671
878.058	15595
878.185	15496
878.313	15671
878.441	15580
878.568	15496
878.696	15599
878.824	15675
878.951	15682
879.079	15892
879.206	15895
879.333	15755
879.461	15679
879.588	15804
879.715	15835
879.842	15915
879.97	15743
880.097	15492
880.224	15412
880.351	15603
880.478	15515
880.605	15534
880.732	15469
880.859	15732
880.986	15504
881.112	15500
881.239	15348
881.366	15332
881.493	15195
881.619	15142
881.746	15195
881.872	15157
881.999	15043
882.125	15043
882.252	15275
882.378	15169
882.505	15188
882.631	15097
882.757	14979
882.883	15077
883.01	14899
883.136	14887
883.262	14838
883.388	14819
883.514	15039
883.64	15047
883.766	14925
883.892	14891
884.018	14765
884.143	14979
884.269	15005
884.395	14804
884.52	14689
884.646	14785
884.772	14579
884.897	14541
885.023	14625
885.148	14857
885.274	14819
885.399	14754
885.524	14693
885.65	14785
885.775	14686
885.9	14682
886.025	14716
886.15	14743
886.275	14541
886.4	14587
886.525	14590
886.65	14670
886.775	14659
886.9	14743
887.025	14933
887.149	14651
887.274	14518
887.399	14427
887.523	14499
887.648	14465
887.773	14393
887.897	14594
888.021	14511
888.146	14381
888.27	14693
888.395	14644
888.519	14541
888.643	14484
888.767	14610
888.891	14484
889.015	14328
889.139	14366
889.263	14290
889.387	14575
889.511	14533
889.635	14499
889.759	14320
889.883	14313
890.006	14438
890.13	14526
890.254	14286
890.377	14324
890.501	14218
890.624	14126
890.748	14324
890.871	14123
890.995	13993
891.118	13887
891.241	13978
891.364	14035
891.488	14225
891.611	14077
891.734	14020
891.857	14126
891.98	14016
892.103	14145
892.226	14088
892.349	14054
892.471	13887
892.594	14001
892.717	14138
892.839	14088
892.962	14145
893.085	14088
893.207	14073
893.33	14088
893.452	14008
893.575	14111
893.697	13993
893.819	14164
893.941	14180
894.064	14256
894.186	14046
894.308	14077
894.43	14214
894.552	14301
894.674	14145
894.796	14100
894.918	14054
895.04	14103
895.161	14221
895.283	14180
895.405	14016
895.526	14153
895.648	14191
895.769	14309
895.891	14290
896.012	14290
896.134	14301
896.255	14172
896.376	14385
896.498	14256
896.619	14362
896.74	14199
896.861	14259
896.982	14560
897.103	14701
897.224	14526
897.345	14610
897.466	14355
897.587	14480
897.708	14594
897.828	14644
897.949	14640
898.07	14355
898.19	14457
898.311	14670
898.431	14552
898.552	14629
898.672	14735
898.792	14705
898.913	14587
899.033	14507
899.153	14404
899.273	14370
899.393	14526
899.513	14377
899.633	14431
899.753	14518
899.873	14442
899.993	14427
900.113	14473
900.232	14511
900.352	14415
900.472	14324
900.591	14305
900.711	14339
900.83	14286
900.95	14427
901.069	14362
901.189	14374
901.308	14062
901.427	13951
901.546	13993
901.665	14012
901.784	14043
901.904	13887
902.023	13826
902.141	13632
902.26	13575
902.379	13689
902.498	13601
902.617	13590
902.735	13616
902.854	13571
902.973	13544
903.091	13278
903.21	13331
903.328	13324
903.446	13221
903.565	13137
903.683	13168
903.801	13027
903.919	13149
904.038	13076
904.156	12935
904.274	13027
904.392	12989
904.51	12993
904.627	12939
904.745	13053
904.863	13046
904.981	12779
905.098	12658
905.216	12608
905.334	12654
905.451	12665
905.569	12669
905.686	12692
905.803	12631
905.921	12528
906.038	12559
906.155	12494
906.272	12365
906.389	12338
906.506	12232
906.623	12281
906.74	12334
906.857	12079
906.974	12121
907.091	12281
907.208	12380
907.324	12254
907.441	12095
907.557	12011
907.674	12007
907.79	11828
907.907	11999
908.023	12038
908.139	12049
908.256	11901
908.372	11893
908.488	11836
908.604	11798
908.72	11756
908.836	11817
908.952	11627
909.068	11764
909.184	11843
909.3	11752
909.415	11726
909.531	11843
909.647	11509
909.762	11490
909.878	11547
909.993	11516
910.108	11474
910.224	11493
910.339	11558
910.454	11440
910.57	11326
910.685	11246
910.8	11535
910.915	11524
911.03	11379
911.145	11197
911.259	11174
911.374	11189
911.489	11121
911.604	11090
911.718	10965
911.833	10911
911.947	10858
912.062	10809
912.176	10976
912.291	11006
912.405	10919
912.519	11143
912.633	11197
912.748	11090
912.862	10972
912.976	10828
913.09	10733
913.204	10793
913.318	10900
913.431	10915
913.545	10946
913.659	10965
913.772	10858
913.886	10683
914	10759
914.113	10740
914.226	10854
914.34	10805
914.453	10649
914.566	10717
914.68	10706
914.793	10653
914.906	10519
915.019	10455
915.132	10409
915.245	10466
915.358	10402
915.47	10497
915.583	10504
915.696	10493
915.809	10577
915.921	10611
916.034	10428
916.146	10481
916.259	10348
916.371	10489
916.483	10417
916.595	10500
916.708	10432
916.82	10413
916.932	10405
917.044	10367
917.156	10348
917.268	10291
917.38	10329
917.491	10238
917.603	10295
917.715	10443
917.826	10459
917.938	10318
918.049	10196
918.161	10318
918.272	10466
918.384	10432
918.495	10322
918.606	10135
918.717	10124
918.828	10204
918.939	10147
919.05	10124
919.161	10204
919.272	10040
919.383	10116
919.494	10188
919.604	10333
919.715	10196
919.826	10139
919.936	10166
920.047	10341
920.157	10223
920.267	10405
920.378	10268
920.488	10249
920.598	10356
920.708	10497
920.818	10333
920.928	10390
921.038	10626
921.148	10546
921.258	10291
921.368	10124
921.477	10078
921.587	10048
921.697	9888
921.806	9975
921.916	9975
922.025	9812
922.134	9793
922.244	9759
922.353	9812
922.462	9679
922.571	9587
922.68	9481
922.789	9485
922.898	9424
923.007	9443
923.116	9469
923.224	9454
923.333	9458
923.442	9443
923.55	9306
923.659	9393
923.767	9401
923.876	9291
923.984	9466
924.092	9287
924.201	9325
924.309	9249
924.417	9340
924.525	9283
924.633	9321
924.741	10078
924.849	9047
924.956	9211
925.064	9036
925.172	9089
925.279	9142
925.387	9138
925.494	9195
925.602	9253
925.709	9268
925.816	9039
925.924	9093
926.031	9207
926.138	9116
926.245	9176
926.352	9047
926.459	9146
926.566	9233
926.673	8998
926.779	8975
926.886	8986
926.993	8845
927.099	8830
927.206	8769
927.312	8758
927.419	8883
927.525	8857
927.631	8826
927.737	8762
927.843	8773
927.95	8640
928.056	8750
928.162	8686
928.267	8720
928.373	9370
928.479	8785
928.585	8549
928.69	8720
928.796	8720
928.901	8613
929.007	8552
929.112	8621
929.218	8602
929.323	8575
929.428	8518
929.533	8708
929.638	8522
929.743	8545
929.848	8549
929.953	8564
930.058	8492
930.163	8343
930.267	8324
930.372	8465
930.477	8252
930.581	8408
930.685	8381
930.79	8267
930.894	8282
930.998	8187
931.103	8343
931.207	8020
931.311	8050
931.415	7963
931.519	7742
931.623	7765
