Data from test_V78500241_297.txt Node
Date: Fri Mar 25 14:35:47 CST 2022
User: usil
Spectrometer: V785-0024
Trigger mode: 0
Integration Time (sec): 4.000000E-1
Scans to average: 1
Nonlinearity correction enabled: false
Boxcar width: 0
Storing dark spectrum: false
XAxis mode: Wavelengths
Number of Pixels in Spectrum: 1024
>>>>>Begin Spectral Data<<<<<
801.071	27275
801.214	27039
801.356	26895
801.499	26773
801.641	26648
801.783	26613
801.926	26689
802.068	26636
802.211	26499
802.353	26400
802.496	26309
802.638	26271
802.78	26145
802.923	26122
803.065	26149
803.208	26149
803.35	26138
803.492	26271
803.635	26442
803.777	26259
803.919	26301
804.061	26518
804.204	26199
804.346	26145
804.488	26073
804.63	26088
804.773	25936
804.915	26183
805.057	26309
805.199	26157
805.341	26263
805.483	26168
805.626	26225
805.768	26214
805.91	26229
806.052	26381
806.194	26317
806.336	26278
806.478	26191
806.62	26210
806.762	26244
806.904	26355
807.046	26663
807.188	26636
807.33	26564
807.472	26522
807.614	26549
807.756	26484
807.898	26336
808.04	26347
808.182	26374
808.324	26332
808.465	26370
808.607	26629
808.749	26872
808.891	26777
809.033	26979
809.174	26925
809.316	27017
809.458	26864
809.6	26746
809.741	26731
809.883	26777
810.025	26990
810.166	26849
810.308	26921
810.45	26891
810.591	26849
810.733	26598
810.875	26629
811.016	26480
811.158	26423
811.299	26758
811.441	26678
811.582	26598
811.724	26541
811.865	26568
812.007	26598
812.148	26484
812.29	26587
812.431	26735
812.573	26914
812.714	26940
812.855	26982
812.997	27127
813.138	27264
813.279	27154
813.421	27161
813.562	27001
813.703	26940
813.845	26621
813.986	26495
814.127	26244
814.268	26267
814.41	26225
814.551	26138
814.692	26145
814.833	26195
814.974	26142
815.115	26210
815.256	25921
815.397	25928
815.539	25993
815.68	25902
815.821	25776
815.962	25833
816.103	25864
816.244	25677
816.385	25571
816.526	25605
816.666	25468
816.807	25289
816.948	25346
817.089	25377
817.23	25236
817.371	25171
817.512	25152
817.653	25103
817.793	25145
817.934	25285
818.075	25194
818.216	25164
818.356	25221
818.497	25012
818.638	24973
818.778	24958
818.919	24814
819.06	24966
819.2	25103
819.341	25145
819.481	25065
819.622	25228
819.762	25301
819.903	25392
820.043	25324
820.184	25240
820.324	25293
820.465	25346
820.605	25263
820.746	25110
820.886	25004
821.026	25187
821.167	25156
821.307	25266
821.447	25053
821.588	25015
821.728	24856
821.868	24669
822.008	24665
822.149	24528
822.289	24544
822.429	24380
822.569	24270
822.709	24251
822.849	24102
822.99	24098
823.13	23965
823.27	24038
823.41	23729
823.55	23634
823.69	23958
823.83	23855
823.97	23760
824.11	23596
824.25	23444
824.389	23558
824.529	23524
824.669	23547
824.809	23695
824.949	23649
825.089	23684
825.228	23672
825.368	23364
825.508	23398
825.648	23383
825.787	23425
825.927	23345
826.067	23265
826.206	23261
826.346	23299
826.485	23402
826.625	23288
826.765	23406
826.904	23345
827.044	23117
827.183	23098
827.323	23006
827.462	23090
827.601	23143
827.741	22980
827.88	22965
828.02	22889
828.159	22991
828.298	22999
828.437	23227
828.577	23033
828.716	23200
828.855	23033
828.994	22702
829.134	22843
829.273	22786
829.412	22668
829.551	22778
829.69	22634
829.829	22839
829.968	22812
830.107	22675
830.246	22664
830.385	22717
830.524	22664
830.663	22573
830.802	22371
830.941	22314
831.08	22230
831.219	22485
831.357	22318
831.496	22394
831.635	22230
831.774	22257
831.913	22223
832.051	22135
832.19	22040
832.329	22154
832.467	22021
832.606	21869
832.744	21907
832.883	21888
833.022	21850
833.16	21964
833.299	21918
833.437	21816
833.576	22032
833.714	21964
833.852	21975
833.991	22048
834.129	21987
834.267	22078
834.406	21884
834.544	22002
834.682	21926
834.821	21930
834.959	21991
835.097	21899
835.235	22010
835.373	21922
835.511	21846
835.65	21854
835.788	21717
835.926	21675
836.064	21618
836.202	21595
836.34	21827
836.478	21888
836.615	21686
836.753	21762
836.891	21819
837.029	21690
837.167	21709
837.305	21625
837.443	21690
837.58	21728
837.718	21736
837.856	21603
837.993	21519
838.131	21736
838.269	21492
838.406	21466
838.544	21469
838.681	21317
838.819	21199
838.956	21108
839.094	21036
839.231	21150
839.369	21275
839.506	21515
839.643	21298
839.781	21093
839.918	21043
840.055	20971
840.193	21131
840.33	20914
840.467	20895
840.604	21074
840.742	21241
840.879	20838
841.016	20929
841.153	20956
841.29	21055
841.427	21043
841.564	20918
841.701	21051
841.838	20792
841.975	20739
842.112	20800
842.249	20815
842.385	20632
842.522	20880
842.659	20735
842.796	20842
842.933	20670
843.069	20598
843.206	20632
843.343	20739
843.479	20617
843.616	20785
843.752	20575
843.889	20522
844.025	20579
844.162	20476
844.298	20446
844.435	20320
844.571	20450
844.708	20552
844.844	20503
844.98	20598
845.117	20606
845.253	20423
845.389	20301
845.525	20328
845.661	20381
845.798	20412
845.934	20351
846.07	20233
846.206	20404
846.342	20408
846.478	20248
846.614	20039
846.75	19955
846.886	19811
847.022	19997
847.158	20092
847.294	19856
847.429	19898
847.565	19875
847.701	20161
847.837	19666
847.972	19582
848.108	19845
848.244	19689
848.379	19601
848.515	19495
848.65	19506
848.786	19480
848.921	19464
849.057	19571
849.192	19491
849.328	19518
849.463	19434
849.598	19354
849.734	19293
849.869	19369
850.004	19274
850.14	19179
850.275	19225
850.41	19107
850.545	19133
850.68	19206
850.815	19179
850.95	19168
851.085	19388
851.22	19190
851.355	19171
851.49	19198
851.625	19217
851.76	19141
851.895	18954
852.03	19099
852.165	19168
852.299	19312
852.434	19278
852.569	19244
852.703	19187
852.838	19190
852.973	19293
853.107	19270
853.242	19202
853.376	18916
853.511	18924
853.645	18939
853.78	19164
853.914	18935
854.048	18844
854.183	18947
854.317	19095
854.451	19206
854.585	18970
854.72	18996
854.854	19095
854.988	18962
855.122	19164
855.256	18875
855.39	18856
855.524	19099
855.658	19088
855.792	19038
855.926	18932
856.06	18932
856.194	19099
856.327	18966
856.461	19091
856.595	18875
856.729	18905
856.862	19118
856.996	19015
857.13	19053
857.263	19072
857.397	19053
857.53	18954
857.664	19050
857.797	18996
857.931	19019
858.064	18939
858.197	18989
858.331	18897
858.464	18840
858.597	18814
858.731	18856
858.864	19004
858.997	18966
859.13	18985
859.263	18973
859.396	18932
859.529	18882
859.662	18882
859.795	18924
859.928	19019
860.061	19141
860.194	19198
860.327	19012
860.46	18897
860.592	18958
860.725	19069
860.858	19019
860.99	18901
861.123	18783
861.256	18875
861.388	18970
861.521	19472
861.653	18821
861.786	18749
861.918	18837
862.05	18909
862.183	18909
862.315	18939
862.447	18989
862.58	18985
862.712	18745
862.844	18650
862.976	18700
863.108	18711
863.24	19034
863.372	18612
863.504	18582
863.636	18650
863.768	18703
863.9	18703
864.032	18566
864.164	18585
864.296	18749
864.428	18684
864.559	18738
864.691	18661
864.823	18734
864.954	18547
865.086	18627
865.217	18521
865.349	18483
865.48	18650
865.612	18597
865.743	18658
865.875	18582
866.006	18525
866.137	18490
866.269	18536
866.4	18433
866.531	18475
866.662	18544
866.793	18544
866.924	18475
867.055	18604
867.186	18540
867.317	18441
867.448	18407
867.579	18479
867.71	18498
867.841	18384
867.972	18441
868.103	18483
868.233	18608
868.364	18604
868.495	18517
868.625	18696
868.756	18715
868.886	18749
869.017	18726
869.147	18859
869.278	18749
869.408	18703
869.539	18669
869.669	18757
869.799	18764
869.929	18928
870.06	18859
870.19	19015
870.32	19023
870.45	19141
870.58	18981
870.71	19168
870.84	19263
870.97	19114
871.1	19061
871.23	19422
871.36	19308
871.489	19190
871.619	19232
871.749	19346
871.879	19400
872.008	19278
872.138	19388
872.267	19156
872.397	19236
872.526	19187
872.656	19179
872.785	19175
872.915	19304
873.044	19388
873.173	19274
873.303	19438
873.432	19438
873.561	19438
873.69	19506
873.819	19331
873.948	19468
874.077	19331
874.206	19263
874.335	19304
874.464	19457
874.593	19738
874.722	19613
874.851	19651
874.979	19635
875.108	19662
875.237	19559
875.365	19518
875.494	19643
875.623	19776
875.751	19620
875.88	19632
876.008	19753
876.136	19845
876.265	20103
876.393	20145
876.521	20081
876.65	20062
876.778	19997
876.906	19974
877.034	19997
877.162	20043
877.29	19967
877.418	20024
877.546	20031
877.674	20122
877.802	20012
877.93	20043
878.058	19993
878.185	19925
878.313	19951
878.441	20016
878.568	19974
878.696	19909
878.824	20008
878.951	20096
879.079	20126
879.206	20317
879.333	20229
879.461	20092
879.588	20153
879.715	20221
879.842	20355
879.97	20081
880.097	19799
880.224	19803
880.351	19963
880.478	19795
880.605	19879
880.732	19887
880.859	20008
880.986	19822
881.112	19890
881.239	19746
881.366	19548
881.493	19400
881.619	19548
881.746	19384
881.872	19457
881.999	19453
882.125	19293
882.252	19480
882.378	19529
882.505	19597
882.631	19293
882.757	19133
882.883	19263
883.01	19148
883.136	19209
883.262	19118
883.388	18985
883.514	19232
883.64	19240
883.766	19145
883.892	19042
884.018	19110
884.143	19270
884.269	19285
884.395	19023
884.52	18985
884.646	18905
884.772	18829
884.897	18852
885.023	18890
885.148	19103
885.274	18996
885.399	18962
885.524	18821
885.65	18802
885.775	18882
885.9	18837
886.025	18951
886.15	18829
886.275	18726
886.4	18738
886.525	18764
886.65	18760
886.775	18783
886.9	18962
887.025	19031
887.149	18890
887.274	18623
887.399	18612
887.523	18604
887.648	18563
887.773	18623
887.897	18604
888.021	18646
888.146	18521
888.27	18760
888.395	18669
888.519	18711
888.643	18681
888.767	18589
888.891	18593
889.015	18422
889.139	18437
889.263	18452
889.387	18585
889.511	18665
889.635	18528
889.759	18399
889.883	18388
890.006	18532
890.13	18555
890.254	18319
890.377	18292
890.501	18224
890.624	18095
890.748	18254
890.871	18121
890.995	18068
891.118	17908
891.241	18026
891.364	18148
891.488	18114
891.611	18041
891.734	17927
891.857	18106
891.98	17977
892.103	18106
892.226	18057
892.349	17908
892.471	17920
892.594	17984
892.717	18011
892.839	17961
892.962	18045
893.085	17980
893.207	17954
893.33	17855
893.452	17840
893.575	18007
893.697	17802
893.819	18228
893.941	18232
894.064	18057
894.186	17954
894.308	17897
894.43	18087
894.552	18178
894.674	18072
894.796	17912
894.918	18015
895.04	17893
895.161	18125
895.283	18064
895.405	17863
895.526	17950
895.648	17901
895.769	18038
895.891	17935
896.012	18201
896.134	18205
896.255	18079
896.376	18076
896.498	18076
896.619	18064
896.74	18133
896.861	18087
896.982	18372
897.103	18597
897.224	18361
897.345	18285
897.466	18254
897.587	18304
897.708	18365
897.828	18289
897.949	18178
898.07	18060
898.19	18190
898.311	18285
898.431	18304
898.552	18300
898.672	18346
898.792	18380
898.913	18292
899.033	18163
899.153	18011
899.273	17935
899.393	17961
899.513	18068
899.633	18026
899.753	18102
899.873	17893
899.993	18041
900.113	18019
900.232	18129
900.352	18034
900.472	17851
900.591	17870
900.711	17817
900.83	17912
900.95	17969
901.069	17977
901.189	17843
901.308	17665
901.427	17532
901.546	17512
901.665	17627
901.784	17425
901.904	17360
902.023	17360
902.141	17094
902.26	17010
902.379	17022
902.498	17121
902.617	16904
902.735	17041
902.854	17018
902.973	16892
903.091	16710
903.21	16645
903.328	16603
903.446	16607
903.565	16500
903.683	16489
903.801	16424
903.919	16459
904.038	16398
904.156	16306
904.274	16390
904.392	16310
904.51	16265
904.627	16253
904.745	16337
904.863	16367
904.981	16090
905.098	15892
905.216	15975
905.334	16010
905.451	15892
905.569	15884
905.686	16029
905.803	15911
905.921	15755
906.038	15857
906.155	15785
906.272	15587
906.389	15603
906.506	15481
906.623	15561
906.74	15469
906.857	15386
906.974	15367
907.091	15450
907.208	15538
907.324	15507
907.441	15378
907.557	15218
907.674	15184
907.79	15127
907.907	15165
908.023	15203
908.139	15294
908.256	15146
908.372	15005
908.488	15051
908.604	14948
908.72	14857
908.836	14838
908.952	14864
909.068	14933
909.184	15032
909.3	14960
909.415	14902
909.531	14883
909.647	14621
909.762	14571
909.878	14537
909.993	14621
910.108	14552
910.224	14659
910.339	14701
910.454	14518
910.57	14434
910.685	14351
910.8	14705
910.915	14526
911.03	14457
911.145	14290
911.259	14229
911.374	14240
911.489	14115
911.604	14054
911.718	13917
911.833	14107
911.947	13959
912.062	13757
912.176	13944
912.291	13963
912.405	13932
912.519	14115
912.633	14126
912.748	14035
912.862	14008
912.976	13769
913.09	13719
913.204	13677
913.318	13666
913.431	13849
913.545	13849
913.659	13955
913.772	13715
913.886	13613
914	13647
914.113	13624
914.226	13670
914.34	13757
914.453	13544
914.566	13715
914.68	13499
914.793	13559
914.906	13362
915.019	13331
915.132	13179
915.245	13213
915.358	13331
915.47	13316
915.583	13320
915.696	13346
915.809	13464
915.921	13434
916.034	13259
916.146	13251
916.259	13236
916.371	13255
916.483	13187
916.595	13133
916.708	13217
916.82	13118
916.932	13194
917.044	13118
917.156	13183
917.268	12943
917.38	12951
917.491	13015
917.603	12985
917.715	13114
917.826	13126
917.938	13053
918.049	12875
918.161	12958
918.272	13122
918.384	13050
918.495	13072
918.606	12871
918.717	12753
918.828	12844
918.939	12821
919.05	12707
919.161	12837
919.272	12559
919.383	12681
919.494	12863
919.604	13004
919.715	12821
919.826	12703
919.936	12726
920.047	12779
920.157	12806
920.267	13012
920.378	12802
920.488	12719
920.598	12928
920.708	13065
920.818	12894
920.928	12951
921.038	13069
921.148	13053
921.258	12692
921.368	12582
921.477	12604
921.587	12528
921.697	12376
921.806	12460
921.916	12376
922.025	12277
922.134	12159
922.244	12148
922.353	12300
922.462	12121
922.571	12041
922.68	11847
922.789	11870
922.898	11851
923.007	11707
923.116	11889
923.224	11870
923.333	11859
923.442	11653
923.55	11699
923.659	11699
923.767	11771
923.876	11634
923.984	11699
924.092	11596
924.201	11684
924.309	11718
924.417	11695
924.525	11596
924.633	11573
924.741	12513
924.849	11471
924.956	11471
925.064	11444
925.172	11299
925.279	11315
925.387	11406
925.494	11318
925.602	11501
925.709	11406
925.816	11322
925.924	11421
926.031	11398
926.138	11330
926.245	11391
926.352	11284
926.459	11337
926.566	11315
926.673	11326
926.779	11143
926.886	11178
926.993	10972
927.099	10946
927.206	10919
927.312	10866
927.419	11037
927.525	10965
927.631	10999
927.737	10866
927.843	10854
927.95	10729
928.056	10759
928.162	10809
928.267	10889
928.373	11383
928.479	10809
928.585	10618
928.69	10710
928.796	10809
928.901	10721
929.007	10588
929.112	10698
929.218	10668
929.323	10611
929.428	10584
929.533	10691
929.638	10538
929.743	10542
929.848	10618
929.953	10565
930.058	10421
930.163	10234
930.267	10371
930.372	10478
930.477	10272
930.581	10462
930.685	10272
930.79	10227
930.894	10287
930.998	10105
931.103	10314
931.207	9934
931.311	9960
931.415	9812
931.519	9610
931.623	9591
