Data from test_V78500241_3405.txt Node
Date: Fri Mar 25 14:57:25 CST 2022
User: usil
Spectrometer: V785-0024
Trigger mode: 0
Integration Time (sec): 4.000000E-1
Scans to average: 1
Nonlinearity correction enabled: false
Boxcar width: 0
Storing dark spectrum: false
XAxis mode: Wavelengths
Number of Pixels in Spectrum: 1024
>>>>>Begin Spectral Data<<<<<
801.071	21953
801.214	21751
801.356	21580
801.499	21488
801.641	21359
801.783	21348
801.926	21355
802.068	21279
802.211	21165
802.353	21169
802.496	20815
802.638	20811
802.78	20811
802.923	20705
803.065	20667
803.208	20606
803.35	20640
803.492	20800
803.635	20773
803.777	20712
803.919	20636
804.061	20971
804.204	20716
804.346	20549
804.488	20549
804.63	20636
804.773	20465
804.915	20594
805.057	20659
805.199	20514
805.341	20571
805.483	20743
805.626	20674
805.768	20549
805.91	20594
806.052	20499
806.194	20480
806.336	20792
806.478	20514
806.62	20415
806.762	20530
806.904	20705
807.046	21013
807.188	20754
807.33	20891
807.472	21047
807.614	20777
807.756	20883
807.898	20659
808.04	20560
808.182	20667
808.324	20769
808.465	20651
808.607	20754
808.749	20998
808.891	20979
809.033	21074
809.174	20891
809.316	20842
809.458	20921
809.6	20788
809.741	20902
809.883	21013
810.025	21085
810.166	21096
810.308	20952
810.45	21051
810.591	20876
810.733	20701
810.875	20609
811.016	20541
811.158	20507
811.299	20731
811.441	20731
811.582	20716
811.724	20686
811.865	20613
812.007	20659
812.148	20613
812.29	20697
812.431	20731
812.573	20998
812.714	21116
812.855	21146
812.997	21233
813.138	21351
813.279	21313
813.421	21150
813.562	21093
813.703	20941
813.845	20834
813.986	20549
814.127	20419
814.268	20267
814.41	20282
814.551	20240
814.692	20263
814.833	20183
814.974	20092
815.115	20225
815.256	20046
815.397	20073
815.539	20145
815.68	19917
815.821	19921
815.962	19944
816.103	19963
816.244	19723
816.385	19594
816.526	19601
816.666	19483
816.807	19320
816.948	19392
817.089	19480
817.23	19396
817.371	19316
817.512	19259
817.653	19327
817.793	19377
817.934	19346
818.075	19438
818.216	19373
818.356	19228
818.497	19194
818.638	19019
818.778	19027
818.919	18966
819.06	19137
819.2	19008
819.341	19304
819.481	19255
819.622	19453
819.762	19529
819.903	19396
820.043	19430
820.184	19346
820.324	19369
820.465	19354
820.605	19247
820.746	19285
820.886	19171
821.026	19164
821.167	19251
821.307	19316
821.447	19225
821.588	19080
821.728	19015
821.868	18894
822.008	18795
822.149	18696
822.289	18681
822.429	18464
822.569	18544
822.709	18384
822.849	18262
822.99	18304
823.13	18266
823.27	18136
823.41	18019
823.55	18091
823.69	18022
823.83	18019
823.97	18019
824.11	17920
824.25	17771
824.389	17802
824.529	17855
824.669	17771
824.809	17946
824.949	17965
825.089	17855
825.228	17794
825.368	17532
825.508	17562
825.648	17558
825.787	17554
825.927	17566
826.067	17547
826.206	17509
826.346	17687
826.485	17630
826.625	17657
826.765	17623
826.904	17478
827.044	17383
827.183	17345
827.323	17185
827.462	17181
827.601	17318
827.741	17197
827.88	17261
828.02	17212
828.159	17261
828.298	17307
828.437	17326
828.577	17242
828.716	17356
828.855	17269
828.994	17109
829.134	17117
829.273	17083
829.412	17010
829.551	16957
829.69	17037
829.829	17121
829.968	17159
830.107	17098
830.246	16984
830.385	16911
830.524	16854
830.663	16850
830.802	16793
830.941	16653
831.08	16637
831.219	16710
831.357	16767
831.496	16866
831.635	16763
831.774	16535
831.913	16656
832.051	16386
832.19	16428
832.329	16531
832.467	16333
832.606	16284
832.744	16379
832.883	16303
833.022	16405
833.16	16451
833.299	16314
833.437	16436
833.576	16386
833.714	16424
833.852	16447
833.991	16474
834.129	16531
834.267	16481
834.406	16356
834.544	16531
834.682	16352
834.821	16348
834.959	16508
835.097	16428
835.235	16462
835.373	16455
835.511	16409
835.65	16356
835.788	16329
835.926	16162
836.064	16169
836.202	16234
836.34	16318
836.478	16409
836.615	16360
836.753	16287
836.891	16466
837.029	16356
837.167	16303
837.305	16356
837.443	16230
837.58	16181
837.718	16299
837.856	16226
837.993	16082
838.131	16230
838.269	16128
838.406	16116
838.544	16059
838.681	16010
838.819	15930
838.956	15739
839.094	15751
839.231	15816
839.369	15816
839.506	16169
839.643	16055
839.781	15743
839.918	15660
840.055	15876
840.193	15789
840.33	15789
840.467	15667
840.604	15732
840.742	16044
840.879	15614
841.016	15553
841.153	15656
841.29	15907
841.427	15793
841.564	15800
841.701	15774
841.838	15698
841.975	15625
842.112	15663
842.249	15519
842.385	15561
842.522	15838
842.659	15580
842.796	15500
842.933	15549
843.069	15580
843.206	15359
843.343	15686
843.479	15641
843.616	15530
843.752	15325
843.889	15389
844.025	15481
844.162	15329
844.298	15420
844.435	15298
844.571	15332
844.708	15428
844.844	15504
844.98	15454
845.117	15344
845.253	15302
845.389	15199
845.525	15245
845.661	15291
845.798	15230
845.934	15241
846.07	15062
846.206	15252
846.342	15226
846.478	15138
846.614	14872
846.75	14891
846.886	14781
847.022	15074
847.158	14925
847.294	15005
847.429	14998
847.565	14960
847.701	15203
847.837	14617
847.972	14587
848.108	14712
848.244	14758
848.379	14594
848.515	14507
848.65	14412
848.786	14469
848.921	14514
849.057	14651
849.192	14511
849.328	14438
849.463	14526
849.598	14492
849.734	14393
849.869	14393
850.004	14237
850.14	14271
850.275	14366
850.41	14210
850.545	14252
850.68	14267
850.815	14183
850.95	14282
851.085	14454
851.22	14309
851.355	14233
851.49	14229
851.625	14290
851.76	14168
851.895	14176
852.03	14149
852.165	14256
852.299	14317
852.434	14301
852.569	14324
852.703	14286
852.838	14393
852.973	14431
853.107	14434
853.242	14195
853.376	14218
853.511	14050
853.645	14130
853.78	14206
853.914	14168
854.048	14199
854.183	14077
854.317	14092
854.451	14263
854.585	14126
854.72	14161
854.854	14210
854.988	14115
855.122	14115
855.256	14020
855.39	14054
855.524	14149
855.658	14221
855.792	14195
855.926	14123
856.06	14343
856.194	14275
856.327	14199
856.461	14005
856.595	14035
856.729	14096
856.862	14263
856.996	14210
857.13	14218
857.263	14305
857.397	14298
857.53	14202
857.664	14172
857.797	14282
857.931	14214
858.064	14202
858.197	14164
858.331	14069
858.464	14069
858.597	13959
858.731	14107
858.864	14073
858.997	14043
859.13	14168
859.263	14172
859.396	14149
859.529	14145
859.662	14024
859.795	14172
859.928	14134
860.061	14271
860.194	14317
860.327	14218
860.46	14157
860.592	14336
860.725	14263
860.858	14206
860.99	14111
861.123	14024
861.256	14069
861.388	14126
861.521	14762
861.653	14001
861.786	13875
861.918	14069
862.05	13974
862.183	14012
862.315	14130
862.447	14176
862.58	14153
862.712	13940
862.844	13841
862.976	14035
863.108	13921
863.24	14434
863.372	13871
863.504	13951
863.636	13928
863.768	13913
863.9	13925
864.032	13868
864.164	13864
864.296	13925
864.428	14012
864.559	14062
864.691	14031
864.823	13902
864.954	13928
865.086	13902
865.217	13921
865.349	13841
865.48	13879
865.612	13955
865.743	13967
865.875	13928
866.006	13944
866.137	13959
866.269	13913
866.4	13936
866.531	13871
866.662	13864
866.793	13864
866.924	13761
867.055	14008
867.186	13917
867.317	13928
867.448	13822
867.579	13852
867.71	13784
867.841	13902
867.972	13909
868.103	13909
868.233	13913
868.364	13837
868.495	14012
868.625	14084
868.756	14259
868.886	14107
869.017	14218
869.147	14301
869.278	14195
869.408	14145
869.539	14134
869.669	14229
869.799	14180
869.929	14324
870.06	14191
870.19	14389
870.32	14503
870.45	14488
870.58	14476
870.71	14651
870.84	14663
870.97	14541
871.1	14571
871.23	14804
871.36	14716
871.489	14735
871.619	14659
871.749	14663
871.879	14823
872.008	14887
872.138	14705
872.267	14731
872.397	14533
872.526	14568
872.656	14579
872.785	14590
872.915	14762
873.044	14910
873.173	14830
873.303	14948
873.432	14872
873.561	14864
873.69	14807
873.819	14872
873.948	14845
874.077	14956
874.206	14758
874.335	14914
874.464	14982
874.593	15169
874.722	14967
874.851	15024
874.979	15279
875.108	15127
875.237	15077
875.365	15039
875.494	15032
875.623	15112
875.751	15104
875.88	15214
876.008	15256
876.136	15348
876.265	15519
876.393	15625
876.521	15671
876.65	15667
876.778	15545
876.906	15488
877.034	15576
877.162	15466
877.29	15428
877.418	15561
877.546	15507
877.674	15614
877.802	15610
877.93	15622
878.058	15481
878.185	15401
878.313	15557
878.441	15538
878.568	15458
878.696	15435
878.824	15561
878.951	15652
879.079	15686
879.206	15842
879.333	15652
879.461	15633
879.588	15686
879.715	15766
879.842	15778
879.97	15679
880.097	15374
880.224	15367
880.351	15389
880.478	15401
880.605	15344
880.732	15336
880.859	15595
880.986	15378
881.112	15435
881.239	15268
881.366	15233
881.493	15184
881.619	15047
881.746	15047
881.872	15142
881.999	15066
882.125	15020
882.252	15104
882.378	15005
882.505	15252
882.631	15028
882.757	14929
882.883	14910
883.01	14880
883.136	14781
883.262	14819
883.388	14651
883.514	14826
883.64	14895
883.766	14800
883.892	14674
884.018	14735
884.143	14849
884.269	14921
884.395	14636
884.52	14587
884.646	14644
884.772	14518
884.897	14419
885.023	14537
885.148	14598
885.274	14651
885.399	14739
885.524	14670
885.65	14545
885.775	14640
885.9	14469
886.025	14701
886.15	14693
886.275	14511
886.4	14465
886.525	14568
886.65	14511
886.775	14514
886.9	14701
887.025	14804
887.149	14583
887.274	14438
887.399	14415
887.523	14324
887.648	14389
887.773	14332
887.897	14461
888.021	14480
888.146	14366
888.27	14556
888.395	14511
888.519	14415
888.643	14473
888.767	14514
888.891	14324
889.015	14229
889.139	14199
889.263	14259
889.387	14381
889.511	14393
889.635	14377
889.759	14298
889.883	14134
890.006	14355
890.13	14324
890.254	14240
890.377	14256
890.501	14130
890.624	13993
890.748	14092
890.871	14024
890.995	13906
891.118	13841
891.241	13997
891.364	13974
891.488	14046
891.611	13970
891.734	13989
891.857	14016
891.98	14005
892.103	14092
892.226	14050
892.349	14050
892.471	13761
892.594	13936
892.717	13909
892.839	13947
892.962	13932
893.085	14001
893.207	13963
893.33	13883
893.452	13883
893.575	14065
893.697	13970
893.819	14157
893.941	14126
894.064	14005
894.186	13917
894.308	13963
894.43	14115
894.552	14225
894.674	14157
894.796	13959
894.918	14031
895.04	13951
895.161	14119
895.283	14062
895.405	14050
895.526	14016
895.648	14016
895.769	14138
895.891	14183
896.012	14168
896.134	14199
896.255	14206
896.376	14100
896.498	14092
896.619	14180
896.74	14195
896.861	14286
896.982	14579
897.103	14617
897.224	14469
897.345	14389
897.466	14355
897.587	14412
897.708	14606
897.828	14415
897.949	14442
898.07	14252
898.19	14434
898.311	14564
898.431	14461
898.552	14385
898.672	14571
898.792	14617
898.913	14583
899.033	14377
899.153	14362
899.273	14317
899.393	14278
899.513	14328
899.633	14351
899.753	14320
899.873	14256
899.993	14324
900.113	14298
900.232	14396
900.352	14298
900.472	14351
900.591	14214
900.711	14248
900.83	14221
900.95	14278
901.069	14305
901.189	14138
901.308	13898
901.427	13890
901.546	13856
901.665	13909
901.784	14012
901.904	13811
902.023	13674
902.141	13476
902.26	13426
902.379	13563
902.498	13533
902.617	13259
902.735	13441
902.854	13521
902.973	13339
903.091	13149
903.21	13194
903.328	13137
903.446	13145
903.565	12989
903.683	13099
903.801	12909
903.919	12993
904.038	12951
904.156	12871
904.274	12970
904.392	12856
904.51	12817
904.627	12814
904.745	12875
904.863	12871
904.981	12639
905.098	12544
905.216	12471
905.334	12521
905.451	12563
905.569	12555
905.686	12593
905.803	12623
905.921	12311
906.038	12471
906.155	12357
906.272	12235
906.389	12292
906.506	12186
906.623	12129
906.74	12091
906.857	12011
906.974	12026
907.091	12220
907.208	12334
907.324	12159
907.441	12152
907.557	11946
907.674	11912
907.79	11847
907.907	11958
908.023	12030
908.139	11931
908.256	11897
908.372	11737
908.488	11893
908.604	11589
908.72	11672
908.836	11665
908.952	11672
909.068	11627
909.184	11767
909.3	11608
909.415	11710
909.531	11642
909.647	11486
909.762	11463
909.878	11337
909.993	11474
910.108	11429
910.224	11345
910.339	11482
910.454	11383
910.57	11273
910.685	11231
910.8	11505
910.915	11455
911.03	11227
911.145	11094
911.259	11083
911.374	11067
911.489	11124
911.604	11010
911.718	10938
911.833	10904
911.947	10828
912.062	10710
912.176	10873
912.291	10900
912.405	10843
912.519	10976
912.633	11113
912.748	10980
912.862	10965
912.976	10786
913.09	10714
913.204	10706
913.318	10820
913.431	10866
913.545	10927
913.659	10869
913.772	10748
913.886	10637
914	10561
914.113	10786
914.226	10736
914.34	10736
914.453	10607
914.566	10755
914.68	10615
914.793	10615
914.906	10344
915.019	10405
915.132	10314
915.245	10352
915.358	10413
915.47	10402
915.583	10428
915.696	10382
915.809	10607
915.921	10630
916.034	10371
916.146	10337
916.259	10322
916.371	10424
916.483	10402
916.595	10230
916.708	10363
916.82	10329
916.932	10325
917.044	10310
917.156	10299
917.268	10188
917.38	10242
917.491	9994
917.603	10295
917.715	10284
917.826	10291
917.938	10230
918.049	10116
918.161	10268
918.272	10329
918.384	10337
918.495	10272
918.606	10055
918.717	10093
918.828	10135
918.939	10154
919.05	10006
919.161	10029
919.272	9884
919.383	9945
919.494	10223
919.604	10382
919.715	10131
919.826	10074
919.936	10147
920.047	10207
920.157	10177
920.267	10310
920.378	10219
920.488	10150
920.598	10303
920.708	10432
920.818	10322
920.928	10299
921.038	10474
921.148	10398
921.258	10169
921.368	10124
921.477	10082
921.587	9960
921.697	9876
921.806	10017
921.916	9835
922.025	9720
922.134	9690
922.244	9644
922.353	9724
922.462	9629
922.571	9473
922.68	9401
922.789	9393
922.898	9408
923.007	9321
923.116	9428
923.224	9416
923.333	9428
923.442	9233
923.55	9287
923.659	9249
923.767	9405
923.876	9150
923.984	9298
924.092	9169
924.201	9211
924.309	9256
924.417	9287
924.525	9165
924.633	9237
924.741	10128
924.849	9051
924.956	9226
925.064	9020
925.172	9005
925.279	8990
925.387	9028
925.494	9009
925.602	9256
925.709	9146
925.816	9058
925.924	9055
926.031	9199
926.138	8975
926.245	9047
926.352	8956
926.459	9104
926.566	9230
926.673	8967
926.779	8963
926.886	8925
926.993	8807
927.099	8804
927.206	8754
927.312	8712
927.419	8792
927.525	8800
927.631	8804
927.737	8613
927.843	8606
927.95	8514
928.056	8659
928.162	8693
928.267	8716
928.373	9386
928.479	8731
928.585	8560
928.69	8632
928.796	8678
928.901	8594
929.007	8385
929.112	8571
929.218	8549
929.323	8469
929.428	8450
929.533	8594
929.638	8438
929.743	8488
929.848	8511
929.953	8476
930.058	8347
930.163	8157
930.267	8320
930.372	8381
930.477	8172
930.581	8492
930.685	8317
930.79	8164
930.894	8279
930.998	8123
931.103	8393
931.207	7963
931.311	7986
931.415	7883
931.519	7723
931.623	7708
