Data from test_V78500241_1828.txt Node
Date: Fri Mar 25 14:46:26 CST 2022
User: usil
Spectrometer: V785-0024
Trigger mode: 0
Integration Time (sec): 4.000000E-1
Scans to average: 1
Nonlinearity correction enabled: false
Boxcar width: 0
Storing dark spectrum: false
XAxis mode: Wavelengths
Number of Pixels in Spectrum: 1024
>>>>>Begin Spectral Data<<<<<
801.071	22192
801.214	22143
801.356	21785
801.499	21690
801.641	21587
801.783	21561
801.926	21580
802.068	21431
802.211	21469
802.353	21272
802.496	21081
802.638	21009
802.78	21020
802.923	20864
803.065	20743
803.208	20838
803.35	20769
803.492	20963
803.635	20986
803.777	20826
803.919	20937
804.061	21146
804.204	20990
804.346	20743
804.488	20872
804.63	20853
804.773	20682
804.915	20762
805.057	20914
805.199	20834
805.341	20800
805.483	20921
805.626	20819
805.768	20735
805.91	20788
806.052	20857
806.194	20777
806.336	20849
806.478	20743
806.62	20800
806.762	20701
806.904	20967
807.046	21176
807.188	21070
807.33	21062
807.472	21218
807.614	20975
807.756	21013
807.898	20804
808.04	20750
808.182	20697
808.324	20880
808.465	20845
808.607	21066
808.749	21108
808.891	21313
809.033	21252
809.174	21302
809.316	21131
809.458	21207
809.6	21138
809.741	21161
809.883	21085
810.025	21386
810.166	21252
810.308	21279
810.45	21169
810.591	21192
810.733	21036
810.875	20918
811.016	20887
811.158	20845
811.299	20986
811.441	21058
811.582	20891
811.724	20838
811.865	20921
812.007	20918
812.148	20887
812.29	20929
812.431	21207
812.573	21233
812.714	21256
812.855	21367
812.997	21454
813.138	21450
813.279	21504
813.421	21496
813.562	21321
813.703	21321
813.845	21119
813.986	20758
814.127	20609
814.268	20606
814.41	20590
814.551	20522
814.692	20587
814.833	20351
814.974	20385
815.115	20370
815.256	20370
815.397	20187
815.539	20370
815.68	20195
815.821	20134
815.962	20225
816.103	20142
816.244	20008
816.385	19883
816.526	19967
816.666	19757
816.807	19620
816.948	19750
817.089	19811
817.23	19696
817.371	19571
817.512	19567
817.653	19552
817.793	19483
817.934	19514
818.075	19499
818.216	19628
818.356	19616
818.497	19346
818.638	19358
818.778	19301
818.919	19255
819.06	19388
819.2	19457
819.341	19468
819.481	19445
819.622	19643
819.762	19734
819.903	19723
820.043	19830
820.184	19639
820.324	19567
820.465	19693
820.605	19613
820.746	19601
820.886	19483
821.026	19544
821.167	19594
821.307	19548
821.447	19381
821.588	19480
821.728	19240
821.868	19171
822.008	18981
822.149	18996
822.289	18951
822.429	18779
822.569	18601
822.709	18661
822.849	18494
822.99	18509
823.13	18437
823.27	18395
823.41	18353
823.55	18216
823.69	18342
823.83	18388
823.97	18216
824.11	18026
824.25	18011
824.389	18106
824.529	18011
824.669	18095
824.809	18155
824.949	18140
825.089	18003
825.228	18091
825.368	17828
825.508	17912
825.648	17874
825.787	17870
825.927	17916
826.067	17771
826.206	17832
826.346	17836
826.485	17859
826.625	17783
826.765	17984
826.904	17851
827.044	17573
827.183	17672
827.323	17398
827.462	17638
827.601	17596
827.741	17440
827.88	17547
828.02	17436
828.159	17505
828.298	17509
828.437	17577
828.577	17532
828.716	17589
828.855	17440
828.994	17292
829.134	17372
829.273	17292
829.412	17284
829.551	17303
829.69	17364
829.829	17307
829.968	17383
830.107	17398
830.246	17250
830.385	17189
830.524	17181
830.663	17151
830.802	17041
830.941	16980
831.08	16995
831.219	16961
831.357	16942
831.496	17140
831.635	16927
831.774	16771
831.913	16748
832.051	16615
832.19	16637
832.329	16786
832.467	16504
832.606	16561
832.744	16546
832.883	16641
833.022	16573
833.16	16675
833.299	16668
833.437	16596
833.576	16615
833.714	16702
833.852	16599
833.991	16698
834.129	16717
834.267	16725
834.406	16683
834.544	16675
834.682	16725
834.821	16645
834.959	16892
835.097	16596
835.235	16664
835.373	16668
835.511	16565
835.65	16580
835.788	16653
835.926	16500
836.064	16363
836.202	16303
836.34	16675
836.478	16603
836.615	16618
836.753	16641
836.891	16668
837.029	16634
837.167	16603
837.305	16531
837.443	16390
837.58	16386
837.718	16550
837.856	16474
837.993	16413
838.131	16451
838.269	16306
838.406	16344
838.544	16432
838.681	16223
838.819	16067
838.956	16090
839.094	15979
839.231	16135
839.369	16226
839.506	16394
839.643	16333
839.781	16055
839.918	16002
840.055	16021
840.193	16101
840.33	15972
840.467	15930
840.604	15987
840.742	16219
840.879	15865
841.016	15934
841.153	15884
841.29	16090
841.427	16074
841.564	16021
841.701	16082
841.838	15998
841.975	15915
842.112	15911
842.249	15831
842.385	15739
842.522	15960
842.659	15762
842.796	15785
842.933	15728
843.069	15797
843.206	15679
843.343	15812
843.479	15720
843.616	15827
843.752	15652
843.889	15485
844.025	15679
844.162	15515
844.298	15614
844.435	15500
844.571	15496
844.708	15663
844.844	15747
844.98	15701
845.117	15675
845.253	15507
845.389	15447
845.525	15545
845.661	15408
845.798	15378
845.934	15416
846.07	15306
846.206	15435
846.342	15450
846.478	15287
846.614	15116
846.75	15199
846.886	15157
847.022	15226
847.158	15119
847.294	15142
847.429	15154
847.565	15108
847.701	15447
847.837	14880
847.972	14876
848.108	14979
848.244	14918
848.379	14693
848.515	14727
848.65	14689
848.786	14648
848.921	14807
849.057	14823
849.192	14861
849.328	14743
849.463	14648
849.598	14720
849.734	14674
849.869	14465
850.004	14507
850.14	14476
850.275	14503
850.41	14454
850.545	14434
850.68	14514
850.815	14480
850.95	14499
851.085	14648
851.22	14716
851.355	14492
851.49	14438
851.625	14522
851.76	14507
851.895	14366
852.03	14389
852.165	14480
852.299	14503
852.434	14568
852.569	14632
852.703	14560
852.838	14541
852.973	14670
853.107	14613
853.242	14495
853.376	14374
853.511	14313
853.645	14324
853.78	14511
853.914	14298
854.048	14298
854.183	14218
854.317	14419
854.451	14575
854.585	14332
854.72	14267
854.854	14480
854.988	14271
855.122	14313
855.256	14145
855.39	14377
855.524	14332
855.658	14533
855.792	14461
855.926	14351
856.06	14404
856.194	14511
856.327	14332
856.461	14370
856.595	14374
856.729	14328
856.862	14552
856.996	14473
857.13	14396
857.263	14317
857.397	14393
857.53	14434
857.664	14476
857.797	14431
857.931	14488
858.064	14320
858.197	14434
858.331	14362
858.464	14351
858.597	14221
858.731	14366
858.864	14366
858.997	14351
859.13	14343
859.263	14415
859.396	14514
859.529	14339
859.662	14320
859.795	14355
859.928	14343
860.061	14507
860.194	14617
860.327	14305
860.46	14343
860.592	14450
860.725	14583
860.858	14473
860.99	14275
861.123	14259
861.256	14366
861.388	14427
861.521	15138
861.653	14286
861.786	14248
861.918	14240
862.05	14412
862.183	14374
862.315	14415
862.447	14374
862.58	14355
862.712	14115
862.844	14065
862.976	14195
863.108	14237
863.24	14503
863.372	14043
863.504	14202
863.636	14142
863.768	14138
863.9	14244
864.032	14088
864.164	14024
864.296	14130
864.428	14256
864.559	14278
864.691	14282
864.823	14161
864.954	14161
865.086	14180
865.217	14153
865.349	14024
865.48	14088
865.612	14073
865.743	14259
865.875	14252
866.006	14123
866.137	14176
866.269	14153
866.4	14195
866.531	14111
866.662	14001
866.793	14103
866.924	14134
867.055	14084
867.186	14107
867.317	14046
867.448	13955
867.579	14050
867.71	14050
867.841	14001
867.972	14134
868.103	14107
868.233	14058
868.364	14164
868.495	14214
868.625	14313
868.756	14457
868.886	14240
869.017	14351
869.147	14457
869.278	14556
869.408	14389
869.539	14320
869.669	14423
869.799	14358
869.929	14598
870.06	14541
870.19	14743
870.32	14651
870.45	14834
870.58	14746
870.71	14868
870.84	14861
870.97	14743
871.1	14769
871.23	14902
871.36	14963
871.489	14876
871.619	14933
871.749	14914
871.879	15043
872.008	15017
872.138	14929
872.267	14929
872.397	14830
872.526	14857
872.656	14845
872.785	14853
872.915	15047
873.044	14986
873.173	15017
873.303	15051
873.432	15062
873.561	15097
873.69	15081
873.819	14990
873.948	15058
874.077	15009
874.206	14967
874.335	15112
874.464	15226
874.593	15256
874.722	15233
874.851	15348
874.979	15340
875.108	15382
875.237	15260
875.365	15184
875.494	15344
875.623	15382
875.751	15321
875.88	15332
876.008	15507
876.136	15606
876.265	15797
876.393	15850
876.521	15941
876.65	15880
876.778	15800
876.906	15751
877.034	15675
877.162	15759
877.29	15759
877.418	15785
877.546	15800
877.674	15660
877.802	15778
877.93	15751
878.058	15694
878.185	15633
878.313	15785
878.441	15682
878.568	15557
878.696	15652
878.824	15732
878.951	15899
879.079	15945
879.206	16185
879.333	15937
879.461	15876
879.588	15892
879.715	15956
879.842	16002
879.97	15774
880.097	15648
880.224	15625
880.351	15618
880.478	15614
880.605	15507
880.732	15641
880.859	15816
880.986	15614
881.112	15633
881.239	15485
881.366	15378
881.493	15401
881.619	15264
881.746	15218
881.872	15340
881.999	15332
882.125	15222
882.252	15313
882.378	15192
882.505	15428
882.631	15279
882.757	14998
882.883	15112
883.01	15043
883.136	15070
883.262	14967
883.388	14921
883.514	15089
883.64	15017
883.766	15013
883.892	14785
884.018	14948
884.143	15119
884.269	15192
884.395	14811
884.52	14769
884.646	14724
884.772	14636
884.897	14663
885.023	14663
885.148	14937
885.274	14895
885.399	14941
885.524	14762
885.65	14746
885.775	14883
885.9	14758
886.025	14899
886.15	14876
886.275	14712
886.4	14678
886.525	14629
886.65	14724
886.775	14674
886.9	14891
887.025	14986
887.149	14788
887.274	14644
887.399	14606
887.523	14556
887.648	14648
887.773	14476
887.897	14682
888.021	14682
888.146	14655
888.27	14697
888.395	14739
888.519	14701
888.643	14682
888.767	14727
888.891	14537
889.015	14465
889.139	14495
889.263	14461
889.387	14610
889.511	14689
889.635	14613
889.759	14419
889.883	14480
890.006	14423
890.13	14590
890.254	14366
890.377	14381
890.501	14343
890.624	14191
890.748	14320
890.871	14218
890.995	14107
891.118	14035
891.241	14119
891.364	14157
891.488	14252
891.611	14142
891.734	14225
891.857	14221
891.98	14210
892.103	14240
892.226	14164
892.349	14195
892.471	14035
892.594	14161
892.717	14134
892.839	14183
892.962	14168
893.085	14195
893.207	14134
893.33	14065
893.452	14149
893.575	14237
893.697	14138
893.819	14374
893.941	14358
894.064	14282
894.186	14263
894.308	14187
894.43	14351
894.552	14400
894.674	14225
894.796	14126
894.918	14195
895.04	14298
895.161	14244
895.283	14275
895.405	14210
895.526	14290
895.648	14263
895.769	14351
895.891	14366
896.012	14400
896.134	14351
896.255	14275
896.376	14256
896.498	14328
896.619	14374
896.74	14282
896.861	14320
896.982	14674
897.103	14845
897.224	14621
897.345	14606
897.466	14526
897.587	14556
897.708	14716
897.828	14640
897.949	14556
898.07	14442
898.19	14636
898.311	14689
898.431	14697
898.552	14629
898.672	14754
898.792	14804
898.913	14640
899.033	14625
899.153	14522
899.273	14415
899.393	14514
899.513	14522
899.633	14632
899.753	14568
899.873	14438
899.993	14648
900.113	14423
900.232	14564
900.352	14484
900.472	14442
900.591	14278
900.711	14389
900.83	14412
900.95	14514
901.069	14511
901.189	14355
901.308	14084
901.427	14046
901.546	14069
901.665	14096
901.784	14046
901.904	13997
902.023	13883
902.141	13651
902.26	13559
902.379	13788
902.498	13601
902.617	13636
902.735	13772
902.854	13681
902.973	13571
903.091	13362
903.21	13343
903.328	13419
903.446	13244
903.565	13240
903.683	13213
903.801	13126
903.919	13156
904.038	13206
904.156	13050
904.274	13179
904.392	13004
904.51	12932
904.627	13015
904.745	13118
904.863	13095
904.981	12928
905.098	12791
905.216	12696
905.334	12791
905.451	12719
905.569	12669
905.686	12738
905.803	12757
905.921	12589
906.038	12620
906.155	12582
906.272	12414
906.389	12452
906.506	12327
906.623	12308
906.74	12323
906.857	12144
906.974	12186
907.091	12422
907.208	12429
907.324	12334
907.441	12247
907.557	12121
907.674	12068
907.79	11950
907.907	11980
908.023	12087
908.139	12057
908.256	12045
908.372	11950
908.488	12022
908.604	11802
908.72	11855
908.836	11756
908.952	11847
909.068	11798
909.184	11946
909.3	11771
909.415	11836
909.531	11805
909.647	11596
909.762	11585
909.878	11558
909.993	11638
910.108	11539
910.224	11585
910.339	11592
910.454	11512
910.57	11425
910.685	11322
910.8	11699
910.915	11551
911.03	11482
911.145	11265
911.259	11277
911.374	11372
911.489	11292
911.604	11166
911.718	11121
911.833	11075
911.947	10919
912.062	10923
912.176	11048
912.291	11105
912.405	11033
912.519	11223
912.633	11242
912.748	11147
912.862	10995
912.976	10976
913.09	10790
913.204	10854
913.318	10911
913.431	11003
913.545	10938
913.659	11060
913.772	10999
913.886	10710
914	10828
914.113	10793
914.226	10942
914.34	10828
914.453	10736
914.566	10999
914.68	10812
914.793	10675
914.906	10577
915.019	10474
915.132	10584
915.245	10542
915.358	10516
915.47	10596
915.583	10580
915.696	10558
915.809	10683
915.921	10725
916.034	10558
916.146	10481
916.259	10485
916.371	10630
916.483	10493
916.595	10508
916.708	10489
916.82	10459
916.932	10519
917.044	10398
917.156	10436
917.268	10337
917.38	10432
917.491	10310
917.603	10417
917.715	10405
917.826	10481
917.938	10409
918.049	10329
918.161	10436
918.272	10485
918.384	10542
918.495	10413
918.606	10249
918.717	10219
918.828	10276
918.939	10344
919.05	10185
919.161	10280
919.272	10036
919.383	10143
919.494	10318
919.604	10375
919.715	10318
919.826	10215
919.936	10272
920.047	10325
920.157	10280
920.267	10459
920.378	10242
920.488	10276
920.598	10455
920.708	10462
920.818	10519
920.928	10424
921.038	10645
921.148	10596
921.258	10352
921.368	10227
921.477	10181
921.587	10078
921.697	10051
921.806	10169
921.916	10055
922.025	9842
922.134	9835
922.244	9770
922.353	9831
922.462	9724
922.571	9671
922.68	9534
922.789	9492
922.898	9545
923.007	9439
923.116	9564
923.224	9500
923.333	9496
923.442	9367
923.55	9348
923.659	9420
923.767	9473
923.876	9355
923.984	9450
924.092	9313
924.201	9344
924.309	9374
924.417	9344
924.525	9374
924.633	9321
924.741	10230
924.849	9119
924.956	9310
925.064	9146
925.172	9176
925.279	9112
925.387	9142
925.494	9211
925.602	9283
925.709	9237
925.816	9081
925.924	9218
926.031	9310
926.138	9161
926.245	9180
926.352	9062
926.459	9279
926.566	9325
926.673	9085
926.779	9093
926.886	9077
926.993	8887
927.099	8868
927.206	8777
927.312	8872
927.419	8883
927.525	8880
927.631	8933
927.737	8743
927.843	8834
927.95	8667
928.056	8735
928.162	8804
928.267	8819
928.373	9351
928.479	8830
928.585	8663
928.69	8750
928.796	8845
928.901	8712
929.007	8507
929.112	8663
929.218	8693
929.323	8606
929.428	8590
929.533	8754
929.638	8507
929.743	8659
929.848	8659
929.953	8583
930.058	8499
930.163	8366
930.267	8362
930.372	8484
930.477	8374
930.581	8575
930.685	8446
930.79	8294
930.894	8347
930.998	8282
931.103	8457
931.207	8031
931.311	8035
931.415	7978
931.519	7811
931.623	7772
