Data from test_V78500241_1861.txt Node
Date: Fri Mar 25 14:46:40 CST 2022
User: usil
Spectrometer: V785-0024
Trigger mode: 0
Integration Time (sec): 4.000000E-1
Scans to average: 1
Nonlinearity correction enabled: false
Boxcar width: 0
Storing dark spectrum: false
XAxis mode: Wavelengths
Number of Pixels in Spectrum: 1024
>>>>>Begin Spectral Data<<<<<
801.071	22105
801.214	21937
801.356	21888
801.499	21713
801.641	21576
801.783	21431
801.926	21667
802.068	21462
802.211	21389
802.353	21321
802.496	21032
802.638	21005
802.78	20937
802.923	20971
803.065	20845
803.208	20830
803.35	20796
803.492	20880
803.635	21013
803.777	20906
803.919	21043
804.061	21294
804.204	20918
804.346	20838
804.488	20804
804.63	20762
804.773	20758
804.915	20819
805.057	20906
805.199	20792
805.341	20826
805.483	20845
805.626	20944
805.768	20693
805.91	20872
806.052	20788
806.194	20727
806.336	20982
806.478	20864
806.62	20724
806.762	20769
806.904	20960
807.046	21211
807.188	21066
807.33	21070
807.472	21043
807.614	21047
807.756	21100
807.898	20944
808.04	20739
808.182	20830
808.324	20979
808.465	20861
808.607	21058
808.749	21089
808.891	21306
809.033	21412
809.174	21340
809.316	21146
809.458	21070
809.6	21005
809.741	21237
809.883	21241
810.025	21359
810.166	21245
810.308	21344
810.45	21256
810.591	21157
810.733	20963
810.875	20849
811.016	20857
811.158	20765
811.299	20956
811.441	21062
811.582	21058
811.724	21005
811.865	20914
812.007	20929
812.148	20960
812.29	20979
812.431	21074
812.573	21321
812.714	21272
812.855	21412
812.997	21477
813.138	21644
813.279	21420
813.421	21572
813.562	21447
813.703	21188
813.845	21039
813.986	20902
814.127	20606
814.268	20492
814.41	20541
814.551	20351
814.692	20396
814.833	20324
814.974	20571
815.115	20457
815.256	20370
815.397	20244
815.539	20343
815.68	20332
815.821	20301
815.962	20218
816.103	20161
816.244	20077
816.385	19921
816.526	20001
816.666	19906
816.807	19658
816.948	19788
817.089	19689
817.23	19575
817.371	19575
817.512	19624
817.653	19601
817.793	19575
817.934	19700
818.075	19609
818.216	19556
818.356	19605
818.497	19407
818.638	19373
818.778	19411
818.919	19331
819.06	19491
819.2	19491
819.341	19525
819.481	19575
819.622	19590
819.762	19860
819.903	19799
820.043	19734
820.184	19571
820.324	19685
820.465	19643
820.605	19449
820.746	19594
820.886	19544
821.026	19590
821.167	19575
821.307	19670
821.447	19464
821.588	19362
821.728	19160
821.868	19137
822.008	19046
822.149	19061
822.289	19103
822.429	18760
822.569	18757
822.709	18623
822.849	18464
822.99	18593
823.13	18517
823.27	18547
823.41	18369
823.55	18266
823.69	18228
823.83	18350
823.97	18228
824.11	18091
824.25	18034
824.389	17939
824.529	18178
824.669	18022
824.809	18239
824.949	18205
825.089	18167
825.228	18076
825.368	17809
825.508	17889
825.648	17904
825.787	17885
825.927	17931
826.067	17847
826.206	17901
826.346	17821
826.485	17863
826.625	17851
826.765	17992
826.904	17923
827.044	17672
827.183	17573
827.323	17589
827.462	17577
827.601	17474
827.741	17600
827.88	17573
828.02	17444
828.159	17562
828.298	17570
828.437	17619
828.577	17581
828.716	17748
828.855	17452
828.994	17360
829.134	17349
829.273	17376
829.412	17376
829.551	17292
829.69	17299
829.829	17364
829.968	17417
830.107	17398
830.246	17261
830.385	17143
830.524	17170
830.663	17124
830.802	16892
830.941	16869
831.08	16911
831.219	16999
831.357	16980
831.496	17162
831.635	16889
831.774	16816
831.913	16801
832.051	16755
832.19	16664
832.329	16774
832.467	16668
832.606	16615
832.744	16607
832.883	16679
833.022	16561
833.16	16596
833.299	16725
833.437	16611
833.576	16668
833.714	16653
833.852	16622
833.991	16820
834.129	16744
834.267	16866
834.406	16679
834.544	16698
834.682	16634
834.821	16523
834.959	16679
835.097	16653
835.235	16786
835.373	16744
835.511	16664
835.65	16588
835.788	16554
835.926	16474
836.064	16295
836.202	16508
836.34	16615
836.478	16664
836.615	16535
836.753	16664
836.891	16691
837.029	16603
837.167	16504
837.305	16603
837.443	16459
837.58	16352
837.718	16569
837.856	16497
837.993	16371
838.131	16379
838.269	16417
838.406	16390
838.544	16287
838.681	16128
838.819	16139
838.956	16059
839.094	16059
839.231	16086
839.369	16188
839.506	16451
839.643	16322
839.781	15983
839.918	15922
840.055	15994
840.193	15934
840.33	15922
840.467	16029
840.604	16048
840.742	16379
840.879	15842
841.016	15964
841.153	15930
841.29	16143
841.427	16067
841.564	16010
841.701	16010
841.838	16013
841.975	15892
842.112	15915
842.249	15717
842.385	15747
842.522	15975
842.659	15831
842.796	15720
842.933	15793
843.069	15759
843.206	15732
843.343	15899
843.479	15781
843.616	15766
843.752	15667
843.889	15553
844.025	15724
844.162	15545
844.298	15713
844.435	15599
844.571	15545
844.708	15622
844.844	15644
844.98	15610
845.117	15713
845.253	15511
845.389	15538
845.525	15526
845.661	15466
845.798	15443
845.934	15500
846.07	15386
846.206	15412
846.342	15454
846.478	15336
846.614	15169
846.75	15108
846.886	15112
847.022	15184
847.158	15097
847.294	15150
847.429	15173
847.565	15020
847.701	15443
847.837	14895
847.972	14868
848.108	14895
848.244	14982
848.379	14815
848.515	14667
848.65	14739
848.786	14697
848.921	14720
849.057	14792
849.192	14849
849.328	14743
849.463	14716
849.598	14670
849.734	14716
849.869	14651
850.004	14518
850.14	14568
850.275	14503
850.41	14339
850.545	14473
850.68	14545
850.815	14488
850.95	14541
851.085	14773
851.22	14613
851.355	14530
851.49	14492
851.625	14514
851.76	14545
851.895	14385
852.03	14347
852.165	14518
852.299	14465
852.434	14549
852.569	14533
852.703	14545
852.838	14606
852.973	14629
853.107	14610
853.242	14469
853.376	14385
853.511	14278
853.645	14355
853.78	14545
853.914	14385
854.048	14328
854.183	14317
854.317	14301
854.451	14644
854.585	14385
854.72	14298
854.854	14511
854.988	14282
855.122	14355
855.256	14218
855.39	14362
855.524	14412
855.658	14339
855.792	14461
855.926	14374
856.06	14454
856.194	14507
856.327	14427
856.461	14355
856.595	14374
856.729	14347
856.862	14446
856.996	14393
857.13	14427
857.263	14507
857.397	14461
857.53	14320
857.664	14370
857.797	14476
857.931	14514
858.064	14473
858.197	14488
858.331	14446
858.464	14271
858.597	14271
858.731	14343
858.864	14431
858.997	14324
859.13	14362
859.263	14431
859.396	14473
859.529	14320
859.662	14290
859.795	14317
859.928	14442
860.061	14514
860.194	14594
860.327	14381
860.46	14301
860.592	14495
860.725	14590
860.858	14423
860.99	14415
861.123	14271
861.256	14358
861.388	14377
861.521	15013
861.653	14183
861.786	14119
861.918	14286
862.05	14358
862.183	14244
862.315	14320
862.447	14514
862.58	14275
862.712	14138
862.844	14096
862.976	14218
863.108	14187
863.24	14469
863.372	14088
863.504	14244
863.636	14046
863.768	14176
863.9	14164
864.032	14107
864.164	14123
864.296	14164
864.428	14202
864.559	14252
864.691	14248
864.823	14142
864.954	14183
865.086	14153
865.217	14233
865.349	14058
865.48	14123
865.612	14161
865.743	14286
865.875	14157
866.006	14130
866.137	14119
866.269	14119
866.4	14027
866.531	14058
866.662	14065
866.793	14058
866.924	14062
867.055	14142
867.186	14202
867.317	14096
867.448	13963
867.579	14149
867.71	14107
867.841	14058
867.972	14054
868.103	14100
868.233	14046
868.364	14149
868.495	14248
868.625	14305
868.756	14522
868.886	14218
869.017	14332
869.147	14492
869.278	14488
869.408	14415
869.539	14244
869.669	14374
869.799	14355
869.929	14545
870.06	14415
870.19	14682
870.32	14701
870.45	14686
870.58	14819
870.71	14819
870.84	14933
870.97	14781
871.1	14769
871.23	14925
871.36	15032
871.489	14834
871.619	14933
871.749	14929
871.879	15017
872.008	15127
872.138	15017
872.267	14868
872.397	14830
872.526	14811
872.656	14800
872.785	14819
872.915	14975
873.044	15127
873.173	15104
873.303	15077
873.432	15051
873.561	15074
873.69	15058
873.819	15028
873.948	15138
874.077	15058
874.206	14948
874.335	15047
874.464	15264
874.593	15298
874.722	15279
874.851	15428
874.979	15329
875.108	15408
875.237	15272
875.365	15310
875.494	15313
875.623	15492
875.751	15348
875.88	15435
876.008	15530
876.136	15428
876.265	15781
876.393	15960
876.521	15880
876.65	15800
876.778	15770
876.906	15679
877.034	15766
877.162	15698
877.29	15793
877.418	15705
877.546	15747
877.674	15766
877.802	15698
877.93	15667
878.058	15705
878.185	15584
878.313	15747
878.441	15747
878.568	15629
878.696	15652
878.824	15747
878.951	15842
879.079	15922
879.206	16025
879.333	15850
879.461	15762
879.588	15835
879.715	15941
879.842	16021
879.97	15785
880.097	15526
880.224	15675
880.351	15591
880.478	15625
880.605	15553
880.732	15587
880.859	15751
880.986	15709
881.112	15644
881.239	15504
881.366	15420
881.493	15222
881.619	15237
881.746	15374
881.872	15291
881.999	15268
882.125	15268
882.252	15291
882.378	15245
882.505	15329
882.631	15302
882.757	15131
882.883	15131
883.01	15032
883.136	15070
883.262	14872
883.388	14998
883.514	15097
883.64	15127
883.766	15028
883.892	14868
884.018	14853
884.143	15039
884.269	15119
884.395	14883
884.52	14830
884.646	14731
884.772	14720
884.897	14651
885.023	14785
885.148	14929
885.274	14941
885.399	14941
885.524	14754
885.65	14754
885.775	14815
885.9	14800
886.025	14868
886.15	14861
886.275	14792
886.4	14674
886.525	14773
886.65	14705
886.775	14716
886.9	14914
887.025	15032
887.149	14731
887.274	14575
887.399	14545
887.523	14518
887.648	14533
887.773	14473
887.897	14735
888.021	14743
888.146	14568
888.27	14720
888.395	14727
888.519	14739
888.643	14617
888.767	14804
888.891	14503
889.015	14415
889.139	14454
889.263	14355
889.387	14564
889.511	14705
889.635	14686
889.759	14343
889.883	14385
890.006	14514
890.13	14629
890.254	14393
890.377	14499
890.501	14313
890.624	14202
890.748	14263
890.871	14244
890.995	14142
891.118	14126
891.241	14115
891.364	14142
891.488	14248
891.611	14180
891.734	14100
891.857	14199
891.98	14320
892.103	14172
892.226	14183
892.349	14103
892.471	14050
892.594	14024
892.717	14111
892.839	14092
892.962	14237
893.085	14347
893.207	14172
893.33	13986
893.452	14130
893.575	14229
893.697	14164
893.819	14263
893.941	14328
894.064	14389
894.186	14058
894.308	14050
894.43	14267
894.552	14377
894.674	14290
894.796	14187
894.918	14164
895.04	14237
895.161	14343
895.283	14278
895.405	14237
895.526	14248
895.648	14267
895.769	14271
895.891	14366
896.012	14404
896.134	14313
896.255	14324
896.376	14278
896.498	14332
896.619	14381
896.74	14305
896.861	14332
896.982	14670
897.103	14796
897.224	14590
897.345	14629
897.466	14549
897.587	14537
897.708	14697
897.828	14697
897.949	14689
898.07	14530
898.19	14579
898.311	14644
898.431	14590
898.552	14701
898.672	14724
898.792	14701
898.913	14739
899.033	14549
899.153	14594
899.273	14488
899.393	14469
899.513	14446
899.633	14514
899.753	14579
899.873	14427
899.993	14568
900.113	14488
900.232	14636
900.352	14503
900.472	14450
900.591	14423
900.711	14484
900.83	14427
900.95	14522
901.069	14590
901.189	14290
901.308	14149
901.427	14088
901.546	14062
901.665	14054
901.784	14103
901.904	13849
902.023	13868
902.141	13723
902.26	13597
902.379	13693
902.498	13582
902.617	13548
902.735	13620
902.854	13586
902.973	13483
903.091	13339
903.21	13324
903.328	13362
903.446	13331
903.565	13259
903.683	13228
903.801	13129
903.919	13152
904.038	13156
904.156	13019
904.274	13061
904.392	12977
904.51	12985
904.627	13008
904.745	13149
904.863	13149
904.981	12821
905.098	12776
905.216	12802
905.334	12722
905.451	12795
905.569	12681
905.686	12757
905.803	12688
905.921	12612
906.038	12642
906.155	12563
906.272	12441
906.389	12357
906.506	12369
906.623	12315
906.74	12388
906.857	12148
906.974	12220
907.091	12369
907.208	12410
907.324	12319
907.441	12281
907.557	12121
907.674	12064
907.79	12003
907.907	11988
908.023	12053
908.139	12079
908.256	11984
908.372	12030
908.488	11954
908.604	11802
908.72	11714
908.836	11760
908.952	11832
909.068	11798
909.184	11946
909.3	11756
909.415	11866
909.531	11847
909.647	11570
909.762	11596
909.878	11520
909.993	11554
910.108	11467
910.224	11573
910.339	11543
910.454	11436
910.57	11463
910.685	11410
910.8	11596
910.915	11566
911.03	11459
911.145	11284
911.259	11246
911.374	11261
911.489	11121
911.604	11189
911.718	11003
911.833	11102
911.947	10934
912.062	10900
912.176	10991
912.291	11025
912.405	11022
912.519	11227
912.633	11174
912.748	11041
912.862	11033
912.976	10934
913.09	10847
913.204	10923
913.318	10980
913.431	11037
913.545	10942
913.659	10980
913.772	10942
913.886	10816
914	10694
914.113	10862
914.226	10904
914.34	10927
914.453	10752
914.566	10869
914.68	10801
914.793	10805
914.906	10569
915.019	10554
915.132	10367
915.245	10561
915.358	10580
915.47	10569
915.583	10508
915.696	10615
915.809	10679
915.921	10752
916.034	10462
916.146	10455
916.259	10421
916.371	10558
916.483	10615
916.595	10497
916.708	10478
916.82	10455
916.932	10493
917.044	10478
917.156	10443
917.268	10348
917.38	10363
917.491	10295
917.603	10386
917.715	10390
917.826	10455
917.938	10390
918.049	10223
918.161	10382
918.272	10516
918.384	10493
918.495	10344
918.606	10227
918.717	10147
918.828	10287
918.939	10173
919.05	10101
919.161	10196
919.272	10013
919.383	10124
919.494	10367
919.604	10451
919.715	10249
919.826	10135
919.936	10211
920.047	10329
920.157	10234
920.267	10455
920.378	10238
920.488	10204
920.598	10428
920.708	10603
920.818	10478
920.928	10417
921.038	10675
921.148	10538
921.258	10405
921.368	10249
921.477	10192
921.587	10082
921.697	10044
921.806	10090
921.916	9945
922.025	9873
922.134	9816
922.244	9797
922.353	9838
922.462	9606
922.571	9641
922.68	9515
922.789	9515
922.898	9610
923.007	9477
923.116	9549
923.224	9477
923.333	9519
923.442	9401
923.55	9382
923.659	9374
923.767	9424
923.876	9348
923.984	9450
924.092	9313
924.201	9317
924.309	9340
924.417	9355
924.525	9233
924.633	9367
924.741	10242
924.849	9127
924.956	9264
925.064	9097
925.172	9123
925.279	9119
925.387	9211
925.494	9154
925.602	9302
925.709	9344
925.816	9051
925.924	9135
926.031	9241
926.138	9195
926.245	9222
926.352	9051
926.459	9249
926.566	9317
926.673	9116
926.779	9028
926.886	9020
926.993	8899
927.099	8853
927.206	8826
927.312	8785
927.419	8929
927.525	8861
927.631	8933
927.737	8792
927.843	8739
927.95	8636
928.056	8682
928.162	8743
928.267	8758
928.373	9264
928.479	8891
928.585	8640
928.69	8697
928.796	8826
928.901	8678
929.007	8537
929.112	8678
929.218	8686
929.323	8583
929.428	8636
929.533	8735
929.638	8499
929.743	8545
929.848	8575
929.953	8579
930.058	8503
930.163	8339
930.267	8400
930.372	8488
930.477	8400
930.581	8537
930.685	8434
930.79	8252
930.894	8298
930.998	8313
931.103	8473
931.207	8077
931.311	7986
931.415	8016
931.519	7864
931.623	7803
