Data from test_V78500241_1172.txt Node
Date: Fri Mar 25 14:41:52 CST 2022
User: usil
Spectrometer: V785-0024
Trigger mode: 0
Integration Time (sec): 4.000000E-1
Scans to average: 1
Nonlinearity correction enabled: false
Boxcar width: 0
Storing dark spectrum: false
XAxis mode: Wavelengths
Number of Pixels in Spectrum: 1024
>>>>>Begin Spectral Data<<<<<
801.071	22611
801.214	22386
801.356	22131
801.499	22067
801.641	21926
801.783	21785
801.926	21816
802.068	21785
802.211	21789
802.353	21614
802.496	21530
802.638	21367
802.78	21203
802.923	21249
803.065	21329
803.208	21131
803.35	21241
803.492	21249
803.635	21268
803.777	21230
803.919	21252
804.061	21416
804.204	21180
804.346	21138
804.488	21077
804.63	21074
804.773	21039
804.915	21074
805.057	21283
805.199	21192
805.341	21264
805.483	21252
805.626	21180
805.768	21001
805.91	21085
806.052	21093
806.194	21051
806.336	21169
806.478	21291
806.62	21093
806.762	21233
806.904	21405
807.046	21526
807.188	21462
807.33	21439
807.472	21469
807.614	21325
807.756	21515
807.898	21355
808.04	21127
808.182	21233
808.324	21306
808.465	21374
808.607	21568
808.749	21583
808.891	21831
809.033	21789
809.174	21808
809.316	21534
809.458	21747
809.6	21580
809.741	21568
809.883	21682
810.025	21728
810.166	21705
810.308	21755
810.45	21686
810.591	21534
810.733	21545
810.875	21477
811.016	21176
811.158	21108
811.299	21344
811.441	21397
811.582	21416
811.724	21317
811.865	21321
812.007	21317
812.148	21348
812.29	21241
812.431	21591
812.573	21751
812.714	21778
812.855	21785
812.997	21838
813.138	21934
813.279	21903
813.421	21945
813.562	21637
813.703	21618
813.845	21564
813.986	21222
814.127	21017
814.268	20910
814.41	20887
814.551	20853
814.692	20883
814.833	20804
814.974	20796
815.115	20777
815.256	20796
815.397	20651
815.539	20632
815.68	20727
815.821	20549
815.962	20594
816.103	20556
816.244	20457
816.385	20332
816.526	20377
816.666	20119
816.807	20058
816.948	20035
817.089	20126
817.23	20077
817.371	19978
817.512	20046
817.653	19940
817.793	20058
817.934	20058
818.075	20054
818.216	19947
818.356	19902
818.497	19856
818.638	19704
818.778	19780
818.919	19757
819.06	19643
819.2	19833
819.341	19837
819.481	19776
819.622	20027
819.762	20218
819.903	20092
820.043	20096
820.184	20088
820.324	19898
820.465	20126
820.605	19986
820.746	20008
820.886	19868
821.026	20031
821.167	20016
821.307	19989
821.447	20024
821.588	19818
821.728	19693
821.868	19453
822.008	19377
822.149	19483
822.289	19457
822.429	19103
822.569	19053
822.709	19057
822.849	18871
822.99	18954
823.13	18817
823.27	18924
823.41	18711
823.55	18677
823.69	18764
823.83	18677
823.97	18639
824.11	18471
824.25	18429
824.389	18528
824.529	18559
824.669	18483
824.809	18623
824.949	18578
825.089	18540
825.228	18635
825.368	18422
825.508	18266
825.648	18277
825.787	18281
825.927	18410
826.067	18281
826.206	18262
826.346	18304
826.485	18171
826.625	18315
826.765	18353
826.904	18361
827.044	18095
827.183	18003
827.323	17859
827.462	17980
827.601	17870
827.741	17954
827.88	17923
828.02	17786
828.159	17984
828.298	18049
828.437	17996
828.577	17969
828.716	18087
828.855	17969
828.994	17737
829.134	17714
829.273	17786
829.412	17581
829.551	17623
829.69	17729
829.829	17733
829.968	17851
830.107	17703
830.246	17665
830.385	17589
830.524	17733
830.663	17528
830.802	17497
830.941	17429
831.08	17273
831.219	17497
831.357	17387
831.496	17539
831.635	17398
831.774	17250
831.913	17242
832.051	17166
832.19	17124
832.329	17124
832.467	17098
832.606	17041
832.744	16953
832.883	17037
833.022	17071
833.16	17006
833.299	17102
833.437	17006
833.576	17075
833.714	17117
833.852	17086
833.991	17140
834.129	17155
834.267	17037
834.406	17060
834.544	17143
834.682	17060
834.821	17105
834.959	17269
835.097	17132
835.235	17193
835.373	17083
835.511	17113
835.65	16915
835.788	17014
835.926	16748
836.064	16809
836.202	16717
836.34	16987
836.478	17003
836.615	16946
836.753	17006
836.891	17033
837.029	17090
837.167	17079
837.305	16976
837.443	16919
837.58	16881
837.718	16919
837.856	16904
837.993	16774
838.131	16869
838.269	16786
838.406	16641
838.544	16691
838.681	16584
838.819	16474
838.956	16443
839.094	16382
839.231	16550
839.369	16569
839.506	16820
839.643	16683
839.781	16398
839.918	16367
840.055	16402
840.193	16356
840.33	16333
840.467	16375
840.604	16424
840.742	16653
840.879	16299
841.016	16371
841.153	16280
841.29	16497
841.427	16398
841.564	16417
841.701	16455
841.838	16299
841.975	16291
842.112	16287
842.249	16238
842.385	16150
842.522	16405
842.659	16246
842.796	16238
842.933	16230
843.069	16105
843.206	16067
843.343	16265
843.479	16211
843.616	16230
843.752	16131
843.889	15975
844.025	16154
844.162	15899
844.298	16021
844.435	15998
844.571	15964
844.708	16071
844.844	16128
844.98	16135
845.117	16097
845.253	15937
845.389	15941
845.525	15895
845.661	15899
845.798	15918
845.934	16017
846.07	15983
846.206	15979
846.342	16067
846.478	15892
846.614	15720
846.75	15542
846.886	15519
847.022	15572
847.158	15553
847.294	15500
847.429	15576
847.565	15435
847.701	15816
847.837	15393
847.972	15195
848.108	15397
848.244	15344
848.379	15211
848.515	15203
848.65	15154
848.786	15039
848.921	15173
849.057	15306
849.192	15321
849.328	15199
849.463	15203
849.598	15142
849.734	14998
849.869	14994
850.004	14956
850.14	15009
850.275	15013
850.41	14895
850.545	14842
850.68	14914
850.815	14944
850.95	14956
851.085	15020
851.22	14906
851.355	14838
851.49	14883
851.625	14834
851.76	14868
851.895	14800
852.03	14754
852.165	14796
852.299	15032
852.434	14948
852.569	14853
852.703	14872
852.838	15055
852.973	14967
853.107	15081
853.242	14925
853.376	14743
853.511	14640
853.645	14689
853.78	14960
853.914	14727
854.048	14655
854.183	14739
854.317	14792
854.451	14899
854.585	14804
854.72	14762
854.854	14834
854.988	14701
855.122	14697
855.256	14564
855.39	14682
855.524	14769
855.658	14743
855.792	14857
855.926	14815
856.06	14800
856.194	14853
856.327	14838
856.461	14640
856.595	14659
856.729	14800
856.862	14811
856.996	14785
857.13	14777
857.263	14853
857.397	14853
857.53	14746
857.664	14880
857.797	14834
857.931	14910
858.064	14838
858.197	14830
858.331	14868
858.464	14830
858.597	14625
858.731	14788
858.864	14655
858.997	14697
859.13	14823
859.263	14758
859.396	14891
859.529	14632
859.662	14697
859.795	14693
859.928	14853
860.061	14899
860.194	14845
860.327	14785
860.46	14864
860.592	14819
860.725	14921
860.858	14861
860.99	14811
861.123	14667
861.256	14693
861.388	14773
861.521	15450
861.653	14640
861.786	14659
861.918	14640
862.05	14640
862.183	14777
862.315	14754
862.447	14845
862.58	14674
862.712	14590
862.844	14400
862.976	14587
863.108	14659
863.24	14975
863.372	14473
863.504	14495
863.636	14594
863.768	14602
863.9	14594
864.032	14541
864.164	14526
864.296	14511
864.428	14689
864.559	14587
864.691	14617
864.823	14587
864.954	14484
865.086	14648
865.217	14499
865.349	14530
865.48	14507
865.612	14583
865.743	14575
865.875	14457
866.006	14507
866.137	14579
866.269	14552
866.4	14545
866.531	14473
866.662	14446
866.793	14545
866.924	14522
867.055	14526
867.186	14552
867.317	14404
867.448	14408
867.579	14450
867.71	14343
867.841	14469
867.972	14514
868.103	14480
868.233	14492
868.364	14552
868.495	14579
868.625	14819
868.756	14887
868.886	14731
869.017	14792
869.147	14823
869.278	14876
869.408	14674
869.539	14762
869.669	14952
869.799	14883
869.929	14811
870.06	14952
870.19	15047
870.32	15097
870.45	15104
870.58	15135
870.71	15283
870.84	15195
870.97	15138
871.1	15157
871.23	15298
871.36	15340
871.489	15199
871.619	15378
871.749	15332
871.879	15321
872.008	15405
872.138	15359
872.267	15283
872.397	15135
872.526	15241
872.656	15043
872.785	15203
872.915	15416
873.044	15473
873.173	15386
873.303	15401
873.432	15348
873.561	15447
873.69	15386
873.819	15389
873.948	15542
874.077	15428
874.206	15344
874.335	15386
874.464	15584
874.593	15736
874.722	15660
874.851	15739
874.979	15762
875.108	15835
875.237	15648
875.365	15633
875.494	15736
875.623	15732
875.751	15709
875.88	15816
876.008	15903
876.136	15964
876.265	16139
876.393	16303
876.521	16105
876.65	16177
876.778	16226
876.906	16223
877.034	15975
877.162	16036
877.29	16101
877.418	16147
877.546	16051
877.674	16044
877.802	16158
877.93	16147
878.058	16162
878.185	16032
878.313	16101
878.441	16196
878.568	15915
878.696	16143
878.824	16173
878.951	16234
879.079	16367
879.206	16584
879.333	16360
879.461	16303
879.588	16367
879.715	16348
879.842	16489
879.97	16291
880.097	16116
880.224	15991
880.351	15998
880.478	16025
880.605	16021
880.732	15945
880.859	16147
880.986	16128
881.112	16021
881.239	15850
881.366	15823
881.493	15652
881.619	15625
881.746	15667
881.872	15644
881.999	15656
882.125	15553
882.252	15690
882.378	15701
882.505	15785
882.631	15515
882.757	15564
882.883	15477
883.01	15412
883.136	15408
883.262	15344
883.388	15233
883.514	15454
883.64	15526
883.766	15408
883.892	15230
884.018	15351
884.143	15416
884.269	15534
884.395	15260
884.52	15104
884.646	15226
884.772	15138
884.897	15043
885.023	15207
885.148	15302
885.274	15310
885.399	15298
885.524	15150
885.65	15081
885.775	15066
885.9	15165
886.025	15306
886.15	15176
886.275	15089
886.4	15070
886.525	15142
886.65	15119
886.775	15085
886.9	15264
887.025	15580
887.149	15203
887.274	14986
887.399	14910
887.523	14944
887.648	14952
887.773	14887
887.897	14998
888.021	15036
888.146	14925
888.27	15055
888.395	15055
888.519	14986
888.643	15017
888.767	14944
888.891	14891
889.015	14849
889.139	14842
889.263	14914
889.387	14906
889.511	15055
889.635	14975
889.759	14758
889.883	14777
890.006	14830
890.13	14986
890.254	14731
890.377	14819
890.501	14678
890.624	14697
890.748	14701
890.871	14648
890.995	14484
891.118	14336
891.241	14602
891.364	14587
891.488	14651
891.611	14495
891.734	14469
891.857	14571
891.98	14613
892.103	14590
892.226	14602
892.349	14465
892.471	14400
892.594	14571
892.717	14537
892.839	14473
892.962	14499
893.085	14590
893.207	14419
893.33	14457
893.452	14514
893.575	14632
893.697	14385
893.819	14674
893.941	14682
894.064	14655
894.186	14552
894.308	14507
894.43	14648
894.552	14670
894.674	14617
894.796	14465
894.918	14571
895.04	14511
895.161	14678
895.283	14625
895.405	14541
895.526	14640
895.648	14659
895.769	14617
895.891	14697
896.012	14625
896.134	14739
896.255	14621
896.376	14442
896.498	14655
896.619	14731
896.74	14746
896.861	14663
896.982	15051
897.103	15074
897.224	14975
897.345	14963
897.466	14861
897.587	14982
897.708	14998
897.828	14982
897.949	14956
898.07	14762
898.19	14963
898.311	15009
898.431	14937
898.552	15020
898.672	15066
898.792	15066
898.913	14986
899.033	14952
899.153	14895
899.273	14788
899.393	14864
899.513	14762
899.633	14876
899.753	14883
899.873	14701
899.993	14895
900.113	14826
900.232	14864
900.352	14834
900.472	14750
900.591	14689
900.711	14743
900.83	14708
900.95	14845
901.069	14830
901.189	14640
901.308	14408
901.427	14339
901.546	14324
901.665	14396
901.784	14320
901.904	14404
902.023	14202
902.141	13940
902.26	13928
902.379	14027
902.498	13967
902.617	13909
902.735	13986
902.854	13864
902.973	13879
903.091	13700
903.21	13708
903.328	13674
903.446	13620
903.565	13441
903.683	13499
903.801	13388
903.919	13472
904.038	13559
904.156	13377
904.274	13426
904.392	13362
904.51	13285
904.627	13301
904.745	13392
904.863	13396
904.981	13065
905.098	13103
905.216	13027
905.334	13034
905.451	13042
905.569	12913
905.686	13107
905.803	13027
905.921	12909
906.038	12962
906.155	12848
906.272	12700
906.389	12696
906.506	12635
906.623	12627
906.74	12502
906.857	12513
906.974	12532
907.091	12612
907.208	12810
907.324	12623
907.441	12566
907.557	12353
907.674	12300
907.79	12315
907.907	12334
908.023	12338
908.139	12403
908.256	12266
908.372	12357
908.488	12205
908.604	12125
908.72	12038
908.836	12144
908.952	12007
909.068	12083
909.184	12201
909.3	12110
909.415	12213
909.531	12129
909.647	11764
909.762	11901
909.878	11805
909.993	11889
910.108	11889
910.224	11767
910.339	11882
910.454	11722
910.57	11699
910.685	11589
910.8	11882
910.915	11874
911.03	11847
911.145	11573
911.259	11562
911.374	11493
911.489	11433
911.604	11490
911.718	11303
911.833	11273
911.947	11204
912.062	11208
912.176	11356
912.291	11395
912.405	11307
912.519	11512
912.633	11497
912.748	11353
912.862	11307
912.976	11227
913.09	11006
913.204	11155
913.318	11246
913.431	11292
913.545	11208
913.659	11280
913.772	11220
913.886	11029
914	11025
914.113	11128
914.226	11102
914.34	11162
914.453	10953
914.566	11185
914.68	11064
914.793	11018
914.906	10820
915.019	10759
915.132	10672
915.245	10736
915.358	10816
915.47	10828
915.583	10854
915.696	10862
915.809	10976
915.921	10953
916.034	10820
916.146	10752
916.259	10763
916.371	10858
916.483	10809
916.595	10714
916.708	10740
916.82	10683
916.932	10672
917.044	10653
917.156	10736
917.268	10500
917.38	10710
917.491	10489
917.603	10641
917.715	10733
917.826	10854
917.938	10527
918.049	10436
918.161	10554
918.272	10675
918.384	10694
918.495	10672
918.606	10519
918.717	10474
918.828	10504
918.939	10523
919.05	10329
919.161	10470
919.272	10234
919.383	10375
919.494	10550
919.604	10691
919.715	10497
919.826	10436
919.936	10516
920.047	10550
920.157	10535
920.267	10698
920.378	10546
920.488	10474
920.598	10691
920.708	10858
920.818	10668
920.928	10679
921.038	10869
921.148	10824
921.258	10592
921.368	10436
921.477	10428
921.587	10329
921.697	10204
921.806	10436
921.916	10204
922.025	10112
922.134	10021
922.244	10017
922.353	10044
922.462	10025
922.571	9876
922.68	9762
922.789	9732
922.898	9690
923.007	9682
923.116	9747
923.224	9701
923.333	9781
923.442	9587
923.55	9561
923.659	9622
923.767	9652
923.876	9542
923.984	9698
924.092	9519
924.201	9644
924.309	9545
924.417	9614
924.525	9553
924.633	9542
924.741	10318
924.849	9401
924.956	9496
925.064	9336
925.172	9359
925.279	9340
925.387	9454
925.494	9355
925.602	9538
925.709	9500
925.816	9340
925.924	9336
926.031	9454
926.138	9321
926.245	9488
926.352	9344
926.459	9439
926.566	9401
926.673	9393
926.779	9291
926.886	9283
926.993	9100
927.099	9081
927.206	8986
927.312	9032
927.419	9100
927.525	9074
927.631	9093
927.737	9009
927.843	8998
927.95	8788
928.056	8975
928.162	8982
928.267	9028
928.373	9705
928.479	9017
928.585	8830
928.69	9013
928.796	9017
928.901	8853
929.007	8792
929.112	8887
929.218	8845
929.323	8845
929.428	8849
929.533	8963
929.638	8720
929.743	8689
929.848	8826
929.953	8781
930.058	8667
930.163	8602
930.267	8503
930.372	8686
930.477	8507
930.581	8750
930.685	8621
930.79	8480
930.894	8560
930.998	8469
931.103	8587
931.207	8256
931.311	8263
931.415	8218
931.519	7951
931.623	8001
