Data from test_V78500241_3273.txt Node
Date: Fri Mar 25 14:56:30 CST 2022
User: usil
Spectrometer: V785-0024
Trigger mode: 0
Integration Time (sec): 4.000000E-1
Scans to average: 1
Nonlinearity correction enabled: false
Boxcar width: 0
Storing dark spectrum: false
XAxis mode: Wavelengths
Number of Pixels in Spectrum: 1024
>>>>>Begin Spectral Data<<<<<
801.071	22059
801.214	21785
801.356	21701
801.499	21488
801.641	21363
801.783	21370
801.926	21511
802.068	21340
802.211	21184
802.353	21176
802.496	20933
802.638	20941
802.78	20807
802.923	20765
803.065	20629
803.208	20686
803.35	20743
803.492	20815
803.635	20849
803.777	20667
803.919	20758
804.061	21043
804.204	20765
804.346	20549
804.488	20621
804.63	20560
804.773	20587
804.915	20750
805.057	20720
805.199	20552
805.341	20788
805.483	20731
805.626	20777
805.768	20537
805.91	20617
806.052	20602
806.194	20613
806.336	20800
806.478	20579
806.62	20457
806.762	20678
806.904	20800
807.046	20948
807.188	20861
807.33	20899
807.472	20887
807.614	20845
807.756	20830
807.898	20781
808.04	20655
808.182	20629
808.324	20773
808.465	20815
808.607	20815
808.749	20971
808.891	21051
809.033	21089
809.174	20956
809.316	20880
809.458	20887
809.6	20811
809.741	21024
809.883	20963
810.025	21108
810.166	21116
810.308	21043
810.45	21001
810.591	21001
810.733	20800
810.875	20781
811.016	20655
811.158	20659
811.299	20712
811.441	20796
811.582	20891
811.724	20697
811.865	20651
812.007	20727
812.148	20697
812.29	20746
812.431	20796
812.573	21009
812.714	21093
812.855	21218
812.997	21313
813.138	21450
813.279	21386
813.421	21142
813.562	21180
813.703	20899
813.845	20990
813.986	20465
814.127	20362
814.268	20351
814.41	20294
814.551	20259
814.692	20313
814.833	20077
814.974	20126
815.115	20263
815.256	20084
815.397	20115
815.539	20157
815.68	20130
815.821	19925
815.962	20043
816.103	19849
816.244	19811
816.385	19738
816.526	19662
816.666	19590
816.807	19365
816.948	19434
817.089	19487
817.23	19392
817.371	19422
817.512	19388
817.653	19358
817.793	19426
817.934	19392
818.075	19483
818.216	19415
818.356	19369
818.497	19270
818.638	19129
818.778	18981
818.919	18996
819.06	19084
819.2	19175
819.341	19278
819.481	19270
819.622	19365
819.762	19643
819.903	19419
820.043	19403
820.184	19346
820.324	19343
820.465	19343
820.605	19335
820.746	19354
820.886	19190
821.026	19335
821.167	19228
821.307	19327
821.447	19274
821.588	19251
821.728	19122
821.868	18966
822.008	18681
822.149	18863
822.289	18665
822.429	18471
822.569	18464
822.709	18517
822.849	18285
822.99	18262
823.13	18171
823.27	18251
823.41	18140
823.55	18015
823.69	18072
823.83	18209
823.97	18079
824.11	17859
824.25	17866
824.389	17920
824.529	17882
824.669	17901
824.809	17969
824.949	17942
825.089	17920
825.228	17897
825.368	17733
825.508	17611
825.648	17729
825.787	17649
825.927	17687
826.067	17668
826.206	17505
826.346	17592
826.485	17665
826.625	17566
826.765	17779
826.904	17676
827.044	17455
827.183	17391
827.323	17292
827.462	17368
827.601	17337
827.741	17417
827.88	17349
828.02	17212
828.159	17277
828.298	17387
828.437	17345
828.577	17273
828.716	17436
828.855	17292
828.994	17155
829.134	17052
829.273	17113
829.412	17064
829.551	17136
829.69	17071
829.829	17094
829.968	17178
830.107	17204
830.246	17162
830.385	17003
830.524	17014
830.663	16968
830.802	16904
830.941	16675
831.08	16683
831.219	16797
831.357	16809
831.496	16949
831.635	16805
831.774	16637
831.913	16550
832.051	16485
832.19	16481
832.329	16535
832.467	16379
832.606	16291
832.744	16363
832.883	16249
833.022	16375
833.16	16523
833.299	16329
833.437	16489
833.576	16516
833.714	16356
833.852	16447
833.991	16573
834.129	16592
834.267	16474
834.406	16531
834.544	16417
834.682	16538
834.821	16443
834.959	16607
835.097	16497
835.235	16546
835.373	16561
835.511	16459
835.65	16382
835.788	16451
835.926	16291
836.064	16139
836.202	16287
836.34	16417
836.478	16478
836.615	16299
836.753	16470
836.891	16500
837.029	16432
837.167	16310
837.305	16318
837.443	16246
837.58	16303
837.718	16295
837.856	16310
837.993	16287
838.131	16417
838.269	16257
838.406	16143
838.544	16112
838.681	16059
838.819	15865
838.956	15895
839.094	15762
839.231	15831
839.369	15911
839.506	16261
839.643	16078
839.781	15823
839.918	15770
840.055	15804
840.193	15804
840.33	15751
840.467	15751
840.604	15835
840.742	16067
840.879	15701
841.016	15694
841.153	15755
841.29	15934
841.427	15793
841.564	15762
841.701	15827
841.838	15808
841.975	15713
842.112	15720
842.249	15652
842.385	15618
842.522	15785
842.659	15625
842.796	15584
842.933	15641
843.069	15595
843.206	15553
843.343	15739
843.479	15515
843.616	15530
843.752	15458
843.889	15401
844.025	15595
844.162	15401
844.298	15416
844.435	15363
844.571	15275
844.708	15511
844.844	15492
844.98	15542
845.117	15458
845.253	15313
845.389	15264
845.525	15310
845.661	15294
845.798	15195
845.934	15211
846.07	15184
846.206	15287
846.342	15283
846.478	15169
846.614	14986
846.75	14853
846.886	14921
847.022	15074
847.158	15009
847.294	15009
847.429	14998
847.565	14998
847.701	15249
847.837	14621
847.972	14659
848.108	14689
848.244	14746
848.379	14598
848.515	14552
848.65	14503
848.786	14522
848.921	14598
849.057	14613
849.192	14575
849.328	14549
849.463	14617
849.598	14541
849.734	14495
849.869	14454
850.004	14366
850.14	14332
850.275	14377
850.41	14218
850.545	14256
850.68	14305
850.815	14389
850.95	14282
851.085	14511
851.22	14400
851.355	14298
851.49	14294
851.625	14347
851.76	14271
851.895	14172
852.03	14199
852.165	14229
852.299	14332
852.434	14328
852.569	14263
852.703	14294
852.838	14396
852.973	14419
853.107	14454
853.242	14317
853.376	14233
853.511	14077
853.645	13997
853.78	14206
853.914	14145
854.048	14134
854.183	14119
854.317	14153
854.451	14385
854.585	14168
854.72	14172
854.854	14229
854.988	14115
855.122	14161
855.256	14111
855.39	14130
855.524	14301
855.658	14210
855.792	14157
855.926	14294
856.06	14252
856.194	14381
856.327	14191
856.461	14043
856.595	14065
856.729	14183
856.862	14343
856.996	14145
857.13	14240
857.263	14248
857.397	14294
857.53	14218
857.664	14183
857.797	14275
857.931	14286
858.064	14229
858.197	14328
858.331	14286
858.464	14187
858.597	14123
858.731	14145
858.864	14081
858.997	14180
859.13	14161
859.263	14263
859.396	14286
859.529	14187
859.662	14199
859.795	14119
859.928	14221
860.061	14385
860.194	14366
860.327	14210
860.46	14183
860.592	14381
860.725	14275
860.858	14248
860.99	14119
861.123	14073
861.256	14005
861.388	14214
861.521	14986
861.653	14119
861.786	14031
861.918	13997
862.05	14145
862.183	14157
862.315	14161
862.447	14221
862.58	14183
862.712	13925
862.844	13860
862.976	14092
863.108	13955
863.24	14332
863.372	13940
863.504	13906
863.636	13875
863.768	14054
863.9	13989
864.032	13791
864.164	13940
864.296	14020
864.428	14100
864.559	14092
864.691	14027
864.823	14062
864.954	13986
865.086	13951
865.217	13913
865.349	13887
865.48	13940
865.612	13902
865.743	14088
865.875	14001
866.006	14035
866.137	13928
866.269	13906
866.4	13932
866.531	13890
866.662	13932
866.793	13970
866.924	13890
867.055	13887
867.186	13906
867.317	13925
867.448	13811
867.579	13906
867.71	13803
867.841	13852
867.972	13890
868.103	13890
868.233	13921
868.364	13913
868.495	14073
868.625	14233
868.756	14240
868.886	14084
869.017	14111
869.147	14358
869.278	14404
869.408	14210
869.539	14157
869.669	14256
869.799	14202
869.929	14298
870.06	14393
870.19	14480
870.32	14465
870.45	14648
870.58	14518
870.71	14754
870.84	14762
870.97	14606
871.1	14583
871.23	14765
871.36	14781
871.489	14686
871.619	14750
871.749	14800
871.879	14819
872.008	14834
872.138	14937
872.267	14697
872.397	14632
872.526	14629
872.656	14610
872.785	14640
872.915	14773
873.044	14864
873.173	14807
873.303	14807
873.432	14899
873.561	14883
873.69	14792
873.819	14990
873.948	15017
874.077	14880
874.206	14773
874.335	14921
874.464	15028
874.593	15157
874.722	15108
874.851	15199
874.979	15135
875.108	15085
875.237	15116
875.365	15051
875.494	15100
875.623	15180
875.751	15154
875.88	15268
876.008	15302
876.136	15450
876.265	15610
876.393	15644
876.521	15682
876.65	15755
876.778	15591
876.906	15633
877.034	15564
877.162	15595
877.29	15492
877.418	15637
877.546	15519
877.674	15534
877.802	15584
877.93	15538
878.058	15435
878.185	15530
878.313	15507
878.441	15618
878.568	15416
878.696	15458
878.824	15641
878.951	15545
879.079	15751
879.206	15804
879.333	15747
879.461	15584
879.588	15633
879.715	15717
879.842	15808
879.97	15618
880.097	15348
880.224	15473
880.351	15408
880.478	15450
880.605	15466
880.732	15439
880.859	15633
880.986	15481
881.112	15454
881.239	15313
881.366	15184
881.493	15135
881.619	15081
881.746	15226
881.872	14994
881.999	15093
882.125	14979
882.252	15260
882.378	15104
882.505	15275
882.631	15081
882.757	14899
882.883	15036
883.01	14948
883.136	14754
883.262	14807
883.388	14796
883.514	15024
883.64	15001
883.766	14811
883.892	14724
884.018	14758
884.143	14861
884.269	15009
884.395	14727
884.52	14575
884.646	14575
884.772	14533
884.897	14499
885.023	14636
885.148	14667
885.274	14617
885.399	14743
885.524	14655
885.65	14556
885.775	14659
885.9	14632
886.025	14731
886.15	14693
886.275	14518
886.4	14549
886.525	14545
886.65	14644
886.775	14511
886.9	14743
887.025	14804
887.149	14678
887.274	14415
887.399	14518
887.523	14393
887.648	14347
887.773	14389
887.897	14507
888.021	14393
888.146	14347
888.27	14461
888.395	14655
888.519	14461
888.643	14423
888.767	14541
888.891	14358
889.015	14324
889.139	14347
889.263	14237
889.387	14290
889.511	14537
889.635	14385
889.759	14263
889.883	14347
890.006	14355
890.13	14434
890.254	14237
890.377	14256
890.501	14187
890.624	14126
890.748	14176
890.871	14062
890.995	13936
891.118	13932
891.241	14050
891.364	14043
891.488	14202
891.611	14065
891.734	14001
891.857	14126
891.98	14027
892.103	14092
892.226	14069
892.349	14050
892.471	13845
892.594	13913
892.717	14119
892.839	13913
892.962	14043
893.085	14065
893.207	14077
893.33	13830
893.452	13902
893.575	14039
893.697	14035
893.819	14153
893.941	14210
894.064	14210
894.186	14027
894.308	14005
894.43	14058
894.552	14210
894.674	14229
894.796	13959
894.918	14062
895.04	14088
895.161	14199
895.283	14058
895.405	14100
895.526	14107
895.648	14058
895.769	14130
895.891	14244
896.012	14240
896.134	14191
896.255	14164
896.376	14180
896.498	14103
896.619	14164
896.74	14191
896.861	14100
896.982	14610
897.103	14670
897.224	14499
897.345	14370
897.466	14427
897.587	14320
897.708	14514
897.828	14503
897.949	14484
898.07	14336
898.19	14377
898.311	14556
898.431	14476
898.552	14499
898.672	14564
898.792	14511
898.913	14556
899.033	14488
899.153	14336
899.273	14244
899.393	14313
899.513	14328
899.633	14434
899.753	14423
899.873	14431
899.993	14450
900.113	14465
900.232	14377
900.352	14404
900.472	14347
900.591	14252
900.711	14282
900.83	14138
900.95	14309
901.069	14313
901.189	14263
901.308	13955
901.427	13906
901.546	13909
901.665	13921
901.784	13986
901.904	13795
902.023	13750
902.141	13552
902.26	13480
902.379	13540
902.498	13548
902.617	13392
902.735	13548
902.854	13468
902.973	13445
903.091	13339
903.21	13187
903.328	13259
903.446	13145
903.565	13008
903.683	13152
903.801	13027
903.919	13027
904.038	13004
904.156	12913
904.274	12951
904.392	12825
904.51	12867
904.627	12856
904.745	12985
904.863	12951
904.981	12787
905.098	12612
905.216	12532
905.334	12627
905.451	12593
905.569	12494
905.686	12639
905.803	12612
905.921	12380
906.038	12566
906.155	12418
906.272	12277
906.389	12327
906.506	12167
906.623	12251
906.74	12087
906.857	12045
906.974	12076
907.091	12254
907.208	12350
907.324	12186
907.441	12163
907.557	11980
907.674	11908
907.79	11828
907.907	11882
908.023	12003
908.139	11885
908.256	11821
908.372	11851
908.488	11897
908.604	11699
908.72	11672
908.836	11638
908.952	11619
909.068	11638
909.184	11703
909.3	11710
909.415	11733
909.531	11748
909.647	11486
909.762	11448
909.878	11417
909.993	11501
910.108	11425
910.224	11330
910.339	11417
910.454	11398
910.57	11246
910.685	11231
910.8	11463
910.915	11440
911.03	11353
911.145	11155
911.259	11132
911.374	11193
911.489	11029
911.604	11003
911.718	10923
911.833	10976
911.947	10828
912.062	10717
912.176	10927
912.291	10942
912.405	10892
912.519	11075
912.633	11105
912.748	10991
912.862	10949
912.976	10801
913.09	10645
913.204	10748
913.318	10828
913.431	10843
913.545	10942
913.659	10892
913.772	10759
913.886	10721
914	10660
914.113	10805
914.226	10778
914.34	10786
914.453	10580
914.566	10725
914.68	10577
914.793	10740
914.906	10417
915.019	10432
915.132	10371
915.245	10325
915.358	10508
915.47	10440
915.583	10367
915.696	10481
915.809	10489
915.921	10607
916.034	10466
916.146	10367
916.259	10329
916.371	10432
916.483	10440
916.595	10341
916.708	10405
916.82	10310
916.932	10379
917.044	10291
917.156	10318
917.268	10230
917.38	10295
917.491	10207
917.603	10249
917.715	10394
917.826	10341
917.938	10284
918.049	10128
918.161	10310
918.272	10386
918.384	10382
918.495	10265
918.606	10128
918.717	10128
918.828	10169
918.939	10120
919.05	10044
919.161	10010
919.272	9895
919.383	10048
919.494	10253
919.604	10341
919.715	10177
919.826	10086
919.936	10139
920.047	10169
920.157	10150
920.267	10367
920.378	10227
920.488	10116
920.598	10306
920.708	10516
920.818	10447
920.928	10348
921.038	10474
921.148	10474
921.258	10261
921.368	10116
921.477	9991
921.587	9926
921.697	9915
921.806	9972
921.916	9899
922.025	9827
922.134	9762
922.244	9698
922.353	9835
922.462	9595
922.571	9526
922.68	9431
922.789	9389
922.898	9397
923.007	9401
923.116	9462
923.224	9401
923.333	9416
923.442	9287
923.55	9256
923.659	9241
923.767	9363
923.876	9218
923.984	9355
924.092	9214
924.201	9310
924.309	9287
924.417	9253
924.525	9233
924.633	9298
924.741	10196
924.849	9009
924.956	9176
925.064	9009
925.172	8975
925.279	9032
925.387	9112
925.494	9062
925.602	9157
925.709	9165
925.816	8956
925.924	9070
926.031	9093
926.138	9036
926.245	9112
926.352	9020
926.459	9119
926.566	9176
926.673	9009
926.779	8883
926.886	8910
926.993	8838
927.099	8773
927.206	8686
927.312	8746
927.419	8781
927.525	8758
927.631	8834
927.737	8697
927.843	8594
927.95	8617
928.056	8621
928.162	8697
928.267	8769
928.373	9195
928.479	8708
928.585	8590
928.69	8648
928.796	8724
928.901	8579
929.007	8511
929.112	8598
929.218	8575
929.323	8514
929.428	8503
929.533	8667
929.638	8518
929.743	8423
929.848	8533
929.953	8518
930.058	8415
930.163	8248
930.267	8271
930.372	8454
930.477	8221
930.581	8457
930.685	8347
930.79	8202
930.894	8221
930.998	8218
931.103	8370
931.207	7963
931.311	7986
931.415	7909
931.519	7696
931.623	7727
