Data from test_V78500241_1119.txt Node
Date: Fri Mar 25 14:41:30 CST 2022
User: usil
Spectrometer: V785-0024
Trigger mode: 0
Integration Time (sec): 4.000000E-1
Scans to average: 1
Nonlinearity correction enabled: false
Boxcar width: 0
Storing dark spectrum: false
XAxis mode: Wavelengths
Number of Pixels in Spectrum: 1024
>>>>>Begin Spectral Data<<<<<
801.071	22656
801.214	22546
801.356	22284
801.499	22154
801.641	22105
801.783	21994
801.926	22032
802.068	21968
802.211	21819
802.353	21675
802.496	21515
802.638	21511
802.78	21374
802.923	21405
803.065	21325
803.208	21275
803.35	21317
803.492	21374
803.635	21450
803.777	21298
803.919	21367
804.061	21553
804.204	21458
804.346	21302
804.488	21207
804.63	21192
804.773	21241
804.915	21203
805.057	21424
805.199	21173
805.341	21298
805.483	21294
805.626	21378
805.768	21298
805.91	21302
806.052	21264
806.194	21283
806.336	21450
806.478	21272
806.62	21157
806.762	21275
806.904	21348
807.046	21739
807.188	21542
807.33	21694
807.472	21717
807.614	21606
807.756	21587
807.898	21519
808.04	21431
808.182	21469
808.324	21496
808.465	21587
808.607	21785
808.749	22090
808.891	22051
809.033	22078
809.174	21949
809.316	21911
809.458	21827
809.6	21873
809.741	21831
809.883	21972
810.025	21827
810.166	21922
810.308	21861
810.45	21759
810.591	21671
810.733	21549
810.875	21458
811.016	21313
811.158	21393
811.299	21469
811.441	21682
811.582	21382
811.724	21538
811.865	21420
812.007	21473
812.148	21344
812.29	21466
812.431	21667
812.573	21686
812.714	21660
812.855	21835
812.997	21987
813.138	22101
813.279	22093
813.421	21975
813.562	21956
813.703	21755
813.845	21523
813.986	21431
814.127	21306
814.268	21043
814.41	21047
814.551	21051
814.692	21119
814.833	20944
814.974	20933
815.115	20986
815.256	20857
815.397	20864
815.539	20773
815.68	20735
815.821	20712
815.962	20819
816.103	20712
816.244	20484
816.385	20450
816.526	20374
816.666	20294
816.807	20191
816.948	20271
817.089	20389
817.23	20294
817.371	20244
817.512	20115
817.653	20240
817.793	20168
817.934	20035
818.075	20119
818.216	20195
818.356	20126
818.497	19947
818.638	19814
818.778	19875
818.919	19791
819.06	19830
819.2	20031
819.341	19963
819.481	20035
819.622	20119
819.762	20286
819.903	20259
820.043	20218
820.184	20100
820.324	20084
820.465	20065
820.605	20176
820.746	20115
820.886	19894
821.026	20115
821.167	20062
821.307	20122
821.447	20062
821.588	19894
821.728	19879
821.868	19803
822.008	19537
822.149	19468
822.289	19464
822.429	19206
822.569	19274
822.709	19122
822.849	19031
822.99	18977
823.13	19031
823.27	19027
823.41	18859
823.55	18821
823.69	18798
823.83	18905
823.97	18757
824.11	18726
824.25	18532
824.389	18597
824.529	18601
824.669	18711
824.809	18627
824.949	18760
825.089	18738
825.228	18642
825.368	18433
825.508	18410
825.648	18346
825.787	18376
825.927	18509
826.067	18346
826.206	18433
826.346	18467
826.485	18376
826.625	18479
826.765	18536
826.904	18486
827.044	18224
827.183	18072
827.323	18102
827.462	18045
827.601	18129
827.741	18083
827.88	17889
828.02	17916
828.159	18057
828.298	18178
828.437	18110
828.577	18060
828.716	18133
828.855	17999
828.994	17828
829.134	17901
829.273	17958
829.412	17832
829.551	17729
829.69	17752
829.829	17851
829.968	17847
830.107	17870
830.246	17954
830.385	17737
830.524	17665
830.663	17638
830.802	17589
830.941	17383
831.08	17421
831.219	17543
831.357	17570
831.496	17634
831.635	17482
831.774	17356
831.913	17239
832.051	17265
832.19	17242
832.329	17288
832.467	17246
832.606	17094
832.744	17132
832.883	17223
833.022	17155
833.16	17140
833.299	17140
833.437	17197
833.576	17254
833.714	17174
833.852	17277
833.991	17292
834.129	17223
834.267	17284
834.406	17239
834.544	17212
834.682	17223
834.821	17185
834.959	17345
835.097	17212
835.235	17292
835.373	17147
835.511	17128
835.65	17105
835.788	17098
835.926	17014
836.064	16889
836.202	16976
836.34	17261
836.478	17075
836.615	17022
836.753	17159
836.891	17204
837.029	17159
837.167	17056
837.305	17048
837.443	17003
837.58	17029
837.718	17075
837.856	16862
837.993	16862
838.131	16987
838.269	16927
838.406	16976
838.544	16858
838.681	16607
838.819	16668
838.956	16535
839.094	16607
839.231	16466
839.369	16668
839.506	16896
839.643	16725
839.781	16432
839.918	16485
840.055	16497
840.193	16497
840.33	16500
840.467	16478
840.604	16588
840.742	16786
840.879	16379
841.016	16386
841.153	16462
841.29	16641
841.427	16493
841.564	16607
841.701	16508
841.838	16516
841.975	16394
842.112	16451
842.249	16318
842.385	16238
842.522	16497
842.659	16405
842.796	16284
842.933	16253
843.069	16280
843.206	16185
843.343	16424
843.479	16261
843.616	16265
843.752	16040
843.889	16040
844.025	16207
844.162	15968
844.298	16147
844.435	16147
844.571	16086
844.708	16097
844.844	16207
844.98	16211
845.117	16112
845.253	16013
845.389	16116
845.525	16040
845.661	16234
845.798	16154
845.934	16238
846.07	16169
846.206	16329
846.342	16268
846.478	15994
846.614	15762
846.75	15690
846.886	15637
847.022	15656
847.158	15557
847.294	15587
847.429	15648
847.565	15641
847.701	15949
847.837	15443
847.972	15351
848.108	15397
848.244	15473
848.379	15264
848.515	15298
848.65	15184
848.786	15237
848.921	15275
849.057	15329
849.192	15245
849.328	15279
849.463	15256
849.598	15241
849.734	15142
849.869	15135
850.004	14929
850.14	15055
850.275	15074
850.41	14864
850.545	15005
850.68	15028
850.815	15032
850.95	14921
851.085	15154
851.22	15116
851.355	14960
851.49	14868
851.625	14979
851.76	14914
851.895	14902
852.03	14811
852.165	14975
852.299	15066
852.434	15077
852.569	14971
852.703	15013
852.838	15081
852.973	15112
853.107	15157
853.242	14941
853.376	14849
853.511	14758
853.645	14773
853.78	15001
853.914	14849
854.048	14788
854.183	14902
854.317	14941
854.451	15013
854.585	14815
854.72	14906
854.854	14998
854.988	14807
855.122	14845
855.256	14781
855.39	14811
855.524	14918
855.658	14876
855.792	14834
855.926	14910
856.06	14891
856.194	14933
856.327	14811
856.461	14868
856.595	14838
856.729	14887
856.862	14933
856.996	14937
857.13	14971
857.263	14975
857.397	14910
857.53	14895
857.664	14883
857.797	14921
857.931	15047
858.064	14963
858.197	14986
858.331	14842
858.464	14887
858.597	14686
858.731	14914
858.864	14830
858.997	14788
859.13	14899
859.263	14845
859.396	15036
859.529	14956
859.662	14804
859.795	14746
859.928	14834
860.061	14990
860.194	14891
860.327	14845
860.46	14796
860.592	14944
860.725	15028
860.858	15005
860.99	14830
861.123	14800
861.256	14739
861.388	14815
861.521	15595
861.653	14689
861.786	14739
861.918	14777
862.05	14804
862.183	14788
862.315	14830
862.447	14883
862.58	14815
862.712	14594
862.844	14476
862.976	14621
863.108	14720
863.24	15097
863.372	14663
863.504	14514
863.636	14629
863.768	14682
863.9	14644
864.032	14587
864.164	14575
864.296	14629
864.428	14754
864.559	14701
864.691	14739
864.823	14724
864.954	14659
865.086	14659
865.217	14670
865.349	14526
865.48	14583
865.612	14590
865.743	14758
865.875	14667
866.006	14632
866.137	14659
866.269	14590
866.4	14560
866.531	14556
866.662	14499
866.793	14533
866.924	14541
867.055	14625
867.186	14602
867.317	14571
867.448	14473
867.579	14568
867.71	14560
867.841	14571
867.972	14564
868.103	14613
868.233	14670
868.364	14587
868.495	14724
868.625	14765
868.756	14887
868.886	14697
869.017	14804
869.147	14975
869.278	14906
869.408	14807
869.539	14819
869.669	14823
869.799	14925
869.929	14948
870.06	15001
870.19	15123
870.32	15199
870.45	15119
870.58	15214
870.71	15355
870.84	15310
870.97	15184
871.1	15230
871.23	15355
871.36	15378
871.489	15245
871.619	15367
871.749	15412
871.879	15466
872.008	15564
872.138	15431
872.267	15485
872.397	15313
872.526	15275
872.656	15211
872.785	15214
872.915	15443
873.044	15633
873.173	15424
873.303	15507
873.432	15564
873.561	15633
873.69	15519
873.819	15523
873.948	15625
874.077	15519
874.206	15523
874.335	15534
874.464	15610
874.593	15857
874.722	15690
874.851	15941
874.979	15854
875.108	15903
875.237	15770
875.365	15690
875.494	15686
875.623	15892
875.751	15739
875.88	15804
876.008	15960
876.136	15911
876.265	16261
876.393	16367
876.521	16211
876.65	16249
876.778	16226
876.906	16181
877.034	16124
877.162	16101
877.29	16074
877.418	16166
877.546	16181
877.674	16086
877.802	16280
877.93	16261
878.058	16280
878.185	16093
878.313	16265
878.441	16291
878.568	16230
878.696	16105
878.824	16249
878.951	16352
879.079	16516
879.206	16573
879.333	16455
879.461	16474
879.588	16474
879.715	16554
879.842	16664
879.97	16466
880.097	16177
880.224	16211
880.351	16086
880.478	16150
880.605	16150
880.732	16109
880.859	16329
880.986	16131
881.112	16013
881.239	16067
881.366	15876
881.493	15816
881.619	15739
881.746	15842
881.872	15800
881.999	15759
882.125	15797
882.252	15888
882.378	15778
882.505	15895
882.631	15762
882.757	15580
882.883	15633
883.01	15545
883.136	15504
883.262	15492
883.388	15412
883.514	15610
883.64	15732
883.766	15561
883.892	15412
884.018	15435
884.143	15587
884.269	15660
884.395	15287
884.52	15264
884.646	15294
884.772	15256
884.897	15165
885.023	15351
885.148	15363
885.274	15382
885.399	15439
885.524	15272
885.65	15367
885.775	15275
885.9	15154
886.025	15272
886.15	15393
886.275	15173
886.4	15108
886.525	15184
886.65	15188
886.775	15207
886.9	15329
887.025	15439
887.149	15287
887.274	14994
887.399	15100
887.523	15036
887.648	15013
887.773	14967
887.897	15116
888.021	15062
888.146	15009
888.27	15081
888.395	15142
888.519	15001
888.643	15116
888.767	15173
888.891	14986
889.015	14918
889.139	14933
889.263	14880
889.387	15013
889.511	15195
889.635	14979
889.759	14956
889.883	14906
890.006	14963
890.13	14998
890.254	14746
890.377	14921
890.501	14682
890.624	14678
890.748	14804
890.871	14659
890.995	14533
891.118	14552
891.241	14613
891.364	14625
891.488	14663
891.611	14602
891.734	14659
891.857	14689
891.98	14610
892.103	14708
892.226	14602
892.349	14644
892.471	14396
892.594	14579
892.717	14606
892.839	14602
892.962	14598
893.085	14640
893.207	14564
893.33	14530
893.452	14571
893.575	14545
893.697	14431
893.819	14754
893.941	14800
894.064	14800
894.186	14552
894.308	14507
894.43	14735
894.552	14785
894.674	14777
894.796	14564
894.918	14667
895.04	14488
895.161	14785
895.283	14663
895.405	14655
895.526	14716
895.648	14785
895.769	14693
895.891	14716
896.012	14720
896.134	14754
896.255	14663
896.376	14811
896.498	14682
896.619	14754
896.74	14754
896.861	14826
896.982	15085
897.103	15291
897.224	15017
897.345	15039
897.466	14914
897.587	14990
897.708	15230
897.828	15039
897.949	14941
898.07	14830
898.19	14971
898.311	15104
898.431	14906
898.552	15081
898.672	15146
898.792	15169
898.913	15116
899.033	15036
899.153	14963
899.273	14864
899.393	14944
899.513	15009
899.633	14918
899.753	14967
899.873	14872
899.993	15024
900.113	14834
900.232	14918
900.352	14872
900.472	14739
900.591	14716
900.711	14712
900.83	14754
900.95	14971
901.069	14773
901.189	14712
901.308	14526
901.427	14434
901.546	14533
901.665	14560
901.784	14469
901.904	14305
902.023	14237
902.141	14149
902.26	14062
902.379	14149
902.498	13955
902.617	13963
902.735	14027
902.854	14001
902.973	13989
903.091	13734
903.21	13761
903.328	13757
903.446	13685
903.565	13582
903.683	13601
903.801	13480
903.919	13597
904.038	13434
904.156	13350
904.274	13388
904.392	13491
904.51	13335
904.627	13358
904.745	13407
904.863	13460
904.981	13198
905.098	12996
905.216	13061
905.334	13072
905.451	13118
905.569	13034
905.686	13152
905.803	13034
905.921	13012
906.038	13038
906.155	12894
906.272	12856
906.389	12776
906.506	12707
906.623	12646
906.74	12681
906.857	12525
906.974	12490
907.091	12692
907.208	12741
907.324	12665
907.441	12578
907.557	12418
907.674	12319
907.79	12357
907.907	12380
908.023	12410
908.139	12369
908.256	12334
908.372	12308
908.488	12285
908.604	12171
908.72	12129
908.836	12144
908.952	12159
909.068	12152
909.184	12144
909.3	12201
909.415	12213
909.531	12182
909.647	11980
909.762	11965
909.878	11874
909.993	11931
910.108	11828
910.224	11828
910.339	11904
910.454	11882
910.57	11836
910.685	11722
910.8	12007
910.915	11885
911.03	11760
911.145	11653
911.259	11505
911.374	11558
911.489	11497
911.604	11585
911.718	11330
911.833	11452
911.947	11277
912.062	11159
912.176	11330
912.291	11395
912.405	11341
912.519	11493
912.633	11562
912.748	11383
912.862	11345
912.976	11284
913.09	11155
913.204	11147
913.318	11242
913.431	11395
913.545	11296
913.659	11318
913.772	11231
913.886	11060
914	11086
914.113	11143
914.226	11273
914.34	11155
914.453	11010
914.566	11235
914.68	11102
914.793	11048
914.906	10881
915.019	10911
915.132	10763
915.245	10850
915.358	10908
915.47	10877
915.583	10866
915.696	10942
915.809	11018
915.921	11006
916.034	10911
916.146	10812
916.259	10790
916.371	10896
916.483	10927
916.595	10714
916.708	10866
916.82	10801
916.932	10793
917.044	10755
917.156	10698
917.268	10675
917.38	10801
917.491	10618
917.603	10729
917.715	10774
917.826	10714
917.938	10675
918.049	10577
918.161	10675
918.272	10858
918.384	10702
918.495	10736
918.606	10523
918.717	10558
918.828	10599
918.939	10634
919.05	10432
919.161	10485
919.272	10367
919.383	10394
919.494	10558
919.604	10797
919.715	10554
919.826	10554
919.936	10603
920.047	10660
920.157	10580
920.267	10854
920.378	10592
920.488	10519
920.598	10736
920.708	10972
920.818	10748
920.928	10725
921.038	10904
921.148	10919
921.258	10664
921.368	10398
921.477	10455
921.587	10356
921.697	10299
921.806	10451
921.916	10280
922.025	10207
922.134	10120
922.244	10082
922.353	10219
922.462	10029
922.571	9941
922.68	9899
922.789	9850
922.898	9835
923.007	9816
923.116	9873
923.224	9842
923.333	9797
923.442	9789
923.55	9743
923.659	9709
923.767	9789
923.876	9698
923.984	9766
924.092	9648
924.201	9641
924.309	9641
924.417	9701
924.525	9534
924.633	9606
924.741	10390
924.849	9424
924.956	9580
925.064	9424
925.172	9393
925.279	9458
925.387	9473
925.494	9420
925.602	9584
925.709	9568
925.816	9454
925.924	9416
926.031	9526
926.138	9389
926.245	9488
926.352	9355
926.459	9458
926.566	9523
926.673	9401
926.779	9325
926.886	9428
926.993	9165
927.099	9119
927.206	9104
927.312	9074
927.419	9142
927.525	9119
927.631	9233
927.737	9112
927.843	9116
927.95	8944
928.056	9097
928.162	9081
928.267	9089
928.373	9724
928.479	9161
928.585	8891
928.69	8994
928.796	9127
928.901	8933
929.007	8838
929.112	8967
929.218	8899
929.323	8804
929.428	8910
929.533	9005
929.638	8758
929.743	8823
929.848	8876
929.953	8845
930.058	8746
930.163	8644
930.267	8648
930.372	8800
930.477	8606
930.581	8838
930.685	8613
930.79	8522
930.894	8636
930.998	8457
931.103	8636
931.207	8366
931.311	8320
931.415	8225
931.519	8077
931.623	8058
