Data from test_V78500241_3428.txt Node
Date: Fri Mar 25 14:57:35 CST 2022
User: usil
Spectrometer: V785-0024
Trigger mode: 0
Integration Time (sec): 4.000000E-1
Scans to average: 1
Nonlinearity correction enabled: false
Boxcar width: 0
Storing dark spectrum: false
XAxis mode: Wavelengths
Number of Pixels in Spectrum: 1024
>>>>>Begin Spectral Data<<<<<
801.071	22059
801.214	21831
801.356	21618
801.499	21545
801.641	21450
801.783	21241
801.926	21401
802.068	21203
802.211	21146
802.353	21039
802.496	20944
802.638	20743
802.78	20739
802.923	20682
803.065	20632
803.208	20503
803.35	20651
803.492	20720
803.635	20781
803.777	20526
803.919	20552
804.061	20944
804.204	20705
804.346	20583
804.488	20537
804.63	20651
804.773	20552
804.915	20568
805.057	20606
805.199	20503
805.341	20457
805.483	20693
805.626	20621
805.768	20587
805.91	20556
806.052	20655
806.194	20389
806.336	20594
806.478	20613
806.62	20461
806.762	20609
806.904	20724
807.046	20838
807.188	20960
807.33	20857
807.472	20952
807.614	20720
807.756	20910
807.898	20701
808.04	20590
808.182	20629
808.324	20697
808.465	20644
808.607	20701
808.749	20864
808.891	20918
809.033	21055
809.174	20902
809.316	20758
809.458	20899
809.6	20830
809.741	20910
809.883	21009
810.025	21138
810.166	21081
810.308	21074
810.45	20921
810.591	20910
810.733	20823
810.875	20583
811.016	20613
811.158	20621
811.299	20682
811.441	20811
811.582	20872
811.724	20617
811.865	20571
812.007	20617
812.148	20682
812.29	20564
812.431	20754
812.573	20986
812.714	21077
812.855	21085
812.997	21176
813.138	21431
813.279	21260
813.421	21199
813.562	21062
813.703	20963
813.845	20735
813.986	20571
814.127	20278
814.268	20278
814.41	20256
814.551	20035
814.692	20244
814.833	20130
814.974	20103
815.115	20199
815.256	20065
815.397	20008
815.539	20031
815.68	19795
815.821	19807
815.962	19917
816.103	19833
816.244	19643
816.385	19620
816.526	19666
816.666	19582
816.807	19259
816.948	19324
817.089	19472
817.23	19430
817.371	19369
817.512	19358
817.653	19289
817.793	19289
817.934	19266
818.075	19369
818.216	19419
818.356	19187
818.497	19145
818.638	18958
818.778	18913
818.919	19122
819.06	19122
819.2	19103
819.341	19183
819.481	19133
819.622	19354
819.762	19480
819.903	19441
820.043	19297
820.184	19339
820.324	19244
820.465	19270
820.605	19308
820.746	19164
820.886	19145
821.026	19190
821.167	19308
821.307	19221
821.447	19236
821.588	19050
821.728	18989
821.868	18840
822.008	18753
822.149	18604
822.289	18627
822.429	18467
822.569	18292
822.709	18342
822.849	18289
822.99	18258
823.13	18190
823.27	18190
823.41	18076
823.55	17980
823.69	18034
823.83	17999
823.97	17885
824.11	17828
824.25	17798
824.389	17718
824.529	17851
824.669	17863
824.809	17802
824.949	17817
825.089	17851
825.228	17828
825.368	17718
825.508	17638
825.648	17524
825.787	17512
825.927	17562
826.067	17478
826.206	17551
826.346	17554
826.485	17482
826.625	17482
826.765	17642
826.904	17539
827.044	17292
827.183	17318
827.323	17216
827.462	17223
827.601	17265
827.741	17151
827.88	17395
828.02	17121
828.159	17162
828.298	17284
828.437	17337
828.577	17292
828.716	17398
828.855	17086
828.994	16980
829.134	17010
829.273	16999
829.412	16919
829.551	16847
829.69	17033
829.829	17052
829.968	17025
830.107	17090
830.246	17048
830.385	16987
830.524	16927
830.663	16816
830.802	16774
830.941	16584
831.08	16630
831.219	16698
831.357	16660
831.496	16771
831.635	16634
831.774	16584
831.913	16565
832.051	16481
832.19	16329
832.329	16497
832.467	16394
832.606	16284
832.744	16341
832.883	16379
833.022	16257
833.16	16341
833.299	16405
833.437	16390
833.576	16451
833.714	16318
833.852	16337
833.991	16413
834.129	16478
834.267	16287
834.406	16413
834.544	16382
834.682	16379
834.821	16318
834.959	16527
835.097	16348
835.235	16504
835.373	16497
835.511	16367
835.65	16287
835.788	16242
835.926	16055
836.064	16154
836.202	16093
836.34	16303
836.478	16337
836.615	16314
836.753	16348
836.891	16504
837.029	16382
837.167	16253
837.305	16306
837.443	16181
837.58	16040
837.718	16276
837.856	16276
837.993	16196
838.131	16310
838.269	16059
838.406	16192
838.544	16120
838.681	15800
838.819	15918
838.956	15694
839.094	15739
839.231	15838
839.369	15854
839.506	16135
839.643	15884
839.781	15724
839.918	15656
840.055	15819
840.193	15778
840.33	15633
840.467	15701
840.604	15789
840.742	15979
840.879	15580
841.016	15652
841.153	15625
841.29	15793
841.427	15720
841.564	15797
841.701	15789
841.838	15732
841.975	15637
842.112	15671
842.249	15500
842.385	15549
842.522	15759
842.659	15473
842.796	15454
842.933	15648
843.069	15458
843.206	15515
843.343	15545
843.479	15466
843.616	15530
843.752	15287
843.889	15310
844.025	15458
844.162	15302
844.298	15332
844.435	15325
844.571	15351
844.708	15412
844.844	15496
844.98	15450
845.117	15367
845.253	15275
845.389	15150
845.525	15192
845.661	15252
845.798	15176
845.934	15203
846.07	15039
846.206	15142
846.342	15188
846.478	15233
846.614	14941
846.75	14815
846.886	14754
847.022	14998
847.158	14914
847.294	15043
847.429	14952
847.565	14910
847.701	15154
847.837	14693
847.972	14583
848.108	14686
848.244	14735
848.379	14564
848.515	14427
848.65	14423
848.786	14427
848.921	14503
849.057	14564
849.192	14537
849.328	14537
849.463	14541
849.598	14503
849.734	14514
849.869	14218
850.004	14210
850.14	14202
850.275	14286
850.41	14343
850.545	14240
850.68	14263
850.815	14275
850.95	14286
851.085	14381
851.22	14381
851.355	14263
851.49	14191
851.625	14138
851.76	14290
851.895	14134
852.03	14180
852.165	14187
852.299	14240
852.434	14282
852.569	14286
852.703	14351
852.838	14396
852.973	14355
853.107	14336
853.242	14278
853.376	14191
853.511	14039
853.645	14096
853.78	14161
853.914	14096
854.048	14123
854.183	14103
854.317	14084
854.451	14271
854.585	14092
854.72	14081
854.854	14168
854.988	14073
855.122	14138
855.256	13936
855.39	14172
855.524	14168
855.658	14237
855.792	14206
855.926	14145
856.06	14202
856.194	14199
856.327	14107
856.461	14115
856.595	14107
856.729	14039
856.862	14202
856.996	14214
857.13	14206
857.263	14263
857.397	14240
857.53	14092
857.664	14195
857.797	14123
857.931	14218
858.064	14210
858.197	14237
858.331	14191
858.464	14123
858.597	14020
858.731	14161
858.864	14081
858.997	14176
859.13	14123
859.263	14100
859.396	14145
859.529	14016
859.662	14123
859.795	14016
859.928	14119
860.061	14278
860.194	14267
860.327	14050
860.46	14103
860.592	14339
860.725	14358
860.858	14267
860.99	14130
861.123	14096
861.256	14008
861.388	14081
861.521	14712
861.653	13986
861.786	14008
861.918	13986
862.05	14046
862.183	14020
862.315	14073
862.447	14103
862.58	14103
862.712	13955
862.844	13921
862.976	14001
863.108	13967
863.24	14374
863.372	13841
863.504	13887
863.636	13845
863.768	13959
863.9	13871
864.032	13811
864.164	13795
864.296	13932
864.428	14050
864.559	13982
864.691	14043
864.823	14024
864.954	13898
865.086	13887
865.217	13928
865.349	13814
865.48	13776
865.612	13887
865.743	14043
865.875	13925
866.006	13791
866.137	13944
866.269	13951
866.4	13913
866.531	13822
866.662	13772
866.793	13845
866.924	13925
867.055	13913
867.186	13837
867.317	13807
867.448	13685
867.579	13795
867.71	13791
867.841	13913
867.972	13879
868.103	13822
868.233	13818
868.364	13795
868.495	13936
868.625	14176
868.756	14187
868.886	14206
869.017	13993
869.147	14187
869.278	14256
869.408	14218
869.539	14123
869.669	14176
869.799	14157
869.929	14263
870.06	14237
870.19	14499
870.32	14465
870.45	14450
870.58	14518
870.71	14640
870.84	14697
870.97	14469
871.1	14522
871.23	14735
871.36	14746
871.489	14727
871.619	14823
871.749	14708
871.879	14735
872.008	14750
872.138	14705
872.267	14727
872.397	14651
872.526	14648
872.656	14590
872.785	14503
872.915	14781
873.044	14876
873.173	14746
873.303	14864
873.432	14857
873.561	14823
873.69	14838
873.819	14792
873.948	14864
874.077	14842
874.206	14804
874.335	14807
874.464	14948
874.593	15108
874.722	15062
874.851	15112
874.979	15119
875.108	15199
875.237	15017
875.365	15093
875.494	15077
875.623	15138
875.751	15081
875.88	15192
876.008	15252
876.136	15344
876.265	15557
876.393	15644
876.521	15618
876.65	15614
876.778	15511
876.906	15477
877.034	15545
877.162	15519
877.29	15443
877.418	15473
877.546	15538
877.674	15458
877.802	15500
877.93	15538
878.058	15492
878.185	15504
878.313	15591
878.441	15511
878.568	15321
878.696	15408
878.824	15644
878.951	15587
879.079	15701
879.206	15873
879.333	15652
879.461	15492
879.588	15545
879.715	15823
879.842	15793
879.97	15637
880.097	15386
880.224	15382
880.351	15443
880.478	15450
880.605	15386
880.732	15283
880.859	15610
880.986	15473
881.112	15458
881.239	15214
881.366	15154
881.493	15062
881.619	15112
881.746	15093
881.872	15039
881.999	14982
882.125	15081
882.252	15161
882.378	14975
882.505	15135
882.631	14895
882.757	14960
882.883	14960
883.01	14823
883.136	14826
883.262	14655
883.388	14693
883.514	14815
883.64	14883
883.766	14834
883.892	14686
884.018	14667
884.143	14929
884.269	14982
884.395	14625
884.52	14617
884.646	14594
884.772	14511
884.897	14507
885.023	14606
885.148	14648
885.274	14731
885.399	14632
885.524	14571
885.65	14701
885.775	14526
885.9	14492
886.025	14727
886.15	14590
886.275	14511
886.4	14404
886.525	14545
886.65	14549
886.775	14473
886.9	14682
887.025	14621
887.149	14636
887.274	14480
887.399	14328
887.523	14305
887.648	14317
887.773	14244
887.897	14469
888.021	14351
888.146	14278
888.27	14518
888.395	14575
888.519	14408
888.643	14495
888.767	14499
888.891	14389
889.015	14263
889.139	14377
889.263	14218
889.387	14286
889.511	14484
889.635	14457
889.759	14240
889.883	14248
890.006	14381
890.13	14328
890.254	14210
890.377	14187
890.501	13993
890.624	14020
890.748	14073
890.871	14062
890.995	13944
891.118	13925
891.241	13982
891.364	13860
891.488	14100
891.611	13856
891.734	14046
891.857	14035
891.98	14008
892.103	14130
892.226	14005
892.349	13875
892.471	13814
892.594	13955
892.717	13993
892.839	13982
892.962	14031
893.085	13993
893.207	13978
893.33	13902
893.452	13818
893.575	14046
893.697	13951
893.819	14161
893.941	14267
894.064	14130
894.186	13978
894.308	13974
894.43	14107
894.552	14195
894.674	14176
894.796	13963
894.918	14024
895.04	14020
895.161	14100
895.283	14119
895.405	14046
895.526	14027
895.648	14096
895.769	14130
895.891	14244
896.012	14263
896.134	14161
896.255	14123
896.376	14210
896.498	14183
896.619	14259
896.74	14206
896.861	14313
896.982	14511
897.103	14640
897.224	14492
897.345	14457
897.466	14385
897.587	14381
897.708	14469
897.828	14480
897.949	14446
898.07	14339
898.19	14328
898.311	14564
898.431	14320
898.552	14465
898.672	14594
898.792	14549
898.913	14564
899.033	14461
899.153	14366
899.273	14320
899.393	14294
899.513	14355
899.633	14324
899.753	14404
899.873	14339
899.993	14396
900.113	14332
900.232	14355
900.352	14362
900.472	14195
900.591	14145
900.711	14225
900.83	14142
900.95	14275
901.069	14366
901.189	14237
901.308	13845
901.427	13799
901.546	13894
901.665	13879
901.784	13871
901.904	13655
902.023	13662
902.141	13559
902.26	13502
902.379	13563
902.498	13487
902.617	13499
902.735	13502
902.854	13369
902.973	13438
903.091	13213
903.21	13164
903.328	13228
903.446	13118
903.565	13031
903.683	13042
903.801	12806
903.919	12962
904.038	13080
904.156	12871
904.274	12970
904.392	12897
904.51	12814
904.627	12848
904.745	12970
904.863	12871
904.981	12570
905.098	12566
905.216	12517
905.334	12555
905.451	12589
905.569	12551
905.686	12566
905.803	12486
905.921	12403
906.038	12502
906.155	12357
906.272	12304
906.389	12266
906.506	12171
906.623	12110
906.74	12129
906.857	12102
906.974	12064
907.091	12205
907.208	12342
907.324	12148
907.441	12068
907.557	11935
907.674	11889
907.79	11843
907.907	11874
908.023	11950
908.139	11901
908.256	11836
908.372	11779
908.488	11824
908.604	11668
908.72	11596
908.836	11665
908.952	11604
909.068	11695
909.184	11733
909.3	11684
909.415	11794
909.531	11623
909.647	11368
909.762	11410
909.878	11440
909.993	11463
910.108	11474
910.224	11421
910.339	11512
910.454	11318
910.57	11303
910.685	11151
910.8	11512
910.915	11326
911.03	11269
911.145	11102
911.259	11162
911.374	11143
911.489	10991
911.604	10961
911.718	10866
911.833	10911
911.947	10828
912.062	10634
912.176	10828
912.291	10889
912.405	10816
912.519	11124
912.633	11132
912.748	10968
912.862	11010
912.976	10809
913.09	10698
913.204	10771
913.318	10782
913.431	10889
913.545	10771
913.659	10999
913.772	10824
913.886	10672
914	10672
914.113	10809
914.226	10752
914.34	10774
914.453	10554
914.566	10630
914.68	10611
914.793	10588
914.906	10440
915.019	10417
915.132	10287
915.245	10409
915.358	10348
915.47	10421
915.583	10409
915.696	10409
915.809	10512
915.921	10527
916.034	10363
916.146	10333
916.259	10284
916.371	10417
916.483	10402
916.595	10417
916.708	10348
916.82	10352
916.932	10276
917.044	10306
917.156	10314
917.268	10185
917.38	10253
917.491	10272
917.603	10207
917.715	10329
917.826	10322
917.938	10234
918.049	10124
918.161	10249
918.272	10287
918.384	10337
918.495	10276
918.606	10173
918.717	9998
918.828	10166
918.939	10173
919.05	10010
919.161	10082
919.272	9911
919.383	10002
919.494	10177
919.604	10337
919.715	10181
919.826	9968
919.936	10029
920.047	10173
920.157	10249
920.267	10310
920.378	10238
920.488	10147
920.598	10310
920.708	10402
920.818	10291
920.928	10337
921.038	10508
921.148	10382
921.258	10169
921.368	10120
921.477	9979
921.587	10025
921.697	9880
921.806	10051
921.916	9888
922.025	9751
922.134	9686
922.244	9641
922.353	9679
922.462	9599
922.571	9557
922.68	9370
922.789	9310
922.898	9386
923.007	9363
923.116	9500
923.224	9405
923.333	9386
923.442	9253
923.55	9233
923.659	9317
923.767	9325
923.876	9218
923.984	9310
924.092	9214
924.201	9275
924.309	9203
924.417	9321
924.525	9218
924.633	9260
924.741	10188
924.849	9005
924.956	9222
925.064	9066
925.172	8925
925.279	8971
925.387	9062
925.494	9077
925.602	9169
925.709	9116
925.816	8941
925.924	8975
926.031	9085
926.138	9081
926.245	9100
926.352	9013
926.459	9089
926.566	9157
926.673	8933
926.779	8887
926.886	8899
926.993	8769
927.099	8815
927.206	8659
927.312	8746
927.419	8804
927.525	8792
927.631	8830
927.737	8731
927.843	8659
927.95	8556
928.056	8617
928.162	8739
928.267	8731
928.373	9378
928.479	8762
928.585	8552
928.69	8659
928.796	8667
928.901	8636
929.007	8431
929.112	8587
929.218	8492
929.323	8522
929.428	8503
929.533	8610
929.638	8377
929.743	8469
929.848	8568
929.953	8514
930.058	8446
930.163	8199
930.267	8313
930.372	8393
930.477	8202
930.581	8396
930.685	8324
930.79	8244
930.894	8221
930.998	8142
931.103	8271
931.207	7951
931.311	7917
931.415	7868
931.519	7738
931.623	7670
