Data from test_V78500241_3396.txt Node
Date: Fri Mar 25 14:57:21 CST 2022
User: usil
Spectrometer: V785-0024
Trigger mode: 0
Integration Time (sec): 4.000000E-1
Scans to average: 1
Nonlinearity correction enabled: false
Boxcar width: 0
Storing dark spectrum: false
XAxis mode: Wavelengths
Number of Pixels in Spectrum: 1024
>>>>>Begin Spectral Data<<<<<
801.071	21922
801.214	21736
801.356	21656
801.499	21496
801.641	21317
801.783	21268
801.926	21298
802.068	21245
802.211	21142
802.353	21150
802.496	20864
802.638	20769
802.78	20697
802.923	20632
803.065	20511
803.208	20632
803.35	20571
803.492	20689
803.635	20838
803.777	20716
803.919	20693
804.061	20986
804.204	20792
804.346	20537
804.488	20606
804.63	20507
804.773	20404
804.915	20708
805.057	20613
805.199	20568
805.341	20514
805.483	20724
805.626	20518
805.768	20571
805.91	20438
806.052	20594
806.194	20488
806.336	20625
806.478	20549
806.62	20423
806.762	20522
806.904	20716
807.046	20895
807.188	20857
807.33	20807
807.472	20906
807.614	20735
807.756	20883
807.898	20648
808.04	20541
808.182	20602
808.324	20533
808.465	20560
808.607	20842
808.749	20804
808.891	20975
809.033	20986
809.174	20948
809.316	20952
809.458	20910
809.6	20899
809.741	20971
809.883	21009
810.025	21142
810.166	21112
810.308	21024
810.45	20902
810.591	20868
810.733	20724
810.875	20739
811.016	20541
811.158	20503
811.299	20667
811.441	20777
811.582	20750
811.724	20594
811.865	20488
812.007	20670
812.148	20621
812.29	20583
812.431	20754
812.573	20895
812.714	20990
812.855	21070
812.997	21214
813.138	21298
813.279	21237
813.421	21074
813.562	21089
813.703	20868
813.845	20788
813.986	20404
814.127	20271
814.268	20225
814.41	20195
814.551	20168
814.692	20240
814.833	20122
814.974	20020
815.115	20081
815.256	20122
815.397	19963
815.539	20077
815.68	19841
815.821	19685
815.962	19856
816.103	19928
816.244	19708
816.385	19681
816.526	19685
816.666	19487
816.807	19278
816.948	19419
817.089	19445
817.23	19354
817.371	19335
817.512	19403
817.653	19225
817.793	19152
817.934	19381
818.075	19411
818.216	19282
818.356	19270
818.497	19247
818.638	18993
818.778	19027
818.919	18878
819.06	19122
819.2	19247
819.341	19266
819.481	19190
819.622	19324
819.762	19502
819.903	19540
820.043	19419
820.184	19266
820.324	19168
820.465	19312
820.605	19293
820.746	19270
820.886	19072
821.026	19198
821.167	19198
821.307	19354
821.447	19324
821.588	19110
821.728	19000
821.868	18909
822.008	18692
822.149	18673
822.289	18749
822.429	18407
822.569	18334
822.709	18338
822.849	18224
822.99	18178
823.13	18140
823.27	18155
823.41	18019
823.55	17946
823.69	18076
823.83	18079
823.97	17961
824.11	17794
824.25	17714
824.389	17771
824.529	17821
824.669	17863
824.809	17916
824.949	17874
825.089	17783
825.228	17798
825.368	17566
825.508	17592
825.648	17570
825.787	17554
825.927	17589
826.067	17444
826.206	17520
826.346	17558
826.485	17570
826.625	17543
826.765	17577
826.904	17581
827.044	17265
827.183	17303
827.323	17212
827.462	17330
827.601	17151
827.741	17231
827.88	17284
828.02	17064
828.159	17189
828.298	17318
828.437	17239
828.577	17277
828.716	17330
828.855	17193
828.994	16999
829.134	16961
829.273	17037
829.412	16965
829.551	17056
829.69	17083
829.829	17022
829.968	17094
830.107	17090
830.246	17010
830.385	16911
830.524	16938
830.663	16828
830.802	16767
830.941	16702
831.08	16584
831.219	16683
831.357	16672
831.496	16915
831.635	16660
831.774	16588
831.913	16440
832.051	16451
832.19	16440
832.329	16405
832.467	16382
832.606	16272
832.744	16329
832.883	16348
833.022	16265
833.16	16261
833.299	16360
833.437	16356
833.576	16459
833.714	16329
833.852	16413
833.991	16497
834.129	16542
834.267	16356
834.406	16337
834.544	16398
834.682	16523
834.821	16394
834.959	16664
835.097	16322
835.235	16459
835.373	16443
835.511	16356
835.65	16337
835.788	16303
835.926	16143
836.064	16131
836.202	16116
836.34	16451
836.478	16451
836.615	16268
836.753	16318
836.891	16421
837.029	16344
837.167	16291
837.305	16219
837.443	16185
837.58	16246
837.718	16299
837.856	16112
837.993	16162
838.131	16017
838.269	16124
838.406	16071
838.544	16036
838.681	15949
838.819	15846
838.956	15861
839.094	15694
839.231	15713
839.369	16051
839.506	16116
839.643	16063
839.781	15743
839.918	15698
840.055	15724
840.193	15755
840.33	15663
840.467	15675
840.604	15770
840.742	15873
840.879	15660
841.016	15667
841.153	15599
841.29	15831
841.427	15793
841.564	15766
841.701	15732
841.838	15694
841.975	15709
842.112	15679
842.249	15549
842.385	15564
842.522	15717
842.659	15500
842.796	15405
842.933	15591
843.069	15542
843.206	15443
843.343	15675
843.479	15462
843.616	15576
843.752	15363
843.889	15298
844.025	15405
844.162	15222
844.298	15439
844.435	15306
844.571	15195
844.708	15367
844.844	15584
844.98	15420
845.117	15393
845.253	15302
845.389	15207
845.525	15272
845.661	15230
845.798	15112
845.934	15184
846.07	15028
846.206	15195
846.342	15154
846.478	15131
846.614	15070
846.75	14800
846.886	14826
847.022	14994
847.158	14918
847.294	14979
847.429	14887
847.565	14876
847.701	15127
847.837	14632
847.972	14598
848.108	14705
848.244	14705
848.379	14518
848.515	14549
848.65	14488
848.786	14522
848.921	14533
849.057	14533
849.192	14495
849.328	14461
849.463	14522
849.598	14427
849.734	14419
849.869	14305
850.004	14294
850.14	14267
850.275	14294
850.41	14103
850.545	14233
850.68	14206
850.815	14332
850.95	14206
851.085	14488
851.22	14400
851.355	14339
851.49	14271
851.625	14244
851.76	14252
851.895	14088
852.03	14206
852.165	14240
852.299	14221
852.434	14381
852.569	14313
852.703	14374
852.838	14286
852.973	14404
853.107	14377
853.242	14206
853.376	14191
853.511	13909
853.645	14012
853.78	14252
853.914	14081
854.048	14164
854.183	14035
854.317	14024
854.451	14358
854.585	14142
854.72	14191
854.854	14123
854.988	14077
855.122	14157
855.256	14031
855.39	14069
855.524	14168
855.658	14142
855.792	14164
855.926	14107
856.06	14187
856.194	14298
856.327	14119
856.461	14084
856.595	14092
856.729	14138
856.862	14240
856.996	14183
857.13	14263
857.263	14176
857.397	14176
857.53	14130
857.664	14206
857.797	14252
857.931	14328
858.064	14149
858.197	14221
858.331	14130
858.464	14153
858.597	13993
858.731	14206
858.864	14039
858.997	14092
859.13	14183
859.263	14191
859.396	14233
859.529	14088
859.662	14123
859.795	14123
859.928	14172
860.061	14214
860.194	14294
860.327	14134
860.46	14183
860.592	14244
860.725	14286
860.858	14195
860.99	14176
861.123	13989
861.256	14012
861.388	14161
861.521	14845
861.653	14073
861.786	13887
861.918	13963
862.05	14103
862.183	14096
862.315	14126
862.447	14153
862.58	14123
862.712	13822
862.844	13887
862.976	14115
863.108	14005
863.24	14404
863.372	13837
863.504	13887
863.636	13917
863.768	13982
863.9	13989
864.032	13868
864.164	13909
864.296	13879
864.428	14027
864.559	14012
864.691	14043
864.823	13982
864.954	13951
865.086	13997
865.217	13849
865.349	13864
865.48	13959
865.612	13868
865.743	14062
865.875	13928
866.006	13803
866.137	13932
866.269	13967
866.4	13833
866.531	13837
866.662	13761
866.793	13852
866.924	13879
867.055	13852
867.186	13928
867.317	13959
867.448	13769
867.579	13974
867.71	13769
867.841	13746
867.972	13887
868.103	13883
868.233	14020
868.364	13814
868.495	13925
868.625	14157
868.756	14202
868.886	14149
869.017	14016
869.147	14286
869.278	14286
869.408	14107
869.539	14183
869.669	14180
869.799	14237
869.929	14298
870.06	14282
870.19	14499
870.32	14442
870.45	14541
870.58	14442
870.71	14743
870.84	14663
870.97	14579
871.1	14514
871.23	14678
871.36	14739
871.489	14651
871.619	14708
871.749	14667
871.879	14762
872.008	14975
872.138	14857
872.267	14765
872.397	14644
872.526	14636
872.656	14613
872.785	14648
872.915	14739
873.044	14906
873.173	14735
873.303	14941
873.432	14796
873.561	14861
873.69	14830
873.819	14838
873.948	14933
874.077	14811
874.206	14800
874.335	14792
874.464	14910
874.593	15154
874.722	15043
874.851	15081
874.979	15165
875.108	15108
875.237	15005
875.365	14979
875.494	15112
875.623	15112
875.751	15036
875.88	15150
876.008	15264
876.136	15317
876.265	15466
876.393	15618
876.521	15709
876.65	15728
876.778	15625
876.906	15466
877.034	15511
877.162	15488
877.29	15534
877.418	15629
877.546	15545
877.674	15542
877.802	15633
877.93	15603
878.058	15564
878.185	15393
878.313	15622
878.441	15576
878.568	15447
878.696	15504
878.824	15504
878.951	15580
879.079	15713
879.206	15922
879.333	15625
879.461	15515
879.588	15584
879.715	15736
879.842	15778
879.97	15580
880.097	15458
880.224	15336
880.351	15481
880.478	15481
880.605	15405
880.732	15397
880.859	15587
880.986	15481
881.112	15496
881.239	15218
881.366	15199
881.493	15211
881.619	14986
881.746	15032
881.872	15039
881.999	15013
882.125	15001
882.252	15127
882.378	15062
882.505	15256
882.631	15039
882.757	14937
882.883	14914
883.01	14864
883.136	14830
883.262	14644
883.388	14705
883.514	14906
883.64	14902
883.766	14826
883.892	14632
884.018	14765
884.143	14773
884.269	14960
884.395	14678
884.52	14552
884.646	14667
884.772	14518
884.897	14480
885.023	14674
885.148	14727
885.274	14724
885.399	14743
885.524	14537
885.65	14598
885.775	14602
885.9	14613
886.025	14781
886.15	14727
886.275	14579
886.4	14541
886.525	14552
886.65	14598
886.775	14465
886.9	14579
887.025	14842
887.149	14644
887.274	14423
887.399	14404
887.523	14366
887.648	14366
887.773	14362
887.897	14480
888.021	14450
888.146	14377
888.27	14423
888.395	14583
888.519	14454
888.643	14415
888.767	14507
888.891	14278
889.015	14332
889.139	14290
889.263	14153
889.387	14358
889.511	14518
889.635	14347
889.759	14229
889.883	14237
890.006	14377
890.13	14301
890.254	14145
890.377	14225
890.501	14088
890.624	13967
890.748	14123
890.871	14069
890.995	13913
891.118	13864
891.241	13967
891.364	13951
891.488	14138
891.611	13989
891.734	13913
891.857	14073
891.98	14039
892.103	14050
892.226	14088
892.349	13932
892.471	13852
892.594	14012
892.717	13967
892.839	13986
892.962	13993
893.085	13986
893.207	14096
893.33	13860
893.452	13868
893.575	14031
893.697	13974
893.819	14161
893.941	14176
894.064	14157
894.186	13955
894.308	14001
894.43	14126
894.552	14180
894.674	14119
894.796	13955
894.918	14050
895.04	13997
895.161	14092
895.283	14176
895.405	13947
895.526	14077
895.648	14103
895.769	14092
895.891	14187
896.012	14195
896.134	14233
896.255	14130
896.376	14046
896.498	14168
896.619	14130
896.74	14172
896.861	14259
896.982	14457
897.103	14606
897.224	14461
897.345	14381
897.466	14339
897.587	14419
897.708	14514
897.828	14419
897.949	14465
898.07	14305
898.19	14412
898.311	14617
898.431	14415
898.552	14434
898.672	14625
898.792	14663
898.913	14499
899.033	14480
899.153	14389
899.273	14259
899.393	14271
899.513	14358
899.633	14256
899.753	14351
899.873	14320
899.993	14366
900.113	14301
900.232	14324
900.352	14252
900.472	14259
900.591	14206
900.711	14145
900.83	14145
900.95	14366
901.069	14332
901.189	14149
901.308	13936
901.427	13894
901.546	13852
901.665	13978
901.784	13925
901.904	13799
902.023	13738
902.141	13514
902.26	13407
902.379	13483
902.498	13457
902.617	13476
902.735	13460
902.854	13540
902.973	13358
903.091	13232
903.21	13084
903.328	13320
903.446	13065
903.565	13129
903.683	13107
903.801	12962
903.919	12977
904.038	12981
904.156	12852
904.274	12977
904.392	12817
904.51	12776
904.627	12875
904.745	12901
904.863	12859
904.981	12635
905.098	12639
905.216	12528
905.334	12627
905.451	12498
905.569	12532
905.686	12654
905.803	12547
905.921	12403
906.038	12502
906.155	12391
906.272	12228
906.389	12350
906.506	12121
906.623	12136
906.74	12064
906.857	11999
906.974	12076
907.091	12148
907.208	12330
907.324	12152
907.441	12091
907.557	11893
907.674	11855
907.79	11832
907.907	11843
908.023	11965
908.139	11912
908.256	11836
908.372	11840
908.488	11828
908.604	11627
908.72	11512
908.836	11707
908.952	11653
909.068	11646
909.184	11668
909.3	11630
909.415	11726
909.531	11733
909.647	11490
909.762	11459
909.878	11391
909.993	11509
910.108	11410
910.224	11478
910.339	11387
910.454	11303
910.57	11288
910.685	11143
910.8	11509
910.915	11444
911.03	11406
911.145	11124
911.259	11094
911.374	11162
911.489	11056
911.604	11067
911.718	10858
911.833	10919
911.947	10862
912.062	10744
912.176	10854
912.291	10847
912.405	10957
912.519	11056
912.633	11033
912.748	10980
912.862	10972
912.976	10771
913.09	10603
913.204	10672
913.318	10786
913.431	10843
913.545	10858
913.659	10809
913.772	10687
913.886	10702
914	10546
914.113	10748
914.226	10809
914.34	10706
914.453	10603
914.566	10763
914.68	10668
914.793	10565
914.906	10459
915.019	10344
915.132	10310
915.245	10379
915.358	10348
915.47	10474
915.583	10436
915.696	10413
915.809	10588
915.921	10531
916.034	10371
916.146	10379
916.259	10386
916.371	10474
916.483	10398
916.595	10333
916.708	10287
916.82	10341
916.932	10325
917.044	10363
917.156	10257
917.268	10299
917.38	10246
917.491	10192
917.603	10310
917.715	10265
917.826	10291
917.938	10268
918.049	10154
918.161	10284
918.272	10405
918.384	10303
918.495	10230
918.606	10086
918.717	10078
918.828	10105
918.939	10150
919.05	9994
919.161	10105
919.272	9842
919.383	9960
919.494	10200
919.604	10344
919.715	10135
919.826	10067
919.936	10093
920.047	10192
920.157	10181
920.267	10306
920.378	10196
920.488	10105
920.598	10398
920.708	10451
920.818	10329
920.928	10280
921.038	10462
921.148	10424
921.258	10207
921.368	10166
921.477	9953
921.587	9956
921.697	9804
921.806	9983
921.916	9869
922.025	9648
922.134	9656
922.244	9576
922.353	9755
922.462	9576
922.571	9504
922.68	9374
922.789	9355
922.898	9424
923.007	9359
923.116	9412
923.224	9393
923.333	9325
923.442	9279
923.55	9230
923.659	9302
923.767	9386
923.876	9329
923.984	9340
924.092	9192
924.201	9245
924.309	9302
924.417	9230
924.525	9127
924.633	9199
924.741	10173
924.849	9032
924.956	9157
925.064	9066
925.172	8918
925.279	9005
925.387	9093
925.494	9028
925.602	9176
925.709	9001
925.816	8956
925.924	9024
926.031	9131
926.138	9077
926.245	9089
926.352	8960
926.459	9093
926.566	9173
926.673	9085
926.779	9017
926.886	8910
926.993	8773
927.099	8819
927.206	8693
927.312	8716
927.419	8777
927.525	8804
927.631	8739
927.737	8720
927.843	8674
927.95	8590
928.056	8610
928.162	8617
928.267	8708
928.373	9374
928.479	8758
928.585	8552
928.69	8655
928.796	8693
928.901	8526
929.007	8480
929.112	8594
929.218	8583
929.323	8518
929.428	8495
929.533	8590
929.638	8434
929.743	8427
929.848	8438
929.953	8465
930.058	8450
930.163	8195
930.267	8237
930.372	8400
930.477	8259
930.581	8446
930.685	8290
930.79	8183
930.894	8252
930.998	8149
931.103	8324
931.207	8001
931.311	7940
931.415	7830
931.519	7681
931.623	7746
