Data from test_V78500241_2054.txt Node
Date: Fri Mar 25 14:48:00 CST 2022
User: usil
Spectrometer: V785-0024
Trigger mode: 0
Integration Time (sec): 4.000000E-1
Scans to average: 1
Nonlinearity correction enabled: false
Boxcar width: 0
Storing dark spectrum: false
XAxis mode: Wavelengths
Number of Pixels in Spectrum: 1024
>>>>>Begin Spectral Data<<<<<
801.071	22105
801.214	22055
801.356	21720
801.499	21675
801.641	21568
801.783	21545
801.926	21515
802.068	21431
802.211	21469
802.353	21233
802.496	21058
802.638	21001
802.78	20887
802.923	20887
803.065	20743
803.208	20796
803.35	20834
803.492	20902
803.635	20994
803.777	20727
803.919	20880
804.061	21157
804.204	20880
804.346	20834
804.488	20823
804.63	20804
804.773	20564
804.915	20750
805.057	20765
805.199	20708
805.341	20826
805.483	20986
805.626	20937
805.768	20651
805.91	20746
806.052	20750
806.194	20655
806.336	20739
806.478	20678
806.62	20731
806.762	20804
806.904	20872
807.046	21157
807.188	21135
807.33	21161
807.472	21066
807.614	20967
807.756	20921
807.898	20914
808.04	20750
808.182	20765
808.324	20773
808.465	20815
808.607	20906
808.749	20960
808.891	21272
809.033	21245
809.174	21256
809.316	21081
809.458	21112
809.6	21070
809.741	21142
809.883	21157
810.025	21336
810.166	21211
810.308	21195
810.45	21157
810.591	21142
810.733	21062
810.875	20941
811.016	20765
811.158	20781
811.299	20967
811.441	21013
811.582	20944
811.724	20811
811.865	20876
812.007	20826
812.148	20876
812.29	20967
812.431	21085
812.573	21188
812.714	21214
812.855	21351
812.997	21397
813.138	21545
813.279	21439
813.421	21340
813.562	21393
813.703	21116
813.845	21062
813.986	20811
814.127	20613
814.268	20518
814.41	20537
814.551	20454
814.692	20404
814.833	20278
814.974	20278
815.115	20404
815.256	20256
815.397	20362
815.539	20240
815.68	20153
815.821	20126
815.962	20142
816.103	20138
816.244	20031
816.385	19852
816.526	19951
816.666	19746
816.807	19628
816.948	19590
817.089	19677
817.23	19658
817.371	19647
817.512	19624
817.653	19571
817.793	19502
817.934	19559
818.075	19518
818.216	19597
818.356	19445
818.497	19377
818.638	19274
818.778	19244
818.919	19206
819.06	19343
819.2	19419
819.341	19350
819.481	19350
819.622	19628
819.762	19658
819.903	19651
820.043	19521
820.184	19552
820.324	19559
820.465	19613
820.605	19521
820.746	19438
820.886	19400
821.026	19525
821.167	19476
821.307	19487
821.447	19540
821.588	19316
821.728	19232
821.868	19057
822.008	19015
822.149	19072
822.289	19012
822.429	18753
822.569	18631
822.709	18631
822.849	18426
822.99	18433
823.13	18410
823.27	18311
823.41	18224
823.55	18182
823.69	18361
823.83	18273
823.97	18148
824.11	17980
824.25	17996
824.389	18003
824.529	18098
824.669	17920
824.809	18129
824.949	18102
825.089	17992
825.228	18030
825.368	17912
825.508	17840
825.648	17828
825.787	17707
825.927	17878
826.067	17828
826.206	17771
826.346	17866
826.485	17859
826.625	17741
826.765	17885
826.904	17874
827.044	17649
827.183	17630
827.323	17512
827.462	17589
827.601	17459
827.741	17410
827.88	17535
828.02	17353
828.159	17467
828.298	17520
828.437	17497
828.577	17345
828.716	17577
828.855	17269
828.994	17162
829.134	17254
829.273	17284
829.412	17185
829.551	17223
829.69	17265
829.829	17299
829.968	17326
830.107	17353
830.246	17216
830.385	17242
830.524	17102
830.663	17094
830.802	16995
830.941	16744
831.08	16835
831.219	16896
831.357	16915
831.496	17045
831.635	16790
831.774	16828
831.913	16816
832.051	16656
832.19	16748
832.329	16729
832.467	16512
832.606	16451
832.744	16489
832.883	16497
833.022	16527
833.16	16577
833.299	16626
833.437	16577
833.576	16729
833.714	16607
833.852	16664
833.991	16702
834.129	16618
834.267	16588
834.406	16569
834.544	16630
834.682	16558
834.821	16603
834.959	16733
835.097	16489
835.235	16710
835.373	16622
835.511	16649
835.65	16596
835.788	16519
835.926	16356
836.064	16325
836.202	16325
836.34	16615
836.478	16668
836.615	16516
836.753	16626
836.891	16569
837.029	16500
837.167	16523
837.305	16363
837.443	16436
837.58	16322
837.718	16500
837.856	16386
837.993	16329
838.131	16344
838.269	16276
838.406	16322
838.544	16310
838.681	16211
838.819	16078
838.956	15892
839.094	15934
839.231	15937
839.369	16131
839.506	16341
839.643	16196
839.781	16006
839.918	15972
840.055	15930
840.193	15907
840.33	15953
840.467	15991
840.604	15911
840.742	16211
840.879	15778
841.016	15873
841.153	15880
841.29	16082
841.427	15941
841.564	15983
841.701	15983
841.838	15934
841.975	15759
842.112	15846
842.249	15774
842.385	15732
842.522	15838
842.659	15698
842.796	15660
842.933	15675
843.069	15618
843.206	15648
843.343	15774
843.479	15713
843.616	15789
843.752	15523
843.889	15629
844.025	15660
844.162	15473
844.298	15580
844.435	15500
844.571	15496
844.708	15515
844.844	15709
844.98	15663
845.117	15553
845.253	15374
845.389	15408
845.525	15370
845.661	15363
845.798	15306
845.934	15332
846.07	15321
846.206	15294
846.342	15424
846.478	15302
846.614	15173
846.75	15081
846.886	15104
847.022	15260
847.158	15089
847.294	15104
847.429	15112
847.565	15005
847.701	15283
847.837	14914
847.972	14811
848.108	14868
848.244	14842
848.379	14815
848.515	14587
848.65	14583
848.786	14750
848.921	14746
849.057	14826
849.192	14804
849.328	14758
849.463	14697
849.598	14735
849.734	14640
849.869	14564
850.004	14419
850.14	14518
850.275	14438
850.41	14423
850.545	14366
850.68	14370
850.815	14533
850.95	14499
851.085	14556
851.22	14450
851.355	14450
851.49	14358
851.625	14415
851.76	14427
851.895	14412
852.03	14328
852.165	14415
852.299	14408
852.434	14552
852.569	14438
852.703	14560
852.838	14575
852.973	14659
853.107	14571
853.242	14419
853.376	14358
853.511	14214
853.645	14298
853.78	14423
853.914	14408
854.048	14358
854.183	14263
854.317	14374
854.451	14587
854.585	14377
854.72	14278
854.854	14476
854.988	14172
855.122	14309
855.256	14187
855.39	14320
855.524	14476
855.658	14450
855.792	14313
855.926	14396
856.06	14385
856.194	14457
856.327	14374
856.461	14320
856.595	14431
856.729	14278
856.862	14507
856.996	14427
857.13	14431
857.263	14427
857.397	14362
857.53	14347
857.664	14450
857.797	14446
857.931	14484
858.064	14366
858.197	14431
858.331	14328
858.464	14320
858.597	14267
858.731	14370
858.864	14336
858.997	14362
859.13	14434
859.263	14473
859.396	14488
859.529	14339
859.662	14343
859.795	14309
859.928	14419
860.061	14583
860.194	14503
860.327	14370
860.46	14362
860.592	14400
860.725	14495
860.858	14465
860.99	14408
861.123	14275
861.256	14267
861.388	14313
861.521	15142
861.653	14240
861.786	14115
861.918	14244
862.05	14233
862.183	14328
862.315	14309
862.447	14336
862.58	14328
862.712	14088
862.844	14100
862.976	14275
863.108	14180
863.24	14488
863.372	14054
863.504	14130
863.636	14126
863.768	14126
863.9	14138
864.032	13997
864.164	14050
864.296	14142
864.428	14214
864.559	14229
864.691	14221
864.823	14267
864.954	14130
865.086	14111
865.217	14031
865.349	14016
865.48	14157
865.612	14145
865.743	14298
865.875	14183
866.006	14119
866.137	14126
866.269	14142
866.4	14229
866.531	13970
866.662	13974
866.793	14187
866.924	14054
867.055	14157
867.186	14161
867.317	14130
867.448	14058
867.579	14065
867.71	14073
867.841	14031
867.972	14119
868.103	14081
868.233	14096
868.364	14130
868.495	14111
868.625	14396
868.756	14454
868.886	14370
869.017	14408
869.147	14495
869.278	14461
869.408	14381
869.539	14320
869.669	14427
869.799	14404
869.929	14522
870.06	14431
870.19	14701
870.32	14644
870.45	14716
870.58	14735
870.71	14826
870.84	14914
870.97	14720
871.1	14796
871.23	14979
871.36	14910
871.489	14952
871.619	14895
871.749	14971
871.879	14994
872.008	15085
872.138	15013
872.267	14944
872.397	14804
872.526	14830
872.656	14781
872.785	14853
872.915	14929
873.044	15005
873.173	14853
873.303	15058
873.432	15047
873.561	15108
873.69	15043
873.819	15020
873.948	15093
874.077	15043
874.206	14971
874.335	15028
874.464	15081
874.593	15233
874.722	15264
874.851	15344
874.979	15351
875.108	15367
875.237	15294
875.365	15180
875.494	15340
875.623	15382
875.751	15359
875.88	15275
876.008	15492
876.136	15648
876.265	15751
876.393	15865
876.521	15736
876.65	15778
876.778	15793
876.906	15747
877.034	15679
877.162	15743
877.29	15633
877.418	15762
877.546	15800
877.674	15785
877.802	15835
877.93	15785
878.058	15778
878.185	15629
878.313	15713
878.441	15720
878.568	15469
878.696	15622
878.824	15751
878.951	15793
879.079	15888
879.206	15991
879.333	15983
879.461	15705
879.588	15842
879.715	15865
879.842	16017
879.97	15778
880.097	15603
880.224	15496
880.351	15584
880.478	15542
880.605	15504
880.732	15564
880.859	15854
880.986	15542
881.112	15663
881.239	15614
881.366	15443
881.493	15294
881.619	15329
881.746	15260
881.872	15188
881.999	15104
882.125	15173
882.252	15226
882.378	15230
882.505	15428
882.631	15146
882.757	15077
882.883	15154
883.01	15051
883.136	15039
883.262	14921
883.388	14906
883.514	15119
883.64	15135
883.766	15039
883.892	14765
884.018	14948
884.143	15032
884.269	15043
884.395	14800
884.52	14632
884.646	14826
884.772	14689
884.897	14701
885.023	14750
885.148	14819
885.274	14895
885.399	14857
885.524	14765
885.65	14724
885.775	14788
885.9	14674
886.025	14872
886.15	14929
886.275	14716
886.4	14625
886.525	14788
886.65	14754
886.775	14670
886.9	14880
887.025	14910
887.149	14811
887.274	14583
887.399	14473
887.523	14492
887.648	14476
887.773	14480
887.897	14655
888.021	14724
888.146	14587
888.27	14670
888.395	14663
888.519	14610
888.643	14629
888.767	14697
888.891	14556
889.015	14377
889.139	14438
889.263	14400
889.387	14571
889.511	14693
889.635	14511
889.759	14431
889.883	14484
890.006	14442
890.13	14530
890.254	14374
890.377	14419
890.501	14229
890.624	14180
890.748	14366
890.871	14187
890.995	14199
891.118	14126
891.241	14134
891.364	14107
891.488	14199
891.611	14130
891.734	14161
891.857	14130
891.98	14210
892.103	14256
892.226	14233
892.349	14157
892.471	14062
892.594	14088
892.717	14221
892.839	14164
892.962	14050
893.085	14202
893.207	14107
893.33	14005
893.452	14142
893.575	14199
893.697	14161
893.819	14389
893.941	14427
894.064	14263
894.186	14046
894.308	14107
894.43	14225
894.552	14412
894.674	14206
894.796	14134
894.918	14107
895.04	14191
895.161	14244
895.283	14317
895.405	14187
895.526	14263
895.648	14271
895.769	14320
895.891	14271
896.012	14415
896.134	14305
896.255	14374
896.376	14199
896.498	14199
896.619	14343
896.74	14427
896.861	14434
896.982	14651
897.103	14811
897.224	14689
897.345	14636
897.466	14442
897.587	14522
897.708	14724
897.828	14610
897.949	14598
898.07	14522
898.19	14632
898.311	14872
898.431	14674
898.552	14644
898.672	14712
898.792	14674
898.913	14804
899.033	14625
899.153	14541
899.273	14408
899.393	14446
899.513	14473
899.633	14503
899.753	14621
899.873	14484
899.993	14495
900.113	14575
900.232	14488
900.352	14461
900.472	14438
900.591	14339
900.711	14450
900.83	14290
900.95	14492
901.069	14522
901.189	14336
901.308	14050
901.427	14058
901.546	14043
901.665	14050
901.784	14050
901.904	13871
902.023	13894
902.141	13742
902.26	13738
902.379	13681
902.498	13582
902.617	13616
902.735	13609
902.854	13677
902.973	13521
903.091	13381
903.21	13415
903.328	13282
903.446	13274
903.565	13190
903.683	13240
903.801	13095
903.919	13217
904.038	13206
904.156	12943
904.274	13012
904.392	12977
904.51	12973
904.627	13008
904.745	13034
904.863	12977
904.981	12741
905.098	12654
905.216	12719
905.334	12802
905.451	12700
905.569	12658
905.686	12711
905.803	12696
905.921	12479
906.038	12608
906.155	12513
906.272	12422
906.389	12471
906.506	12277
906.623	12273
906.74	12239
906.857	12121
906.974	12262
907.091	12334
907.208	12395
907.324	12376
907.441	12201
907.557	11984
907.674	12049
907.79	11980
907.907	12053
908.023	12098
908.139	12083
908.256	11946
908.372	12030
908.488	11977
908.604	11882
908.72	11824
908.836	11882
908.952	11733
909.068	11783
909.184	11927
909.3	11824
909.415	11863
909.531	11851
909.647	11577
909.762	11577
909.878	11509
909.993	11600
910.108	11471
910.224	11539
910.339	11551
910.454	11551
910.57	11421
910.685	11322
910.8	11592
910.915	11520
911.03	11471
911.145	11242
911.259	11254
911.374	11250
911.489	11227
911.604	11227
911.718	11048
911.833	10984
911.947	10900
912.062	10930
912.176	11003
912.291	11071
912.405	11117
912.519	11246
912.633	11223
912.748	11117
912.862	11045
912.976	10850
913.09	10767
913.204	10877
913.318	10858
913.431	10961
913.545	10957
913.659	11045
913.772	10873
913.886	10778
914	10862
914.113	10984
914.226	10904
914.34	10892
914.453	10694
914.566	10850
914.68	10698
914.793	10664
914.906	10565
915.019	10443
915.132	10432
915.245	10554
915.358	10538
915.47	10561
915.583	10512
915.696	10577
915.809	10618
915.921	10634
916.034	10535
916.146	10436
916.259	10417
916.371	10542
916.483	10573
916.595	10421
916.708	10424
916.82	10527
916.932	10436
917.044	10440
917.156	10428
917.268	10280
917.38	10291
917.491	10306
917.603	10356
917.715	10413
917.826	10371
917.938	10398
918.049	10173
918.161	10375
918.272	10500
918.384	10500
918.495	10409
918.606	10341
918.717	10131
918.828	10287
918.939	10310
919.05	10185
919.161	10128
919.272	10040
919.383	10055
919.494	10295
919.604	10542
919.715	10295
919.826	10204
919.936	10284
920.047	10344
920.157	10375
920.267	10527
920.378	10291
920.488	10295
920.598	10470
920.708	10630
920.818	10390
920.928	10390
921.038	10607
921.148	10550
921.258	10276
921.368	10272
921.477	10166
921.587	10086
921.697	10040
921.806	10154
921.916	10029
922.025	9835
922.134	9865
922.244	9778
922.353	9880
922.462	9755
922.571	9698
922.68	9580
922.789	9481
922.898	9542
923.007	9428
923.116	9599
923.224	9507
923.333	9519
923.442	9408
923.55	9431
923.659	9443
923.767	9545
923.876	9348
923.984	9500
924.092	9420
924.201	9492
924.309	9382
924.417	9412
924.525	9359
924.633	9348
924.741	10333
924.849	9157
924.956	9310
925.064	9135
925.172	9131
925.279	9161
925.387	9222
925.494	9154
925.602	9351
925.709	9275
925.816	9081
925.924	9093
926.031	9241
926.138	9173
926.245	9222
926.352	9081
926.459	9283
926.566	9230
926.673	9150
926.779	9005
926.886	9062
926.993	8963
927.099	8910
927.206	8880
927.312	8830
927.419	8944
927.525	8956
927.631	8937
927.737	8800
927.843	8838
927.95	8743
928.056	8845
928.162	8819
928.267	8895
928.373	9462
928.479	8845
928.585	8648
928.69	8807
928.796	8849
928.901	8743
929.007	8617
929.112	8727
929.218	8689
929.323	8590
929.428	8537
929.533	8735
929.638	8507
929.743	8560
929.848	8659
929.953	8598
930.058	8541
930.163	8366
930.267	8450
930.372	8495
930.477	8351
930.581	8636
930.685	8450
930.79	8233
930.894	8286
930.998	8328
931.103	8419
931.207	8115
931.311	8031
931.415	8001
931.519	7837
931.623	7837
