Data from test_V78500241_3310.txt Node
Date: Fri Mar 25 14:56:45 CST 2022
User: usil
Spectrometer: V785-0024
Trigger mode: 0
Integration Time (sec): 4.000000E-1
Scans to average: 1
Nonlinearity correction enabled: false
Boxcar width: 0
Storing dark spectrum: false
XAxis mode: Wavelengths
Number of Pixels in Spectrum: 1024
>>>>>Begin Spectral Data<<<<<
801.071	22051
801.214	21876
801.356	21591
801.499	21549
801.641	21405
801.783	21340
801.926	21393
802.068	21340
802.211	21287
802.353	21116
802.496	20921
802.638	20906
802.78	20788
802.923	20632
803.065	20632
803.208	20674
803.35	20693
803.492	20872
803.635	20819
803.777	20693
803.919	20883
804.061	21074
804.204	20663
804.346	20648
804.488	20708
804.63	20583
804.773	20545
804.915	20644
805.057	20602
805.199	20560
805.341	20640
805.483	20720
805.626	20579
805.768	20511
805.91	20670
806.052	20621
806.194	20461
806.336	20636
806.478	20663
806.62	20465
806.762	20606
806.904	20861
807.046	21036
807.188	20861
807.33	20880
807.472	20834
807.614	20861
807.756	20864
807.898	20720
808.04	20712
808.182	20670
808.324	20762
808.465	20590
808.607	20765
808.749	20975
808.891	21058
809.033	21043
809.174	20975
809.316	20925
809.458	20918
809.6	20864
809.741	20918
809.883	21066
810.025	21013
810.166	21146
810.308	20986
810.45	20994
810.591	20990
810.733	20876
810.875	20701
811.016	20587
811.158	20621
811.299	20769
811.441	20773
811.582	20834
811.724	20640
811.865	20545
812.007	20648
812.148	20712
812.29	20758
812.431	20971
812.573	20990
812.714	21135
812.855	21138
812.997	21249
813.138	21488
813.279	21260
813.421	21180
813.562	21131
813.703	20986
813.845	20788
813.986	20617
814.127	20339
814.268	20385
814.41	20317
814.551	20134
814.692	20317
814.833	20237
814.974	20237
815.115	20221
815.256	20096
815.397	20145
815.539	20096
815.68	19970
815.821	20054
815.962	19997
816.103	20035
816.244	19917
816.385	19708
816.526	19784
816.666	19491
816.807	19285
816.948	19415
817.089	19521
817.23	19343
817.371	19346
817.512	19312
817.653	19392
817.793	19369
817.934	19304
818.075	19354
818.216	19377
818.356	19396
818.497	19232
818.638	19057
818.778	19137
818.919	19141
819.06	19065
819.2	19232
819.341	19187
819.481	19251
819.622	19354
819.762	19655
819.903	19533
820.043	19540
820.184	19365
820.324	19308
820.465	19422
820.605	19316
820.746	19369
820.886	19221
821.026	19282
821.167	19297
821.307	19308
821.447	19400
821.588	19221
821.728	19160
821.868	18932
822.008	18795
822.149	18776
822.289	18734
822.429	18536
822.569	18460
822.709	18532
822.849	18323
822.99	18281
823.13	18239
823.27	18239
823.41	18045
823.55	17969
823.69	18129
823.83	18091
823.97	17885
824.11	17942
824.25	17760
824.389	17771
824.529	17980
824.669	17836
824.809	18003
824.949	17984
825.089	18045
825.228	17927
825.368	17756
825.508	17684
825.648	17695
825.787	17783
825.927	17680
826.067	17577
826.206	17646
826.346	17733
826.485	17665
826.625	17642
826.765	17691
826.904	17577
827.044	17395
827.183	17440
827.323	17292
827.462	17349
827.601	17277
827.741	17372
827.88	17349
828.02	17162
828.159	17258
828.298	17277
828.437	17452
828.577	17326
828.716	17512
828.855	17318
828.994	17170
829.134	17124
829.273	17140
829.412	17079
829.551	17025
829.69	17086
829.829	17117
829.968	17216
830.107	17193
830.246	17132
830.385	17083
830.524	17102
830.663	16942
830.802	16790
830.941	16637
831.08	16691
831.219	16805
831.357	16725
831.496	16938
831.635	16736
831.774	16637
831.913	16672
832.051	16455
832.19	16424
832.329	16508
832.467	16459
832.606	16173
832.744	16535
832.883	16310
833.022	16413
833.16	16314
833.299	16451
833.437	16405
833.576	16348
833.714	16348
833.852	16440
833.991	16516
834.129	16592
834.267	16466
834.406	16466
834.544	16497
834.682	16386
834.821	16531
834.959	16596
835.097	16398
835.235	16615
835.373	16459
835.511	16497
835.65	16455
835.788	16341
835.926	16177
836.064	16207
836.202	16219
836.34	16447
836.478	16394
836.615	16348
836.753	16413
836.891	16512
837.029	16398
837.167	16333
837.305	16299
837.443	16272
837.58	16158
837.718	16265
837.856	16310
837.993	16162
838.131	16295
838.269	16147
838.406	16177
838.544	16124
838.681	16002
838.819	15915
838.956	15869
839.094	15781
839.231	15960
839.369	15994
839.506	16329
839.643	16051
839.781	15861
839.918	15751
840.055	15842
840.193	15774
840.33	15789
840.467	15667
840.604	15857
840.742	15960
840.879	15660
841.016	15679
841.153	15686
841.29	15838
841.427	15823
841.564	15907
841.701	15781
841.838	15789
841.975	15709
842.112	15694
842.249	15610
842.385	15606
842.522	15743
842.659	15652
842.796	15644
842.933	15663
843.069	15485
843.206	15530
843.343	15641
843.479	15587
843.616	15580
843.752	15405
843.889	15351
844.025	15412
844.162	15363
844.298	15431
844.435	15192
844.571	15405
844.708	15431
844.844	15595
844.98	15481
845.117	15386
845.253	15374
845.389	15195
845.525	15188
845.661	15256
845.798	15214
845.934	15211
846.07	15146
846.206	15252
846.342	15279
846.478	15104
846.614	14937
846.75	14941
846.886	14937
847.022	14952
847.158	14975
847.294	15036
847.429	14979
847.565	14967
847.701	15256
847.837	14648
847.972	14583
848.108	14758
848.244	14864
848.379	14560
848.515	14583
848.65	14480
848.786	14594
848.921	14560
849.057	14644
849.192	14617
849.328	14594
849.463	14617
849.598	14522
849.734	14583
849.869	14423
850.004	14389
850.14	14362
850.275	14393
850.41	14233
850.545	14301
850.68	14233
850.815	14324
850.95	14351
851.085	14495
851.22	14389
851.355	14275
851.49	14256
851.625	14317
851.76	14271
851.895	14195
852.03	14313
852.165	14358
852.299	14256
852.434	14457
852.569	14362
852.703	14252
852.838	14320
852.973	14579
853.107	14408
853.242	14244
853.376	14115
853.511	14164
853.645	14172
853.78	14252
853.914	14172
854.048	14035
854.183	14199
854.317	14324
854.451	14336
854.585	14229
854.72	14138
854.854	14210
854.988	14138
855.122	14180
855.256	14020
855.39	14111
855.524	14126
855.658	14233
855.792	14088
855.926	14153
856.06	14214
856.194	14275
856.327	14229
856.461	14096
856.595	14145
856.729	14088
856.862	14259
856.996	14138
857.13	14286
857.263	14199
857.397	14225
857.53	14332
857.664	14301
857.797	14278
857.931	14221
858.064	14172
858.197	14244
858.331	14111
858.464	14164
858.597	14008
858.731	14214
858.864	14180
858.997	14180
859.13	14290
859.263	14191
859.396	14244
859.529	14180
859.662	14221
859.795	14164
859.928	14176
860.061	14244
860.194	14309
860.327	14233
860.46	14168
860.592	14358
860.725	14336
860.858	14176
860.99	14103
861.123	14115
861.256	14119
861.388	14183
861.521	14990
861.653	14119
861.786	14039
861.918	14073
862.05	14161
862.183	14168
862.315	14233
862.447	14233
862.58	14191
862.712	13917
862.844	13913
862.976	14084
863.108	14031
863.24	14328
863.372	14016
863.504	13917
863.636	13928
863.768	13970
863.9	13982
864.032	13940
864.164	13986
864.296	14001
864.428	14149
864.559	14065
864.691	13982
864.823	14001
864.954	13993
865.086	14008
865.217	13982
865.349	13883
865.48	13890
865.612	14043
865.743	14096
865.875	13963
866.006	13902
866.137	14016
866.269	13944
866.4	13974
866.531	13818
866.662	13902
866.793	13879
866.924	13970
867.055	13989
867.186	13947
867.317	14008
867.448	13894
867.579	13947
867.71	13841
867.841	13799
867.972	14005
868.103	13944
868.233	14031
868.364	14035
868.495	13963
868.625	14191
868.756	14290
868.886	14035
869.017	14164
869.147	14358
869.278	14351
869.408	14153
869.539	14195
869.669	14362
869.799	14142
869.929	14336
870.06	14366
870.19	14621
870.32	14511
870.45	14594
870.58	14610
870.71	14697
870.84	14720
870.97	14575
871.1	14575
871.23	14868
871.36	14842
871.489	14678
871.619	14708
871.749	14788
871.879	14785
872.008	14887
872.138	14811
872.267	14819
872.397	14629
872.526	14701
872.656	14617
872.785	14701
872.915	14910
873.044	14963
873.173	14823
873.303	14804
873.432	14952
873.561	14929
873.69	14807
873.819	14849
873.948	14887
874.077	14914
874.206	14807
874.335	14956
874.464	14937
874.593	15131
874.722	15036
874.851	15214
874.979	15264
875.108	15226
875.237	15127
875.365	15009
875.494	15173
875.623	15283
875.751	15161
875.88	15256
876.008	15370
876.136	15313
876.265	15603
876.393	15690
876.521	15743
876.65	15603
876.778	15515
876.906	15660
877.034	15450
877.162	15564
877.29	15507
877.418	15682
877.546	15637
877.674	15542
877.802	15545
877.93	15606
878.058	15507
878.185	15606
878.313	15614
878.441	15477
878.568	15378
878.696	15557
878.824	15637
878.951	15663
879.079	15709
879.206	15876
879.333	15797
879.461	15698
879.588	15690
879.715	15759
879.842	15869
879.97	15720
880.097	15504
880.224	15428
880.351	15389
880.478	15439
880.605	15348
880.732	15515
880.859	15629
880.986	15492
881.112	15488
881.239	15245
881.366	15226
881.493	15195
881.619	15066
881.746	15036
881.872	15211
881.999	14967
882.125	15024
882.252	15058
882.378	15176
882.505	15188
882.631	15085
882.757	14880
882.883	14986
883.01	14887
883.136	14807
883.262	14830
883.388	14739
883.514	14929
883.64	14864
883.766	14876
883.892	14727
884.018	14826
884.143	14937
884.269	14952
884.395	14644
884.52	14530
884.646	14625
884.772	14571
884.897	14545
885.023	14651
885.148	14613
885.274	14743
885.399	14682
885.524	14655
885.65	14579
885.775	14587
885.9	14549
886.025	14663
886.15	14689
886.275	14629
886.4	14560
886.525	14587
886.65	14552
886.775	14625
886.9	14705
887.025	14895
887.149	14632
887.274	14446
887.399	14412
887.523	14355
887.648	14351
887.773	14320
887.897	14473
888.021	14541
888.146	14473
888.27	14522
888.395	14610
888.519	14381
888.643	14533
888.767	14552
888.891	14343
889.015	14271
889.139	14396
889.263	14221
889.387	14484
889.511	14560
889.635	14473
889.759	14240
889.883	14290
890.006	14431
890.13	14408
890.254	14294
890.377	14214
890.501	14172
890.624	14100
890.748	14111
890.871	14054
890.995	13963
891.118	13940
891.241	13921
891.364	13993
891.488	14115
891.611	13989
891.734	13978
891.857	14065
891.98	14027
892.103	14126
892.226	14024
892.349	14012
892.471	13883
892.594	14020
892.717	14020
892.839	14008
892.962	14008
893.085	14065
893.207	13974
893.33	13791
893.452	13898
893.575	14046
893.697	14088
893.819	14206
893.941	14172
894.064	14142
894.186	13959
894.308	14005
894.43	14138
894.552	14145
894.674	14157
894.796	14081
894.918	14008
895.04	13989
895.161	14183
895.283	14130
895.405	14073
895.526	14191
895.648	14100
895.769	14168
895.891	14084
896.012	14256
896.134	14123
896.255	14084
896.376	14172
896.498	14161
896.619	14161
896.74	14183
896.861	14210
896.982	14560
897.103	14602
897.224	14465
897.345	14469
897.466	14324
897.587	14339
897.708	14659
897.828	14545
897.949	14389
898.07	14404
898.19	14465
898.311	14602
898.431	14522
898.552	14526
898.672	14625
898.792	14594
898.913	14530
899.033	14434
899.153	14415
899.273	14389
899.393	14301
899.513	14454
899.633	14351
899.753	14412
899.873	14381
899.993	14408
900.113	14370
900.232	14317
900.352	14454
900.472	14358
900.591	14164
900.711	14294
900.83	14183
900.95	14332
901.069	14412
901.189	14142
901.308	14016
901.427	13913
901.546	13807
901.665	13909
901.784	13951
901.904	13784
902.023	13765
902.141	13586
902.26	13487
902.379	13514
902.498	13438
902.617	13415
902.735	13514
902.854	13518
902.973	13381
903.091	13228
903.21	13263
903.328	13251
903.446	13183
903.565	13061
903.683	13103
903.801	12966
903.919	13069
904.038	13046
904.156	12924
904.274	12958
904.392	12909
904.51	12928
904.627	12905
904.745	12886
904.863	12935
904.981	12734
905.098	12585
905.216	12582
905.334	12669
905.451	12544
905.569	12627
905.686	12566
905.803	12604
905.921	12334
906.038	12532
906.155	12464
906.272	12327
906.389	12281
906.506	12186
906.623	12213
906.74	12175
906.857	12015
906.974	12072
907.091	12228
907.208	12266
907.324	12213
907.441	12095
907.557	11958
907.674	11939
907.79	11901
907.907	11885
908.023	11828
908.139	11840
908.256	11931
908.372	11786
908.488	11859
908.604	11710
908.72	11657
908.836	11726
908.952	11672
909.068	11695
909.184	11802
909.3	11676
909.415	11775
909.531	11707
909.647	11497
909.762	11387
909.878	11429
909.993	11436
910.108	11448
910.224	11398
910.339	11417
910.454	11383
910.57	11330
910.685	11185
910.8	11520
910.915	11341
911.03	11303
911.145	11117
911.259	11197
911.374	11079
911.489	11071
911.604	10987
911.718	10980
911.833	10919
911.947	10820
912.062	10824
912.176	10869
912.291	10919
912.405	11014
912.519	11128
912.633	11193
912.748	10984
912.862	10957
912.976	10809
913.09	10694
913.204	10767
913.318	10771
913.431	10866
913.545	10900
913.659	10896
913.772	10782
913.886	10698
914	10641
914.113	10733
914.226	10797
914.34	10759
914.453	10622
914.566	10752
914.68	10561
914.793	10584
914.906	10421
915.019	10421
915.132	10257
915.245	10390
915.358	10428
915.47	10474
915.583	10440
915.696	10402
915.809	10493
915.921	10546
916.034	10455
916.146	10428
916.259	10318
916.371	10470
916.483	10405
916.595	10268
916.708	10325
916.82	10352
916.932	10325
917.044	10348
917.156	10318
917.268	10234
917.38	10261
917.491	10280
917.603	10238
917.715	10295
917.826	10337
917.938	10242
918.049	10105
918.161	10306
918.272	10390
918.384	10341
918.495	10284
918.606	10105
918.717	10078
918.828	10147
918.939	10227
919.05	10067
919.161	10036
919.272	9915
919.383	10082
919.494	10204
919.604	10325
919.715	10128
919.826	9991
919.936	10116
920.047	10166
920.157	10181
920.267	10371
920.378	10150
920.488	10086
920.598	10352
920.708	10466
920.818	10386
920.928	10295
921.038	10478
921.148	10523
921.258	10139
921.368	10063
921.477	9972
921.587	9941
921.697	9819
921.806	10044
921.916	9991
922.025	9778
922.134	9671
922.244	9656
922.353	9770
922.462	9629
922.571	9561
922.68	9351
922.789	9317
922.898	9408
923.007	9294
923.116	9393
923.224	9462
923.333	9405
923.442	9245
923.55	9253
923.659	9313
923.767	9329
923.876	9230
923.984	9313
924.092	9192
924.201	9256
924.309	9306
924.417	9192
924.525	9199
924.633	9230
924.741	10188
924.849	9123
924.956	9192
925.064	9028
925.172	9036
925.279	8990
925.387	9001
925.494	9108
925.602	9218
925.709	9131
925.816	8944
925.924	8998
926.031	9173
926.138	9119
926.245	9157
926.352	8986
926.459	9176
926.566	9203
926.673	9013
926.779	8982
926.886	8929
926.993	8826
927.099	8815
927.206	8667
927.312	8716
927.419	8861
927.525	8823
927.631	8853
927.737	8667
927.843	8815
927.95	8484
928.056	8598
928.162	8655
928.267	8689
928.373	9351
928.479	8731
928.585	8526
928.69	8686
928.796	8731
928.901	8537
929.007	8404
929.112	8640
929.218	8575
929.323	8461
929.428	8484
929.533	8644
929.638	8400
929.743	8408
929.848	8556
929.953	8511
930.058	8374
930.163	8233
930.267	8279
930.372	8385
930.477	8183
930.581	8404
930.685	8347
930.79	8202
930.894	8313
930.998	8191
931.103	8408
931.207	7997
931.311	7944
931.415	7856
931.519	7693
931.623	7765
