Data from test_V78500241_995.txt Node
Date: Fri Mar 25 14:40:38 CST 2022
User: usil
Spectrometer: V785-0024
Trigger mode: 0
Integration Time (sec): 4.000000E-1
Scans to average: 1
Nonlinearity correction enabled: false
Boxcar width: 0
Storing dark spectrum: false
XAxis mode: Wavelengths
Number of Pixels in Spectrum: 1024
>>>>>Begin Spectral Data<<<<<
801.071	23132
801.214	23079
801.356	22911
801.499	22710
801.641	22516
801.783	22371
801.926	22512
802.068	22474
802.211	22352
802.353	22379
802.496	22013
802.638	22044
802.78	21968
802.923	21869
803.065	21835
803.208	21915
803.35	21823
803.492	21895
803.635	21922
803.777	21865
803.919	21979
804.061	22177
804.204	21937
804.346	21781
804.488	21622
804.63	21732
804.773	21682
804.915	21816
805.057	22032
805.199	21747
805.341	21857
805.483	21953
805.626	21827
805.768	21728
805.91	21770
806.052	21812
806.194	21671
806.336	21911
806.478	21835
806.62	21880
806.762	21983
806.904	22143
807.046	22398
807.188	22390
807.33	22230
807.472	22287
807.614	22234
807.756	22306
807.898	22356
808.04	22470
808.182	22577
808.324	22660
808.465	22873
808.607	23170
808.749	23474
808.891	23512
809.033	23627
809.174	23509
809.316	23273
809.458	23010
809.6	22858
809.741	22835
809.883	22508
810.025	22721
810.166	22649
810.308	22637
810.45	22577
810.591	22462
810.733	22261
810.875	22242
811.016	22051
811.158	21975
811.299	22093
811.441	22249
811.582	22185
811.724	22013
811.865	21918
812.007	21956
812.148	22013
812.29	22192
812.431	22128
812.573	22303
812.714	22516
812.855	22618
812.997	22626
813.138	22790
813.279	22588
813.421	22531
813.562	22375
813.703	22382
813.845	22261
813.986	21892
814.127	21717
814.268	21660
814.41	21595
814.551	21469
814.692	21660
814.833	21526
814.974	21504
815.115	21587
815.256	21507
815.397	21401
815.539	21416
815.68	21321
815.821	21138
815.962	21348
816.103	21294
816.244	21062
816.385	20944
816.526	20982
816.666	20990
816.807	20769
816.948	20781
817.089	20838
817.23	20857
817.371	20590
817.512	20667
817.653	20648
817.793	20708
817.934	20705
818.075	20754
818.216	20792
818.356	20602
818.497	20434
818.638	20347
818.778	20393
818.919	20423
819.06	20377
819.2	20503
819.341	20484
819.481	20511
819.622	20705
819.762	20967
819.903	20781
820.043	20705
820.184	20636
820.324	20720
820.465	20769
820.605	20705
820.746	20735
820.886	20503
821.026	20644
821.167	20609
821.307	20689
821.447	20663
821.588	20549
821.728	20377
821.868	20271
822.008	20031
822.149	19982
822.289	20062
822.429	19822
822.569	19772
822.709	19799
822.849	19624
822.99	19556
823.13	19468
823.27	19514
823.41	19354
823.55	19289
823.69	19388
823.83	19411
823.97	19354
824.11	19171
824.25	19156
824.389	19069
824.529	19206
824.669	19061
824.809	19343
824.949	19202
825.089	19194
825.228	19164
825.368	18932
825.508	18875
825.648	18954
825.787	19000
825.927	19000
826.067	18814
826.206	18962
826.346	18977
826.485	18913
826.625	18966
826.765	18928
826.904	18901
827.044	18715
827.183	18738
827.323	18566
827.462	18620
827.601	18623
827.741	18551
827.88	18631
828.02	18502
828.159	18616
828.298	18536
828.437	18798
828.577	18578
828.716	18738
828.855	18513
828.994	18346
829.134	18369
829.273	18418
829.412	18353
829.551	18285
829.69	18369
829.829	18266
829.968	18475
830.107	18342
830.246	18319
830.385	18285
830.524	18194
830.663	18232
830.802	18038
830.941	17874
831.08	17958
831.219	17984
831.357	18098
831.496	18148
831.635	17878
831.774	17920
831.913	17798
832.051	17840
832.19	17657
832.329	17809
832.467	17589
832.606	17581
832.744	17638
832.883	17665
833.022	17619
833.16	17699
833.299	17649
833.437	17703
833.576	17737
833.714	17600
833.852	17691
833.991	17832
834.129	17832
834.267	17821
834.406	17630
834.544	17779
834.682	17805
834.821	17699
834.959	17874
835.097	17634
835.235	17676
835.373	17665
835.511	17809
835.65	17512
835.788	17619
835.926	17455
836.064	17425
836.202	17425
836.34	17608
836.478	17646
836.615	17524
836.753	17611
836.891	17570
837.029	17604
837.167	17482
837.305	17410
837.443	17459
837.58	17326
837.718	17547
837.856	17444
837.993	17376
838.131	17474
838.269	17353
838.406	17299
838.544	17159
838.681	17143
838.819	17064
838.956	16934
839.094	17003
839.231	16995
839.369	17113
839.506	17322
839.643	17261
839.781	16908
839.918	16946
840.055	16984
840.193	16968
840.33	16896
840.467	16904
840.604	16892
840.742	17273
840.879	16767
841.016	16896
841.153	16881
841.29	17018
841.427	17006
841.564	16900
841.701	16915
841.838	16858
841.975	16866
842.112	16824
842.249	16721
842.385	16603
842.522	16858
842.659	16744
842.796	16687
842.933	16729
843.069	16626
843.206	16713
843.343	16733
843.479	16675
843.616	16710
843.752	16516
843.889	16466
844.025	16672
844.162	16413
844.298	16561
844.435	16550
844.571	16618
844.708	16592
844.844	16755
844.98	16782
845.117	16542
845.253	16580
845.389	16607
845.525	16854
845.661	17174
845.798	17436
845.934	17684
846.07	17828
846.206	17813
846.342	17691
846.478	17216
846.614	16717
846.75	16447
846.886	16261
847.022	16322
847.158	16211
847.294	16200
847.429	16044
847.565	16010
847.701	16398
847.837	15895
847.972	15766
848.108	15827
848.244	15812
848.379	15690
848.515	15610
848.65	15610
848.786	15587
848.921	15629
849.057	15682
849.192	15686
849.328	15633
849.463	15637
849.598	15675
849.734	15599
849.869	15492
850.004	15450
850.14	15412
850.275	15359
850.41	15233
850.545	15386
850.68	15332
850.815	15462
850.95	15325
851.085	15576
851.22	15542
851.355	15420
851.49	15298
851.625	15355
851.76	15389
851.895	15260
852.03	15203
852.165	15393
852.299	15428
852.434	15443
852.569	15363
852.703	15443
852.838	15515
852.973	15545
853.107	15439
853.242	15454
853.376	15294
853.511	15249
853.645	15230
853.78	15408
853.914	15287
854.048	15260
854.183	15283
854.317	15165
854.451	15439
854.585	15207
854.72	15272
854.854	15393
854.988	15131
855.122	15142
855.256	15127
855.39	15325
855.524	15241
855.658	15321
855.792	15363
855.926	15218
856.06	15279
856.194	15279
856.327	15230
856.461	15279
856.595	15188
856.729	15222
856.862	15310
856.996	15332
857.13	15348
857.263	15306
857.397	15317
857.53	15165
857.664	15386
857.797	15378
857.931	15348
858.064	15363
858.197	15363
858.331	15241
858.464	15100
858.597	15142
858.731	15233
858.864	15226
858.997	15249
859.13	15252
859.263	15298
859.396	15367
859.529	15150
859.662	15268
859.795	15184
859.928	15287
860.061	15458
860.194	15363
860.327	15199
860.46	15211
860.592	15325
860.725	15378
860.858	15317
860.99	15146
861.123	15241
861.256	15176
861.388	15264
861.521	15899
861.653	15199
861.786	14944
861.918	15154
862.05	15176
862.183	15142
862.315	15302
862.447	15199
862.58	15184
862.712	14960
862.844	14971
862.976	15039
863.108	15093
863.24	15500
863.372	14986
863.504	15028
863.636	15005
863.768	15043
863.9	15032
864.032	14891
864.164	14918
864.296	15005
864.428	15066
864.559	15055
864.691	15192
864.823	15116
864.954	15112
865.086	14956
865.217	14967
865.349	14853
865.48	14948
865.612	14921
865.743	15077
865.875	14925
866.006	14941
866.137	15058
866.269	14967
866.4	14899
866.531	14929
866.662	14880
866.793	14891
866.924	14975
867.055	14960
867.186	14849
867.317	14982
867.448	14937
867.579	14933
867.71	14975
867.841	14868
867.972	14861
868.103	14948
868.233	14979
868.364	14975
868.495	15104
868.625	15233
868.756	15173
868.886	15165
869.017	15252
869.147	15348
869.278	15260
869.408	15291
869.539	15317
869.669	15317
869.799	15199
869.929	15287
870.06	15283
870.19	15496
870.32	15500
870.45	15576
870.58	15557
870.71	15656
870.84	15739
870.97	15553
871.1	15553
871.23	15762
871.36	15751
871.489	15808
871.619	15747
871.749	15804
871.879	15797
872.008	15994
872.138	15838
872.267	15793
872.397	15694
872.526	15610
872.656	15629
872.785	15698
872.915	15831
873.044	15915
873.173	15854
873.303	15819
873.432	15915
873.561	15960
873.69	15899
873.819	15884
873.948	15907
874.077	15911
874.206	15819
874.335	15819
874.464	16071
874.593	16128
874.722	16074
874.851	16166
874.979	16322
875.108	16181
875.237	16086
875.365	16200
875.494	16192
875.623	16306
875.751	16071
875.88	16249
876.008	16409
876.136	16379
876.265	16603
876.393	16687
876.521	16637
876.65	16649
876.778	16622
876.906	16660
877.034	16668
877.162	16493
877.29	16683
877.418	16577
877.546	16687
877.674	16596
877.802	16622
877.93	16637
878.058	16622
878.185	16573
878.313	16672
878.441	16691
878.568	16630
878.696	16687
878.824	16847
878.951	16900
879.079	17246
879.206	17345
879.333	17318
879.461	17406
879.588	17440
879.715	17589
879.842	17596
879.97	17288
880.097	16911
880.224	16873
880.351	16797
880.478	16702
880.605	16668
880.732	16599
880.859	16904
880.986	16729
881.112	16569
881.239	16588
881.366	16386
881.493	16341
881.619	16276
881.746	16265
881.872	16390
881.999	16181
882.125	16276
882.252	16443
882.378	16348
882.505	16428
882.631	16329
882.757	16105
882.883	16196
883.01	16150
883.136	16055
883.262	15937
883.388	15861
883.514	16185
883.64	16173
883.766	16006
883.892	15998
884.018	16055
884.143	16074
884.269	16173
884.395	15911
884.52	15762
884.646	15751
884.772	15667
884.897	15690
885.023	15838
885.148	15941
885.274	15918
885.399	15945
885.524	15660
885.65	15705
885.775	15823
885.9	15823
886.025	15701
886.15	15823
886.275	15720
886.4	15633
886.525	15732
886.65	15572
886.775	15682
886.9	15842
887.025	15899
887.149	15675
887.274	15488
887.399	15515
887.523	15507
887.648	15412
887.773	15420
887.897	15538
888.021	15652
888.146	15450
888.27	15576
888.395	15568
888.519	15591
888.643	15561
888.767	15435
888.891	15378
889.015	15298
889.139	15325
889.263	15272
889.387	15454
889.511	15618
889.635	15572
889.759	15302
889.883	15291
890.006	15298
890.13	15310
890.254	15214
890.377	15287
890.501	15119
890.624	15070
890.748	15184
890.871	15112
890.995	14956
891.118	14967
891.241	14982
891.364	15001
891.488	15055
891.611	14941
891.734	15039
891.857	15100
891.98	14918
892.103	15066
892.226	14971
892.349	14967
892.471	14739
892.594	14914
892.717	14948
892.839	15013
892.962	14967
893.085	14990
893.207	14929
893.33	14861
893.452	14830
893.575	15036
893.697	14918
893.819	15020
893.941	15081
894.064	15081
894.186	14990
894.308	14800
894.43	15074
894.552	15051
894.674	15074
894.796	14876
894.918	14960
895.04	14998
895.161	15005
895.283	15028
895.405	14960
895.526	15005
895.648	15070
895.769	15176
895.891	15100
896.012	15150
896.134	15028
896.255	15165
896.376	14960
896.498	15043
896.619	15165
896.74	15100
896.861	15116
896.982	15454
897.103	15568
897.224	15363
897.345	15256
897.466	15230
897.587	15393
897.708	15458
897.828	15408
897.949	15382
898.07	15207
898.19	15416
898.311	15523
898.431	15370
898.552	15336
898.672	15458
898.792	15530
898.913	15431
899.033	15245
899.153	15275
899.273	15081
899.393	15287
899.513	15306
899.633	15283
899.753	15367
899.873	15241
899.993	15329
900.113	15169
900.232	15268
900.352	15268
900.472	15154
900.591	15001
900.711	15195
900.83	15150
900.95	15313
901.069	15180
901.189	15066
901.308	14914
901.427	14807
901.546	14762
901.665	14800
901.784	14823
901.904	14674
902.023	14560
902.141	14278
902.26	14339
902.379	14423
902.498	14389
902.617	14400
902.735	14332
902.854	14374
902.973	14240
903.091	13974
903.21	14126
903.328	14027
903.446	13967
903.565	13894
903.683	13913
903.801	13693
903.919	13894
904.038	13830
904.156	13746
904.274	13788
904.392	13734
904.51	13704
904.627	13582
904.745	13734
904.863	13731
904.981	13460
905.098	13407
905.216	13400
905.334	13396
905.451	13350
905.569	13316
905.686	13377
905.803	13377
905.921	13217
906.038	13240
906.155	13145
906.272	13213
906.389	13031
906.506	12905
906.623	12897
906.74	12970
906.857	12863
906.974	12810
907.091	12989
907.208	13160
907.324	12951
907.441	12871
907.557	12730
907.674	12669
907.79	12658
907.907	12658
908.023	12700
908.139	12665
908.256	12559
908.372	12544
908.488	12570
908.604	12407
908.72	12460
908.836	12410
908.952	12330
909.068	12441
909.184	12525
909.3	12403
909.415	12422
909.531	12315
909.647	12220
909.762	12190
909.878	12087
909.993	12163
910.108	12190
910.224	12098
910.339	12186
910.454	12129
910.57	12026
910.685	11969
910.8	12285
910.915	12175
911.03	12076
911.145	11813
911.259	11954
911.374	11931
911.489	11733
911.604	11729
911.718	11592
911.833	11558
911.947	11611
912.062	11471
912.176	11566
912.291	11630
912.405	11551
912.519	11756
912.633	11783
912.748	11661
912.862	11634
912.976	11497
913.09	11414
913.204	11334
913.318	11455
913.431	11581
913.545	11615
913.659	11657
913.772	11486
913.886	11406
914	11341
914.113	11360
914.226	11547
914.34	11406
914.453	11261
914.566	11501
914.68	11353
914.793	11376
914.906	11140
915.019	11151
915.132	11003
915.245	11124
915.358	11090
915.47	11170
915.583	11121
915.696	11117
915.809	11212
915.921	11277
916.034	11067
916.146	11094
916.259	11006
916.371	11208
916.483	11124
916.595	11022
916.708	11052
916.82	11102
916.932	11006
917.044	11018
917.156	11003
917.268	10885
917.38	10915
917.491	10995
917.603	10946
917.715	11056
917.826	11029
917.938	10915
918.049	10752
918.161	10896
918.272	10999
918.384	11014
918.495	10930
918.606	10805
918.717	10793
918.828	10759
918.939	10797
919.05	10683
919.161	10862
919.272	10599
919.383	10687
919.494	10904
919.604	11006
919.715	10847
919.826	10740
919.936	10763
920.047	10854
920.157	10782
920.267	10995
920.378	10839
920.488	10786
920.598	11022
920.708	11124
920.818	10900
920.928	10976
921.038	11113
921.148	11113
921.258	10755
921.368	10782
921.477	10744
921.587	10573
921.697	10531
921.806	10748
921.916	10554
922.025	10299
922.134	10291
922.244	10329
922.353	10447
922.462	10230
922.571	10192
922.68	10074
922.789	9968
922.898	10025
923.007	10025
923.116	10051
923.224	9979
923.333	9983
923.442	9884
923.55	9888
923.659	9915
923.767	10006
923.876	9857
923.984	9907
924.092	9865
924.201	9793
924.309	9915
924.417	9854
924.525	9846
924.633	9804
924.741	10805
924.849	9614
924.956	9793
925.064	9762
925.172	9542
925.279	9644
925.387	9603
925.494	9622
925.602	9770
925.709	9705
925.816	9564
925.924	9622
926.031	9705
926.138	9622
926.245	9682
926.352	9515
926.459	9698
926.566	9743
926.673	9603
926.779	9534
926.886	9439
926.993	9450
927.099	9275
927.206	9230
927.312	9306
927.419	9450
927.525	9283
927.631	9389
927.737	9291
927.843	9184
927.95	9108
928.056	9214
928.162	9237
928.267	9298
928.373	9774
928.479	9329
928.585	9104
928.69	9245
928.796	9226
928.901	9077
929.007	9013
929.112	9146
929.218	9055
929.323	9066
929.428	9028
929.533	9207
929.638	8956
929.743	8925
929.848	9047
929.953	8979
930.058	8952
930.163	8815
930.267	8807
930.372	8975
930.477	8823
930.581	9013
930.685	8842
930.79	8796
930.894	8716
930.998	8720
931.103	8834
931.207	8541
931.311	8480
931.415	8347
931.519	8244
931.623	8244
