Data from test_V78500241_3161.txt Node
Date: Fri Mar 25 14:55:43 CST 2022
User: usil
Spectrometer: V785-0024
Trigger mode: 0
Integration Time (sec): 4.000000E-1
Scans to average: 1
Nonlinearity correction enabled: false
Boxcar width: 0
Storing dark spectrum: false
XAxis mode: Wavelengths
Number of Pixels in Spectrum: 1024
>>>>>Begin Spectral Data<<<<<
801.071	21918
801.214	21998
801.356	21816
801.499	21679
801.641	21485
801.783	21420
801.926	21504
802.068	21355
802.211	21306
802.353	21199
802.496	20963
802.638	20902
802.78	20914
802.923	20861
803.065	20727
803.208	20785
803.35	20800
803.492	20887
803.635	20830
803.777	20781
803.919	20807
804.061	21062
804.204	20830
804.346	20701
804.488	20663
804.63	20590
804.773	20682
804.915	20712
805.057	20754
805.199	20731
805.341	20689
805.483	20845
805.626	20693
805.768	20579
805.91	20636
806.052	20743
806.194	20549
806.336	20834
806.478	20659
806.62	20613
806.762	20758
806.904	20826
807.046	21096
807.188	21058
807.33	21024
807.472	21032
807.614	20937
807.756	20937
807.898	20857
808.04	20796
808.182	20667
808.324	20663
808.465	20845
808.607	21032
808.749	21169
808.891	21020
809.033	21203
809.174	20998
809.316	20990
809.458	20944
809.6	21062
809.741	21176
809.883	21112
810.025	21184
810.166	21233
810.308	21104
810.45	21047
810.591	20963
810.733	20956
810.875	20819
811.016	20796
811.158	20655
811.299	20918
811.441	20849
811.582	20979
811.724	20834
811.865	20891
812.007	20826
812.148	20826
812.29	20792
812.431	20948
812.573	21055
812.714	21188
812.855	21237
812.997	21302
813.138	21599
813.279	21302
813.421	21306
813.562	21344
813.703	21055
813.845	20998
813.986	20648
814.127	20495
814.268	20434
814.41	20377
814.551	20339
814.692	20473
814.833	20332
814.974	20275
815.115	20278
815.256	20233
815.397	20149
815.539	20244
815.68	20180
815.821	19921
815.962	20027
816.103	20027
816.244	19890
816.385	19883
816.526	19807
816.666	19571
816.807	19502
816.948	19655
817.089	19681
817.23	19521
817.371	19415
817.512	19400
817.653	19476
817.793	19400
817.934	19441
818.075	19453
818.216	19441
818.356	19293
818.497	19426
818.638	19198
818.778	19091
818.919	19145
819.06	19160
819.2	19255
819.341	19324
819.481	19362
819.622	19445
819.762	19769
819.903	19559
820.043	19480
820.184	19537
820.324	19324
820.465	19613
820.605	19571
820.746	19476
820.886	19206
821.026	19293
821.167	19438
821.307	19491
821.447	19308
821.588	19255
821.728	19088
821.868	18966
822.008	18848
822.149	18837
822.289	18856
822.429	18722
822.569	18589
822.709	18665
822.849	18441
822.99	18357
823.13	18323
823.27	18247
823.41	18190
823.55	18064
823.69	18220
823.83	18216
823.97	17992
824.11	17916
824.25	17942
824.389	17954
824.529	17984
824.669	18045
824.809	18011
824.949	17843
825.089	17901
825.228	17923
825.368	17752
825.508	17687
825.648	17866
825.787	17752
825.927	17805
826.067	17657
826.206	17687
826.346	17672
826.485	17775
826.625	17714
826.765	17904
826.904	17805
827.044	17486
827.183	17455
827.323	17410
827.462	17493
827.601	17364
827.741	17364
827.88	17410
828.02	17315
828.159	17345
828.298	17379
828.437	17471
828.577	17345
828.716	17490
828.855	17299
828.994	17155
829.134	17155
829.273	17284
829.412	16930
829.551	17136
829.69	17109
829.829	17162
829.968	17189
830.107	17185
830.246	17151
830.385	17037
830.524	16953
830.663	17003
830.802	16908
830.941	16793
831.08	16645
831.219	16858
831.357	16862
831.496	16972
831.635	16797
831.774	16592
831.913	16611
832.051	16573
832.19	16470
832.329	16565
832.467	16451
832.606	16379
832.744	16363
832.883	16329
833.022	16375
833.16	16432
833.299	16489
833.437	16394
833.576	16470
833.714	16402
833.852	16516
833.991	16470
834.129	16558
834.267	16596
834.406	16527
834.544	16523
834.682	16493
834.821	16561
834.959	16645
835.097	16466
835.235	16599
835.373	16554
835.511	16596
835.65	16390
835.788	16303
835.926	16188
836.064	16188
836.202	16314
836.34	16451
836.478	16558
836.615	16398
836.753	16481
836.891	16485
837.029	16363
837.167	16329
837.305	16287
837.443	16253
837.58	16200
837.718	16325
837.856	16261
837.993	16143
838.131	16150
838.269	16226
838.406	16268
838.544	16063
838.681	15983
838.819	15918
838.956	15793
839.094	15804
839.231	15781
839.369	15945
839.506	16162
839.643	16078
839.781	15861
839.918	15819
840.055	15816
840.193	15762
840.33	15770
840.467	15903
840.604	15747
840.742	15934
840.879	15728
841.016	15713
841.153	15675
841.29	15876
841.427	15762
841.564	15846
841.701	15888
841.838	15797
841.975	15720
842.112	15728
842.249	15641
842.385	15526
842.522	15861
842.659	15572
842.796	15477
842.933	15663
843.069	15530
843.206	15595
843.343	15587
843.479	15561
843.616	15542
843.752	15488
843.889	15310
844.025	15477
844.162	15325
844.298	15561
844.435	15389
844.571	15428
844.708	15507
844.844	15439
844.98	15481
845.117	15496
845.253	15393
845.389	15272
845.525	15291
845.661	15283
845.798	15108
845.934	15195
846.07	15089
846.206	15195
846.342	15283
846.478	15184
846.614	14998
846.75	14891
846.886	14834
847.022	15074
847.158	14979
847.294	14883
847.429	14967
847.565	14857
847.701	15161
847.837	14674
847.972	14697
848.108	14701
848.244	14785
848.379	14606
848.515	14522
848.65	14583
848.786	14613
848.921	14552
849.057	14655
849.192	14678
849.328	14556
849.463	14541
849.598	14415
849.734	14495
849.869	14446
850.004	14313
850.14	14336
850.275	14343
850.41	14259
850.545	14237
850.68	14256
850.815	14233
850.95	14237
851.085	14412
851.22	14446
851.355	14305
851.49	14324
851.625	14195
851.76	14206
851.895	14187
852.03	14263
852.165	14343
852.299	14278
852.434	14324
852.569	14347
852.703	14351
852.838	14332
852.973	14549
853.107	14438
853.242	14248
853.376	14142
853.511	14016
853.645	14168
853.78	14347
853.914	14172
854.048	14153
854.183	14073
854.317	14180
854.451	14282
854.585	14199
854.72	14153
854.854	14286
854.988	14107
855.122	14153
855.256	14016
855.39	14134
855.524	14313
855.658	14199
855.792	14206
855.926	14256
856.06	14210
856.194	14240
856.327	14130
856.461	14134
856.595	14096
856.729	14183
856.862	14298
856.996	14248
857.13	14202
857.263	14336
857.397	14351
857.53	14176
857.664	14237
857.797	14256
857.931	14263
858.064	14301
858.197	14324
858.331	14164
858.464	14077
858.597	14005
858.731	14202
858.864	14263
858.997	14259
859.13	14187
859.263	14218
859.396	14267
859.529	14111
859.662	14210
859.795	14221
859.928	14225
860.061	14271
860.194	14408
860.327	14199
860.46	14248
860.592	14267
860.725	14366
860.858	14267
860.99	14119
861.123	14073
861.256	14206
861.388	14221
861.521	14838
861.653	14145
861.786	13982
861.918	14046
862.05	14062
862.183	14054
862.315	14130
862.447	14237
862.58	14103
862.712	13906
862.844	13928
862.976	14039
863.108	14100
863.24	14244
863.372	13951
863.504	13864
863.636	13997
863.768	14069
863.9	13963
864.032	13955
864.164	14008
864.296	14024
864.428	14008
864.559	14100
864.691	14149
864.823	14016
864.954	14050
865.086	13909
865.217	13974
865.349	13833
865.48	13860
865.612	14008
865.743	14062
865.875	13928
866.006	13925
866.137	13951
866.269	13917
866.4	13894
866.531	13864
866.662	13883
866.793	13875
866.924	13883
867.055	13936
867.186	13909
867.317	13925
867.448	13833
867.579	13860
867.71	13883
867.841	13909
867.972	14012
868.103	13890
868.233	13917
868.364	13887
868.495	13989
868.625	14107
868.756	14294
868.886	14077
869.017	14142
869.147	14339
869.278	14374
869.408	14218
869.539	14237
869.669	14355
869.799	14183
869.929	14431
870.06	14286
870.19	14476
870.32	14537
870.45	14473
870.58	14644
870.71	14575
870.84	14636
870.97	14610
871.1	14552
871.23	14849
871.36	14773
871.489	14815
871.619	14777
871.749	14750
871.879	14762
872.008	14895
872.138	14857
872.267	14792
872.397	14651
872.526	14678
872.656	14598
872.785	14610
872.915	14773
873.044	14819
873.173	14876
873.303	14872
873.432	14804
873.561	14899
873.69	14830
873.819	14933
873.948	14887
874.077	14876
874.206	14868
874.335	14883
874.464	14982
874.593	15154
874.722	15127
874.851	15195
874.979	15127
875.108	15195
875.237	15051
875.365	15135
875.494	15154
875.623	15256
875.751	15135
875.88	15188
876.008	15367
876.136	15538
876.265	15622
876.393	15720
876.521	15641
876.65	15644
876.778	15679
876.906	15538
877.034	15542
877.162	15504
877.29	15485
877.418	15584
877.546	15644
877.674	15595
877.802	15564
877.93	15622
878.058	15507
878.185	15488
878.313	15603
878.441	15561
878.568	15496
878.696	15454
878.824	15622
878.951	15671
879.079	15720
879.206	15930
879.333	15728
879.461	15660
879.588	15739
879.715	15755
879.842	15949
879.97	15800
880.097	15439
880.224	15435
880.351	15454
880.478	15504
880.605	15420
880.732	15412
880.859	15675
880.986	15359
881.112	15435
881.239	15233
881.366	15237
881.493	15127
881.619	15123
881.746	15085
881.872	15100
881.999	14967
882.125	14998
882.252	15108
882.378	15123
882.505	15188
882.631	14994
882.757	14929
882.883	14956
883.01	14921
883.136	14849
883.262	14781
883.388	14762
883.514	14937
883.64	14906
883.766	14914
883.892	14731
884.018	14792
884.143	14804
884.269	14982
884.395	14640
884.52	14583
884.646	14621
884.772	14610
884.897	14590
885.023	14629
885.148	14834
885.274	14705
885.399	14705
885.524	14602
885.65	14564
885.775	14606
885.9	14564
886.025	14686
886.15	14579
886.275	14514
886.4	14438
886.525	14579
886.65	14522
886.775	14571
886.9	14762
887.025	14739
887.149	14579
887.274	14545
887.399	14442
887.523	14495
887.648	14377
887.773	14457
887.897	14469
888.021	14492
888.146	14381
888.27	14526
888.395	14613
888.519	14507
888.643	14507
888.767	14579
888.891	14427
889.015	14351
889.139	14358
889.263	14336
889.387	14355
889.511	14526
889.635	14396
889.759	14210
889.883	14313
890.006	14290
890.13	14374
890.254	14240
890.377	14278
890.501	14100
890.624	14164
890.748	14183
890.871	14107
890.995	13940
891.118	13913
891.241	13967
891.364	13993
891.488	14138
891.611	13989
891.734	13925
891.857	14107
891.98	14092
892.103	14149
892.226	14020
892.349	14081
892.471	13871
892.594	13967
892.717	14077
892.839	14062
892.962	14039
893.085	14039
893.207	14050
893.33	13898
893.452	14016
893.575	14145
893.697	14001
893.819	14149
893.941	14328
894.064	14206
894.186	13986
894.308	14005
894.43	14180
894.552	14157
894.674	14161
894.796	14016
894.918	14001
895.04	14062
895.161	14134
895.283	14149
895.405	13993
895.526	14100
895.648	14149
895.769	14176
895.891	14183
896.012	14290
896.134	14183
896.255	14142
896.376	14138
896.498	14142
896.619	14225
896.74	14172
896.861	14263
896.982	14571
897.103	14655
897.224	14412
897.345	14457
897.466	14427
897.587	14473
897.708	14640
897.828	14446
897.949	14461
898.07	14362
898.19	14522
898.311	14549
898.431	14560
898.552	14541
898.672	14705
898.792	14651
898.913	14621
899.033	14446
899.153	14450
899.273	14271
899.393	14377
899.513	14351
899.633	14518
899.753	14446
899.873	14339
899.993	14377
900.113	14408
900.232	14495
900.352	14396
900.472	14389
900.591	14301
900.711	14199
900.83	14267
900.95	14358
901.069	14347
901.189	14199
901.308	13947
901.427	14005
901.546	13894
901.665	14050
901.784	13967
901.904	13833
902.023	13761
902.141	13559
902.26	13468
902.379	13616
902.498	13582
902.617	13495
902.735	13567
902.854	13502
902.973	13434
903.091	13206
903.21	13175
903.328	13228
903.446	13183
903.565	13095
903.683	13069
903.801	12954
903.919	13038
904.038	12993
904.156	12966
904.274	13008
904.392	12894
904.51	12935
904.627	12783
904.745	12894
904.863	12973
904.981	12726
905.098	12547
905.216	12681
905.334	12582
905.451	12597
905.569	12551
905.686	12646
905.803	12593
905.921	12346
906.038	12498
906.155	12342
906.272	12304
906.389	12365
906.506	12144
906.623	12163
906.74	12209
906.857	12053
906.974	12060
907.091	12228
907.208	12308
907.324	12235
907.441	12220
907.557	11961
907.674	11935
907.79	11878
907.907	11977
908.023	11965
908.139	11946
908.256	11817
908.372	11840
908.488	11824
908.604	11802
908.72	11623
908.836	11684
908.952	11661
909.068	11722
909.184	11764
909.3	11703
909.415	11798
909.531	11680
909.647	11490
909.762	11539
909.878	11372
909.993	11493
910.108	11440
910.224	11406
910.339	11417
910.454	11391
910.57	11299
910.685	11242
910.8	11501
910.915	11406
911.03	11235
911.145	11086
911.259	11117
911.374	11193
911.489	11170
911.604	11025
911.718	10911
911.833	10923
911.947	10866
912.062	10812
912.176	10839
912.291	10934
912.405	10850
912.519	11083
912.633	11067
912.748	10965
912.862	10900
912.976	10759
913.09	10710
913.204	10782
913.318	10847
913.431	10927
913.545	10927
913.659	10889
913.772	10790
913.886	10611
914	10656
914.113	10843
914.226	10820
914.34	10672
914.453	10577
914.566	10778
914.68	10637
914.793	10660
914.906	10493
915.019	10367
915.132	10352
915.245	10409
915.358	10455
915.47	10409
915.583	10348
915.696	10481
915.809	10596
915.921	10607
916.034	10375
916.146	10367
916.259	10325
916.371	10497
916.483	10440
916.595	10318
916.708	10447
916.82	10329
916.932	10382
917.044	10341
917.156	10325
917.268	10234
917.38	10265
917.491	10166
917.603	10253
917.715	10379
917.826	10238
917.938	10230
918.049	10139
918.161	10367
918.272	10428
918.384	10417
918.495	10291
918.606	10188
918.717	10090
918.828	10139
918.939	10112
919.05	10112
919.161	10112
919.272	9960
919.383	9987
919.494	10287
919.604	10363
919.715	10124
919.826	10086
919.936	10154
920.047	10211
920.157	10158
920.267	10333
920.378	10154
920.488	10158
920.598	10306
920.708	10421
920.818	10295
920.928	10333
921.038	10531
921.148	10455
921.258	10185
921.368	10074
921.477	10097
921.587	9998
921.697	9892
921.806	10032
921.916	9903
922.025	9728
922.134	9705
922.244	9625
922.353	9743
922.462	9652
922.571	9504
922.68	9401
922.789	9412
922.898	9420
923.007	9408
923.116	9458
923.224	9401
923.333	9378
923.442	9294
923.55	9237
923.659	9332
923.767	9389
923.876	9218
923.984	9374
924.092	9272
924.201	9283
924.309	9298
924.417	9302
924.525	9249
924.633	9230
924.741	10143
924.849	9032
924.956	9195
925.064	9039
925.172	8952
925.279	9017
925.387	9119
925.494	9131
925.602	9310
925.709	9131
925.816	9047
925.924	9077
926.031	9135
926.138	9055
926.245	9135
926.352	9017
926.459	9138
926.566	9192
926.673	9055
926.779	8902
926.886	8883
926.993	8845
927.099	8769
927.206	8720
927.312	8705
927.419	8811
927.525	8796
927.631	8853
927.737	8636
927.843	8670
927.95	8530
928.056	8659
928.162	8686
928.267	8750
928.373	9264
928.479	8826
928.585	8549
928.69	8670
928.796	8693
928.901	8617
929.007	8575
929.112	8606
929.218	8583
929.323	8469
929.428	8454
929.533	8678
929.638	8461
929.743	8442
929.848	8526
929.953	8480
930.058	8396
930.163	8286
930.267	8305
930.372	8438
930.477	8202
930.581	8511
930.685	8362
930.79	8240
930.894	8240
930.998	8221
931.103	8271
931.207	7997
931.311	7993
931.415	7906
931.519	7731
931.623	7738
