Data from test_V78500241_2580.txt Node
Date: Fri Mar 25 14:51:40 CST 2022
User: usil
Spectrometer: V785-0024
Trigger mode: 0
Integration Time (sec): 4.000000E-1
Scans to average: 1
Nonlinearity correction enabled: false
Boxcar width: 0
Storing dark spectrum: false
XAxis mode: Wavelengths
Number of Pixels in Spectrum: 1024
>>>>>Begin Spectral Data<<<<<
801.071	22051
801.214	22036
801.356	21679
801.499	21561
801.641	21523
801.783	21313
801.926	21485
802.068	21344
802.211	21294
802.353	21081
802.496	20998
802.638	20925
802.78	20910
802.923	20735
803.065	20773
803.208	20731
803.35	20792
803.492	20815
803.635	20948
803.777	20701
803.919	20777
804.061	21047
804.204	20731
804.346	20689
804.488	20670
804.63	20648
804.773	20602
804.915	20625
805.057	20705
805.199	20518
805.341	20796
805.483	20807
805.626	20693
805.768	20587
805.91	20697
806.052	20594
806.194	20552
806.336	20720
806.478	20636
806.62	20617
806.762	20712
806.904	20705
807.046	21047
807.188	21020
807.33	20982
807.472	20975
807.614	20883
807.756	20838
807.898	20887
808.04	20678
808.182	20667
808.324	20807
808.465	20731
808.607	20819
808.749	21009
808.891	21123
809.033	21100
809.174	21085
809.316	20914
809.458	21032
809.6	21116
809.741	21123
809.883	21096
810.025	21142
810.166	21157
810.308	21218
810.45	21043
810.591	20941
810.733	20948
810.875	20941
811.016	20594
811.158	20724
811.299	20868
811.441	20807
811.582	20781
811.724	20697
811.865	20712
812.007	20781
812.148	20834
812.29	20716
812.431	20979
812.573	21051
812.714	21237
812.855	21260
812.997	21332
813.138	21492
813.279	21458
813.421	21233
813.562	21157
813.703	21028
813.845	20910
813.986	20621
814.127	20377
814.268	20434
814.41	20366
814.551	20221
814.692	20328
814.833	20259
814.974	20187
815.115	20339
815.256	20229
815.397	20115
815.539	20180
815.68	20092
815.821	19986
815.962	20020
816.103	19955
816.244	19887
816.385	19970
816.526	19784
816.666	19609
816.807	19400
816.948	19552
817.089	19525
817.23	19597
817.371	19521
817.512	19438
817.653	19476
817.793	19377
817.934	19422
818.075	19495
818.216	19396
818.356	19457
818.497	19118
818.638	19160
818.778	19110
818.919	19152
819.06	19179
819.2	19274
819.341	19354
819.481	19312
819.622	19533
819.762	19780
819.903	19514
820.043	19472
820.184	19438
820.324	19434
820.465	19468
820.605	19460
820.746	19308
820.886	19240
821.026	19434
821.167	19506
821.307	19533
821.447	19354
821.588	19362
821.728	19209
821.868	19031
822.008	18768
822.149	18901
822.289	18871
822.429	18578
822.569	18490
822.709	18483
822.849	18369
822.99	18376
823.13	18350
823.27	18273
823.41	18224
823.55	18076
823.69	18220
823.83	18197
823.97	18136
824.11	18038
824.25	18060
824.389	17942
824.529	18098
824.669	17973
824.809	18076
824.949	18011
825.089	17969
825.228	17912
825.368	17714
825.508	17733
825.648	17756
825.787	17855
825.927	17741
826.067	17672
826.206	17672
826.346	17863
826.485	17760
826.625	17779
826.765	17863
826.904	17805
827.044	17490
827.183	17486
827.323	17372
827.462	17482
827.601	17486
827.741	17406
827.88	17429
828.02	17349
828.159	17315
828.298	17440
828.437	17444
828.577	17356
828.716	17406
828.855	17391
828.994	17239
829.134	17151
829.273	17193
829.412	17140
829.551	17136
829.69	17113
829.829	17151
829.968	17242
830.107	17200
830.246	17174
830.385	17124
830.524	17048
830.663	17041
830.802	16984
830.941	16835
831.08	16645
831.219	16877
831.357	16816
831.496	17067
831.635	16896
831.774	16725
831.913	16618
832.051	16538
832.19	16577
832.329	16603
832.467	16580
832.606	16481
832.744	16485
832.883	16478
833.022	16436
833.16	16516
833.299	16432
833.437	16508
833.576	16478
833.714	16584
833.852	16626
833.991	16664
834.129	16637
834.267	16565
834.406	16538
834.544	16565
834.682	16626
834.821	16679
834.959	16656
835.097	16592
835.235	16607
835.373	16512
835.511	16561
835.65	16485
835.788	16443
835.926	16280
836.064	16238
836.202	16318
836.34	16500
836.478	16516
836.615	16436
836.753	16432
836.891	16634
837.029	16424
837.167	16413
837.305	16500
837.443	16325
837.58	16333
837.718	16432
837.856	16348
837.993	16226
838.131	16405
838.269	16303
838.406	16280
838.544	16166
838.681	16040
838.819	15987
838.956	15876
839.094	15842
839.231	15842
839.369	15991
839.506	16261
839.643	16040
839.781	16006
839.918	15869
840.055	15941
840.193	15823
840.33	15861
840.467	15789
840.604	15915
840.742	16158
840.879	15770
841.016	15759
841.153	15869
841.29	15972
841.427	15930
841.564	15937
841.701	15915
841.838	15793
841.975	15762
842.112	15819
842.249	15652
842.385	15584
842.522	15838
842.659	15698
842.796	15610
842.933	15701
843.069	15576
843.206	15610
843.343	15720
843.479	15789
843.616	15637
843.752	15469
843.889	15462
844.025	15633
844.162	15401
844.298	15572
844.435	15393
844.571	15321
844.708	15447
844.844	15545
844.98	15656
845.117	15530
845.253	15450
845.389	15283
845.525	15401
845.661	15378
845.798	15260
845.934	15298
846.07	15211
846.206	15313
846.342	15500
846.478	15226
846.614	15047
846.75	14971
846.886	15013
847.022	14979
847.158	14990
847.294	15066
847.429	15036
847.565	14918
847.701	15294
847.837	14819
847.972	14807
848.108	14853
848.244	14781
848.379	14689
848.515	14583
848.65	14454
848.786	14610
848.921	14708
849.057	14724
849.192	14682
849.328	14552
849.463	14708
849.598	14625
849.734	14526
849.869	14476
850.004	14389
850.14	14499
850.275	14431
850.41	14336
850.545	14374
850.68	14370
850.815	14385
850.95	14438
851.085	14590
851.22	14465
851.355	14343
851.49	14362
851.625	14317
851.76	14309
851.895	14305
852.03	14343
852.165	14396
852.299	14423
852.434	14549
852.569	14488
852.703	14389
852.838	14518
852.973	14503
853.107	14503
853.242	14423
853.376	14355
853.511	14256
853.645	14199
853.78	14408
853.914	14328
854.048	14180
854.183	14259
854.317	14271
854.451	14343
854.585	14206
854.72	14103
854.854	14355
854.988	14183
855.122	14218
855.256	14153
855.39	14218
855.524	14309
855.658	14396
855.792	14233
855.926	14358
856.06	14309
856.194	14415
856.327	14309
856.461	14278
856.595	14240
856.729	14278
856.862	14370
856.996	14374
857.13	14343
857.263	14400
857.397	14355
857.53	14355
857.664	14305
857.797	14351
857.931	14362
858.064	14347
858.197	14442
858.331	14252
858.464	14240
858.597	14115
858.731	14248
858.864	14172
858.997	14187
859.13	14244
859.263	14263
859.396	14286
859.529	14225
859.662	14298
859.795	14282
859.928	14202
860.061	14454
860.194	14347
860.327	14370
860.46	14256
860.592	14385
860.725	14374
860.858	14385
860.99	14267
861.123	14248
861.256	14084
861.388	14339
861.521	14819
861.653	14111
861.786	14081
861.918	14157
862.05	14092
862.183	14210
862.315	14142
862.447	14305
862.58	14229
862.712	14001
862.844	13986
862.976	14149
863.108	14043
863.24	14469
863.372	13917
863.504	14081
863.636	14050
863.768	14039
863.9	14024
864.032	13955
864.164	13940
864.296	14077
864.428	14183
864.559	14077
864.691	14142
864.823	14088
864.954	14100
865.086	14081
865.217	14050
865.349	13997
865.48	13963
865.612	14027
865.743	14237
865.875	14149
866.006	14050
866.137	14092
866.269	14069
866.4	14016
866.531	14027
866.662	13986
866.793	14039
866.924	14012
867.055	13997
867.186	13982
867.317	13890
867.448	13970
867.579	13940
867.71	13989
867.841	13947
867.972	13894
868.103	13997
868.233	14062
868.364	14035
868.495	14100
868.625	14199
868.756	14431
868.886	14202
869.017	14134
869.147	14393
869.278	14415
869.408	14248
869.539	14343
869.669	14305
869.799	14259
869.929	14393
870.06	14320
870.19	14598
870.32	14552
870.45	14659
870.58	14697
870.71	14686
870.84	14754
870.97	14663
871.1	14621
871.23	14937
871.36	14838
871.489	14739
871.619	14868
871.749	14838
871.879	14960
872.008	15005
872.138	14918
872.267	14796
872.397	14712
872.526	14648
872.656	14640
872.785	14739
872.915	14906
873.044	15062
873.173	14979
873.303	14986
873.432	14990
873.561	15013
873.69	14933
873.819	14872
873.948	15066
874.077	15051
874.206	14952
874.335	14956
874.464	15047
874.593	15192
874.722	15207
874.851	15321
874.979	15306
875.108	15287
875.237	15176
875.365	15173
875.494	15157
875.623	15260
875.751	15146
875.88	15211
876.008	15367
876.136	15424
876.265	15656
876.393	15762
876.521	15694
876.65	15690
876.778	15759
876.906	15545
877.034	15625
877.162	15667
877.29	15564
877.418	15739
877.546	15652
877.674	15675
877.802	15705
877.93	15564
878.058	15549
878.185	15496
878.313	15618
878.441	15538
878.568	15458
878.696	15622
878.824	15785
878.951	15774
879.079	15873
879.206	15972
879.333	15785
879.461	15679
879.588	15728
879.715	15857
879.842	15895
879.97	15694
880.097	15519
880.224	15469
880.351	15473
880.478	15542
880.605	15485
880.732	15526
880.859	15656
880.986	15564
881.112	15557
881.239	15367
881.366	15237
881.493	15279
881.619	15146
881.746	15093
881.872	15150
881.999	15070
882.125	15127
882.252	15264
882.378	15260
882.505	15306
882.631	15123
882.757	14952
882.883	14998
883.01	14967
883.136	14952
883.262	14906
883.388	14883
883.514	14994
883.64	15020
883.766	14914
883.892	14800
884.018	14864
884.143	14960
884.269	14982
884.395	14826
884.52	14632
884.646	14682
884.772	14670
884.897	14530
885.023	14598
885.148	14750
885.274	14883
885.399	14845
885.524	14640
885.65	14693
885.775	14720
885.9	14621
886.025	14804
886.15	14758
886.275	14674
886.4	14549
886.525	14655
886.65	14587
886.775	14674
886.9	14887
887.025	14952
887.149	14762
887.274	14594
887.399	14499
887.523	14419
887.648	14476
887.773	14396
887.897	14667
888.021	14621
888.146	14480
888.27	14678
888.395	14617
888.519	14511
888.643	14564
888.767	14667
888.891	14450
889.015	14256
889.139	14385
889.263	14324
889.387	14393
889.511	14514
889.635	14484
889.759	14336
889.883	14355
890.006	14434
890.13	14476
890.254	14275
890.377	14324
890.501	14153
890.624	14119
890.748	14210
890.871	14088
890.995	13986
891.118	13986
891.241	14050
891.364	14001
891.488	14180
891.611	13978
891.734	14084
891.857	14149
891.98	14031
892.103	14172
892.226	14065
892.349	13967
892.471	13883
892.594	14058
892.717	14134
892.839	13963
892.962	13997
893.085	14119
893.207	14092
893.33	14005
893.452	13925
893.575	14054
893.697	14123
893.819	14176
893.941	14240
894.064	14206
894.186	14172
894.308	14100
894.43	14256
894.552	14294
894.674	14290
894.796	14001
894.918	14100
895.04	14168
895.161	14195
895.283	14107
895.405	14126
895.526	14088
895.648	14096
895.769	14240
895.891	14252
896.012	14309
896.134	14263
896.255	14225
896.376	14183
896.498	14313
896.619	14362
896.74	14187
896.861	14332
896.982	14545
897.103	14697
897.224	14511
897.345	14522
897.466	14480
897.587	14446
897.708	14648
897.828	14507
897.949	14415
898.07	14400
898.19	14469
898.311	14655
898.431	14503
898.552	14499
898.672	14568
898.792	14598
898.913	14708
899.033	14473
899.153	14522
899.273	14343
899.393	14381
899.513	14511
899.633	14522
899.753	14507
899.873	14366
899.993	14511
900.113	14507
900.232	14518
900.352	14404
900.472	14347
900.591	14240
900.711	14252
900.83	14271
900.95	14427
901.069	14476
901.189	14187
901.308	14065
901.427	13944
901.546	14058
901.665	14031
901.784	13970
901.904	13883
902.023	13765
902.141	13559
902.26	13571
902.379	13628
902.498	13525
902.617	13415
902.735	13582
902.854	13537
902.973	13396
903.091	13304
903.21	13339
903.328	13346
903.446	13179
903.565	13152
903.683	13149
903.801	13110
903.919	13114
904.038	13012
904.156	13000
904.274	13034
904.392	12886
904.51	12958
904.627	12996
904.745	13034
904.863	13034
904.981	12825
905.098	12669
905.216	12665
905.334	12703
905.451	12589
905.569	12574
905.686	12662
905.803	12589
905.921	12410
906.038	12517
906.155	12486
906.272	12311
906.389	12403
906.506	12205
906.623	12216
906.74	12182
906.857	12125
906.974	12114
907.091	12251
907.208	12376
907.324	12254
907.441	12114
907.557	11969
907.674	11999
907.79	11885
907.907	12030
908.023	11969
908.139	11920
908.256	11946
908.372	11863
908.488	11897
908.604	11813
908.72	11710
908.836	11771
908.952	11589
909.068	11691
909.184	11866
909.3	11722
909.415	11805
909.531	11722
909.647	11490
909.762	11532
909.878	11452
909.993	11490
910.108	11528
910.224	11528
910.339	11512
910.454	11402
910.57	11376
910.685	11235
910.8	11543
910.915	11467
911.03	11326
911.145	11216
911.259	11220
911.374	11201
911.489	11208
911.604	11029
911.718	10904
911.833	10995
911.947	10854
912.062	10820
912.176	11052
912.291	10942
912.405	10980
912.519	11132
912.633	11105
912.748	11052
912.862	10957
912.976	10801
913.09	10759
913.204	10733
913.318	10889
913.431	10953
913.545	10968
913.659	11029
913.772	10809
913.886	10717
914	10637
914.113	10923
914.226	10919
914.34	10755
914.453	10664
914.566	10797
914.68	10630
914.793	10580
914.906	10462
915.019	10382
915.132	10367
915.245	10462
915.358	10504
915.47	10516
915.583	10432
915.696	10493
915.809	10679
915.921	10630
916.034	10447
916.146	10455
916.259	10394
916.371	10538
916.483	10558
916.595	10333
916.708	10363
916.82	10375
916.932	10402
917.044	10344
917.156	10405
917.268	10265
917.38	10356
917.491	10230
917.603	10291
917.715	10417
917.826	10394
917.938	10322
918.049	10185
918.161	10265
918.272	10413
918.384	10352
918.495	10306
918.606	10215
918.717	10112
918.828	10169
918.939	10261
919.05	10055
919.161	10227
919.272	9915
919.383	10086
919.494	10253
919.604	10413
919.715	10173
919.826	10162
919.936	10105
920.047	10291
920.157	10204
920.267	10466
920.378	10196
920.488	10169
920.598	10417
920.708	10573
920.818	10451
920.928	10386
921.038	10542
921.148	10500
921.258	10131
921.368	10112
921.477	10036
921.587	9987
921.697	9884
921.806	10051
921.916	9964
922.025	9838
922.134	9747
922.244	9812
922.353	9789
922.462	9686
922.571	9606
922.68	9450
922.789	9443
922.898	9523
923.007	9435
923.116	9443
923.224	9450
923.333	9469
923.442	9378
923.55	9393
923.659	9332
923.767	9412
923.876	9279
923.984	9336
924.092	9173
924.201	9401
924.309	9291
924.417	9340
924.525	9279
924.633	9230
924.741	10120
924.849	9089
924.956	9207
925.064	9108
925.172	8952
925.279	9051
925.387	9127
925.494	9070
925.602	9310
925.709	9237
925.816	9062
925.924	9116
926.031	9154
926.138	9173
926.245	9165
926.352	9020
926.459	9199
926.566	9203
926.673	9085
926.779	9020
926.886	8967
926.993	8796
927.099	8845
927.206	8750
927.312	8845
927.419	8906
927.525	8804
927.631	8807
927.737	8743
927.843	8792
927.95	8621
928.056	8777
928.162	8727
928.267	8701
928.373	9386
928.479	8792
928.585	8495
928.69	8689
928.796	8773
928.901	8632
929.007	8488
929.112	8587
929.218	8568
929.323	8613
929.428	8511
929.533	8693
929.638	8530
929.743	8503
929.848	8533
929.953	8511
930.058	8438
930.163	8301
930.267	8286
930.372	8434
930.477	8180
930.581	8492
930.685	8374
930.79	8252
930.894	8282
930.998	8199
931.103	8442
931.207	8050
931.311	8065
931.415	7928
931.519	7765
931.623	7830
