Data from test_V78500241_232.txt Node
Date: Fri Mar 25 14:35:20 CST 2022
User: usil
Spectrometer: V785-0024
Trigger mode: 0
Integration Time (sec): 4.000000E-1
Scans to average: 1
Nonlinearity correction enabled: false
Boxcar width: 0
Storing dark spectrum: false
XAxis mode: Wavelengths
Number of Pixels in Spectrum: 1024
>>>>>Begin Spectral Data<<<<<
801.071	27861
801.214	27713
801.356	27302
801.499	27275
801.641	27135
801.783	27226
801.926	27169
802.068	27135
802.211	26899
802.353	26944
802.496	26708
802.638	26750
802.78	26785
802.923	26602
803.065	26674
803.208	26651
803.35	26686
803.492	26785
803.635	26792
803.777	26663
803.919	26758
804.061	26967
804.204	26678
804.346	26617
804.488	26663
804.63	26651
804.773	26450
804.915	26568
805.057	26712
805.199	26705
805.341	26594
805.483	26701
805.626	26606
805.768	26556
805.91	26655
806.052	26765
806.194	26636
806.336	26868
806.478	26853
806.62	26594
806.762	26781
806.904	26933
807.046	27112
807.188	26998
807.33	27070
807.472	27218
807.614	27043
807.756	27146
807.898	26891
808.04	27039
808.182	26990
808.324	26963
808.465	27119
808.607	27264
808.749	27393
808.891	27606
809.033	27652
809.174	27496
809.316	27359
809.458	27469
809.6	27218
809.741	27416
809.883	27374
810.025	27420
810.166	27431
810.308	27477
810.45	27469
810.591	27294
810.733	27157
810.875	27188
811.016	26967
811.158	27036
811.299	27058
811.441	27199
811.582	27150
811.724	27062
811.865	27043
812.007	27055
812.148	27173
812.29	27188
812.431	27176
812.573	27336
812.714	27507
812.855	27458
812.997	27572
813.138	27800
813.279	27705
813.421	27526
813.562	27462
813.703	27287
813.845	27116
813.986	26872
814.127	26845
814.268	26670
814.41	26659
814.551	26670
814.692	26743
814.833	26583
814.974	26621
815.115	26613
815.256	26541
815.397	26434
815.539	26343
815.68	26248
815.821	26252
815.962	26377
816.103	26278
816.244	26126
816.385	25959
816.526	25974
816.666	25890
816.807	25769
816.948	25742
817.089	25909
817.23	25845
817.371	25704
817.512	25616
817.653	25689
817.793	25578
817.934	25662
818.075	25677
818.216	25769
818.356	25655
818.497	25529
818.638	25426
818.778	25422
818.919	25392
819.06	25544
819.2	25540
819.341	25533
819.481	25662
819.622	25708
819.762	25966
819.903	25837
820.043	25780
820.184	25765
820.324	25616
820.465	25719
820.605	25791
820.746	25571
820.886	25571
821.026	25712
821.167	25685
821.307	25635
821.447	25613
821.588	25476
821.728	25320
821.868	25259
822.008	25118
822.149	25023
822.289	25065
822.429	24833
822.569	24798
822.709	24764
822.849	24563
822.99	24585
823.13	24555
823.27	24399
823.41	24273
823.55	24319
823.69	24281
823.83	24353
823.97	24194
824.11	24106
824.25	24038
824.389	23999
824.529	24049
824.669	24133
824.809	24106
824.949	24155
825.089	24098
825.228	24026
825.368	23992
825.508	23920
825.648	23935
825.787	23840
825.927	23851
826.067	23752
826.206	23840
826.346	23889
826.485	23920
826.625	23824
826.765	23912
826.904	23942
827.044	23691
827.183	23661
827.323	23414
827.462	23680
827.601	23512
827.741	23471
827.88	23429
828.02	23410
828.159	23429
828.298	23509
828.437	23524
828.577	23471
828.716	23577
828.855	23528
828.994	23254
829.134	23261
829.273	23212
829.412	23136
829.551	23204
829.69	22984
829.829	23197
829.968	23250
830.107	23178
830.246	23105
830.385	23056
830.524	23071
830.663	23098
830.802	22934
830.941	22915
831.08	22748
831.219	22889
831.357	22847
831.496	22961
831.635	22767
831.774	22717
831.913	22683
832.051	22557
832.19	22584
832.329	22565
832.467	22527
832.606	22253
832.744	22470
832.883	22333
833.022	22424
833.16	22542
833.299	22417
833.437	22356
833.576	22474
833.714	22485
833.852	22462
833.991	22379
834.129	22516
834.267	22599
834.406	22432
834.544	22432
834.682	22443
834.821	22478
834.959	22630
835.097	22367
835.235	22413
835.373	22322
835.511	22402
835.65	22265
835.788	22234
835.926	22196
836.064	22048
836.202	22120
836.34	22116
836.478	22352
836.615	22109
836.753	22356
836.891	22211
837.029	22238
837.167	22150
837.305	22116
837.443	22135
837.58	22200
837.718	22223
837.856	22162
837.993	22082
838.131	22139
838.269	21842
838.406	21934
838.544	21888
838.681	21686
838.819	21686
838.956	21603
839.094	21557
839.231	21614
839.369	21759
839.506	21911
839.643	21778
839.781	21519
839.918	21435
840.055	21454
840.193	21405
840.33	21519
840.467	21313
840.604	21488
840.742	21717
840.879	21283
841.016	21355
841.153	21382
841.29	21667
841.427	21370
841.564	21313
841.701	21428
841.838	21268
841.975	21119
842.112	21321
842.249	21165
842.385	21100
842.522	21473
842.659	21180
842.796	21032
842.933	21055
843.069	21066
843.206	21062
843.343	21195
843.479	21055
843.616	21085
843.752	20861
843.889	20921
844.025	21077
844.162	20811
844.298	20891
844.435	20925
844.571	20826
844.708	20788
844.844	21017
844.98	20990
845.117	20906
845.253	20800
845.389	20769
845.525	20857
845.661	21013
845.798	20952
845.934	21070
846.07	20963
846.206	20948
846.342	21100
846.478	20746
846.614	20530
846.75	20400
846.886	20240
847.022	20423
847.158	20343
847.294	20305
847.429	20377
847.565	20336
847.701	20492
847.837	20092
847.972	19997
848.108	20176
848.244	20122
848.379	20008
848.515	19906
848.65	19974
848.786	19887
848.921	19856
849.057	19936
849.192	19974
849.328	19830
849.463	19856
849.598	19894
849.734	19799
849.869	19712
850.004	19655
850.14	19670
850.275	19594
850.41	19430
850.545	19571
850.68	19571
850.815	19586
850.95	19639
851.085	19647
851.22	19681
851.355	19563
851.49	19609
851.625	19483
851.76	19518
851.895	19510
852.03	19586
852.165	19548
852.299	19605
852.434	19586
852.569	19590
852.703	19609
852.838	19666
852.973	19620
853.107	19681
853.242	19537
853.376	19422
853.511	19301
853.645	19388
853.78	19487
853.914	19419
854.048	19377
854.183	19263
854.317	19327
854.451	19605
854.585	19388
854.72	19407
854.854	19480
854.988	19274
855.122	19285
855.256	19244
855.39	19487
855.524	19468
855.658	19445
855.792	19384
855.926	19339
856.06	19422
856.194	19381
856.327	19362
856.461	19293
856.595	19244
856.729	19285
856.862	19411
856.996	19369
857.13	19506
857.263	19388
857.397	19525
857.53	19316
857.664	19453
857.797	19407
857.931	19514
858.064	19457
858.197	19324
858.331	19369
858.464	19251
858.597	19198
858.731	19320
858.864	19225
858.997	19388
859.13	19316
859.263	19396
859.396	19400
859.529	19293
859.662	19266
859.795	19327
859.928	19392
860.061	19483
860.194	19441
860.327	19331
860.46	19278
860.592	19495
860.725	19464
860.858	19518
860.99	19270
861.123	19194
861.256	19171
861.388	19270
861.521	19856
861.653	19206
861.786	19179
861.918	19274
862.05	19354
862.183	19297
862.315	19331
862.447	19415
862.58	19266
862.712	19069
862.844	19015
862.976	19110
863.108	19008
863.24	19411
863.372	18981
863.504	19038
863.636	19038
863.768	19034
863.9	19069
864.032	18817
864.164	18928
864.296	19069
864.428	19114
864.559	19072
864.691	19061
864.823	18996
864.954	19031
865.086	18985
865.217	19004
865.349	18825
865.48	18837
865.612	18875
865.743	19046
865.875	18970
866.006	18909
866.137	18856
866.269	18985
866.4	18924
866.531	18981
866.662	18852
866.793	18920
866.924	18871
867.055	18886
867.186	18935
867.317	18810
867.448	18779
867.579	18856
867.71	18707
867.841	18867
867.972	18863
868.103	18863
868.233	18901
868.364	18821
868.495	18848
868.625	19027
868.756	19179
868.886	19023
869.017	19072
869.147	19171
869.278	19190
869.408	19133
869.539	19004
869.669	19293
869.799	19164
869.929	19244
870.06	19263
870.19	19472
870.32	19358
870.45	19472
870.58	19411
870.71	19499
870.84	19651
870.97	19632
871.1	19407
871.23	19563
871.36	19689
871.489	19556
871.619	19632
871.749	19578
871.879	19704
872.008	19708
872.138	19700
872.267	19639
872.397	19632
872.526	19472
872.656	19559
872.785	19525
872.915	19723
873.044	19772
873.173	19708
873.303	19765
873.432	19784
873.561	19791
873.69	19761
873.819	19811
873.948	19788
874.077	19708
874.206	19685
874.335	19715
874.464	19883
874.593	20012
874.722	19902
874.851	20069
874.979	20062
875.108	20054
875.237	19993
875.365	19947
875.494	19890
875.623	20024
875.751	19849
875.88	19959
876.008	20107
876.136	20119
876.265	20419
876.393	20495
876.521	20476
876.65	20503
876.778	20469
876.906	20381
877.034	20317
877.162	20385
877.29	20339
877.418	20434
877.546	20419
877.674	20381
877.802	20431
877.93	20438
878.058	20278
878.185	20202
878.313	20370
878.441	20358
878.568	20210
878.696	20187
878.824	20415
878.951	20495
879.079	20575
879.206	20651
879.333	20667
879.461	20648
879.588	20689
879.715	20693
879.842	20735
879.97	20689
880.097	20320
880.224	20240
880.351	20290
880.478	20225
880.605	20180
880.732	20210
880.859	20530
880.986	20237
881.112	20389
881.239	20081
881.366	20005
881.493	19860
881.619	19841
881.746	19868
881.872	19826
881.999	19864
882.125	19788
882.252	19902
882.378	19830
882.505	20069
882.631	19723
882.757	19738
882.883	19670
883.01	19700
883.136	19563
883.262	19449
883.388	19480
883.514	19616
883.64	19605
883.766	19582
883.892	19388
884.018	19514
884.143	19548
884.269	19674
884.395	19438
884.52	19270
884.646	19289
884.772	19232
884.897	19179
885.023	19297
885.148	19308
885.274	19400
885.399	19274
885.524	19285
885.65	19270
885.775	19198
885.9	19297
886.025	19312
886.15	19259
886.275	19114
886.4	19050
886.525	19206
886.65	19118
886.775	19152
886.9	19289
887.025	19289
887.149	19297
887.274	18958
887.399	18947
887.523	18943
887.648	18947
887.773	18741
887.897	18947
888.021	19137
888.146	18897
888.27	18996
888.395	19129
888.519	19091
888.643	19012
888.767	18890
888.891	18916
889.015	18939
889.139	18924
889.263	18764
889.387	18913
889.511	18924
889.635	18962
889.759	18795
889.883	18787
890.006	18696
890.13	18951
890.254	18677
890.377	18627
890.501	18479
890.624	18517
890.748	18574
890.871	18445
890.995	18319
891.118	18315
891.241	18464
891.364	18380
891.488	18540
891.611	18414
891.734	18418
891.857	18429
891.98	18380
892.103	18380
892.226	18437
892.349	18315
892.471	18186
892.594	18334
892.717	18357
892.839	18266
892.962	18494
893.085	18388
893.207	18273
893.33	18140
893.452	18330
893.575	18407
893.697	18292
893.819	18498
893.941	18544
894.064	18353
894.186	18266
894.308	18159
894.43	18395
894.552	18536
894.674	18376
894.796	18201
894.918	18292
895.04	18292
895.161	18414
895.283	18334
895.405	18300
895.526	18426
895.648	18376
895.769	18319
895.891	18277
896.012	18429
896.134	18391
896.255	18334
896.376	18365
896.498	18388
896.619	18517
896.74	18475
896.861	18544
896.982	18669
897.103	18894
897.224	18646
897.345	18582
897.466	18517
897.587	18616
897.708	18753
897.828	18806
897.949	18536
898.07	18513
898.19	18593
898.311	18688
898.431	18601
898.552	18658
898.672	18627
898.792	18722
898.913	18612
899.033	18448
899.153	18437
899.273	18262
899.393	18357
899.513	18391
899.633	18273
899.753	18384
899.873	18380
899.993	18304
900.113	18296
900.232	18403
900.352	18194
900.472	18129
900.591	18220
900.711	18155
900.83	18064
900.95	18270
901.069	18254
901.189	18144
901.308	17935
901.427	17927
901.546	17745
901.665	17843
901.784	17847
901.904	17615
902.023	17760
902.141	17345
902.26	17376
902.379	17368
902.498	17406
902.617	17185
902.735	17239
902.854	17261
902.973	17258
903.091	17086
903.21	16999
903.328	16984
903.446	16919
903.565	16915
903.683	16820
903.801	16740
903.919	16820
904.038	16767
904.156	16584
904.274	16736
904.392	16573
904.51	16626
904.627	16626
904.745	16618
904.863	16538
904.981	16348
905.098	16272
905.216	16249
905.334	16291
905.451	16192
905.569	16265
905.686	16257
905.803	16219
905.921	15983
906.038	16173
906.155	16105
906.272	15972
906.389	16013
906.506	15793
906.623	15770
906.74	15728
906.857	15610
906.974	15660
907.091	15785
907.208	15785
907.324	15793
907.441	15606
907.557	15606
907.674	15511
907.79	15485
907.907	15447
908.023	15500
908.139	15435
908.256	15416
908.372	15241
908.488	15306
908.604	15226
908.72	15081
908.836	15180
908.952	15039
909.068	15211
909.184	15176
909.3	15218
909.415	15180
909.531	15142
909.647	14876
909.762	14982
909.878	14792
909.993	14834
910.108	14914
910.224	14800
910.339	14861
910.454	14815
910.57	14655
910.685	14575
910.8	14826
910.915	14773
911.03	14682
911.145	14568
911.259	14511
911.374	14400
911.489	14423
911.604	14389
911.718	14218
911.833	14233
911.947	14206
912.062	14149
912.176	14256
912.291	14240
912.405	14252
912.519	14427
912.633	14389
912.748	14259
912.862	14149
912.976	14005
913.09	13928
913.204	14031
913.318	13997
913.431	14134
913.545	14058
913.659	14088
913.772	14054
913.886	13875
914	13936
914.113	14050
914.226	14016
914.34	14001
914.453	13772
914.566	13963
914.68	13784
914.793	13723
914.906	13662
915.019	13483
915.132	13597
915.245	13460
915.358	13578
915.47	13609
915.583	13483
915.696	13529
915.809	13731
915.921	13651
916.034	13514
916.146	13495
916.259	13422
916.371	13529
916.483	13407
916.595	13468
916.708	13392
916.82	13521
916.932	13415
917.044	13403
917.156	13354
917.268	13171
917.38	13221
917.491	13297
917.603	13263
917.715	13373
917.826	13358
917.938	13183
918.049	13099
918.161	13202
918.272	13293
918.384	13346
918.495	13225
918.606	13057
918.717	13012
918.828	12993
918.939	13095
919.05	12848
919.161	13050
919.272	12924
919.383	12886
919.494	13038
919.604	13194
919.715	12958
919.826	12856
919.936	12954
920.047	13027
920.157	13012
920.267	13145
920.378	13023
920.488	12886
920.598	13149
920.708	13255
920.818	13076
920.928	13072
921.038	13244
921.148	13187
921.258	12943
921.368	13004
921.477	12791
921.587	12749
921.697	12627
921.806	12745
921.916	12639
922.025	12448
922.134	12498
922.244	12292
922.353	12437
922.462	12258
922.571	12224
922.68	12114
922.789	12079
922.898	12064
923.007	12083
923.116	12011
923.224	11999
923.333	12045
923.442	11961
923.55	11935
923.659	11954
923.767	11969
923.876	11916
923.984	11946
924.092	11764
924.201	11885
924.309	11817
924.417	11874
924.525	11790
924.633	11798
924.741	12730
924.849	11581
924.956	11840
925.064	11653
925.172	11608
925.279	11478
925.387	11646
925.494	11600
925.602	11729
925.709	11665
925.816	11512
925.924	11493
926.031	11627
926.138	11493
926.245	11581
926.352	11398
926.459	11486
926.566	11589
926.673	11429
926.779	11334
926.886	11307
926.993	11185
927.099	11159
927.206	11181
927.312	11140
927.419	11239
927.525	11193
927.631	11208
927.737	11075
927.843	11075
927.95	10881
928.056	10961
928.162	10953
928.267	11079
928.373	11558
928.479	11128
928.585	10877
928.69	10972
928.796	11010
928.901	10896
929.007	10820
929.112	10881
929.218	10778
929.323	10790
929.428	10786
929.533	10923
929.638	10702
929.743	10702
929.848	10774
929.953	10675
930.058	10653
930.163	10546
930.267	10512
930.372	10626
930.477	10466
930.581	10668
930.685	10546
930.79	10284
930.894	10421
930.998	10333
931.103	10470
931.207	10071
931.311	10051
931.415	9983
931.519	9850
931.623	9846
