Data from test_V78500241_2159.txt Node
Date: Fri Mar 25 14:48:44 CST 2022
User: usil
Spectrometer: V785-0024
Trigger mode: 0
Integration Time (sec): 4.000000E-1
Scans to average: 1
Nonlinearity correction enabled: false
Boxcar width: 0
Storing dark spectrum: false
XAxis mode: Wavelengths
Number of Pixels in Spectrum: 1024
>>>>>Begin Spectral Data<<<<<
801.071	22116
801.214	22147
801.356	21930
801.499	21739
801.641	21557
801.783	21545
801.926	21599
802.068	21507
802.211	21447
802.353	21195
802.496	21135
802.638	20956
802.78	21066
802.923	21055
803.065	20910
803.208	20796
803.35	20872
803.492	20864
803.635	20990
803.777	20853
803.919	21036
804.061	21169
804.204	20842
804.346	20758
804.488	20807
804.63	20887
804.773	20815
804.915	20830
805.057	20849
805.199	20731
805.341	20933
805.483	20925
805.626	20891
805.768	20868
805.91	20857
806.052	20842
806.194	20689
806.336	21043
806.478	20800
806.62	20872
806.762	20910
806.904	21062
807.046	21249
807.188	21154
807.33	21036
807.472	21123
807.614	20925
807.756	21032
807.898	20891
808.04	20872
808.182	20933
808.324	20944
808.465	20902
808.607	21096
808.749	20979
808.891	21374
809.033	21511
809.174	21252
809.316	21165
809.458	21161
809.6	21161
809.741	21252
809.883	21249
810.025	21348
810.166	21332
810.308	21348
810.45	21272
810.591	21298
810.733	20982
810.875	20918
811.016	20868
811.158	20834
811.299	20899
811.441	21051
811.582	21051
811.724	20857
811.865	20880
812.007	20960
812.148	20899
812.29	20986
812.431	20971
812.573	21367
812.714	21233
812.855	21538
812.997	21534
813.138	21641
813.279	21492
813.421	21549
813.562	21359
813.703	21142
813.845	20986
813.986	20883
814.127	20678
814.268	20560
814.41	20594
814.551	20427
814.692	20526
814.833	20480
814.974	20442
815.115	20518
815.256	20370
815.397	20347
815.539	20408
815.68	20248
815.821	20103
815.962	20218
816.103	20149
816.244	19963
816.385	20012
816.526	19959
816.666	19761
816.807	19571
816.948	19681
817.089	19845
817.23	19719
817.371	19613
817.512	19734
817.653	19635
817.793	19643
817.934	19575
818.075	19597
818.216	19632
818.356	19635
818.497	19384
818.638	19316
818.778	19381
818.919	19293
819.06	19343
819.2	19381
819.341	19601
819.481	19449
819.622	19677
819.762	19765
819.903	19860
820.043	19685
820.184	19559
820.324	19666
820.465	19670
820.605	19677
820.746	19419
820.886	19468
821.026	19662
821.167	19563
821.307	19666
821.447	19537
821.588	19331
821.728	19320
821.868	19198
822.008	18966
822.149	19057
822.289	19012
822.429	18768
822.569	18791
822.709	18681
822.849	18563
822.99	18483
823.13	18475
823.27	18448
823.41	18319
823.55	18243
823.69	18300
823.83	18251
823.97	18384
824.11	18133
824.25	18038
824.389	17946
824.529	18106
824.669	18076
824.809	18148
824.949	18140
825.089	18148
825.228	18045
825.368	17931
825.508	17912
825.648	18011
825.787	17878
825.927	17878
826.067	17767
826.206	17809
826.346	17851
826.485	17904
826.625	17950
826.765	17980
826.904	17954
827.044	17710
827.183	17676
827.323	17611
827.462	17581
827.601	17558
827.741	17516
827.88	17695
828.02	17444
828.159	17433
828.298	17493
828.437	17604
828.577	17509
828.716	17615
828.855	17512
828.994	17341
829.134	17330
829.273	17356
829.412	17239
829.551	17288
829.69	17383
829.829	17318
829.968	17334
830.107	17376
830.246	17193
830.385	17242
830.524	17128
830.663	17162
830.802	17060
830.941	16919
831.08	16946
831.219	16987
831.357	16965
831.496	17136
831.635	16984
831.774	16873
831.913	16721
832.051	16649
832.19	16687
832.329	16740
832.467	16630
832.606	16599
832.744	16550
832.883	16493
833.022	16573
833.16	16645
833.299	16592
833.437	16615
833.576	16569
833.714	16687
833.852	16611
833.991	16710
834.129	16584
834.267	16664
834.406	16592
834.544	16653
834.682	16607
834.821	16687
834.959	16733
835.097	16599
835.235	16797
835.373	16725
835.511	16691
835.65	16611
835.788	16592
835.926	16386
836.064	16394
836.202	16424
836.34	16512
836.478	16561
836.615	16607
836.753	16546
836.891	16706
837.029	16584
837.167	16519
837.305	16428
837.443	16462
837.58	16500
837.718	16478
837.856	16424
837.993	16409
838.131	16436
838.269	16268
838.406	16398
838.544	16287
838.681	16162
838.819	16093
838.956	15964
839.094	15911
839.231	15979
839.369	16109
839.506	16303
839.643	16265
839.781	16120
839.918	16006
840.055	15907
840.193	15975
840.33	15953
840.467	15888
840.604	15983
840.742	16211
840.879	15827
841.016	15922
841.153	15865
841.29	16025
841.427	16109
841.564	15983
841.701	16071
841.838	15835
841.975	15812
842.112	15869
842.249	15850
842.385	15660
842.522	15888
842.659	15709
842.796	15724
842.933	15797
843.069	15705
843.206	15743
843.343	15873
843.479	15747
843.616	15736
843.752	15564
843.889	15485
844.025	15739
844.162	15523
844.298	15724
844.435	15564
844.571	15435
844.708	15606
844.844	15694
844.98	15625
845.117	15580
845.253	15469
845.389	15454
845.525	15584
845.661	15534
845.798	15359
845.934	15405
846.07	15378
846.206	15359
846.342	15500
846.478	15378
846.614	15154
846.75	15081
846.886	15074
847.022	15264
847.158	15161
847.294	15104
847.429	15195
847.565	15161
847.701	15416
847.837	14883
847.972	14800
848.108	14910
848.244	14857
848.379	14769
848.515	14746
848.65	14682
848.786	14644
848.921	14731
849.057	14876
849.192	14769
849.328	14724
849.463	14842
849.598	14583
849.734	14518
849.869	14465
850.004	14541
850.14	14526
850.275	14514
850.41	14393
850.545	14446
850.68	14457
850.815	14511
850.95	14446
851.085	14606
851.22	14617
851.355	14465
851.49	14381
851.625	14301
851.76	14427
851.895	14484
852.03	14396
852.165	14507
852.299	14374
852.434	14575
852.569	14556
852.703	14541
852.838	14560
852.973	14606
853.107	14644
853.242	14541
853.376	14419
853.511	14244
853.645	14320
853.78	14492
853.914	14282
854.048	14404
854.183	14370
854.317	14248
854.451	14560
854.585	14328
854.72	14309
854.854	14393
854.988	14305
855.122	14282
855.256	14176
855.39	14313
855.524	14427
855.658	14396
855.792	14358
855.926	14438
856.06	14389
856.194	14473
856.327	14400
856.461	14240
856.595	14259
856.729	14305
856.862	14488
856.996	14389
857.13	14431
857.263	14442
857.397	14457
857.53	14355
857.664	14408
857.797	14396
857.931	14434
858.064	14328
858.197	14454
858.331	14324
858.464	14328
858.597	14221
858.731	14298
858.864	14240
858.997	14218
859.13	14362
859.263	14370
859.396	14419
859.529	14408
859.662	14332
859.795	14336
859.928	14454
860.061	14530
860.194	14560
860.327	14237
860.46	14290
860.592	14560
860.725	14575
860.858	14446
860.99	14328
861.123	14259
861.256	14176
861.388	14313
861.521	15009
861.653	14153
861.786	14180
861.918	14202
862.05	14271
862.183	14343
862.315	14377
862.447	14336
862.58	14244
862.712	14103
862.844	14050
862.976	14218
863.108	14180
863.24	14495
863.372	14107
863.504	14183
863.636	14103
863.768	14153
863.9	14126
864.032	14069
864.164	14039
864.296	14054
864.428	14263
864.559	14229
864.691	14313
864.823	14168
864.954	14115
865.086	14180
865.217	14149
865.349	13997
865.48	14142
865.612	14103
865.743	14202
865.875	14126
866.006	14142
866.137	14134
866.269	14088
866.4	14210
866.531	14069
866.662	14020
866.793	14100
866.924	14024
867.055	14138
867.186	14077
867.317	14050
867.448	14100
867.579	14096
867.71	14020
867.841	14077
867.972	14050
868.103	14039
868.233	14161
868.364	14123
868.495	14134
868.625	14237
868.756	14438
868.886	14324
869.017	14366
869.147	14408
869.278	14488
869.408	14400
869.539	14385
869.669	14358
869.799	14400
869.929	14442
870.06	14431
870.19	14743
870.32	14651
870.45	14644
870.58	14781
870.71	14811
870.84	14823
870.97	14743
871.1	14739
871.23	14918
871.36	14986
871.489	14807
871.619	14921
871.749	14986
871.879	15020
872.008	15043
872.138	14979
872.267	14967
872.397	14769
872.526	14777
872.656	14819
872.785	14796
872.915	14902
873.044	15043
873.173	15001
873.303	15097
873.432	15051
873.561	15081
873.69	15005
873.819	15032
873.948	15074
874.077	15009
874.206	15009
874.335	15024
874.464	15169
874.593	15325
874.722	15233
874.851	15355
874.979	15374
875.108	15336
875.237	15195
875.365	15272
875.494	15325
875.623	15389
875.751	15355
875.88	15321
876.008	15584
876.136	15595
876.265	15759
876.393	15797
876.521	15755
876.65	15827
876.778	15819
876.906	15618
877.034	15633
877.162	15629
877.29	15732
877.418	15717
877.546	15762
877.674	15694
877.802	15812
877.93	15724
878.058	15682
878.185	15530
878.313	15728
878.441	15732
878.568	15644
878.696	15652
878.824	15717
878.951	15869
879.079	15873
879.206	16025
879.333	15934
879.461	15778
879.588	15880
879.715	15987
879.842	16006
879.97	15857
880.097	15568
880.224	15629
880.351	15629
880.478	15564
880.605	15606
880.732	15549
880.859	15880
880.986	15644
881.112	15603
881.239	15504
881.366	15363
881.493	15138
881.619	15291
881.746	15184
881.872	15256
881.999	15146
882.125	15230
882.252	15424
882.378	15260
882.505	15367
882.631	15165
882.757	15104
882.883	15047
883.01	15142
883.136	15062
883.262	14902
883.388	14872
883.514	14914
883.64	15085
883.766	14899
883.892	14887
884.018	14887
884.143	15074
884.269	15222
884.395	14902
884.52	14708
884.646	14781
884.772	14762
884.897	14724
885.023	14849
885.148	14830
885.274	14891
885.399	14868
885.524	14708
885.65	14682
885.775	14849
885.9	14769
886.025	14864
886.15	14857
886.275	14663
886.4	14708
886.525	14697
886.65	14739
886.775	14769
886.9	14944
887.025	15043
887.149	14792
887.274	14629
887.399	14590
887.523	14488
887.648	14511
887.773	14362
887.897	14625
888.021	14625
888.146	14495
888.27	14693
888.395	14804
888.519	14625
888.643	14667
888.767	14629
888.891	14617
889.015	14419
889.139	14556
889.263	14408
889.387	14587
889.511	14640
889.635	14552
889.759	14393
889.883	14362
890.006	14518
890.13	14564
890.254	14374
890.377	14461
890.501	14210
890.624	14317
890.748	14381
890.871	14259
890.995	14130
891.118	14024
891.241	14149
891.364	14103
891.488	14180
891.611	14263
891.734	14145
891.857	14191
891.98	14138
892.103	14244
892.226	14187
892.349	14176
892.471	13928
892.594	14130
892.717	14195
892.839	14145
892.962	14168
893.085	14103
893.207	14153
893.33	13833
893.452	14187
893.575	14210
893.697	14130
893.819	14446
893.941	14267
894.064	14294
894.186	14077
894.308	14168
894.43	14267
894.552	14324
894.674	14370
894.796	14180
894.918	14218
895.04	14187
895.161	14252
895.283	14240
895.405	14142
895.526	14180
895.648	14202
895.769	14252
895.891	14427
896.012	14377
896.134	14317
896.255	14267
896.376	14328
896.498	14301
896.619	14381
896.74	14252
896.861	14393
896.982	14720
897.103	14811
897.224	14655
897.345	14678
897.466	14533
897.587	14613
897.708	14739
897.828	14663
897.949	14598
898.07	14473
898.19	14541
898.311	14727
898.431	14541
898.552	14651
898.672	14731
898.792	14724
898.913	14705
899.033	14610
899.153	14431
899.273	14412
899.393	14393
899.513	14503
899.633	14488
899.753	14568
899.873	14495
899.993	14503
900.113	14552
900.232	14537
900.352	14522
900.472	14514
900.591	14404
900.711	14412
900.83	14396
900.95	14461
901.069	14492
901.189	14294
901.308	14126
901.427	14031
901.546	13982
901.665	14149
901.784	14024
901.904	13890
902.023	13803
902.141	13761
902.26	13723
902.379	13704
902.498	13609
902.617	13605
902.735	13731
902.854	13647
902.973	13586
903.091	13327
903.21	13316
903.328	13316
903.446	13255
903.565	13198
903.683	13122
903.801	13171
903.919	13187
904.038	13137
904.156	13023
904.274	13126
904.392	13065
904.51	13027
904.627	12935
904.745	13122
904.863	13095
904.981	12844
905.098	12696
905.216	12844
905.334	12749
905.451	12722
905.569	12757
905.686	12715
905.803	12776
905.921	12513
906.038	12646
906.155	12612
906.272	12429
906.389	12521
906.506	12304
906.623	12281
906.74	12300
906.857	12175
906.974	12175
907.091	12365
907.208	12464
907.324	12277
907.441	12281
907.557	12068
907.674	12072
907.79	11954
907.907	12076
908.023	12045
908.139	12041
908.256	11878
908.372	11904
908.488	11897
908.604	11847
908.72	11783
908.836	11908
908.952	11832
909.068	11745
909.184	11878
909.3	11722
909.415	11904
909.531	11775
909.647	11619
909.762	11619
909.878	11554
909.993	11562
910.108	11528
910.224	11539
910.339	11611
910.454	11493
910.57	11417
910.685	11360
910.8	11596
910.915	11573
911.03	11429
911.145	11368
911.259	11292
911.374	11280
911.489	11155
911.604	11151
911.718	11086
911.833	11033
911.947	10957
912.062	10892
912.176	10995
912.291	11022
912.405	10972
912.519	11239
912.633	11277
912.748	11147
912.862	11064
912.976	10987
913.09	10812
913.204	10889
913.318	10873
913.431	10984
913.545	10923
913.659	11037
913.772	11022
913.886	10744
914	10660
914.113	10782
914.226	10889
914.34	10881
914.453	10672
914.566	10892
914.68	10774
914.793	10645
914.906	10573
915.019	10466
915.132	10413
915.245	10523
915.358	10523
915.47	10592
915.583	10565
915.696	10542
915.809	10645
915.921	10702
916.034	10455
916.146	10402
916.259	10394
916.371	10535
916.483	10542
916.595	10428
916.708	10413
916.82	10451
916.932	10447
917.044	10462
917.156	10440
917.268	10306
917.38	10356
917.491	10356
917.603	10352
917.715	10356
917.826	10478
917.938	10379
918.049	10265
918.161	10405
918.272	10493
918.384	10500
918.495	10424
918.606	10325
918.717	10242
918.828	10299
918.939	10246
919.05	10154
919.161	10230
919.272	10036
919.383	10093
919.494	10341
919.604	10413
919.715	10227
919.826	10150
919.936	10265
920.047	10265
920.157	10303
920.267	10478
920.378	10325
920.488	10272
920.598	10474
920.708	10611
920.818	10478
920.928	10451
921.038	10607
921.148	10577
921.258	10325
921.368	10227
921.477	10112
921.587	10082
921.697	9987
921.806	10154
921.916	10051
922.025	9884
922.134	9808
922.244	9724
922.353	9827
922.462	9656
922.571	9572
922.68	9515
922.789	9534
922.898	9526
923.007	9485
923.116	9523
923.224	9466
923.333	9473
923.442	9363
923.55	9363
923.659	9329
923.767	9447
923.876	9405
923.984	9477
924.092	9332
924.201	9336
924.309	9416
924.417	9321
924.525	9367
924.633	9351
924.741	10051
924.849	9123
924.956	9230
925.064	9169
925.172	9055
925.279	9089
925.387	9173
925.494	9135
925.602	9332
925.709	9264
925.816	9119
925.924	9241
926.031	9264
926.138	9127
926.245	9203
926.352	9112
926.459	9214
926.566	9298
926.673	9085
926.779	9009
926.886	9058
926.993	8895
927.099	8910
927.206	8811
927.312	8861
927.419	8925
927.525	8899
927.631	8967
927.737	8720
927.843	8750
927.95	8663
928.056	8727
928.162	8766
928.267	8868
928.373	9378
928.479	8925
928.585	8632
928.69	8743
928.796	8769
928.901	8720
929.007	8556
929.112	8762
929.218	8613
929.323	8564
929.428	8564
929.533	8670
929.638	8518
929.743	8640
929.848	8632
929.953	8640
930.058	8511
930.163	8301
930.267	8351
930.372	8492
930.477	8320
930.581	8598
930.685	8438
930.79	8305
930.894	8377
930.998	8286
931.103	8514
931.207	8069
931.311	8008
931.415	8001
931.519	7776
931.623	7807
