Data from test_V78500241_3422.txt Node
Date: Fri Mar 25 14:57:32 CST 2022
User: usil
Spectrometer: V785-0024
Trigger mode: 0
Integration Time (sec): 4.000000E-1
Scans to average: 1
Nonlinearity correction enabled: false
Boxcar width: 0
Storing dark spectrum: false
XAxis mode: Wavelengths
Number of Pixels in Spectrum: 1024
>>>>>Begin Spectral Data<<<<<
801.071	21854
801.214	21869
801.356	21545
801.499	21450
801.641	21233
801.783	21306
801.926	21192
802.068	21249
802.211	21051
802.353	21013
802.496	20864
802.638	20819
802.78	20678
802.923	20682
803.065	20587
803.208	20492
803.35	20636
803.492	20663
803.635	20731
803.777	20606
803.919	20754
804.061	20906
804.204	20724
804.346	20552
804.488	20644
804.63	20522
804.773	20606
804.915	20484
805.057	20503
805.199	20499
805.341	20602
805.483	20541
805.626	20617
805.768	20549
805.91	20381
806.052	20473
806.194	20438
806.336	20625
806.478	20461
806.62	20423
806.762	20606
806.904	20659
807.046	20876
807.188	20899
807.33	20800
807.472	20944
807.614	20720
807.756	20708
807.898	20606
808.04	20796
808.182	20583
808.324	20503
808.465	20613
808.607	20937
808.749	20971
808.891	20872
809.033	20842
809.174	20937
809.316	20807
809.458	20895
809.6	20849
809.741	20876
809.883	20998
810.025	21104
810.166	20960
810.308	21017
810.45	20937
810.591	20781
810.733	20788
810.875	20712
811.016	20503
811.158	20583
811.299	20598
811.441	20834
811.582	20746
811.724	20678
811.865	20571
812.007	20609
812.148	20629
812.29	20682
812.431	20861
812.573	20902
812.714	20921
812.855	21051
812.997	21116
813.138	21370
813.279	21287
813.421	21157
813.562	21119
813.703	20902
813.845	20716
813.986	20488
814.127	20328
814.268	20248
814.41	20218
814.551	20164
814.692	20237
814.833	20024
814.974	20084
815.115	20275
815.256	20001
815.397	20050
815.539	19932
815.68	19894
815.821	19852
815.962	19890
816.103	19887
816.244	19723
816.385	19734
816.526	19655
816.666	19480
816.807	19358
816.948	19407
817.089	19392
817.23	19407
817.371	19335
817.512	19445
817.653	19339
817.793	19213
817.934	19278
818.075	19289
818.216	19335
818.356	19160
818.497	19084
818.638	18852
818.778	18958
818.919	19072
819.06	18951
819.2	19095
819.341	19099
819.481	19202
819.622	19289
819.762	19445
819.903	19460
820.043	19278
820.184	19137
820.324	19247
820.465	19225
820.605	19282
820.746	19183
820.886	19217
821.026	19225
821.167	19213
821.307	19213
821.447	19247
821.588	19137
821.728	19008
821.868	18856
822.008	18616
822.149	18623
822.289	18684
822.429	18342
822.569	18372
822.709	18380
822.849	18228
822.99	18136
823.13	18209
823.27	18155
823.41	17980
823.55	17836
823.69	17923
823.83	17977
823.97	17935
824.11	17710
824.25	17703
824.389	17729
824.529	17786
824.669	17699
824.809	17927
824.949	17904
825.089	17847
825.228	17775
825.368	17566
825.508	17562
825.648	17608
825.787	17604
825.927	17581
826.067	17535
826.206	17463
826.346	17623
826.485	17558
826.625	17474
826.765	17710
826.904	17558
827.044	17261
827.183	17383
827.323	17197
827.462	17318
827.601	17189
827.741	17315
827.88	17242
828.02	17128
828.159	17136
828.298	17269
828.437	17299
828.577	17208
828.716	17459
828.855	17113
828.994	16968
829.134	16942
829.273	16976
829.412	16927
829.551	16972
829.69	17029
829.829	17060
829.968	17155
830.107	17067
830.246	17056
830.385	16919
830.524	16858
830.663	16767
830.802	16744
830.941	16546
831.08	16584
831.219	16653
831.357	16660
831.496	16736
831.635	16634
831.774	16630
831.913	16512
832.051	16436
832.19	16417
832.329	16382
832.467	16352
832.606	16303
832.744	16280
832.883	16284
833.022	16314
833.16	16322
833.299	16333
833.437	16306
833.576	16371
833.714	16405
833.852	16318
833.991	16348
834.129	16382
834.267	16443
834.406	16409
834.544	16436
834.682	16375
834.821	16394
834.959	16565
835.097	16249
835.235	16462
835.373	16554
835.511	16360
835.65	16341
835.788	16246
835.926	16162
836.064	16135
836.202	16181
836.34	16200
836.478	16485
836.615	16352
836.753	16363
836.891	16375
837.029	16325
837.167	16341
837.305	16280
837.443	16074
837.58	16181
837.718	16253
837.856	16150
837.993	16154
838.131	16196
838.269	15972
838.406	16181
838.544	16040
838.681	15888
838.819	15895
838.956	15675
839.094	15698
839.231	15728
839.369	15846
839.506	16143
839.643	15930
839.781	15732
839.918	15637
840.055	15732
840.193	15644
840.33	15701
840.467	15728
840.604	15861
840.742	16021
840.879	15591
841.016	15698
841.153	15610
841.29	15899
841.427	15709
841.564	15766
841.701	15785
841.838	15671
841.975	15667
842.112	15648
842.249	15564
842.385	15530
842.522	15671
842.659	15538
842.796	15435
842.933	15469
843.069	15428
843.206	15405
843.343	15629
843.479	15500
843.616	15462
843.752	15351
843.889	15264
844.025	15488
844.162	15233
844.298	15450
844.435	15310
844.571	15165
844.708	15401
844.844	15435
844.98	15420
845.117	15458
845.253	15279
845.389	15108
845.525	15207
845.661	15241
845.798	15093
845.934	15207
846.07	15085
846.206	15180
846.342	15256
846.478	15108
846.614	14857
846.75	14845
846.886	14895
847.022	14975
847.158	14872
847.294	14876
847.429	14914
847.565	14838
847.701	15039
847.837	14602
847.972	14610
848.108	14613
848.244	14617
848.379	14522
848.515	14434
848.65	14549
848.786	14480
848.921	14503
849.057	14564
849.192	14594
849.328	14423
849.463	14503
849.598	14507
849.734	14488
849.869	14362
850.004	14263
850.14	14256
850.275	14298
850.41	14157
850.545	14259
850.68	14195
850.815	14233
850.95	14202
851.085	14518
851.22	14400
851.355	14202
851.49	14202
851.625	14187
851.76	14176
851.895	14134
852.03	14088
852.165	14278
852.299	14320
852.434	14393
852.569	14244
852.703	14248
852.838	14355
852.973	14381
853.107	14347
853.242	14218
853.376	14149
853.511	14054
853.645	14054
853.78	14199
853.914	14115
854.048	14088
854.183	14142
854.317	14123
854.451	14233
854.585	14031
854.72	14062
854.854	14210
854.988	14107
855.122	14058
855.256	13997
855.39	14138
855.524	14123
855.658	14149
855.792	14100
855.926	14199
856.06	14199
856.194	14145
856.327	14111
856.461	14020
856.595	14119
856.729	13993
856.862	14305
856.996	14157
857.13	14138
857.263	14271
857.397	14161
857.53	14077
857.664	14180
857.797	14240
857.931	14206
858.064	14084
858.197	14206
858.331	14103
858.464	14103
858.597	14043
858.731	14115
858.864	14145
858.997	14092
859.13	14229
859.263	14058
859.396	14225
859.529	14050
859.662	14103
859.795	14069
859.928	14130
860.061	14221
860.194	14263
860.327	14145
860.46	14145
860.592	14221
860.725	14317
860.858	14259
860.99	14111
861.123	14149
861.256	14058
861.388	14130
861.521	14845
861.653	14062
861.786	13959
861.918	13944
862.05	14073
862.183	14031
862.315	14153
862.447	14126
862.58	14069
862.712	13864
862.844	13822
862.976	13963
863.108	13917
863.24	14412
863.372	13772
863.504	13856
863.636	13788
863.768	14005
863.9	13811
864.032	13864
864.164	13833
864.296	13970
864.428	14016
864.559	14020
864.691	14024
864.823	13944
864.954	13875
865.086	14031
865.217	13906
865.349	13875
865.48	13837
865.612	13879
865.743	14088
865.875	13818
866.006	13879
866.137	13921
866.269	13947
866.4	13982
866.531	13849
866.662	13887
866.793	13841
866.924	13963
867.055	13887
867.186	13860
867.317	13959
867.448	13811
867.579	13757
867.71	13894
867.841	13731
867.972	13925
868.103	13959
868.233	13860
868.364	13928
868.495	13974
868.625	14062
868.756	14176
868.886	14024
869.017	14027
869.147	14271
869.278	14206
869.408	14233
869.539	14153
869.669	14214
869.799	14195
869.929	14210
870.06	14256
870.19	14465
870.32	14461
870.45	14495
870.58	14469
870.71	14655
870.84	14659
870.97	14465
871.1	14575
871.23	14792
871.36	14731
871.489	14670
871.619	14625
871.749	14788
871.879	14754
872.008	14804
872.138	14788
872.267	14788
872.397	14663
872.526	14655
872.656	14503
872.785	14533
872.915	14743
873.044	14887
873.173	14804
873.303	14845
873.432	14853
873.561	14800
873.69	14777
873.819	14731
873.948	14937
874.077	14731
874.206	14880
874.335	14842
874.464	15017
874.593	15150
874.722	15047
874.851	15180
874.979	15070
875.108	15161
875.237	15161
875.365	15039
875.494	15028
875.623	15116
875.751	15055
875.88	15108
876.008	15313
876.136	15283
876.265	15584
876.393	15698
876.521	15561
876.65	15606
876.778	15485
876.906	15519
877.034	15408
877.162	15466
877.29	15462
877.418	15462
877.546	15545
877.674	15614
877.802	15572
877.93	15553
878.058	15504
878.185	15477
878.313	15523
878.441	15568
878.568	15363
878.696	15447
878.824	15629
878.951	15610
879.079	15675
879.206	15816
879.333	15717
879.461	15591
879.588	15599
879.715	15728
879.842	15804
879.97	15606
880.097	15401
880.224	15294
880.351	15370
880.478	15496
880.605	15340
880.732	15332
880.859	15591
880.986	15481
881.112	15397
881.239	15233
881.366	15112
881.493	15176
881.619	14986
881.746	15051
881.872	15013
881.999	14982
882.125	15028
882.252	15077
882.378	15077
882.505	15195
882.631	14986
882.757	14925
882.883	14918
883.01	14868
883.136	14804
883.262	14621
883.388	14720
883.514	14880
883.64	14845
883.766	14811
883.892	14663
884.018	14663
884.143	14823
884.269	14857
884.395	14663
884.52	14552
884.646	14511
884.772	14564
884.897	14393
885.023	14613
885.148	14594
885.274	14701
885.399	14701
885.524	14526
885.65	14492
885.775	14537
885.9	14568
886.025	14731
886.15	14613
886.275	14530
886.4	14454
886.525	14575
886.65	14533
886.775	14511
886.9	14648
887.025	14777
887.149	14499
887.274	14434
887.399	14396
887.523	14389
887.648	14385
887.773	14351
887.897	14457
888.021	14408
888.146	14362
888.27	14473
888.395	14461
888.519	14446
888.643	14457
888.767	14514
888.891	14267
889.015	14256
889.139	14259
889.263	14259
889.387	14317
889.511	14594
889.635	14366
889.759	14237
889.883	14248
890.006	14278
890.13	14427
890.254	14256
890.377	14259
890.501	14043
890.624	14008
890.748	14134
890.871	13997
890.995	13883
891.118	13974
891.241	13967
891.364	13959
891.488	14081
891.611	13917
891.734	14043
891.857	14046
891.98	13944
892.103	14035
892.226	14088
892.349	13894
892.471	13750
892.594	13970
892.717	13959
892.839	14008
892.962	13909
893.085	14062
893.207	13936
893.33	13864
893.452	13928
893.575	14039
893.697	13936
893.819	14172
893.941	14081
894.064	14180
894.186	13970
894.308	13913
894.43	14031
894.552	14256
894.674	14054
894.796	13989
894.918	14005
895.04	14046
895.161	14130
895.283	14138
895.405	14001
895.526	13997
895.648	14081
895.769	14157
895.891	14119
896.012	14199
896.134	14199
896.255	14202
896.376	14065
896.498	14138
896.619	14298
896.74	14130
896.861	14195
896.982	14495
897.103	14625
897.224	14362
897.345	14381
897.466	14328
897.587	14400
897.708	14545
897.828	14434
897.949	14332
898.07	14317
898.19	14404
898.311	14560
898.431	14404
898.552	14590
898.672	14583
898.792	14552
898.913	14518
899.033	14461
899.153	14298
899.273	14206
899.393	14294
899.513	14324
899.633	14275
899.753	14263
899.873	14366
899.993	14511
900.113	14427
900.232	14476
900.352	14282
900.472	14286
900.591	14107
900.711	14298
900.83	14176
900.95	14248
901.069	14393
901.189	14084
901.308	13856
901.427	13784
901.546	13890
901.665	13917
901.784	13890
901.904	13769
902.023	13666
902.141	13556
902.26	13445
902.379	13529
902.498	13430
902.617	13373
902.735	13510
902.854	13453
902.973	13312
903.091	13160
903.21	13069
903.328	13152
903.446	13084
903.565	13057
903.683	13034
903.801	13023
903.919	13061
904.038	12970
904.156	12833
904.274	12859
904.392	12833
904.51	12837
904.627	12783
904.745	12817
904.863	12935
904.981	12616
905.098	12551
905.216	12513
905.334	12582
905.451	12551
905.569	12433
905.686	12506
905.803	12486
905.921	12403
906.038	12437
906.155	12414
906.272	12334
906.389	12292
906.506	12049
906.623	12194
906.74	12087
906.857	12003
906.974	12019
907.091	12258
907.208	12323
907.324	12133
907.441	12030
907.557	11927
907.674	11958
907.79	11790
907.907	11809
908.023	11961
908.139	11885
908.256	11847
908.372	11885
908.488	11809
908.604	11676
908.72	11634
908.836	11726
908.952	11623
909.068	11672
909.184	11748
909.3	11657
909.415	11676
909.531	11710
909.647	11455
909.762	11474
909.878	11425
909.993	11372
910.108	11391
910.224	11322
910.339	11429
910.454	11387
910.57	11227
910.685	11193
910.8	11410
910.915	11433
911.03	11307
911.145	11124
911.259	11045
911.374	11098
911.489	11071
911.604	10934
911.718	10957
911.833	10938
911.947	10824
912.062	10714
912.176	10847
912.291	10831
912.405	10904
912.519	11086
912.633	11113
912.748	10900
912.862	10930
912.976	10828
913.09	10683
913.204	10653
913.318	10778
913.431	10847
913.545	10858
913.659	10900
913.772	10755
913.886	10664
914	10653
914.113	10736
914.226	10828
914.34	10809
914.453	10542
914.566	10672
914.68	10577
914.793	10622
914.906	10432
915.019	10360
915.132	10344
915.245	10329
915.358	10344
915.47	10360
915.583	10363
915.696	10508
915.809	10516
915.921	10603
916.034	10348
916.146	10356
916.259	10329
916.371	10447
916.483	10459
916.595	10356
916.708	10352
916.82	10356
916.932	10306
917.044	10413
917.156	10272
917.268	10143
917.38	10303
917.491	10200
917.603	10257
917.715	10337
917.826	10276
917.938	10166
918.049	10093
918.161	10268
918.272	10428
918.384	10337
918.495	10322
918.606	10131
918.717	10093
918.828	10109
918.939	10101
919.05	10059
919.161	10131
919.272	9968
919.383	9972
919.494	10215
919.604	10306
919.715	10135
919.826	10112
919.936	10101
920.047	10234
920.157	10128
920.267	10337
920.378	10120
920.488	10139
920.598	10318
920.708	10447
920.818	10223
920.928	10352
921.038	10455
921.148	10440
921.258	10116
921.368	10116
921.477	9968
921.587	9945
921.697	9789
921.806	9953
921.916	9838
922.025	9785
922.134	9717
922.244	9641
922.353	9762
922.462	9610
922.571	9500
922.68	9450
922.789	9378
922.898	9386
923.007	9287
923.116	9469
923.224	9466
923.333	9348
923.442	9207
923.55	9298
923.659	9237
923.767	9336
923.876	9268
923.984	9313
924.092	9180
924.201	9279
924.309	9233
924.417	9214
924.525	9173
924.633	9218
924.741	10173
924.849	8998
924.956	9165
925.064	9013
925.172	8948
925.279	8967
925.387	9047
925.494	9036
925.602	9173
925.709	9188
925.816	9028
925.924	9058
926.031	9142
926.138	9028
926.245	9081
926.352	8956
926.459	9058
926.566	9127
926.673	9039
926.779	8906
926.886	8876
926.993	8807
927.099	8758
927.206	8743
927.312	8727
927.419	8826
927.525	8769
927.631	8811
927.737	8670
927.843	8636
927.95	8526
928.056	8571
928.162	8686
928.267	8746
928.373	9313
928.479	8686
928.585	8545
928.69	8708
928.796	8689
928.901	8625
929.007	8488
929.112	8526
929.218	8571
929.323	8514
929.428	8541
929.533	8636
929.638	8423
929.743	8450
929.848	8446
929.953	8461
930.058	8366
930.163	8267
930.267	8263
930.372	8328
930.477	8199
930.581	8484
930.685	8389
930.79	8180
930.894	8221
930.998	8176
931.103	8370
931.207	7959
931.311	7932
931.415	7803
931.519	7731
931.623	7658
