Data from test_V78500241_278.txt Node
Date: Fri Mar 25 14:35:39 CST 2022
User: usil
Spectrometer: V785-0024
Trigger mode: 0
Integration Time (sec): 4.000000E-1
Scans to average: 1
Nonlinearity correction enabled: false
Boxcar width: 0
Storing dark spectrum: false
XAxis mode: Wavelengths
Number of Pixels in Spectrum: 1024
>>>>>Begin Spectral Data<<<<<
801.071	27283
801.214	27135
801.356	26952
801.499	26933
801.641	26769
801.783	26640
801.926	26693
802.068	26549
802.211	26355
802.353	26533
802.496	26480
802.638	26469
802.78	26301
802.923	26278
803.065	26054
803.208	26149
803.35	26172
803.492	26202
803.635	26286
803.777	26172
803.919	26442
804.061	26545
804.204	26351
804.346	26214
804.488	26119
804.63	26282
804.773	26122
804.915	26161
805.057	26415
805.199	26168
805.341	26237
805.483	26358
805.626	26278
805.768	26191
805.91	26298
806.052	26313
806.194	26157
806.336	26336
806.478	26256
806.62	26233
806.762	26332
806.904	26518
807.046	26693
807.188	26613
807.33	26678
807.472	26800
807.614	26602
807.756	26773
807.898	26541
808.04	26514
808.182	26526
808.324	26549
808.465	26571
808.607	26796
808.749	26796
808.891	27001
809.033	27001
809.174	27017
809.316	26773
809.458	26937
809.6	26796
809.741	26792
809.883	26697
810.025	26990
810.166	26925
810.308	27047
810.45	26925
810.591	26781
810.733	26731
810.875	26659
811.016	26651
811.158	26518
811.299	26670
811.441	26678
811.582	26689
811.724	26533
811.865	26571
812.007	26720
812.148	26636
812.29	26583
812.431	26834
812.573	26986
812.714	27039
812.855	27161
812.997	27211
813.138	27222
813.279	27279
813.421	27085
813.562	26872
813.703	26929
813.845	26735
813.986	26587
814.127	26332
814.268	26305
814.41	26142
814.551	26202
814.692	26355
814.833	26164
814.974	26195
815.115	26233
815.256	26092
815.397	26050
815.539	26084
815.68	25868
815.821	25894
815.962	25814
816.103	25879
816.244	25932
816.385	25643
816.526	25651
816.666	25518
816.807	25274
816.948	25373
817.089	25453
817.23	25343
817.371	25316
817.512	25400
817.653	25213
817.793	25293
817.934	25339
818.075	25438
818.216	25274
818.356	25228
818.497	25050
818.638	25038
818.778	24909
818.919	24829
819.06	25084
819.2	25027
819.341	25213
819.481	25065
819.622	25365
819.762	25457
819.903	25514
820.043	25331
820.184	25312
820.324	25320
820.465	25426
820.605	25285
820.746	25350
820.886	25069
821.026	25240
821.167	25221
821.307	25312
821.447	25133
821.588	25015
821.728	25042
821.868	24932
822.008	24692
822.149	24608
822.289	24688
822.429	24365
822.569	24338
822.709	24350
822.849	24220
822.99	24087
823.13	24087
823.27	24057
823.41	23980
823.55	23828
823.69	23999
823.83	23935
823.97	23847
824.11	23687
824.25	23745
824.389	23638
824.529	23745
824.669	23623
824.809	23581
824.949	23737
825.089	23832
825.228	23608
825.368	23452
825.508	23440
825.648	23562
825.787	23524
825.927	23577
826.067	23429
826.206	23379
826.346	23566
826.485	23478
826.625	23478
826.765	23520
826.904	23596
827.044	23136
827.183	23025
827.323	23216
827.462	23067
827.601	23185
827.741	23037
827.88	23159
828.02	23029
828.159	23064
828.298	23113
828.437	23132
828.577	23025
828.716	23117
828.855	23018
828.994	22843
829.134	22892
829.273	22721
829.412	22793
829.551	22759
829.69	22763
829.829	22873
829.968	22691
830.107	22850
830.246	22873
830.385	22725
830.524	22664
830.663	22603
830.802	22550
830.941	22375
831.08	22291
831.219	22462
831.357	22470
831.496	22607
831.635	22356
831.774	22204
831.913	22405
832.051	22097
832.19	22204
832.329	22192
832.467	22124
832.606	22078
832.744	21991
832.883	22021
833.022	22051
833.16	21960
833.299	21926
833.437	21998
833.576	22040
833.714	22116
833.852	22055
833.991	22131
834.129	22013
834.267	22124
834.406	21960
834.544	21956
834.682	22029
834.821	21918
834.959	22131
835.097	21934
835.235	22139
835.373	21880
835.511	22006
835.65	21907
835.788	21884
835.926	21728
836.064	21641
836.202	21755
836.34	21850
836.478	21907
836.615	21751
836.753	21846
836.891	21884
837.029	21922
837.167	21751
837.305	21781
837.443	21698
837.58	21622
837.718	21739
837.856	21743
837.993	21667
838.131	21762
838.269	21583
838.406	21663
838.544	21523
838.681	21363
838.819	21351
838.956	21154
839.094	21112
839.231	21108
839.369	21233
839.506	21618
839.643	21424
839.781	21085
839.918	21062
840.055	21104
840.193	21066
840.33	21005
840.467	21062
840.604	20994
840.742	21344
840.879	20883
841.016	20944
841.153	20948
841.29	21036
841.427	20971
841.564	21142
841.701	21104
841.838	20990
841.975	20857
842.112	20773
842.249	20804
842.385	20807
842.522	20918
842.659	20845
842.796	20773
842.933	20689
843.069	20743
843.206	20735
843.343	20876
843.479	20804
843.616	20689
843.752	20648
843.889	20598
844.025	20636
844.162	20442
844.298	20629
844.435	20598
844.571	20438
844.708	20571
844.844	20583
844.98	20564
845.117	20640
845.253	20393
845.389	20499
845.525	20393
845.661	20438
845.798	20404
845.934	20533
846.07	20385
846.206	20530
846.342	20530
846.478	20324
846.614	20138
846.75	19902
846.886	20012
847.022	20050
847.158	19982
847.294	20016
847.429	19970
847.565	19982
847.701	20176
847.837	19685
847.972	19605
848.108	19715
848.244	19776
848.379	19609
848.515	19483
848.65	19533
848.786	19521
848.921	19521
849.057	19552
849.192	19605
849.328	19620
849.463	19556
849.598	19472
849.734	19430
849.869	19335
850.004	19365
850.14	19301
850.275	19164
850.41	19171
850.545	19171
850.68	19202
850.815	19316
850.95	19228
851.085	19304
851.22	19434
851.355	19263
851.49	19255
851.625	19050
851.76	19282
851.895	19069
852.03	19107
852.165	19282
852.299	19240
852.434	19308
852.569	19282
852.703	19255
852.838	19308
852.973	19324
853.107	19263
853.242	19228
853.376	19129
853.511	19004
853.645	19088
853.78	19171
853.914	19084
854.048	18958
854.183	19175
854.317	19168
854.451	19145
854.585	19057
854.72	19046
854.854	19202
854.988	18935
855.122	19057
855.256	18894
855.39	19126
855.524	19183
855.658	19080
855.792	19065
855.926	19065
856.06	19072
856.194	19171
856.327	19069
856.461	18928
856.595	19088
856.729	19110
856.862	19126
856.996	18977
857.13	19126
857.263	19103
857.397	19031
857.53	19034
857.664	19038
857.797	19126
857.931	19046
858.064	19156
858.197	19065
858.331	19012
858.464	18928
858.597	18966
858.731	18939
858.864	18943
858.997	18932
859.13	19080
859.263	18996
859.396	19110
859.529	18798
859.662	19000
859.795	18920
859.928	18970
860.061	19091
860.194	19168
860.327	18924
860.46	18821
860.592	19031
860.725	19050
860.858	19053
860.99	18993
861.123	18947
861.256	18783
861.388	18993
861.521	19544
861.653	18924
861.786	18749
861.918	18730
862.05	18989
862.183	18966
862.315	18947
862.447	19034
862.58	18966
862.712	18703
862.844	18711
862.976	18871
863.108	18814
863.24	19145
863.372	18738
863.504	18856
863.636	18711
863.768	18741
863.9	18601
864.032	18658
864.164	18639
864.296	18719
864.428	18722
864.559	18734
864.691	18791
864.823	18681
864.954	18700
865.086	18665
865.217	18639
865.349	18608
865.48	18669
865.612	18650
865.743	18730
865.875	18589
866.006	18563
866.137	18574
866.269	18631
866.4	18650
866.531	18601
866.662	18616
866.793	18509
866.924	18513
867.055	18616
867.186	18483
867.317	18551
867.448	18467
867.579	18547
867.71	18452
867.841	18547
867.972	18597
868.103	18483
868.233	18582
868.364	18566
868.495	18661
868.625	18669
868.756	18977
868.886	18684
869.017	18726
869.147	18924
869.278	18825
869.408	18821
869.539	18776
869.669	18856
869.799	18973
869.929	18939
870.06	18840
870.19	19072
870.32	19084
870.45	19088
870.58	19194
870.71	19168
870.84	19209
870.97	19221
871.1	19179
871.23	19384
871.36	19373
871.489	19255
871.619	19213
871.749	19411
871.879	19506
872.008	19529
872.138	19343
872.267	19304
872.397	19213
872.526	19118
872.656	19266
872.785	19202
872.915	19407
873.044	19396
873.173	19453
873.303	19384
873.432	19381
873.561	19567
873.69	19350
873.819	19350
873.948	19419
874.077	19407
874.206	19362
874.335	19358
874.464	19578
874.593	19670
874.722	19700
874.851	19719
874.979	19784
875.108	19769
875.237	19765
875.365	19632
875.494	19628
875.623	19734
875.751	19639
875.88	19769
876.008	19864
876.136	19868
876.265	20088
876.393	20199
876.521	20183
876.65	20088
876.778	20145
876.906	19989
877.034	19997
877.162	20081
877.29	20043
877.418	20050
877.546	20062
877.674	20157
877.802	19963
877.93	20138
878.058	20001
878.185	19982
878.313	20012
878.441	19967
878.568	19959
878.696	20039
878.824	20088
878.951	20077
879.079	20324
879.206	20339
879.333	20412
879.461	20122
879.588	20290
879.715	20415
879.842	20488
879.97	20172
880.097	20020
880.224	19868
880.351	20005
880.478	19993
880.605	19845
880.732	19925
880.859	20180
880.986	20016
881.112	20073
881.239	19788
881.366	19655
881.493	19647
881.619	19540
881.746	19548
881.872	19571
881.999	19533
882.125	19499
882.252	19567
882.378	19647
882.505	19662
882.631	19426
882.757	19289
882.883	19377
883.01	19335
883.136	19270
883.262	19122
883.388	19164
883.514	19331
883.64	19331
883.766	19209
883.892	19110
884.018	19129
884.143	19232
884.269	19388
884.395	18985
884.52	18924
884.646	19023
884.772	18897
884.897	18798
885.023	18958
885.148	19027
885.274	19118
885.399	19004
885.524	18894
885.65	18920
885.775	19015
885.9	18977
886.025	18924
886.15	18970
886.275	18859
886.4	18806
886.525	18867
886.65	18852
886.775	18897
886.9	19042
887.025	19152
887.149	18901
887.274	18817
887.399	18635
887.523	18631
887.648	18650
887.773	18604
887.897	18741
888.021	18749
888.146	18669
888.27	18779
888.395	18760
888.519	18776
888.643	18722
888.767	18760
888.891	18642
889.015	18593
889.139	18464
889.263	18422
889.387	18513
889.511	18688
889.635	18635
889.759	18456
889.883	18475
890.006	18532
890.13	18551
890.254	18338
890.377	18433
890.501	18292
890.624	18194
890.748	18296
890.871	18266
890.995	18133
891.118	18076
891.241	18174
891.364	18041
891.488	18182
891.611	18136
891.734	18136
891.857	18102
891.98	18106
892.103	18129
892.226	18159
892.349	18068
892.471	17908
892.594	17942
892.717	18064
892.839	18045
892.962	18030
893.085	18110
893.207	18098
893.33	17958
893.452	18045
893.575	18095
893.697	18110
893.819	18254
893.941	18220
894.064	18133
894.186	17977
894.308	18015
894.43	18167
894.552	18403
894.674	18163
894.796	18053
894.918	18079
895.04	18098
895.161	18174
895.283	18083
895.405	18057
895.526	18140
895.648	18091
895.769	18030
895.891	18095
896.012	18163
896.134	18053
896.255	18174
896.376	18129
896.498	18064
896.619	18110
896.74	18079
896.861	18121
896.982	18547
897.103	18692
897.224	18357
897.345	18399
897.466	18315
897.587	18342
897.708	18490
897.828	18361
897.949	18353
898.07	18285
898.19	18266
898.311	18547
898.431	18251
898.552	18216
898.672	18330
898.792	18506
898.913	18323
899.033	18186
899.153	18174
899.273	18087
899.393	18273
899.513	18190
899.633	18083
899.753	18102
899.873	18076
899.993	18114
900.113	18087
900.232	18102
900.352	18110
900.472	17893
900.591	17847
900.711	17901
900.83	17836
900.95	18015
901.069	18178
901.189	17821
901.308	17570
901.427	17642
901.546	17710
901.665	17596
901.784	17539
901.904	17455
902.023	17337
902.141	17208
902.26	17200
902.379	17265
902.498	17037
902.617	17060
902.735	17014
902.854	16984
902.973	16927
903.091	16755
903.21	16717
903.328	16630
903.446	16569
903.565	16493
903.683	16516
903.801	16462
903.919	16443
904.038	16474
904.156	16352
904.274	16421
904.392	16402
904.51	16367
904.627	16356
904.745	16474
904.863	16333
904.981	16147
905.098	16025
905.216	16013
905.334	15953
905.451	15994
905.569	16029
905.686	16059
905.803	15895
905.921	15846
906.038	15949
906.155	15808
906.272	15793
906.389	15819
906.506	15595
906.623	15576
906.74	15469
906.857	15374
906.974	15447
907.091	15618
907.208	15641
907.324	15549
907.441	15454
907.557	15230
907.674	15245
907.79	15184
907.907	15188
908.023	15325
908.139	15329
908.256	15188
908.372	15062
908.488	15058
908.604	15024
908.72	14910
908.836	14979
908.952	14990
909.068	15005
909.184	14982
909.3	14967
909.415	14960
909.531	14948
909.647	14720
909.762	14651
909.878	14587
909.993	14594
910.108	14629
910.224	14583
910.339	14564
910.454	14526
910.57	14507
910.685	14419
910.8	14697
910.915	14598
911.03	14427
911.145	14377
911.259	14309
911.374	14309
911.489	14202
911.604	14225
911.718	13978
911.833	13986
911.947	13875
912.062	13951
912.176	13986
912.291	13978
912.405	14012
912.519	14107
912.633	14259
912.748	14058
912.862	14035
912.976	13974
913.09	13811
913.204	13852
913.318	13871
913.431	13989
913.545	13864
913.659	13978
913.772	13898
913.886	13727
914	13613
914.113	13738
914.226	13849
914.34	13753
914.453	13601
914.566	13795
914.68	13601
914.793	13613
914.906	13453
915.019	13350
915.132	13282
915.245	13350
915.358	13411
915.47	13419
915.583	13346
915.696	13350
915.809	13544
915.921	13457
916.034	13343
916.146	13247
916.259	13324
916.371	13289
916.483	13301
916.595	13251
916.708	13263
916.82	13247
916.932	13236
917.044	13217
917.156	13152
917.268	13091
917.38	13076
917.491	13149
917.603	13038
917.715	13194
917.826	13088
917.938	13084
918.049	12924
918.161	13061
918.272	13160
918.384	13202
918.495	12981
918.606	12947
918.717	12878
918.828	12901
918.939	12871
919.05	12768
919.161	12806
919.272	12684
919.383	12703
919.494	12905
919.604	13012
919.715	12814
919.826	12749
919.936	12776
920.047	12935
920.157	12795
920.267	13057
920.378	12829
920.488	12802
920.598	12958
920.708	13141
920.818	12962
920.928	12928
921.038	13012
921.148	13065
921.258	12791
921.368	12741
921.477	12597
921.587	12593
921.697	12460
921.806	12585
921.916	12388
922.025	12292
922.134	12258
922.244	12178
922.353	12327
922.462	12133
922.571	12057
922.68	11885
922.789	11847
922.898	11882
923.007	11878
923.116	11843
923.224	11897
923.333	11847
923.442	11733
923.55	11653
923.659	11783
923.767	11794
923.876	11779
923.984	11760
924.092	11630
924.201	11748
924.309	11748
924.417	11642
924.525	11554
924.633	11688
924.741	12620
924.849	11345
924.956	11589
925.064	11440
925.172	11379
925.279	11398
925.387	11402
925.494	11368
925.602	11440
925.709	11512
925.816	11246
925.924	11387
926.031	11421
926.138	11311
926.245	11406
926.352	11136
926.459	11410
926.566	11516
926.673	11261
926.779	11212
926.886	11197
926.993	10957
927.099	11025
927.206	11018
927.312	10904
927.419	11075
927.525	10919
927.631	11121
927.737	10938
927.843	10862
927.95	10793
928.056	10866
928.162	10831
928.267	10930
928.373	11433
928.479	10942
928.585	10771
928.69	10790
928.796	10930
928.901	10653
929.007	10641
929.112	10801
929.218	10752
929.323	10641
929.428	10599
929.533	10717
929.638	10512
929.743	10573
929.848	10626
929.953	10542
930.058	10481
930.163	10356
930.267	10367
930.372	10504
930.477	10329
930.581	10493
930.685	10379
930.79	10246
930.894	10268
930.998	10207
931.103	10329
931.207	10036
931.311	9903
931.415	9838
931.519	9618
931.623	9625
