Data from test_V78500241_2837.txt Node
Date: Fri Mar 25 14:53:28 CST 2022
User: usil
Spectrometer: V785-0024
Trigger mode: 0
Integration Time (sec): 4.000000E-1
Scans to average: 1
Nonlinearity correction enabled: false
Boxcar width: 0
Storing dark spectrum: false
XAxis mode: Wavelengths
Number of Pixels in Spectrum: 1024
>>>>>Begin Spectral Data<<<<<
801.071	21983
801.214	21873
801.356	21751
801.499	21648
801.641	21564
801.783	21507
801.926	21545
802.068	21393
802.211	21416
802.353	21317
802.496	20956
802.638	20941
802.78	20952
802.923	20781
803.065	20670
803.208	20682
803.35	20807
803.492	20876
803.635	21005
803.777	20872
803.919	20937
804.061	21131
804.204	20887
804.346	20731
804.488	20727
804.63	20781
804.773	20651
804.915	20731
805.057	20845
805.199	20594
805.341	20689
805.483	20845
805.626	20727
805.768	20651
805.91	20632
806.052	20598
806.194	20495
806.336	20857
806.478	20667
806.62	20598
806.762	20777
806.904	20853
807.046	21218
807.188	20921
807.33	21028
807.472	20971
807.614	20967
807.756	20838
807.898	20697
808.04	20724
808.182	20659
808.324	20762
808.465	20765
808.607	20963
808.749	21093
808.891	21089
809.033	21264
809.174	21074
809.316	21058
809.458	21024
809.6	20971
809.741	21020
809.883	21047
810.025	21165
810.166	21173
810.308	21180
810.45	21218
810.591	21112
810.733	20891
810.875	20758
811.016	20769
811.158	20712
811.299	20899
811.441	20952
811.582	20910
811.724	20731
811.865	20853
812.007	20746
812.148	20838
812.29	20785
812.431	20895
812.573	21211
812.714	21252
812.855	21298
812.997	21317
813.138	21492
813.279	21424
813.421	21370
813.562	21245
813.703	21096
813.845	20918
813.986	20598
814.127	20602
814.268	20408
814.41	20511
814.551	20362
814.692	20347
814.833	20305
814.974	20248
815.115	20404
815.256	20202
815.397	20233
815.539	20237
815.68	20100
815.821	20031
815.962	20100
816.103	20027
816.244	20058
816.385	19875
816.526	19814
816.666	19594
816.807	19343
816.948	19556
817.089	19460
817.23	19483
817.371	19514
817.512	19518
817.653	19460
817.793	19544
817.934	19445
818.075	19567
818.216	19571
818.356	19384
818.497	19324
818.638	19278
818.778	19236
818.919	19164
819.06	19148
819.2	19263
819.341	19274
819.481	19400
819.622	19495
819.762	19624
819.903	19586
820.043	19525
820.184	19453
820.324	19419
820.465	19506
820.605	19460
820.746	19510
820.886	19282
821.026	19487
821.167	19415
821.307	19616
821.447	19331
821.588	19320
821.728	19190
821.868	19084
822.008	18981
822.149	18947
822.289	18901
822.429	18616
822.569	18551
822.709	18620
822.849	18213
822.99	18334
823.13	18467
823.27	18209
823.41	18197
823.55	18159
823.69	18209
823.83	18171
823.97	18155
824.11	18068
824.25	17885
824.389	17942
824.529	18057
824.669	18060
824.809	18076
824.949	18072
825.089	18022
825.228	18011
825.368	17745
825.508	17809
825.648	17790
825.787	17767
825.927	17901
826.067	17691
826.206	17726
826.346	17729
826.485	17821
826.625	17684
826.765	17733
826.904	17760
827.044	17543
827.183	17524
827.323	17471
827.462	17429
827.601	17471
827.741	17356
827.88	17467
828.02	17311
828.159	17379
828.298	17402
828.437	17467
828.577	17425
828.716	17543
828.855	17337
828.994	17235
829.134	17189
829.273	17258
829.412	17029
829.551	17159
829.69	17269
829.829	17193
829.968	17353
830.107	17208
830.246	17212
830.385	17162
830.524	17121
830.663	17094
830.802	16946
830.941	16729
831.08	16812
831.219	16961
831.357	16824
831.496	17098
831.635	16774
831.774	16622
831.913	16812
832.051	16622
832.19	16630
832.329	16637
832.467	16443
832.606	16550
832.744	16459
832.883	16459
833.022	16462
833.16	16504
833.299	16436
833.437	16500
833.576	16535
833.714	16603
833.852	16470
833.991	16645
834.129	16729
834.267	16641
834.406	16538
834.544	16531
834.682	16569
834.821	16508
834.959	16725
835.097	16535
835.235	16713
835.373	16744
835.511	16607
835.65	16447
835.788	16478
835.926	16394
836.064	16246
836.202	16322
836.34	16561
836.478	16607
836.615	16417
836.753	16497
836.891	16596
837.029	16512
837.167	16470
837.305	16356
837.443	16318
837.58	16280
837.718	16390
837.856	16356
837.993	16154
838.131	16325
838.269	16303
838.406	16204
838.544	16226
838.681	16067
838.819	16086
838.956	15892
839.094	15857
839.231	15869
839.369	15956
839.506	16329
839.643	16147
839.781	15918
839.918	15785
840.055	15785
840.193	15960
840.33	15842
840.467	15857
840.604	15915
840.742	16139
840.879	15747
841.016	15713
841.153	15827
841.29	15975
841.427	15800
841.564	15861
841.701	15968
841.838	15892
841.975	15736
842.112	15766
842.249	15660
842.385	15629
842.522	15816
842.659	15701
842.796	15701
842.933	15591
843.069	15538
843.206	15564
843.343	15800
843.479	15656
843.616	15713
843.752	15466
843.889	15439
844.025	15553
844.162	15351
844.298	15523
844.435	15549
844.571	15370
844.708	15481
844.844	15629
844.98	15629
845.117	15553
845.253	15374
845.389	15374
845.525	15416
845.661	15329
845.798	15157
845.934	15283
846.07	15150
846.206	15302
846.342	15424
846.478	15283
846.614	15036
846.75	14952
846.886	14963
847.022	15127
847.158	15013
847.294	15089
847.429	15043
847.565	15024
847.701	15211
847.837	14834
847.972	14674
848.108	14811
848.244	14804
848.379	14689
848.515	14568
848.65	14693
848.786	14579
848.921	14640
849.057	14746
849.192	14590
849.328	14621
849.463	14610
849.598	14541
849.734	14575
849.869	14457
850.004	14461
850.14	14419
850.275	14358
850.41	14355
850.545	14412
850.68	14370
850.815	14457
850.95	14503
851.085	14495
851.22	14469
851.355	14381
851.49	14389
851.625	14423
851.76	14290
851.895	14275
852.03	14195
852.165	14290
852.299	14423
852.434	14518
852.569	14419
852.703	14404
852.838	14473
852.973	14396
853.107	14511
853.242	14366
853.376	14389
853.511	14119
853.645	14119
853.78	14400
853.914	14214
854.048	14244
854.183	14214
854.317	14374
854.451	14377
854.585	14286
854.72	14195
854.854	14377
854.988	14054
855.122	14115
855.256	14046
855.39	14221
855.524	14187
855.658	14248
855.792	14240
855.926	14115
856.06	14221
856.194	14294
856.327	14168
856.461	14161
856.595	14240
856.729	14153
856.862	14358
856.996	14370
857.13	14351
857.263	14298
857.397	14408
857.53	14218
857.664	14248
857.797	14385
857.931	14434
858.064	14233
858.197	14263
858.331	14282
858.464	14275
858.597	14225
858.731	14206
858.864	14259
858.997	14252
859.13	14229
859.263	14252
859.396	14278
859.529	14263
859.662	14233
859.795	14214
859.928	14225
860.061	14415
860.194	14434
860.327	14180
860.46	14149
860.592	14336
860.725	14358
860.858	14305
860.99	14294
861.123	14161
861.256	14229
861.388	14275
861.521	14876
861.653	14065
861.786	14020
861.918	14046
862.05	14043
862.183	14164
862.315	14180
862.447	14195
862.58	14199
862.712	14073
862.844	13932
862.976	14157
863.108	14012
863.24	14358
863.372	13974
863.504	14062
863.636	14050
863.768	14043
863.9	13986
864.032	13959
864.164	14024
864.296	14020
864.428	14134
864.559	14046
864.691	14035
864.823	14062
864.954	14024
865.086	14035
865.217	13970
865.349	14001
865.48	14012
865.612	14046
865.743	14153
865.875	13982
866.006	13993
866.137	14016
866.269	14016
866.4	13970
866.531	13940
866.662	13936
866.793	13959
866.924	14024
867.055	13982
867.186	13909
867.317	13898
867.448	13913
867.579	14043
867.71	13875
867.841	13967
867.972	13936
868.103	13997
868.233	13955
868.364	14027
868.495	14024
868.625	14278
868.756	14328
868.886	14115
869.017	14210
869.147	14419
869.278	14423
869.408	14282
869.539	14191
869.669	14294
869.799	14267
869.929	14339
870.06	14450
870.19	14549
870.32	14530
870.45	14556
870.58	14663
870.71	14781
870.84	14708
870.97	14587
871.1	14602
871.23	14758
871.36	14944
871.489	14815
871.619	14777
871.749	14899
871.879	14777
872.008	14895
872.138	14876
872.267	14918
872.397	14788
872.526	14629
872.656	14678
872.785	14701
872.915	14941
873.044	15005
873.173	14880
873.303	14944
873.432	14998
873.561	14975
873.69	14815
873.819	14948
873.948	15036
874.077	14914
874.206	14876
874.335	14880
874.464	14960
874.593	15233
874.722	15161
874.851	15294
874.979	15222
875.108	15256
875.237	15165
875.365	15180
875.494	15142
875.623	15287
875.751	15138
875.88	15146
876.008	15424
876.136	15397
876.265	15675
876.393	15869
876.521	15698
876.65	15739
876.778	15641
876.906	15629
877.034	15542
877.162	15587
877.29	15538
877.418	15595
877.546	15595
877.674	15724
877.802	15629
877.93	15614
878.058	15622
878.185	15538
878.313	15469
878.441	15603
878.568	15538
878.696	15488
878.824	15564
878.951	15717
879.079	15755
879.206	15850
879.333	15812
879.461	15709
879.588	15709
879.715	15892
879.842	15846
879.97	15671
880.097	15507
880.224	15485
880.351	15401
880.478	15469
880.605	15435
880.732	15557
880.859	15736
880.986	15458
881.112	15507
881.239	15298
881.366	15264
881.493	15184
881.619	15077
881.746	15097
881.872	15211
881.999	15028
882.125	15017
882.252	15176
882.378	15150
882.505	15329
882.631	15032
882.757	14960
882.883	15001
883.01	14880
883.136	14914
883.262	14804
883.388	14682
883.514	14857
883.64	14914
883.766	14811
883.892	14785
884.018	14636
884.143	14979
884.269	15055
884.395	14750
884.52	14590
884.646	14640
884.772	14549
884.897	14488
885.023	14659
885.148	14758
885.274	14880
885.399	14754
885.524	14640
885.65	14686
885.775	14796
885.9	14648
886.025	14834
886.15	14731
886.275	14708
886.4	14587
886.525	14613
886.65	14651
886.775	14610
886.9	14777
887.025	14826
887.149	14560
887.274	14533
887.399	14484
887.523	14450
887.648	14381
887.773	14412
887.897	14651
888.021	14537
888.146	14450
888.27	14590
888.395	14583
888.519	14575
888.643	14518
888.767	14590
888.891	14503
889.015	14313
889.139	14434
889.263	14301
889.387	14446
889.511	14522
889.635	14560
889.759	14305
889.883	14191
890.006	14389
890.13	14469
890.254	14240
890.377	14278
890.501	14157
890.624	14092
890.748	14229
890.871	14073
890.995	13993
891.118	13887
891.241	14008
891.364	13951
891.488	14138
891.611	14077
891.734	14134
891.857	14157
891.98	14005
892.103	14092
892.226	14054
892.349	13928
892.471	13890
892.594	14027
892.717	14043
892.839	14005
892.962	14111
893.085	14069
893.207	14012
893.33	13967
893.452	14020
893.575	14054
893.697	13967
893.819	14221
893.941	14263
894.064	14252
894.186	14054
894.308	14024
894.43	14092
894.552	14214
894.674	14290
894.796	14092
894.918	14073
895.04	14046
895.161	14126
895.283	14172
895.405	14069
895.526	14123
895.648	14168
895.769	14130
895.891	14180
896.012	14244
896.134	14282
896.255	14149
896.376	14244
896.498	14229
896.619	14290
896.74	14199
896.861	14221
896.982	14549
897.103	14663
897.224	14469
897.345	14476
897.466	14377
897.587	14511
897.708	14640
897.828	14507
897.949	14442
898.07	14347
898.19	14442
898.311	14579
898.431	14492
898.552	14526
898.672	14583
898.792	14727
898.913	14564
899.033	14492
899.153	14492
899.273	14385
899.393	14355
899.513	14442
899.633	14336
899.753	14415
899.873	14454
899.993	14351
900.113	14393
900.232	14400
900.352	14366
900.472	14301
900.591	14332
900.711	14286
900.83	14305
900.95	14438
901.069	14377
901.189	14187
901.308	14035
901.427	14043
901.546	13940
901.665	14088
901.784	14039
901.904	13864
902.023	13761
902.141	13689
902.26	13548
902.379	13613
902.498	13624
902.617	13548
902.735	13647
902.854	13559
902.973	13407
903.091	13335
903.21	13247
903.328	13259
903.446	13198
903.565	13057
903.683	13133
903.801	13076
903.919	13084
904.038	13015
904.156	12909
904.274	13012
904.392	12844
904.51	12871
904.627	12909
904.745	12951
904.863	13061
904.981	12749
905.098	12608
905.216	12612
905.334	12631
905.451	12662
905.569	12555
905.686	12631
905.803	12563
905.921	12445
906.038	12536
906.155	12346
906.272	12304
906.389	12388
906.506	12216
906.623	12163
906.74	12178
906.857	12213
906.974	12148
907.091	12315
907.208	12399
907.324	12190
907.441	12205
907.557	12011
907.674	11893
907.79	11901
907.907	11927
908.023	11935
908.139	11904
908.256	11824
908.372	11885
908.488	11931
908.604	11726
908.72	11733
908.836	11707
908.952	11680
909.068	11726
909.184	11821
909.3	11691
909.415	11737
909.531	11695
909.647	11490
909.762	11501
909.878	11421
909.993	11471
910.108	11493
910.224	11429
910.339	11512
910.454	11322
910.57	11364
910.685	11417
910.8	11516
910.915	11528
911.03	11379
911.145	11140
911.259	11079
911.374	11155
911.489	11090
911.604	11064
911.718	10968
911.833	10976
911.947	10850
912.062	10805
912.176	10896
912.291	10949
912.405	10942
912.519	11140
912.633	11162
912.748	10999
912.862	10900
912.976	10733
913.09	10687
913.204	10778
913.318	10816
913.431	10877
913.545	10869
913.659	10995
913.772	10839
913.886	10649
914	10694
914.113	10729
914.226	10790
914.34	10763
914.453	10584
914.566	10797
914.68	10664
914.793	10641
914.906	10432
915.019	10367
915.132	10348
915.245	10481
915.358	10508
915.47	10455
915.583	10546
915.696	10478
915.809	10637
915.921	10637
916.034	10531
916.146	10405
916.259	10348
916.371	10455
916.483	10523
916.595	10375
916.708	10325
916.82	10390
916.932	10348
917.044	10352
917.156	10272
917.268	10219
917.38	10280
917.491	10253
917.603	10249
917.715	10341
917.826	10356
917.938	10306
918.049	10128
918.161	10329
918.272	10352
918.384	10375
918.495	10303
918.606	10173
918.717	10139
918.828	10169
918.939	10238
919.05	10048
919.161	10139
919.272	9998
919.383	10044
919.494	10249
919.604	10413
919.715	10188
919.826	10120
919.936	10196
920.047	10234
920.157	10227
920.267	10413
920.378	10185
920.488	10158
920.598	10367
920.708	10546
920.818	10325
920.928	10409
921.038	10584
921.148	10470
921.258	10257
921.368	10128
921.477	10025
921.587	9930
921.697	9930
921.806	10044
921.916	9922
922.025	9755
922.134	9736
922.244	9694
922.353	9797
922.462	9618
922.571	9614
922.68	9443
922.789	9447
922.898	9466
923.007	9332
923.116	9420
923.224	9393
923.333	9397
923.442	9294
923.55	9298
923.659	9291
923.767	9348
923.876	9351
923.984	9458
924.092	9264
924.201	9272
924.309	9306
924.417	9287
924.525	9340
924.633	9260
924.741	10230
924.849	9135
924.956	9214
925.064	9104
925.172	9036
925.279	9070
925.387	9165
925.494	9104
925.602	9275
925.709	9195
925.816	8982
925.924	9157
926.031	9157
926.138	9100
926.245	9195
926.352	8994
926.459	9173
926.566	9188
926.673	8994
926.779	8918
926.886	8956
926.993	8781
927.099	8815
927.206	8762
927.312	8773
927.419	8826
927.525	8788
927.631	8849
927.737	8800
927.843	8720
927.95	8575
928.056	8640
928.162	8773
928.267	8754
928.373	9283
928.479	8815
928.585	8530
928.69	8693
928.796	8716
928.901	8655
929.007	8465
929.112	8636
929.218	8655
929.323	8598
929.428	8514
929.533	8739
929.638	8469
929.743	8469
929.848	8568
929.953	8518
930.058	8438
930.163	8320
930.267	8347
930.372	8465
930.477	8210
930.581	8530
930.685	8370
930.79	8263
930.894	8259
930.998	8214
931.103	8423
931.207	7986
931.311	7974
931.415	7894
931.519	7769
931.623	7715
