Data from test_V78500241_1746.txt Node
Date: Fri Mar 25 14:45:52 CST 2022
User: usil
Spectrometer: V785-0024
Trigger mode: 0
Integration Time (sec): 4.000000E-1
Scans to average: 1
Nonlinearity correction enabled: false
Boxcar width: 0
Storing dark spectrum: false
XAxis mode: Wavelengths
Number of Pixels in Spectrum: 1024
>>>>>Begin Spectral Data<<<<<
801.071	22230
801.214	22135
801.356	21781
801.499	21838
801.641	21603
801.783	21553
801.926	21557
802.068	21507
802.211	21458
802.353	21374
802.496	21138
802.638	21001
802.78	20967
802.923	20971
803.065	20845
803.208	20845
803.35	20864
803.492	20986
803.635	20971
803.777	20975
803.919	20925
804.061	21332
804.204	21058
804.346	20872
804.488	20731
804.63	20792
804.773	20701
804.915	20963
805.057	20948
805.199	20819
805.341	20956
805.483	21028
805.626	20902
805.768	20724
805.91	20902
806.052	20838
806.194	20731
806.336	21070
806.478	20895
806.62	20933
806.762	20971
806.904	21043
807.046	21226
807.188	21214
807.33	21169
807.472	21195
807.614	21036
807.756	21131
807.898	20982
808.04	20708
808.182	20883
808.324	20967
808.465	21127
808.607	21165
808.749	21226
808.891	21424
809.033	21496
809.174	21389
809.316	21260
809.458	21245
809.6	21348
809.741	21237
809.883	21256
810.025	21382
810.166	21397
810.308	21389
810.45	21329
810.591	21214
810.733	21165
810.875	21077
811.016	20941
811.158	20921
811.299	21043
811.441	21100
811.582	21176
811.724	21001
811.865	20929
812.007	21062
812.148	20941
812.29	21085
812.431	21154
812.573	21389
812.714	21313
812.855	21515
812.997	21530
813.138	21713
813.279	21572
813.421	21401
813.562	21477
813.703	21332
813.845	21085
813.986	20777
814.127	20705
814.268	20594
814.41	20530
814.551	20495
814.692	20590
814.833	20423
814.974	20511
815.115	20556
815.256	20385
815.397	20434
815.539	20366
815.68	20267
815.821	20202
815.962	20324
816.103	20248
816.244	20187
816.385	20058
816.526	20069
816.666	19875
816.807	19674
816.948	19803
817.089	19799
817.23	19784
817.371	19811
817.512	19734
817.653	19719
817.793	19635
817.934	19708
818.075	19765
818.216	19731
818.356	19689
818.497	19510
818.638	19304
818.778	19312
818.919	19392
819.06	19426
819.2	19438
819.341	19540
819.481	19590
819.622	19769
819.762	19807
819.903	19963
820.043	19788
820.184	19715
820.324	19651
820.465	19696
820.605	19578
820.746	19620
820.886	19544
821.026	19628
821.167	19670
821.307	19731
821.447	19559
821.588	19460
821.728	19339
821.868	19103
822.008	19126
822.149	18985
822.289	19061
822.429	18802
822.569	18764
822.709	18719
822.849	18563
822.99	18639
823.13	18551
823.27	18559
823.41	18448
823.55	18285
823.69	18338
823.83	18365
823.97	18186
824.11	18114
824.25	18026
824.389	18194
824.529	18144
824.669	18091
824.809	18171
824.949	18148
825.089	18209
825.228	18197
825.368	17935
825.508	17832
825.648	17950
825.787	18026
825.927	18019
826.067	17904
826.206	17893
826.346	17942
826.485	17950
826.625	17977
826.765	17961
826.904	18003
827.044	17649
827.183	17668
827.323	17474
827.462	17665
827.601	17676
827.741	17539
827.88	17653
828.02	17505
828.159	17547
828.298	17543
828.437	17627
828.577	17608
828.716	17684
828.855	17520
828.994	17379
829.134	17330
829.273	17356
829.412	17292
829.551	17258
829.69	17345
829.829	17296
829.968	17406
830.107	17376
830.246	17353
830.385	17356
830.524	17231
830.663	17159
830.802	17090
830.941	16968
831.08	16984
831.219	17086
831.357	16995
831.496	17170
831.635	17045
831.774	16828
831.913	16831
832.051	16782
832.19	16816
832.329	16839
832.467	16607
832.606	16622
832.744	16634
832.883	16702
833.022	16588
833.16	16733
833.299	16698
833.437	16649
833.576	16740
833.714	16694
833.852	16717
833.991	16869
834.129	16759
834.267	16850
834.406	16607
834.544	16767
834.682	16694
834.821	16668
834.959	16869
835.097	16596
835.235	16736
835.373	16816
835.511	16790
835.65	16577
835.788	16649
835.926	16470
836.064	16470
836.202	16462
836.34	16611
836.478	16683
836.615	16630
836.753	16618
836.891	16816
837.029	16649
837.167	16546
837.305	16558
837.443	16485
837.58	16375
837.718	16542
837.856	16497
837.993	16436
838.131	16504
838.269	16398
838.406	16440
838.544	16287
838.681	16295
838.819	16131
838.956	16090
839.094	16025
839.231	16109
839.369	16124
839.506	16424
839.643	16192
839.781	16048
839.918	15960
840.055	16135
840.193	16055
840.33	15994
840.467	16074
840.604	16105
840.742	16253
840.879	15918
841.016	15922
841.153	15857
841.29	16219
841.427	15968
841.564	16097
841.701	16063
841.838	16093
841.975	15968
842.112	15842
842.249	15865
842.385	15819
842.522	15956
842.659	15774
842.796	15762
842.933	15835
843.069	15762
843.206	15838
843.343	15838
843.479	15838
843.616	15835
843.752	15610
843.889	15587
844.025	15759
844.162	15679
844.298	15656
844.435	15488
844.571	15591
844.708	15553
844.844	15728
844.98	15751
845.117	15701
845.253	15542
845.389	15511
845.525	15488
845.661	15545
845.798	15420
845.934	15424
846.07	15397
846.206	15367
846.342	15515
846.478	15428
846.614	15260
846.75	15077
846.886	15146
847.022	15218
847.158	15085
847.294	15146
847.429	15233
847.565	15123
847.701	15485
847.837	14861
847.972	14800
848.108	15028
848.244	14998
848.379	14857
848.515	14739
848.65	14743
848.786	14754
848.921	14788
849.057	14925
849.192	14788
849.328	14857
849.463	14815
849.598	14716
849.734	14663
849.869	14610
850.004	14537
850.14	14541
850.275	14613
850.41	14434
850.545	14507
850.68	14552
850.815	14571
850.95	14587
851.085	14743
851.22	14629
851.355	14617
851.49	14594
851.625	14415
851.76	14499
851.895	14480
852.03	14457
852.165	14583
852.299	14545
852.434	14556
852.569	14514
852.703	14648
852.838	14610
852.973	14674
853.107	14606
853.242	14522
853.376	14347
853.511	14301
853.645	14336
853.78	14469
853.914	14370
854.048	14431
854.183	14396
854.317	14351
854.451	14606
854.585	14389
854.72	14381
854.854	14457
854.988	14317
855.122	14339
855.256	14271
855.39	14476
855.524	14511
855.658	14514
855.792	14450
855.926	14377
856.06	14427
856.194	14465
856.327	14347
856.461	14442
856.595	14320
856.729	14370
856.862	14541
856.996	14495
857.13	14518
857.263	14492
857.397	14564
857.53	14480
857.664	14446
857.797	14473
857.931	14522
858.064	14434
858.197	14537
858.331	14423
858.464	14400
858.597	14313
858.731	14393
858.864	14324
858.997	14450
859.13	14431
859.263	14465
859.396	14484
859.529	14408
859.662	14275
859.795	14339
859.928	14522
860.061	14541
860.194	14518
860.327	14450
860.46	14339
860.592	14522
860.725	14663
860.858	14427
860.99	14377
861.123	14218
861.256	14313
861.388	14461
861.521	15146
861.653	14370
861.786	14153
861.918	14328
862.05	14294
862.183	14305
862.315	14480
862.447	14336
862.58	14339
862.712	14259
862.844	14237
862.976	14233
863.108	14244
863.24	14606
863.372	14084
863.504	14161
863.636	14153
863.768	14305
863.9	14199
864.032	14096
864.164	14221
864.296	14248
864.428	14271
864.559	14259
864.691	14263
864.823	14157
864.954	14206
865.086	14206
865.217	14172
865.349	14077
865.48	14176
865.612	14248
865.743	14317
865.875	14206
866.006	14164
866.137	14103
866.269	14180
866.4	14073
866.531	14065
866.662	14119
866.793	14161
866.924	14142
867.055	14100
867.186	14221
867.317	14073
867.448	14069
867.579	14142
867.71	14115
867.841	14115
867.972	14180
868.103	14142
868.233	14145
868.364	14187
868.495	14263
868.625	14484
868.756	14583
868.886	14393
869.017	14412
869.147	14488
869.278	14564
869.408	14492
869.539	14374
869.669	14575
869.799	14400
869.929	14492
870.06	14590
870.19	14708
870.32	14682
870.45	14693
870.58	14815
870.71	14918
870.84	14899
870.97	14800
871.1	14826
871.23	14986
871.36	14933
871.489	14921
871.619	14971
871.749	15005
871.879	15036
872.008	15108
872.138	15135
872.267	14975
872.397	14842
872.526	14788
872.656	14944
872.785	14830
872.915	15024
873.044	15112
873.173	15036
873.303	15074
873.432	15081
873.561	15127
873.69	15055
873.819	15119
873.948	15093
874.077	15104
874.206	15093
874.335	15051
874.464	15135
874.593	15306
874.722	15287
874.851	15401
874.979	15435
875.108	15458
875.237	15340
875.365	15268
875.494	15325
875.623	15466
875.751	15382
875.88	15500
876.008	15591
876.136	15564
876.265	15701
876.393	15854
876.521	15819
876.65	15793
876.778	15819
876.906	15701
877.034	15793
877.162	15831
877.29	15743
877.418	15728
877.546	15785
877.674	15861
877.802	15785
877.93	15892
878.058	15736
878.185	15652
878.313	15804
878.441	15789
878.568	15652
878.696	15743
878.824	15789
878.951	15835
879.079	15979
879.206	16101
879.333	15895
879.461	15926
879.588	15895
879.715	15922
879.842	16154
879.97	15850
880.097	15698
880.224	15641
880.351	15610
880.478	15644
880.605	15622
880.732	15629
880.859	15934
880.986	15671
881.112	15690
881.239	15450
881.366	15542
881.493	15329
881.619	15306
881.746	15279
881.872	15310
881.999	15214
882.125	15226
882.252	15291
882.378	15272
882.505	15439
882.631	15310
882.757	15074
882.883	15104
883.01	15066
883.136	15135
883.262	15013
883.388	14963
883.514	15108
883.64	15089
883.766	15051
883.892	14956
884.018	14914
884.143	15108
884.269	15173
884.395	14952
884.52	14682
884.646	14830
884.772	14735
884.897	14667
885.023	14872
885.148	14921
885.274	14929
885.399	14899
885.524	14845
885.65	14765
885.775	14853
885.9	14777
886.025	14956
886.15	14925
886.275	14739
886.4	14785
886.525	14773
886.65	14750
886.775	14705
886.9	14902
887.025	15032
887.149	14788
887.274	14689
887.399	14689
887.523	14583
887.648	14545
887.773	14457
887.897	14758
888.021	14762
888.146	14545
888.27	14739
888.395	14705
888.519	14640
888.643	14674
888.767	14720
888.891	14670
889.015	14450
889.139	14564
889.263	14438
889.387	14617
889.511	14705
889.635	14686
889.759	14351
889.883	14400
890.006	14541
890.13	14613
890.254	14511
890.377	14503
890.501	14328
890.624	14278
890.748	14366
890.871	14199
890.995	14191
891.118	14130
891.241	14233
891.364	14183
891.488	14298
891.611	14168
891.734	14214
891.857	14305
891.98	14138
892.103	14225
892.226	14168
892.349	14187
892.471	14077
892.594	14248
892.717	14233
892.839	14149
892.962	14240
893.085	14259
893.207	14195
893.33	14202
893.452	14115
893.575	14240
893.697	14123
893.819	14324
893.941	14343
894.064	14275
894.186	14111
894.308	14081
894.43	14286
894.552	14355
894.674	14271
894.796	14191
894.918	14225
895.04	14210
895.161	14328
895.283	14172
895.405	14138
895.526	14358
895.648	14263
895.769	14358
895.891	14362
896.012	14389
896.134	14389
896.255	14275
896.376	14313
896.498	14355
896.619	14393
896.74	14408
896.861	14431
896.982	14678
897.103	14861
897.224	14659
897.345	14552
897.466	14450
897.587	14640
897.708	14746
897.828	14655
897.949	14670
898.07	14446
898.19	14552
898.311	14720
898.431	14579
898.552	14708
898.672	14796
898.792	14712
898.913	14716
899.033	14629
899.153	14571
899.273	14446
899.393	14476
899.513	14640
899.633	14511
899.753	14568
899.873	14476
899.993	14587
900.113	14613
900.232	14590
900.352	14526
900.472	14564
900.591	14415
900.711	14389
900.83	14317
900.95	14511
901.069	14499
901.189	14358
901.308	14134
901.427	14039
901.546	14142
901.665	14134
901.784	14202
901.904	14043
902.023	13890
902.141	13712
902.26	13677
902.379	13791
902.498	13655
902.617	13563
902.735	13837
902.854	13674
902.973	13537
903.091	13426
903.21	13324
903.328	13430
903.446	13377
903.565	13240
903.683	13251
903.801	13194
903.919	13232
904.038	13297
904.156	13053
904.274	13152
904.392	12973
904.51	13061
904.627	13004
904.745	13046
904.863	13103
904.981	12924
905.098	12730
905.216	12726
905.334	12768
905.451	12844
905.569	12749
905.686	12692
905.803	12749
905.921	12620
906.038	12639
906.155	12707
906.272	12460
906.389	12429
906.506	12391
906.623	12338
906.74	12330
906.857	12235
906.974	12270
907.091	12369
907.208	12460
907.324	12308
907.441	12266
907.557	12167
907.674	12106
907.79	12030
907.907	12060
908.023	12144
908.139	12144
908.256	12064
908.372	11961
908.488	12030
908.604	11866
908.72	11783
908.836	11824
908.952	11828
909.068	11859
909.184	11931
909.3	11836
909.415	11927
909.531	11805
909.647	11661
909.762	11577
909.878	11570
909.993	11623
910.108	11566
910.224	11577
910.339	11630
910.454	11463
910.57	11417
910.685	11425
910.8	11634
910.915	11585
911.03	11535
911.145	11315
911.259	11273
911.374	11231
911.489	11208
911.604	11277
911.718	11064
911.833	11037
911.947	10930
912.062	10858
912.176	11189
912.291	11037
912.405	11086
912.519	11330
912.633	11212
912.748	11105
912.862	11014
912.976	11033
913.09	10774
913.204	10847
913.318	10942
913.431	11014
913.545	11018
913.659	11048
913.772	10930
913.886	10744
914	10790
914.113	10850
914.226	10968
914.34	10873
914.453	10740
914.566	10946
914.68	10714
914.793	10793
914.906	10645
915.019	10550
915.132	10554
915.245	10466
915.358	10577
915.47	10584
915.583	10675
915.696	10577
915.809	10748
915.921	10733
916.034	10538
916.146	10481
916.259	10478
916.371	10558
916.483	10546
916.595	10470
916.708	10466
916.82	10474
916.932	10451
917.044	10523
917.156	10459
917.268	10409
917.38	10409
917.491	10447
917.603	10409
917.715	10512
917.826	10405
917.938	10341
918.049	10348
918.161	10424
918.272	10459
918.384	10466
918.495	10470
918.606	10291
918.717	10257
918.828	10268
918.939	10371
919.05	10207
919.161	10272
919.272	10131
919.383	10177
919.494	10360
919.604	10447
919.715	10238
919.826	10253
919.936	10246
920.047	10394
920.157	10382
920.267	10436
920.378	10246
920.488	10341
920.598	10489
920.708	10641
920.818	10470
920.928	10508
921.038	10607
921.148	10618
921.258	10417
921.368	10188
921.477	10112
921.587	10029
921.697	10010
921.806	10139
921.916	10044
922.025	9869
922.134	9842
922.244	9819
922.353	9873
922.462	9724
922.571	9660
922.68	9542
922.789	9488
922.898	9557
923.007	9420
923.116	9530
923.224	9591
923.333	9504
923.442	9374
923.55	9382
923.659	9382
923.767	9462
923.876	9439
923.984	9496
924.092	9363
924.201	9348
924.309	9428
924.417	9443
924.525	9348
924.633	9397
924.741	10276
924.849	9211
924.956	9329
925.064	9165
925.172	9055
925.279	9100
925.387	9264
925.494	9214
925.602	9344
925.709	9207
925.816	9070
925.924	9127
926.031	9283
926.138	9165
926.245	9253
926.352	9104
926.459	9180
926.566	9332
926.673	9146
926.779	9047
926.886	9047
926.993	8918
927.099	8941
927.206	8925
927.312	8800
927.419	8960
927.525	8956
927.631	8899
927.737	8811
927.843	8739
927.95	8743
928.056	8743
928.162	8766
928.267	8834
928.373	9424
928.479	8921
928.585	8670
928.69	8766
928.796	8804
928.901	8743
929.007	8560
929.112	8693
929.218	8697
929.323	8651
929.428	8587
929.533	8708
929.638	8492
929.743	8556
929.848	8568
929.953	8575
930.058	8495
930.163	8324
930.267	8374
930.372	8469
930.477	8339
930.581	8590
930.685	8454
930.79	8343
930.894	8343
930.998	8301
931.103	8446
931.207	8123
931.311	8016
931.415	8020
931.519	7814
931.623	7772
