Data from test_V78500241_1430.txt Node
Date: Fri Mar 25 14:43:40 CST 2022
User: usil
Spectrometer: V785-0024
Trigger mode: 0
Integration Time (sec): 4.000000E-1
Scans to average: 1
Nonlinearity correction enabled: false
Boxcar width: 0
Storing dark spectrum: false
XAxis mode: Wavelengths
Number of Pixels in Spectrum: 1024
>>>>>Begin Spectral Data<<<<<
801.071	22470
801.214	22363
801.356	22021
801.499	21998
801.641	21812
801.783	21736
801.926	21854
802.068	21732
802.211	21694
802.353	21648
802.496	21279
802.638	21321
802.78	21367
802.923	21165
803.065	21108
803.208	21138
803.35	21184
803.492	21222
803.635	21154
803.777	21119
803.919	21226
804.061	21393
804.204	21218
804.346	21093
804.488	20895
804.63	21161
804.773	20994
804.915	20948
805.057	21116
805.199	21055
805.341	21188
805.483	21070
805.626	21032
805.768	20963
805.91	21100
806.052	20967
806.194	20918
806.336	21321
806.478	21055
806.62	21142
806.762	21055
806.904	21344
807.046	21496
807.188	21447
807.33	21534
807.472	21496
807.614	21264
807.756	21515
807.898	21211
808.04	21222
808.182	21169
808.324	21325
808.465	21336
808.607	21488
808.749	21671
808.891	21842
809.033	21842
809.174	21663
809.316	21622
809.458	21660
809.6	21507
809.741	21614
809.883	21641
810.025	21694
810.166	21629
810.308	21671
810.45	21679
810.591	21458
810.733	21450
810.875	21218
811.016	21116
811.158	21203
811.299	21294
811.441	21389
811.582	21329
811.724	21355
811.865	21157
812.007	21233
812.148	21131
812.29	21146
812.431	21355
812.573	21450
812.714	21694
812.855	21629
812.997	21873
813.138	21979
813.279	21880
813.421	21633
813.562	21629
813.703	21481
813.845	21355
813.986	21131
814.127	20990
814.268	20937
814.41	20834
814.551	20602
814.692	20849
814.833	20667
814.974	20762
815.115	20765
815.256	20552
815.397	20629
815.539	20636
815.68	20674
815.821	20415
815.962	20492
816.103	20427
816.244	20355
816.385	20347
816.526	20275
816.666	20058
816.807	19917
816.948	19974
817.089	20107
817.23	19894
817.371	19917
817.512	19967
817.653	19811
817.793	19909
817.934	19879
818.075	20020
818.216	20050
818.356	19826
818.497	19757
818.638	19685
818.778	19647
818.919	19635
819.06	19624
819.2	19913
819.341	19723
819.481	19708
819.622	19902
819.762	20073
819.903	20130
820.043	19947
820.184	20016
820.324	19982
820.465	19906
820.605	20008
820.746	19852
820.886	19738
821.026	19864
821.167	19932
821.307	19894
821.447	19875
821.588	19803
821.728	19597
821.868	19434
822.008	19301
822.149	19263
822.289	19274
822.429	19145
822.569	18951
822.709	19057
822.849	18745
822.99	18787
823.13	18764
823.27	18677
823.41	18582
823.55	18475
823.69	18593
823.83	18559
823.97	18585
824.11	18407
824.25	18445
824.389	18410
824.529	18494
824.669	18357
824.809	18467
824.949	18365
825.089	18426
825.228	18342
825.368	18209
825.508	18136
825.648	18148
825.787	18254
825.927	18155
826.067	18083
826.206	18232
826.346	18083
826.485	18182
826.625	18194
826.765	18270
826.904	18133
827.044	17916
827.183	17832
827.323	17840
827.462	17817
827.601	17703
827.741	17870
827.88	17847
828.02	17798
828.159	17893
828.298	17779
828.437	17893
828.577	17775
828.716	17931
828.855	17802
828.994	17516
829.134	17535
829.273	17661
829.412	17657
829.551	17554
829.69	17516
829.829	17600
829.968	17672
830.107	17589
830.246	17745
830.385	17589
830.524	17452
830.663	17410
830.802	17311
830.941	17052
831.08	17208
831.219	17284
831.357	17345
831.496	17421
831.635	17189
831.774	17071
831.913	17048
832.051	17018
832.19	16911
832.329	17033
832.467	16900
832.606	16820
832.744	16858
832.883	16987
833.022	16881
833.16	16987
833.299	16995
833.437	16923
833.576	17010
833.714	16957
833.852	17014
833.991	17010
834.129	16991
834.267	17003
834.406	16991
834.544	17052
834.682	17033
834.821	16908
834.959	17064
835.097	16843
835.235	17018
835.373	17048
835.511	16942
835.65	16915
835.788	16904
835.926	16717
836.064	16774
836.202	16828
836.34	16961
836.478	16987
836.615	16702
836.753	16942
836.891	16923
837.029	16854
837.167	16820
837.305	16843
837.443	16824
837.58	16717
837.718	16767
837.856	16672
837.993	16603
838.131	16675
838.269	16618
838.406	16744
838.544	16565
838.681	16474
838.819	16329
838.956	16154
839.094	16276
839.231	16360
839.369	16341
839.506	16561
839.643	16504
839.781	16268
839.918	16185
840.055	16246
840.193	16265
840.33	16291
840.467	16276
840.604	16310
840.742	16538
840.879	16162
841.016	16143
841.153	16124
841.29	16394
841.427	16329
841.564	16242
841.701	16306
841.838	16223
841.975	16173
842.112	16143
842.249	16055
842.385	15915
842.522	16215
842.659	16131
842.796	15998
842.933	16063
843.069	16067
843.206	15911
843.343	16090
843.479	16059
843.616	16078
843.752	15941
843.889	15816
844.025	16067
844.162	15808
844.298	15888
844.435	15880
844.571	15861
844.708	15892
844.844	16017
844.98	15994
845.117	15960
845.253	15781
845.389	15766
845.525	15846
845.661	15850
845.798	15789
845.934	15888
846.07	15934
846.206	15918
846.342	15937
846.478	15797
846.614	15450
846.75	15424
846.886	15386
847.022	15496
847.158	15439
847.294	15454
847.429	15412
847.565	15401
847.701	15584
847.837	15214
847.972	15036
848.108	15119
848.244	15188
848.379	15001
848.515	15024
848.65	14994
848.786	14963
848.921	14944
849.057	15131
849.192	15108
849.328	14990
849.463	15074
849.598	14994
849.734	14982
849.869	14826
850.004	14777
850.14	14868
850.275	14785
850.41	14689
850.545	14735
850.68	14705
850.815	14754
850.95	14754
851.085	14933
851.22	14830
851.355	14712
851.49	14724
851.625	14792
851.76	14682
851.895	14655
852.03	14636
852.165	14693
852.299	14727
852.434	14857
852.569	14712
852.703	14807
852.838	14807
852.973	14899
853.107	14872
853.242	14750
853.376	14716
853.511	14488
853.645	14606
853.78	14815
853.914	14663
854.048	14602
854.183	14590
854.317	14552
854.451	14796
854.585	14640
854.72	14648
854.854	14693
854.988	14575
855.122	14682
855.256	14503
855.39	14613
855.524	14667
855.658	14648
855.792	14629
855.926	14552
856.06	14750
856.194	14712
856.327	14640
856.461	14667
856.595	14613
856.729	14674
856.862	14648
856.996	14670
857.13	14689
857.263	14720
857.397	14788
857.53	14640
857.664	14659
857.797	14746
857.931	14731
858.064	14731
858.197	14720
858.331	14568
858.464	14606
858.597	14602
858.731	14625
858.864	14670
858.997	14514
859.13	14587
859.263	14697
859.396	14659
859.529	14560
859.662	14602
859.795	14625
859.928	14594
860.061	14720
860.194	14750
860.327	14636
860.46	14583
860.592	14792
860.725	14678
860.858	14743
860.99	14648
861.123	14473
861.256	14560
861.388	14708
861.521	15370
861.653	14514
861.786	14507
861.918	14461
862.05	14530
862.183	14678
862.315	14499
862.447	14727
862.58	14568
862.712	14370
862.844	14419
862.976	14495
863.108	14423
863.24	14842
863.372	14347
863.504	14374
863.636	14396
863.768	14423
863.9	14324
864.032	14305
864.164	14400
864.296	14294
864.428	14507
864.559	14541
864.691	14446
864.823	14499
864.954	14343
865.086	14469
865.217	14431
865.349	14267
865.48	14343
865.612	14374
865.743	14473
865.875	14442
866.006	14347
866.137	14393
866.269	14358
866.4	14358
866.531	14343
866.662	14305
866.793	14252
866.924	14328
867.055	14400
867.186	14366
867.317	14343
867.448	14267
867.579	14347
867.71	14301
867.841	14237
867.972	14415
868.103	14278
868.233	14374
868.364	14374
868.495	14461
868.625	14556
868.756	14739
868.886	14537
869.017	14575
869.147	14629
869.278	14735
869.408	14682
869.539	14590
869.669	14667
869.799	14765
869.929	14708
870.06	14731
870.19	14994
870.32	14960
870.45	14994
870.58	14990
870.71	15169
870.84	15043
870.97	14990
871.1	14990
871.23	15233
871.36	15199
871.489	15066
871.619	15214
871.749	15260
871.879	15287
872.008	15317
872.138	15222
872.267	15157
872.397	15089
872.526	14967
872.656	15081
872.785	15077
872.915	15222
873.044	15218
873.173	15192
873.303	15291
873.432	15344
873.561	15241
873.69	15336
873.819	15283
873.948	15249
874.077	15306
874.206	15211
874.335	15351
874.464	15386
874.593	15606
874.722	15500
874.851	15523
874.979	15603
875.108	15576
875.237	15488
875.365	15542
875.494	15545
875.623	15675
875.751	15599
875.88	15580
876.008	15774
876.136	15739
876.265	15945
876.393	16120
876.521	16090
876.65	16131
876.778	15975
876.906	16006
877.034	15983
877.162	16036
877.29	15934
877.418	16055
877.546	16017
877.674	16025
877.802	15998
877.93	15937
878.058	16051
878.185	15812
878.313	15941
878.441	15987
878.568	15956
878.696	15975
878.824	16055
878.951	16040
879.079	16265
879.206	16459
879.333	16318
879.461	16124
879.588	16268
879.715	16325
879.842	16462
879.97	16211
880.097	15907
880.224	15865
880.351	15895
880.478	15972
880.605	15835
880.732	15903
880.859	16067
880.986	15899
881.112	15918
881.239	15720
881.366	15759
881.493	15515
881.619	15496
881.746	15610
881.872	15576
881.999	15568
882.125	15496
882.252	15545
882.378	15538
882.505	15656
882.631	15416
882.757	15355
882.883	15485
883.01	15386
883.136	15321
883.262	15264
883.388	15237
883.514	15370
883.64	15336
883.766	15283
883.892	15081
884.018	15039
884.143	15256
884.269	15389
884.395	15104
884.52	15020
884.646	15047
884.772	14937
884.897	14925
885.023	14990
885.148	15032
885.274	15256
885.399	15245
885.524	15001
885.65	15017
885.775	15043
885.9	14941
886.025	15131
886.15	15150
886.275	15028
886.4	14891
886.525	14975
886.65	14994
886.775	14925
886.9	15104
887.025	15275
887.149	15001
887.274	14902
887.399	14891
887.523	14864
887.648	14769
887.773	14819
887.897	14876
888.021	14849
888.146	14705
888.27	14952
888.395	14937
888.519	14933
888.643	14941
888.767	14986
888.891	14815
889.015	14648
889.139	14769
889.263	14686
889.387	14781
889.511	14861
889.635	14921
889.759	14606
889.883	14670
890.006	14743
890.13	14739
890.254	14708
890.377	14613
890.501	14518
890.624	14495
890.748	14579
890.871	14454
890.995	14450
891.118	14290
891.241	14408
891.364	14393
891.488	14415
891.611	14362
891.734	14362
891.857	14362
891.98	14484
892.103	14480
892.226	14419
892.349	14320
892.471	14225
892.594	14320
892.717	14465
892.839	14377
892.962	14374
893.085	14526
893.207	14408
893.33	14294
893.452	14305
893.575	14434
893.697	14339
893.819	14522
893.941	14587
894.064	14552
894.186	14309
894.308	14301
894.43	14514
894.552	14693
894.674	14473
894.796	14427
894.918	14339
895.04	14507
895.161	14446
895.283	14374
895.405	14446
895.526	14427
895.648	14423
895.769	14575
895.891	14495
896.012	14575
896.134	14587
896.255	14571
896.376	14537
896.498	14537
896.619	14670
896.74	14613
896.861	14632
896.982	14887
897.103	15028
897.224	14883
897.345	14796
897.466	14674
897.587	14853
897.708	14975
897.828	14838
897.949	14792
898.07	14769
898.19	14762
898.311	15013
898.431	14796
898.552	14880
898.672	15009
898.792	14994
898.913	14918
899.033	14819
899.153	14686
899.273	14613
899.393	14735
899.513	14796
899.633	14678
899.753	14849
899.873	14678
899.993	14849
900.113	14708
900.232	14845
900.352	14689
900.472	14617
900.591	14640
900.711	14682
900.83	14651
900.95	14636
901.069	14705
901.189	14457
901.308	14381
901.427	14324
901.546	14305
901.665	14385
901.784	14237
901.904	14111
902.023	14058
902.141	13894
902.26	13864
902.379	13841
902.498	13868
902.617	13791
902.735	13799
902.854	13875
902.973	13746
903.091	13495
903.21	13578
903.328	13597
903.446	13411
903.565	13407
903.683	13430
903.801	13343
903.919	13426
904.038	13297
904.156	13247
904.274	13247
904.392	13221
904.51	13202
904.627	13187
904.745	13285
904.863	13343
904.981	12954
905.098	12913
905.216	12886
905.334	12932
905.451	12909
905.569	12821
905.686	12890
905.803	12852
905.921	12802
906.038	12871
906.155	12734
906.272	12711
906.389	12677
906.506	12547
906.623	12445
906.74	12456
906.857	12426
906.974	12380
907.091	12521
907.208	12623
907.324	12517
907.441	12384
907.557	12235
907.674	12270
907.79	12178
907.907	12182
908.023	12182
908.139	12220
908.256	12182
908.372	12091
908.488	12136
908.604	11958
908.72	12106
908.836	11950
908.952	12049
909.068	11996
909.184	12045
909.3	12057
909.415	12114
909.531	11984
909.647	11710
909.762	11779
909.878	11714
909.993	11786
910.108	11752
910.224	11729
910.339	11699
910.454	11623
910.57	11638
910.685	11570
910.8	11832
910.915	11764
911.03	11684
911.145	11490
911.259	11547
911.374	11444
911.489	11402
911.604	11296
911.718	11269
911.833	11166
911.947	11071
912.062	10949
912.176	11147
912.291	11204
912.405	11261
912.519	11360
912.633	11406
912.748	11288
912.862	11261
912.976	11090
913.09	10976
913.204	11003
913.318	11029
913.431	11113
913.545	11140
913.659	11143
913.772	10976
913.886	10972
914	10938
914.113	11048
914.226	11090
914.34	11025
914.453	10961
914.566	10984
914.68	10972
914.793	10828
914.906	10752
915.019	10637
915.132	10634
915.245	10649
915.358	10660
915.47	10721
915.583	10744
915.696	10797
915.809	10862
915.921	10885
916.034	10702
916.146	10664
916.259	10664
916.371	10714
916.483	10752
916.595	10626
916.708	10603
916.82	10599
916.932	10725
917.044	10611
917.156	10607
917.268	10512
917.38	10554
917.491	10466
917.603	10558
917.715	10554
917.826	10649
917.938	10558
918.049	10398
918.161	10478
918.272	10573
918.384	10626
918.495	10538
918.606	10371
918.717	10352
918.828	10440
918.939	10500
919.05	10375
919.161	10249
919.272	10219
919.383	10280
919.494	10466
919.604	10710
919.715	10447
919.826	10337
919.936	10390
920.047	10409
920.157	10390
920.267	10626
920.378	10436
920.488	10500
920.598	10588
920.708	10748
920.818	10561
920.928	10626
921.038	10801
921.148	10714
921.258	10424
921.368	10405
921.477	10227
921.587	10276
921.697	10223
921.806	10352
921.916	10143
922.025	10074
922.134	9895
922.244	9953
922.353	9964
922.462	9854
922.571	9740
922.68	9637
922.789	9549
922.898	9610
923.007	9534
923.116	9728
923.224	9641
923.333	9713
923.442	9572
923.55	9488
923.659	9507
923.767	9595
923.876	9530
923.984	9587
924.092	9389
924.201	9523
924.309	9519
924.417	9538
924.525	9435
924.633	9549
924.741	10409
924.849	9367
924.956	9431
925.064	9237
925.172	9268
925.279	9237
925.387	9272
925.494	9287
925.602	9469
925.709	9302
925.816	9230
925.924	9253
926.031	9458
926.138	9306
926.245	9325
926.352	9218
926.459	9435
926.566	9382
926.673	9230
926.779	9112
926.886	9249
926.993	9077
927.099	8990
927.206	9001
927.312	8952
927.419	9032
927.525	9024
927.631	9051
927.737	8948
927.843	8849
927.95	8788
928.056	8853
928.162	8872
928.267	8956
928.373	9523
928.479	8979
928.585	8735
928.69	8838
928.796	8918
928.901	8800
929.007	8632
929.112	8739
929.218	8815
929.323	8735
929.428	8621
929.533	8834
929.638	8651
929.743	8629
929.848	8731
929.953	8693
930.058	8610
930.163	8476
930.267	8476
930.372	8693
930.477	8488
930.581	8674
930.685	8552
930.79	8465
930.894	8488
930.998	8427
931.103	8541
931.207	8233
931.311	8161
931.415	8065
931.519	7932
931.623	7845
