Data from test_V78500241_1927.txt Node
Date: Fri Mar 25 14:47:07 CST 2022
User: usil
Spectrometer: V785-0024
Trigger mode: 0
Integration Time (sec): 4.000000E-1
Scans to average: 1
Nonlinearity correction enabled: false
Boxcar width: 0
Storing dark spectrum: false
XAxis mode: Wavelengths
Number of Pixels in Spectrum: 1024
>>>>>Begin Spectral Data<<<<<
801.071	22101
801.214	21991
801.356	21694
801.499	21545
801.641	21443
801.783	21424
801.926	21618
802.068	21408
802.211	21272
802.353	21306
802.496	21104
802.638	20952
802.78	21032
802.923	20838
803.065	20773
803.208	20739
803.35	20883
803.492	21001
803.635	20941
803.777	20781
803.919	20830
804.061	21161
804.204	20861
804.346	20891
804.488	20720
804.63	20819
804.773	20693
804.915	20667
805.057	20815
805.199	20632
805.341	20826
805.483	20948
805.626	20731
805.768	20590
805.91	20842
806.052	20724
806.194	20617
806.336	20838
806.478	20727
806.62	20629
806.762	20815
806.904	20948
807.046	21108
807.188	20960
807.33	21055
807.472	21020
807.614	20990
807.756	20948
807.898	20891
808.04	20792
808.182	20773
808.324	20937
808.465	20823
808.607	21039
808.749	21119
808.891	21135
809.033	21367
809.174	21325
809.316	21104
809.458	21062
809.6	21058
809.741	21146
809.883	21123
810.025	21272
810.166	21344
810.308	21260
810.45	21154
810.591	21142
810.733	21001
810.875	20872
811.016	20781
811.158	20849
811.299	20887
811.441	21005
811.582	20948
811.724	20849
811.865	20750
812.007	20941
812.148	20811
812.29	20918
812.431	21036
812.573	21127
812.714	21294
812.855	21405
812.997	21405
813.138	21515
813.279	21477
813.421	21268
813.562	21249
813.703	21241
813.845	21062
813.986	20735
814.127	20568
814.268	20484
814.41	20537
814.551	20355
814.692	20480
814.833	20339
814.974	20332
815.115	20351
815.256	20229
815.397	20294
815.539	20157
815.68	20134
815.821	20161
815.962	20218
816.103	20084
816.244	20024
816.385	19791
816.526	19997
816.666	19738
816.807	19620
816.948	19666
817.089	19601
817.23	19601
817.371	19556
817.512	19586
817.653	19571
817.793	19594
817.934	19487
818.075	19540
818.216	19632
818.356	19472
818.497	19419
818.638	19183
818.778	19335
818.919	19244
819.06	19198
819.2	19381
819.341	19343
819.481	19476
819.622	19632
819.762	19738
819.903	19696
820.043	19601
820.184	19506
820.324	19514
820.465	19632
820.605	19571
820.746	19495
820.886	19339
821.026	19601
821.167	19483
821.307	19556
821.447	19430
821.588	19419
821.728	19293
821.868	19103
822.008	19015
822.149	19050
822.289	19027
822.429	18650
822.569	18585
822.709	18631
822.849	18399
822.99	18483
823.13	18490
823.27	18357
823.41	18235
823.55	18216
823.69	18239
823.83	18292
823.97	18045
824.11	17954
824.25	18095
824.389	18072
824.529	18011
824.669	17973
824.809	18057
824.949	18098
825.089	18110
825.228	18007
825.368	17866
825.508	17741
825.648	17893
825.787	17859
825.927	17737
826.067	17786
826.206	17718
826.346	17866
826.485	17790
826.625	17672
826.765	17889
826.904	17828
827.044	17592
827.183	17558
827.323	17391
827.462	17474
827.601	17471
827.741	17509
827.88	17551
828.02	17433
828.159	17433
828.298	17589
828.437	17535
828.577	17490
828.716	17573
828.855	17486
828.994	17136
829.134	17216
829.273	17277
829.412	17178
829.551	17140
829.69	17181
829.829	17326
829.968	17250
830.107	17273
830.246	17212
830.385	17151
830.524	17140
830.663	17094
830.802	17060
830.941	16835
831.08	16873
831.219	16927
831.357	16919
831.496	17041
831.635	16889
831.774	16805
831.913	16786
832.051	16637
832.19	16599
832.329	16660
832.467	16637
832.606	16470
832.744	16508
832.883	16443
833.022	16538
833.16	16561
833.299	16588
833.437	16611
833.576	16668
833.714	16588
833.852	16637
833.991	16558
834.129	16577
834.267	16531
834.406	16649
834.544	16649
834.682	16603
834.821	16653
834.959	16740
835.097	16474
835.235	16645
835.373	16630
835.511	16584
835.65	16443
835.788	16569
835.926	16390
836.064	16356
836.202	16394
836.34	16565
836.478	16596
836.615	16603
836.753	16569
836.891	16717
837.029	16592
837.167	16527
837.305	16428
837.443	16478
837.58	16390
837.718	16428
837.856	16451
837.993	16322
838.131	16462
838.269	16352
838.406	16333
838.544	16226
838.681	16158
838.819	16128
838.956	15911
839.094	15922
839.231	16093
839.369	16105
839.506	16402
839.643	16246
839.781	15975
839.918	16017
840.055	16002
840.193	15903
840.33	15937
840.467	15987
840.604	15968
840.742	16166
840.879	15876
841.016	15808
841.153	15808
841.29	16097
841.427	15930
841.564	16105
841.701	15930
841.838	15869
841.975	15793
842.112	15876
842.249	15652
842.385	15728
842.522	15876
842.659	15606
842.796	15785
842.933	15743
843.069	15709
843.206	15648
843.343	15800
843.479	15816
843.616	15743
843.752	15557
843.889	15523
844.025	15663
844.162	15557
844.298	15679
844.435	15538
844.571	15504
844.708	15584
844.844	15629
844.98	15675
845.117	15584
845.253	15515
845.389	15405
845.525	15428
845.661	15462
845.798	15233
845.934	15386
846.07	15310
846.206	15424
846.342	15367
846.478	15344
846.614	15058
846.75	15043
846.886	15123
847.022	15146
847.158	15104
847.294	15074
847.429	15180
847.565	15032
847.701	15264
847.837	14902
847.972	14826
848.108	14925
848.244	14826
848.379	14716
848.515	14712
848.65	14674
848.786	14686
848.921	14697
849.057	14792
849.192	14785
849.328	14686
849.463	14701
849.598	14659
849.734	14533
849.869	14545
850.004	14476
850.14	14495
850.275	14617
850.41	14370
850.545	14465
850.68	14526
850.815	14473
850.95	14469
851.085	14697
851.22	14568
851.355	14469
851.49	14442
851.625	14476
851.76	14442
851.895	14374
852.03	14343
852.165	14461
852.299	14556
852.434	14636
852.569	14503
852.703	14374
852.838	14552
852.973	14644
853.107	14556
853.242	14450
853.376	14374
853.511	14202
853.645	14396
853.78	14545
853.914	14358
854.048	14351
854.183	14294
854.317	14370
854.451	14492
854.585	14259
854.72	14240
854.854	14404
854.988	14218
855.122	14267
855.256	14206
855.39	14393
855.524	14404
855.658	14450
855.792	14320
855.926	14396
856.06	14454
856.194	14442
856.327	14400
856.461	14298
856.595	14248
856.729	14366
856.862	14450
856.996	14351
857.13	14366
857.263	14427
857.397	14438
857.53	14275
857.664	14457
857.797	14385
857.931	14450
858.064	14393
858.197	14434
858.331	14282
858.464	14351
858.597	14218
858.731	14339
858.864	14298
858.997	14374
859.13	14305
859.263	14362
859.396	14339
859.529	14343
859.662	14267
859.795	14309
859.928	14286
860.061	14568
860.194	14541
860.327	14355
860.46	14347
860.592	14507
860.725	14347
860.858	14469
860.99	14351
861.123	14282
861.256	14381
861.388	14343
861.521	15176
861.653	14324
861.786	14199
861.918	14172
862.05	14206
862.183	14252
862.315	14393
862.447	14309
862.58	14343
862.712	14145
862.844	14020
862.976	14145
863.108	14221
863.24	14446
863.372	14119
863.504	14153
863.636	14107
863.768	14081
863.9	14134
864.032	14031
864.164	14020
864.296	14092
864.428	14123
864.559	14248
864.691	14149
864.823	14195
864.954	14206
865.086	14134
865.217	14107
865.349	14016
865.48	14065
865.612	14123
865.743	14221
865.875	14077
866.006	14084
866.137	14001
866.269	14088
866.4	14069
866.531	14016
866.662	14043
866.793	14043
866.924	14138
867.055	14092
867.186	14088
867.317	14081
867.448	14016
867.579	14111
867.71	13951
867.841	13879
867.972	14027
868.103	14020
868.233	14058
868.364	14103
868.495	14202
868.625	14259
868.756	14419
868.886	14248
869.017	14259
869.147	14404
869.278	14427
869.408	14259
869.539	14381
869.669	14320
869.799	14404
869.929	14423
870.06	14488
870.19	14720
870.32	14632
870.45	14686
870.58	14765
870.71	14868
870.84	14838
870.97	14804
871.1	14705
871.23	14921
871.36	14838
871.489	14918
871.619	14918
871.749	14963
871.879	15001
872.008	14994
872.138	14982
872.267	14823
872.397	14815
872.526	14746
872.656	14842
872.785	14872
872.915	15036
873.044	15062
873.173	15005
873.303	14982
873.432	14979
873.561	15017
873.69	14956
873.819	14967
873.948	15043
874.077	15085
874.206	15047
874.335	15013
874.464	15119
874.593	15344
874.722	15218
874.851	15298
874.979	15359
875.108	15393
875.237	15264
875.365	15188
875.494	15313
875.623	15450
875.751	15245
875.88	15306
876.008	15340
876.136	15515
876.265	15629
876.393	15861
876.521	15797
876.65	15857
876.778	15766
876.906	15781
877.034	15641
877.162	15728
877.29	15572
877.418	15709
877.546	15739
877.674	15641
877.802	15675
877.93	15766
878.058	15698
878.185	15663
878.313	15720
878.441	15751
878.568	15553
878.696	15671
878.824	15736
878.951	15751
879.079	15918
879.206	15983
879.333	15922
879.461	15907
879.588	15895
879.715	15850
879.842	15937
879.97	15838
880.097	15534
880.224	15694
880.351	15610
880.478	15580
880.605	15625
880.732	15515
880.859	15918
880.986	15572
881.112	15568
881.239	15466
881.366	15355
881.493	15203
881.619	15241
881.746	15275
881.872	15340
881.999	15150
882.125	15184
882.252	15412
882.378	15279
882.505	15321
882.631	15165
882.757	15051
882.883	15062
883.01	15036
883.136	14937
883.262	14891
883.388	14963
883.514	15066
883.64	15127
883.766	15017
883.892	14864
884.018	14910
884.143	15062
884.269	15070
884.395	14864
884.52	14758
884.646	14735
884.772	14674
884.897	14708
885.023	14788
885.148	14823
885.274	14925
885.399	14899
885.524	14735
885.65	14785
885.775	14800
885.9	14689
886.025	14849
886.15	14811
886.275	14716
886.4	14670
886.525	14781
886.65	14705
886.775	14708
886.9	14861
887.025	15047
887.149	14678
887.274	14724
887.399	14579
887.523	14533
887.648	14575
887.773	14499
887.897	14701
888.021	14659
888.146	14522
888.27	14712
888.395	14674
888.519	14514
888.643	14678
888.767	14670
888.891	14480
889.015	14495
889.139	14415
889.263	14415
889.387	14568
889.511	14629
889.635	14568
889.759	14503
889.883	14423
890.006	14461
890.13	14507
890.254	14381
890.377	14431
890.501	14305
890.624	14298
890.748	14389
890.871	14225
890.995	14130
891.118	14092
891.241	14229
891.364	14233
891.488	14244
891.611	14096
891.734	14111
891.857	14278
891.98	14210
892.103	14248
892.226	14172
892.349	14164
892.471	13989
892.594	14199
892.717	14164
892.839	14138
892.962	14187
893.085	14263
893.207	14084
893.33	14100
893.452	14126
893.575	14069
893.697	14233
893.819	14275
893.941	14309
894.064	14218
894.186	14081
894.308	14161
894.43	14259
894.552	14374
894.674	14282
894.796	14149
894.918	14218
895.04	14149
895.161	14256
895.283	14313
895.405	14218
895.526	14271
895.648	14275
895.769	14252
895.891	14294
896.012	14381
896.134	14450
896.255	14313
896.376	14202
896.498	14377
896.619	14351
896.74	14396
896.861	14393
896.982	14663
897.103	14811
897.224	14530
897.345	14526
897.466	14423
897.587	14655
897.708	14644
897.828	14674
897.949	14552
898.07	14434
898.19	14549
898.311	14697
898.431	14587
898.552	14689
898.672	14830
898.792	14781
898.913	14670
899.033	14530
899.153	14450
899.273	14385
899.393	14499
899.513	14514
899.633	14511
899.753	14488
899.873	14495
899.993	14674
900.113	14507
900.232	14648
900.352	14488
900.472	14415
900.591	14419
900.711	14389
900.83	14286
900.95	14442
901.069	14522
901.189	14248
901.308	14145
901.427	14043
901.546	14069
901.665	14157
901.784	13993
901.904	13970
902.023	13757
902.141	13632
902.26	13666
902.379	13601
902.498	13559
902.617	13544
902.735	13658
902.854	13613
902.973	13502
903.091	13251
903.21	13384
903.328	13426
903.446	13270
903.565	13137
903.683	13236
903.801	13088
903.919	13206
904.038	13107
904.156	12985
904.274	13061
904.392	12951
904.51	12973
904.627	12943
904.745	13042
904.863	13103
904.981	12932
905.098	12707
905.216	12734
905.334	12798
905.451	12791
905.569	12654
905.686	12757
905.803	12707
905.921	12509
906.038	12639
906.155	12589
906.272	12391
906.389	12429
906.506	12346
906.623	12323
906.74	12251
906.857	12270
906.974	12273
907.091	12323
907.208	12445
907.324	12369
907.441	12182
907.557	12041
907.674	12019
907.79	11942
907.907	12049
908.023	12034
908.139	12117
908.256	11927
908.372	11946
908.488	12019
908.604	11817
908.72	11790
908.836	11836
908.952	11870
909.068	11798
909.184	11927
909.3	11817
909.415	11790
909.531	11786
909.647	11653
909.762	11589
909.878	11505
909.993	11573
910.108	11505
910.224	11547
910.339	11558
910.454	11387
910.57	11440
910.685	11421
910.8	11688
910.915	11558
911.03	11436
911.145	11372
911.259	11235
911.374	11318
911.489	11204
911.604	11143
911.718	11033
911.833	11014
911.947	11022
912.062	10847
912.176	10987
912.291	11022
912.405	10919
912.519	11159
912.633	11204
912.748	11086
912.862	11025
912.976	10976
913.09	10771
913.204	10881
913.318	10938
913.431	10987
913.545	11041
913.659	11075
913.772	10953
913.886	10778
914	10790
914.113	10866
914.226	10980
914.34	10847
914.453	10729
914.566	10881
914.68	10675
914.793	10721
914.906	10523
915.019	10519
915.132	10466
915.245	10569
915.358	10485
915.47	10618
915.583	10535
915.696	10615
915.809	10637
915.921	10656
916.034	10398
916.146	10485
916.259	10493
916.371	10573
916.483	10500
916.595	10440
916.708	10413
916.82	10462
916.932	10379
917.044	10382
917.156	10451
917.268	10322
917.38	10310
917.491	10363
917.603	10329
917.715	10405
917.826	10455
917.938	10363
918.049	10291
918.161	10356
918.272	10519
918.384	10462
918.495	10402
918.606	10181
918.717	10150
918.828	10234
918.939	10341
919.05	10120
919.161	10204
919.272	10090
919.383	10131
919.494	10291
919.604	10474
919.715	10325
919.826	10166
919.936	10215
920.047	10360
920.157	10314
920.267	10459
920.378	10341
920.488	10234
920.598	10382
920.708	10588
920.818	10478
920.928	10497
921.038	10622
921.148	10508
921.258	10352
921.368	10227
921.477	10063
921.587	9979
921.697	9998
921.806	10185
921.916	10006
922.025	9850
922.134	9800
922.244	9789
922.353	9819
922.462	9701
922.571	9603
922.68	9545
922.789	9557
922.898	9511
923.007	9378
923.116	9534
923.224	9481
923.333	9515
923.442	9416
923.55	9359
923.659	9397
923.767	9447
923.876	9348
923.984	9424
924.092	9291
924.201	9378
924.309	9363
924.417	9401
924.525	9348
924.633	9325
924.741	10227
924.849	9119
924.956	9253
925.064	9135
925.172	9043
925.279	9131
925.387	9055
925.494	9135
925.602	9294
925.709	9233
925.816	9093
925.924	9157
926.031	9226
926.138	9180
926.245	9180
926.352	9055
926.459	9237
926.566	9211
926.673	9131
926.779	8990
926.886	9043
926.993	8807
927.099	8819
927.206	8864
927.312	8868
927.419	8857
927.525	8914
927.631	8872
927.737	8861
927.843	8754
927.95	8651
928.056	8739
928.162	8781
928.267	8819
928.373	9416
928.479	8830
928.585	8530
928.69	8766
928.796	8834
928.901	8663
929.007	8568
929.112	8644
929.218	8632
929.323	8545
929.428	8636
929.533	8682
929.638	8503
929.743	8518
929.848	8575
929.953	8503
930.058	8457
930.163	8332
930.267	8366
930.372	8438
930.477	8324
930.581	8533
930.685	8461
930.79	8305
930.894	8393
930.998	8313
931.103	8400
931.207	8065
931.311	8031
931.415	7909
931.519	7856
931.623	7818
