Data from test_V78500241_1733.txt Node
Date: Fri Mar 25 14:45:46 CST 2022
User: usil
Spectrometer: V785-0024
Trigger mode: 0
Integration Time (sec): 4.000000E-1
Scans to average: 1
Nonlinearity correction enabled: false
Boxcar width: 0
Storing dark spectrum: false
XAxis mode: Wavelengths
Number of Pixels in Spectrum: 1024
>>>>>Begin Spectral Data<<<<<
801.071	22341
801.214	22192
801.356	21960
801.499	21732
801.641	21705
801.783	21492
801.926	21686
802.068	21622
802.211	21424
802.353	21378
802.496	21226
802.638	20990
802.78	21043
802.923	21058
803.065	20910
803.208	20876
803.35	20857
803.492	20914
803.635	21169
803.777	20861
803.919	20910
804.061	21275
804.204	20986
804.346	20902
804.488	20758
804.63	20956
804.773	20762
804.915	20944
805.057	20998
805.199	20948
805.341	20929
805.483	21017
805.626	20826
805.768	20804
805.91	20785
806.052	20872
806.194	20990
806.336	20979
806.478	20857
806.62	20826
806.762	20845
806.904	21062
807.046	21237
807.188	21165
807.33	21252
807.472	21226
807.614	21058
807.756	21211
807.898	21089
808.04	20952
808.182	20849
808.324	20960
808.465	20963
808.607	21169
808.749	21252
808.891	21378
809.033	21439
809.174	21313
809.316	21268
809.458	21180
809.6	21245
809.741	21302
809.883	21245
810.025	21435
810.166	21477
810.308	21291
810.45	21397
810.591	21302
810.733	21249
810.875	21066
811.016	21005
811.158	20967
811.299	21135
811.441	21123
811.582	21135
811.724	21142
811.865	20982
812.007	21066
812.148	21005
812.29	21089
812.431	21199
812.573	21408
812.714	21408
812.855	21534
812.997	21580
813.138	21644
813.279	21648
813.421	21485
813.562	21485
813.703	21310
813.845	21241
813.986	20788
814.127	20746
814.268	20648
814.41	20636
814.551	20556
814.692	20549
814.833	20484
814.974	20423
815.115	20541
815.256	20389
815.397	20393
815.539	20438
815.68	20446
815.821	20286
815.962	20332
816.103	20199
816.244	20058
816.385	20088
816.526	20096
816.666	19887
816.807	19693
816.948	19734
817.089	19871
817.23	19708
817.371	19742
817.512	19689
817.653	19734
817.793	19666
817.934	19647
818.075	19818
818.216	19674
818.356	19639
818.497	19571
818.638	19392
818.778	19377
818.919	19384
819.06	19384
819.2	19491
819.341	19605
819.481	19578
819.622	19750
819.762	19944
819.903	19788
820.043	19776
820.184	19609
820.324	19696
820.465	19750
820.605	19685
820.746	19605
820.886	19495
821.026	19666
821.167	19575
821.307	19658
821.447	19609
821.588	19529
821.728	19346
821.868	19335
822.008	19240
822.149	19015
822.289	18981
822.429	18859
822.569	18901
822.709	18741
822.849	18585
822.99	18467
823.13	18502
823.27	18585
823.41	18414
823.55	18334
823.69	18346
823.83	18452
823.97	18361
824.11	18213
824.25	18068
824.389	18087
824.529	18239
824.669	18186
824.809	18235
824.949	18216
825.089	18323
825.228	18194
825.368	17999
825.508	17950
825.648	18045
825.787	18026
825.927	18011
826.067	17927
826.206	17832
826.346	17889
826.485	17965
826.625	17863
826.765	17973
826.904	17977
827.044	17802
827.183	17649
827.323	17630
827.462	17714
827.601	17623
827.741	17684
827.88	17611
828.02	17558
828.159	17528
828.298	17680
828.437	17672
828.577	17585
828.716	17695
828.855	17554
828.994	17455
829.134	17433
829.273	17330
829.412	17326
829.551	17353
829.69	17341
829.829	17372
829.968	17562
830.107	17448
830.246	17429
830.385	17242
830.524	17254
830.663	17193
830.802	17094
830.941	16957
831.08	17033
831.219	17064
831.357	16949
831.496	17185
831.635	17022
831.774	16854
831.913	16953
832.051	16759
832.19	16786
832.329	16786
832.467	16710
832.606	16535
832.744	16679
832.883	16733
833.022	16603
833.16	16721
833.299	16630
833.437	16649
833.576	16721
833.714	16603
833.852	16771
833.991	16702
834.129	16793
834.267	16839
834.406	16653
834.544	16763
834.682	16767
834.821	16691
834.959	16831
835.097	16656
835.235	16828
835.373	16828
835.511	16771
835.65	16679
835.788	16558
835.926	16542
836.064	16421
836.202	16592
836.34	16637
836.478	16740
836.615	16656
836.753	16637
836.891	16717
837.029	16672
837.167	16656
837.305	16504
837.443	16573
837.58	16478
837.718	16558
837.856	16512
837.993	16409
838.131	16440
838.269	16500
838.406	16417
838.544	16478
838.681	16234
838.819	16226
838.956	16078
839.094	16029
839.231	16090
839.369	16185
839.506	16489
839.643	16226
839.781	16044
839.918	16025
840.055	16120
840.193	15991
840.33	15941
840.467	16055
840.604	16010
840.742	16291
840.879	15892
841.016	15918
841.153	16025
841.29	16143
841.427	15994
841.564	16112
841.701	16101
841.838	16010
841.975	15930
842.112	16002
842.249	15873
842.385	15816
842.522	15991
842.659	15865
842.796	15873
842.933	15861
843.069	15720
843.206	15778
843.343	15857
843.479	15835
843.616	15873
843.752	15660
843.889	15614
844.025	15698
844.162	15504
844.298	15774
844.435	15675
844.571	15641
844.708	15633
844.844	15762
844.98	15770
845.117	15663
845.253	15542
845.389	15485
845.525	15572
845.661	15599
845.798	15374
845.934	15431
846.07	15317
846.206	15507
846.342	15534
846.478	15428
846.614	15218
846.75	15112
846.886	15184
847.022	15222
847.158	15154
847.294	15195
847.429	15226
847.565	15112
847.701	15420
847.837	14921
847.972	14842
848.108	14876
848.244	15009
848.379	14845
848.515	14792
848.65	14788
848.786	14781
848.921	14758
849.057	14891
849.192	14800
849.328	14880
849.463	14788
849.598	14777
849.734	14735
849.869	14602
850.004	14583
850.14	14556
850.275	14571
850.41	14484
850.545	14400
850.68	14579
850.815	14579
850.95	14518
851.085	14708
851.22	14682
851.355	14503
851.49	14476
851.625	14507
851.76	14537
851.895	14495
852.03	14381
852.165	14514
852.299	14530
852.434	14549
852.569	14625
852.703	14530
852.838	14602
852.973	14670
853.107	14655
853.242	14526
853.376	14400
853.511	14332
853.645	14324
853.78	14587
853.914	14374
854.048	14328
854.183	14358
854.317	14480
854.451	14484
854.585	14492
854.72	14419
854.854	14381
854.988	14355
855.122	14419
855.256	14301
855.39	14408
855.524	14469
855.658	14514
855.792	14427
855.926	14358
856.06	14332
856.194	14560
856.327	14332
856.461	14446
856.595	14275
856.729	14415
856.862	14541
856.996	14476
857.13	14530
857.263	14503
857.397	14606
857.53	14465
857.664	14514
857.797	14469
857.931	14587
858.064	14480
858.197	14514
858.331	14461
858.464	14438
858.597	14332
858.731	14370
858.864	14412
858.997	14476
859.13	14488
859.263	14552
859.396	14549
859.529	14389
859.662	14404
859.795	14336
859.928	14385
860.061	14594
860.194	14587
860.327	14488
860.46	14404
860.592	14560
860.725	14469
860.858	14507
860.99	14396
861.123	14336
861.256	14336
861.388	14381
861.521	15169
861.653	14328
861.786	14282
861.918	14320
862.05	14301
862.183	14400
862.315	14358
862.447	14427
862.58	14301
862.712	14130
862.844	14138
862.976	14218
863.108	14267
863.24	14598
863.372	14126
863.504	14225
863.636	14123
863.768	14263
863.9	14145
864.032	14168
864.164	14164
864.296	14187
864.428	14294
864.559	14290
864.691	14305
864.823	14244
864.954	14145
865.086	14183
865.217	14187
865.349	14142
865.48	14183
865.612	14225
865.743	14294
865.875	14252
866.006	14210
866.137	14214
866.269	14214
866.4	14180
866.531	14191
866.662	14092
866.793	14153
866.924	14145
867.055	14195
867.186	14214
867.317	14225
867.448	14096
867.579	14081
867.71	14111
867.841	14054
867.972	14107
868.103	14096
868.233	14153
868.364	14206
868.495	14252
868.625	14370
868.756	14480
868.886	14259
869.017	14351
869.147	14492
869.278	14594
869.408	14400
869.539	14415
869.669	14465
869.799	14396
869.929	14526
870.06	14492
870.19	14762
870.32	14762
870.45	14724
870.58	14765
870.71	14941
870.84	15017
870.97	14796
871.1	14830
871.23	15077
871.36	14975
871.489	14891
871.619	15062
871.749	14944
871.879	15055
872.008	15127
872.138	15001
872.267	15077
872.397	14906
872.526	14781
872.656	14796
872.785	14819
872.915	14982
873.044	15146
873.173	15146
873.303	15256
873.432	15085
873.561	15119
873.69	15119
873.819	15047
873.948	15176
874.077	15024
874.206	15058
874.335	15077
874.464	15207
874.593	15294
874.722	15283
874.851	15351
874.979	15416
875.108	15519
875.237	15355
875.365	15222
875.494	15408
875.623	15488
875.751	15363
875.88	15389
876.008	15584
876.136	15629
876.265	15732
876.393	15915
876.521	15842
876.65	15831
876.778	15789
876.906	15739
877.034	15732
877.162	15827
877.29	15747
877.418	15793
877.546	15812
877.674	15766
877.802	15781
877.93	15857
878.058	15751
878.185	15618
878.313	15766
878.441	15705
878.568	15557
878.696	15766
878.824	15857
878.951	15888
879.079	15941
879.206	16082
879.333	15903
879.461	15838
879.588	15991
879.715	15998
879.842	16211
879.97	15835
880.097	15652
880.224	15511
880.351	15648
880.478	15728
880.605	15500
880.732	15675
880.859	15922
880.986	15709
881.112	15648
881.239	15542
881.366	15416
881.493	15329
881.619	15260
881.746	15321
881.872	15340
881.999	15355
882.125	15275
882.252	15374
882.378	15317
882.505	15348
882.631	15256
882.757	15203
882.883	15154
883.01	15081
883.136	15081
883.262	15005
883.388	14929
883.514	15154
883.64	15245
883.766	15188
883.892	14986
884.018	15005
884.143	15119
884.269	15252
884.395	14895
884.52	14880
884.646	14720
884.772	14815
884.897	14746
885.023	14743
885.148	14952
885.274	14998
885.399	14891
885.524	14849
885.65	14914
885.775	14891
885.9	14788
886.025	14857
886.15	14807
886.275	14800
886.4	14743
886.525	14659
886.65	14796
886.775	14727
886.9	14975
887.025	15028
887.149	14861
887.274	14590
887.399	14682
887.523	14602
887.648	14693
887.773	14568
887.897	14705
888.021	14724
888.146	14594
888.27	14792
888.395	14815
888.519	14811
888.643	14777
888.767	14735
888.891	14617
889.015	14533
889.139	14594
889.263	14480
889.387	14537
889.511	14686
889.635	14598
889.759	14461
889.883	14495
890.006	14537
890.13	14602
890.254	14446
890.377	14488
890.501	14427
890.624	14351
890.748	14381
890.871	14271
890.995	14126
891.118	14077
891.241	14225
891.364	14301
891.488	14305
891.611	14237
891.734	14221
891.857	14317
891.98	14221
892.103	14240
892.226	14183
892.349	14225
892.471	14065
892.594	14278
892.717	14210
892.839	14168
892.962	14240
893.085	14263
893.207	14180
893.33	14065
893.452	14153
893.575	14282
893.697	14183
893.819	14305
893.941	14431
894.064	14282
894.186	14244
894.308	14119
894.43	14362
894.552	14320
894.674	14419
894.796	14084
894.918	14256
895.04	14123
895.161	14305
895.283	14298
895.405	14191
895.526	14351
895.648	14305
895.769	14290
895.891	14408
896.012	14434
896.134	14473
896.255	14381
896.376	14339
896.498	14377
896.619	14427
896.74	14492
896.861	14473
896.982	14640
897.103	14845
897.224	14724
897.345	14674
897.466	14575
897.587	14587
897.708	14750
897.828	14686
897.949	14678
898.07	14423
898.19	14644
898.311	14746
898.431	14674
898.552	14785
898.672	14800
898.792	14777
898.913	14785
899.033	14640
899.153	14545
899.273	14598
899.393	14651
899.513	14621
899.633	14640
899.753	14629
899.873	14602
899.993	14606
900.113	14579
900.232	14583
900.352	14545
900.472	14488
900.591	14431
900.711	14530
900.83	14457
900.95	14522
901.069	14602
901.189	14404
901.308	14107
901.427	14111
901.546	14134
901.665	14130
901.784	14248
901.904	14050
902.023	13978
902.141	13685
902.26	13750
902.379	13712
902.498	13704
902.617	13613
902.735	13715
902.854	13643
902.973	13696
903.091	13480
903.21	13373
903.328	13365
903.446	13346
903.565	13190
903.683	13289
903.801	13251
903.919	13221
904.038	13175
904.156	13114
904.274	13107
904.392	13050
904.51	13008
904.627	13057
904.745	13137
904.863	13202
904.981	12913
905.098	12726
905.216	12768
905.334	12871
905.451	12719
905.569	12749
905.686	12795
905.803	12703
905.921	12521
906.038	12707
906.155	12608
906.272	12422
906.389	12464
906.506	12448
906.623	12380
906.74	12380
906.857	12228
906.974	12197
907.091	12342
907.208	12513
907.324	12448
907.441	12300
907.557	12083
907.674	12091
907.79	12007
907.907	12072
908.023	12125
908.139	12144
908.256	11988
908.372	12030
908.488	11977
908.604	11847
908.72	11779
908.836	11885
908.952	11824
909.068	11805
909.184	11969
909.3	11874
909.415	11946
909.531	11935
909.647	11592
909.762	11627
909.878	11547
909.993	11665
910.108	11573
910.224	11638
910.339	11672
910.454	11474
910.57	11417
910.685	11372
910.8	11649
910.915	11653
911.03	11505
911.145	11387
911.259	11315
911.374	11273
911.489	11265
911.604	11189
911.718	11048
911.833	11071
911.947	10999
912.062	10911
912.176	10984
912.291	11071
912.405	11067
912.519	11197
912.633	11277
912.748	11075
912.862	11079
912.976	10957
913.09	10930
913.204	10904
913.318	11025
913.431	11041
913.545	11067
913.659	11079
913.772	11014
913.886	10862
914	10786
914.113	10938
914.226	10885
914.34	10877
914.453	10816
914.566	10965
914.68	10790
914.793	10793
914.906	10599
915.019	10527
915.132	10481
915.245	10558
915.358	10622
915.47	10527
915.583	10645
915.696	10558
915.809	10733
915.921	10733
916.034	10535
916.146	10497
916.259	10512
916.371	10580
916.483	10573
916.595	10440
916.708	10500
916.82	10546
916.932	10443
917.044	10470
917.156	10462
917.268	10375
917.38	10398
917.491	10398
917.603	10344
917.715	10519
917.826	10500
917.938	10394
918.049	10280
918.161	10386
918.272	10550
918.384	10500
918.495	10421
918.606	10257
918.717	10223
918.828	10329
918.939	10276
919.05	10234
919.161	10268
919.272	10143
919.383	10082
919.494	10280
919.604	10455
919.715	10371
919.826	10238
919.936	10276
920.047	10360
920.157	10272
920.267	10588
920.378	10276
920.488	10242
920.598	10485
920.708	10721
920.818	10474
920.928	10489
921.038	10694
921.148	10664
921.258	10310
921.368	10261
921.477	10150
921.587	10196
921.697	10029
921.806	10139
921.916	10124
922.025	9895
922.134	9895
922.244	9835
922.353	9854
922.462	9770
922.571	9709
922.68	9507
922.789	9481
922.898	9477
923.007	9568
923.116	9641
923.224	9523
923.333	9519
923.442	9492
923.55	9386
923.659	9443
923.767	9462
923.876	9443
923.984	9473
924.092	9386
924.201	9416
924.309	9355
924.417	9424
924.525	9283
924.633	9291
924.741	10257
924.849	9188
924.956	9332
925.064	9119
925.172	9116
925.279	9157
925.387	9211
925.494	9207
925.602	9294
925.709	9256
925.816	9089
925.924	9180
926.031	9336
926.138	9135
926.245	9245
926.352	9089
926.459	9332
926.566	9283
926.673	9199
926.779	9062
926.886	9043
926.993	8891
927.099	8838
927.206	8883
927.312	8830
927.419	8986
927.525	8944
927.631	9001
927.737	8872
927.843	8716
927.95	8610
928.056	8811
928.162	8758
928.267	8880
928.373	9515
928.479	8887
928.585	8689
928.69	8785
928.796	8811
928.901	8682
929.007	8571
929.112	8777
929.218	8693
929.323	8632
929.428	8587
929.533	8746
929.638	8434
929.743	8583
929.848	8731
929.953	8564
930.058	8469
930.163	8385
930.267	8454
930.372	8526
930.477	8351
930.581	8583
930.685	8404
930.79	8332
930.894	8370
930.998	8252
931.103	8434
931.207	8100
931.311	8062
931.415	8054
931.519	7746
931.623	7868
