Data from test_V78500241_2862.txt Node
Date: Fri Mar 25 14:53:38 CST 2022
User: usil
Spectrometer: V785-0024
Trigger mode: 0
Integration Time (sec): 4.000000E-1
Scans to average: 1
Nonlinearity correction enabled: false
Boxcar width: 0
Storing dark spectrum: false
XAxis mode: Wavelengths
Number of Pixels in Spectrum: 1024
>>>>>Begin Spectral Data<<<<<
801.071	22135
801.214	22055
801.356	21800
801.499	21633
801.641	21561
801.783	21530
801.926	21466
802.068	21405
802.211	21408
802.353	21268
802.496	21104
802.638	20906
802.78	20960
802.923	20956
803.065	20834
803.208	20785
803.35	20682
803.492	20975
803.635	21024
803.777	20785
803.919	20834
804.061	21169
804.204	20777
804.346	20765
804.488	20724
804.63	20750
804.773	20640
804.915	20667
805.057	20750
805.199	20571
805.341	20765
805.483	20735
805.626	20849
805.768	20560
805.91	20655
806.052	20758
806.194	20659
806.336	20883
806.478	20693
806.62	20682
806.762	20720
806.904	20853
807.046	21062
807.188	20990
807.33	21070
807.472	20994
807.614	20960
807.756	21127
807.898	20788
808.04	20800
808.182	20712
808.324	20781
808.465	20952
808.607	20967
808.749	21013
808.891	21222
809.033	21173
809.174	21199
809.316	20998
809.458	20990
809.6	20948
809.741	21051
809.883	21154
810.025	21218
810.166	21138
810.308	21214
810.45	21119
810.591	21036
810.733	21066
810.875	20910
811.016	20823
811.158	20655
811.299	20887
811.441	20861
811.582	20963
811.724	20743
811.865	20811
812.007	20861
812.148	20842
812.29	20826
812.431	20960
812.573	21161
812.714	21203
812.855	21321
812.997	21412
813.138	21435
813.279	21355
813.421	21237
813.562	21363
813.703	21135
813.845	21032
813.986	20838
814.127	20442
814.268	20324
814.41	20571
814.551	20366
814.692	20469
814.833	20267
814.974	20309
815.115	20412
815.256	20240
815.397	20187
815.539	20328
815.68	20027
815.821	20054
815.962	20062
816.103	20187
816.244	19921
816.385	19894
816.526	19833
816.666	19632
816.807	19514
816.948	19704
817.089	19582
817.23	19521
817.371	19525
817.512	19487
817.653	19495
817.793	19506
817.934	19514
818.075	19544
818.216	19685
818.356	19464
818.497	19350
818.638	19129
818.778	19274
818.919	19190
819.06	19126
819.2	19255
819.341	19343
819.481	19339
819.622	19525
819.762	19685
819.903	19559
820.043	19472
820.184	19396
820.324	19449
820.465	19666
820.605	19499
820.746	19460
820.886	19324
821.026	19460
821.167	19384
821.307	19460
821.447	19483
821.588	19209
821.728	19228
821.868	19110
822.008	18806
822.149	18897
822.289	18840
822.429	18707
822.569	18635
822.709	18582
822.849	18391
822.99	18319
823.13	18334
823.27	18372
823.41	18220
823.55	18171
823.69	18174
823.83	18178
823.97	18076
824.11	18034
824.25	17882
824.389	17931
824.529	17965
824.669	17950
824.809	18117
824.949	18106
825.089	17999
825.228	17942
825.368	17756
825.508	17733
825.648	17726
825.787	17718
825.927	17676
826.067	17649
826.206	17710
826.346	17813
826.485	17752
826.625	17695
826.765	17714
826.904	17767
827.044	17512
827.183	17417
827.323	17391
827.462	17482
827.601	17421
827.741	17448
827.88	17353
828.02	17296
828.159	17455
828.298	17345
828.437	17493
828.577	17372
828.716	17520
828.855	17402
828.994	17227
829.134	17242
829.273	17174
829.412	17208
829.551	17124
829.69	17037
829.829	17284
829.968	17258
830.107	17212
830.246	17250
830.385	17140
830.524	17090
830.663	16968
830.802	16949
830.941	16767
831.08	16820
831.219	16812
831.357	16782
831.496	17003
831.635	16782
831.774	16721
831.913	16717
832.051	16550
832.19	16527
832.329	16569
832.467	16436
832.606	16417
832.744	16455
832.883	16447
833.022	16470
833.16	16497
833.299	16569
833.437	16512
833.576	16554
833.714	16596
833.852	16523
833.991	16584
834.129	16565
834.267	16580
834.406	16649
834.544	16561
834.682	16535
834.821	16447
834.959	16736
835.097	16527
835.235	16569
835.373	16558
835.511	16470
835.65	16280
835.788	16432
835.926	16356
836.064	16230
836.202	16249
836.34	16447
836.478	16424
836.615	16428
836.753	16500
836.891	16535
837.029	16466
837.167	16371
837.305	16261
837.443	16329
837.58	16310
837.718	16390
837.856	16379
837.993	16287
838.131	16325
838.269	16261
838.406	16188
838.544	16219
838.681	16097
838.819	15987
838.956	15854
839.094	15861
839.231	15953
839.369	15975
839.506	16166
839.643	16112
839.781	15968
839.918	15869
840.055	15861
840.193	15816
840.33	15842
840.467	15854
840.604	15934
840.742	16025
840.879	15747
841.016	15766
841.153	15800
841.29	16051
841.427	15804
841.564	15876
841.701	15941
841.838	15827
841.975	15671
842.112	15778
842.249	15644
842.385	15553
842.522	15827
842.659	15637
842.796	15454
842.933	15580
843.069	15523
843.206	15595
843.343	15736
843.479	15564
843.616	15641
843.752	15504
843.889	15310
844.025	15568
844.162	15412
844.298	15435
844.435	15424
844.571	15332
844.708	15488
844.844	15606
844.98	15576
845.117	15515
845.253	15386
845.389	15298
845.525	15306
845.661	15268
845.798	15252
845.934	15237
846.07	15192
846.206	15245
846.342	15374
846.478	15157
846.614	15001
846.75	14937
846.886	14880
847.022	14982
847.158	15005
847.294	14929
847.429	14960
847.565	14937
847.701	15165
847.837	14689
847.972	14651
848.108	14948
848.244	14674
848.379	14590
848.515	14560
848.65	14469
848.786	14598
848.921	14560
849.057	14682
849.192	14674
849.328	14617
849.463	14575
849.598	14575
849.734	14511
849.869	14503
850.004	14324
850.14	14393
850.275	14370
850.41	14317
850.545	14195
850.68	14339
850.815	14351
850.95	14305
851.085	14606
851.22	14480
851.355	14343
851.49	14320
851.625	14256
851.76	14339
851.895	14256
852.03	14176
852.165	14343
852.299	14366
852.434	14419
852.569	14305
852.703	14400
852.838	14450
852.973	14533
853.107	14438
853.242	14259
853.376	14214
853.511	14062
853.645	14107
853.78	14275
853.914	14180
854.048	14164
854.183	14206
854.317	14195
854.451	14355
854.585	14218
854.72	14218
854.854	14233
854.988	14077
855.122	14225
855.256	14035
855.39	14237
855.524	14229
855.658	14374
855.792	14248
855.926	14313
856.06	14290
856.194	14240
856.327	14187
856.461	14130
856.595	14172
856.729	14149
856.862	14336
856.996	14278
857.13	14370
857.263	14358
857.397	14381
857.53	14183
857.664	14244
857.797	14221
857.931	14282
858.064	14225
858.197	14271
858.331	14183
858.464	14126
858.597	14081
858.731	14142
858.864	14290
858.997	14107
859.13	14263
859.263	14161
859.396	14248
859.529	14240
859.662	14225
859.795	14115
859.928	14248
860.061	14317
860.194	14415
860.327	14252
860.46	14180
860.592	14278
860.725	14305
860.858	14408
860.99	14092
861.123	14107
861.256	14126
861.388	14183
861.521	14663
861.653	14210
861.786	14073
861.918	14062
862.05	14126
862.183	14168
862.315	14164
862.447	14267
862.58	14130
862.712	14001
862.844	13890
862.976	14012
863.108	14069
863.24	14522
863.372	13967
863.504	14008
863.636	14001
863.768	14058
863.9	13963
864.032	13967
864.164	13909
864.296	14016
864.428	14138
864.559	13963
864.691	14054
864.823	14024
864.954	14016
865.086	14035
865.217	13986
865.349	13849
865.48	14024
865.612	13970
865.743	14123
865.875	13989
866.006	13921
866.137	13906
866.269	14016
866.4	14039
866.531	13959
866.662	13902
866.793	13871
866.924	13883
867.055	13993
867.186	13947
867.317	13860
867.448	13868
867.579	13803
867.71	13849
867.841	13845
867.972	14020
868.103	14065
868.233	14046
868.364	13951
868.495	14115
868.625	14088
868.756	14286
868.886	14123
869.017	14282
869.147	14237
869.278	14347
869.408	14252
869.539	14172
869.669	14320
869.799	14248
869.929	14259
870.06	14286
870.19	14492
870.32	14522
870.45	14640
870.58	14514
870.71	14754
870.84	14758
870.97	14587
871.1	14457
871.23	14785
871.36	14819
871.489	14724
871.619	14781
871.749	14804
871.879	14861
872.008	14906
872.138	14830
872.267	14845
872.397	14705
872.526	14648
872.656	14610
872.785	14705
872.915	14842
873.044	14857
873.173	14887
873.303	14834
873.432	14910
873.561	14914
873.69	14830
873.819	14880
873.948	14902
874.077	14830
874.206	14815
874.335	14880
874.464	15028
874.593	15116
874.722	15142
874.851	15165
874.979	15157
875.108	15161
875.237	15131
875.365	15154
875.494	15150
875.623	15264
875.751	15195
875.88	15150
876.008	15332
876.136	15397
876.265	15538
876.393	15671
876.521	15606
876.65	15698
876.778	15728
876.906	15633
877.034	15511
877.162	15690
877.29	15492
877.418	15545
877.546	15606
877.674	15606
877.802	15587
877.93	15591
878.058	15606
878.185	15473
878.313	15637
878.441	15591
878.568	15466
878.696	15534
878.824	15625
878.951	15785
879.079	15778
879.206	15937
879.333	15747
879.461	15690
879.588	15736
879.715	15778
879.842	15873
879.97	15675
880.097	15435
880.224	15454
880.351	15363
880.478	15374
880.605	15370
880.732	15435
880.859	15747
880.986	15553
881.112	15587
881.239	15268
881.366	15195
881.493	15116
881.619	15207
881.746	15142
881.872	15093
881.999	15047
882.125	15123
882.252	15097
882.378	15112
882.505	15241
882.631	15097
882.757	14880
882.883	14986
883.01	14952
883.136	14883
883.262	14838
883.388	14750
883.514	14872
883.64	14887
883.766	14845
883.892	14743
884.018	14815
884.143	14887
884.269	14952
884.395	14659
884.52	14667
884.646	14583
884.772	14579
884.897	14579
885.023	14663
885.148	14785
885.274	14830
885.399	14739
885.524	14632
885.65	14610
885.775	14716
885.9	14590
886.025	14758
886.15	14697
886.275	14560
886.4	14507
886.525	14579
886.65	14526
886.775	14606
886.9	14743
887.025	14872
887.149	14587
887.274	14450
887.399	14320
887.523	14465
887.648	14419
887.773	14374
887.897	14571
888.021	14469
888.146	14358
888.27	14476
888.395	14587
888.519	14385
888.643	14587
888.767	14480
888.891	14366
889.015	14244
889.139	14362
889.263	14317
889.387	14408
889.511	14511
889.635	14518
889.759	14256
889.883	14229
890.006	14351
890.13	14530
890.254	14214
890.377	14199
890.501	14256
890.624	14161
890.748	14206
890.871	14092
890.995	13902
891.118	13989
891.241	13982
891.364	14069
891.488	14084
891.611	13978
891.734	13970
891.857	14096
891.98	14024
892.103	14111
892.226	14130
892.349	14027
892.471	13932
892.594	14100
892.717	14050
892.839	13989
892.962	13982
893.085	14103
893.207	13932
893.33	13989
893.452	13997
893.575	14058
893.697	13989
893.819	14145
893.941	14244
894.064	14168
894.186	14046
894.308	14035
894.43	14134
894.552	14271
894.674	14218
894.796	13982
894.918	14054
895.04	14031
895.161	14172
895.283	14130
895.405	14050
895.526	14054
895.648	14221
895.769	14138
895.891	14225
896.012	14317
896.134	14206
896.255	14320
896.376	14202
896.498	14161
896.619	14244
896.74	14210
896.861	14320
896.982	14594
897.103	14636
897.224	14423
897.345	14446
897.466	14408
897.587	14549
897.708	14594
897.828	14674
897.949	14419
898.07	14377
898.19	14396
898.311	14594
898.431	14533
898.552	14610
898.672	14693
898.792	14632
898.913	14549
899.033	14450
899.153	14377
899.273	14377
899.393	14415
899.513	14484
899.633	14507
899.753	14518
899.873	14328
899.993	14488
900.113	14415
900.232	14446
900.352	14366
900.472	14313
900.591	14267
900.711	14320
900.83	14187
900.95	14488
901.069	14351
901.189	14149
901.308	14016
901.427	13970
901.546	14039
901.665	13982
901.784	14027
901.904	13856
902.023	13761
902.141	13620
902.26	13563
902.379	13575
902.498	13506
902.617	13468
902.735	13597
902.854	13563
902.973	13400
903.091	13297
903.21	13217
903.328	13266
903.446	13175
903.565	13095
903.683	13080
903.801	12966
903.919	13091
904.038	13110
904.156	12916
904.274	13072
904.392	12882
904.51	12817
904.627	12890
904.745	12935
904.863	12939
904.981	12749
905.098	12604
905.216	12620
905.334	12642
905.451	12593
905.569	12658
905.686	12616
905.803	12589
905.921	12365
906.038	12521
906.155	12429
906.272	12330
906.389	12296
906.506	12163
906.623	12194
906.74	12213
906.857	12087
906.974	12148
907.091	12304
907.208	12292
907.324	12239
907.441	12194
907.557	11992
907.674	11904
907.79	11874
907.907	11882
908.023	12049
908.139	11958
908.256	11927
908.372	11863
908.488	11866
908.604	11760
908.72	11653
908.836	11668
908.952	11718
909.068	11680
909.184	11809
909.3	11714
909.415	11760
909.531	11707
909.647	11528
909.762	11459
909.878	11372
909.993	11471
910.108	11356
910.224	11410
910.339	11452
910.454	11395
910.57	11315
910.685	11159
910.8	11520
910.915	11490
911.03	11387
911.145	11140
911.259	11178
911.374	11113
911.489	11022
911.604	11086
911.718	10957
911.833	10942
911.947	10938
912.062	10706
912.176	10862
912.291	10957
912.405	10850
912.519	11079
912.633	11185
912.748	11060
912.862	10900
912.976	10805
913.09	10721
913.204	10763
913.318	10820
913.431	10866
913.545	10850
913.659	10991
913.772	10729
913.886	10748
914	10706
914.113	10782
914.226	10721
914.34	10858
914.453	10622
914.566	10839
914.68	10569
914.793	10618
914.906	10500
915.019	10348
915.132	10352
915.245	10405
915.358	10466
915.47	10485
915.583	10535
915.696	10493
915.809	10607
915.921	10546
916.034	10409
916.146	10421
916.259	10360
916.371	10504
916.483	10558
916.595	10440
916.708	10402
916.82	10379
916.932	10348
917.044	10322
917.156	10352
917.268	10215
917.38	10230
917.491	10265
917.603	10310
917.715	10367
917.826	10382
917.938	10341
918.049	10162
918.161	10253
918.272	10379
918.384	10440
918.495	10413
918.606	10116
918.717	10048
918.828	10097
918.939	10192
919.05	10067
919.161	10207
919.272	9964
919.383	9994
919.494	10200
919.604	10318
919.715	10196
919.826	10124
919.936	10188
920.047	10242
920.157	10219
920.267	10402
920.378	10223
920.488	10124
920.598	10303
920.708	10538
920.818	10356
920.928	10432
921.038	10577
921.148	10497
921.258	10310
921.368	10173
921.477	10086
921.587	9979
921.697	9934
921.806	10021
921.916	9918
922.025	9705
922.134	9770
922.244	9686
922.353	9774
922.462	9629
922.571	9625
922.68	9462
922.789	9363
922.898	9488
923.007	9428
923.116	9408
923.224	9428
923.333	9363
923.442	9310
923.55	9325
923.659	9233
923.767	9359
923.876	9222
923.984	9294
924.092	9230
924.201	9348
924.309	9233
924.417	9329
924.525	9199
924.633	9283
924.741	10158
924.849	9039
924.956	9313
925.064	9062
925.172	9005
925.279	8998
925.387	9089
925.494	9085
925.602	9119
925.709	9161
925.816	8986
925.924	9032
926.031	9188
926.138	9058
926.245	9188
926.352	9047
926.459	9112
926.566	9138
926.673	9039
926.779	8956
926.886	8944
926.993	8849
927.099	8834
927.206	8746
927.312	8773
927.419	8864
927.525	8762
927.631	8849
927.737	8758
927.843	8640
927.95	8598
928.056	8648
928.162	8750
928.267	8689
928.373	9241
928.479	8849
928.585	8560
928.69	8640
928.796	8727
928.901	8594
929.007	8518
929.112	8621
929.218	8556
929.323	8594
929.428	8473
929.533	8632
929.638	8362
929.743	8518
929.848	8549
929.953	8461
930.058	8473
930.163	8286
930.267	8210
930.372	8427
930.477	8267
930.581	8473
930.685	8385
930.79	8282
930.894	8168
930.998	8126
931.103	8347
931.207	8050
931.311	7925
931.415	7951
931.519	7693
931.623	7776
