Data from test_V78500241_207.txt Node
Date: Fri Mar 25 14:35:09 CST 2022
User: usil
Spectrometer: V785-0024
Trigger mode: 0
Integration Time (sec): 4.000000E-1
Scans to average: 1
Nonlinearity correction enabled: false
Boxcar width: 0
Storing dark spectrum: false
XAxis mode: Wavelengths
Number of Pixels in Spectrum: 1024
>>>>>Begin Spectral Data<<<<<
801.071	27892
801.214	27975
801.356	27599
801.499	27614
801.641	27443
801.783	27481
801.926	27439
802.068	27260
802.211	27237
802.353	27264
802.496	27089
802.638	27096
802.78	26902
802.923	26853
803.065	26868
803.208	26986
803.35	26906
803.492	27066
803.635	27138
803.777	26960
803.919	27157
804.061	27294
804.204	27047
804.346	27043
804.488	26887
804.63	26952
804.773	26800
804.915	26849
805.057	27005
805.199	26910
805.341	27028
805.483	26979
805.626	26925
805.768	26929
805.91	27032
806.052	27138
806.194	26944
806.336	27192
806.478	26952
806.62	27005
806.762	27161
806.904	27279
807.046	27367
807.188	27367
807.33	27469
807.472	27637
807.614	27439
807.756	27583
807.898	27367
808.04	27294
808.182	27545
808.324	27454
808.465	27701
808.607	27876
808.749	28112
808.891	28234
809.033	28226
809.174	28177
809.316	27907
809.458	28059
809.6	27968
809.741	27800
809.883	27800
810.025	27884
810.166	27732
810.308	27762
810.45	27736
810.591	27648
810.733	27686
810.875	27458
811.016	27370
811.158	27298
811.299	27268
811.441	27500
811.582	27557
811.724	27298
811.865	27412
812.007	27386
812.148	27382
812.29	27580
812.431	27462
812.573	27606
812.714	27953
812.855	27781
812.997	27911
813.138	27979
813.279	27861
813.421	27850
813.562	27770
813.703	27534
813.845	27534
813.986	27230
814.127	27104
814.268	27039
814.41	26994
814.551	26834
814.692	26975
814.833	26918
814.974	26937
815.115	26967
815.256	26826
815.397	26811
815.539	26743
815.68	26621
815.821	26583
815.962	26613
816.103	26640
816.244	26453
816.385	26256
816.526	26305
816.666	26195
816.807	25963
816.948	26115
817.089	26221
817.23	26081
817.371	26069
817.512	26012
817.653	25970
817.793	25986
817.934	26054
818.075	26035
818.216	25966
818.356	25989
818.497	25814
818.638	25639
818.778	25780
818.919	25723
819.06	25795
819.2	25780
819.341	25947
819.481	25974
819.622	25989
819.762	26145
819.903	26191
820.043	26054
820.184	25902
820.324	25986
820.465	25993
820.605	25845
820.746	25856
820.886	25791
821.026	25894
821.167	25940
821.307	25993
821.447	25788
821.588	25833
821.728	25719
821.868	25548
822.008	25422
822.149	25346
822.289	25304
822.429	25129
822.569	25084
822.709	24970
822.849	24901
822.99	24787
823.13	24696
823.27	24673
823.41	24604
823.55	24566
823.69	24547
823.83	24616
823.97	24471
824.11	24315
824.25	24281
824.389	24391
824.529	24418
824.669	24483
824.809	24384
824.949	24422
825.089	24357
825.228	24289
825.368	24136
825.508	24121
825.648	24239
825.787	24190
825.927	24159
826.067	24095
826.206	24152
826.346	24178
826.485	24155
826.625	24110
826.765	24194
826.904	24209
827.044	23961
827.183	23916
827.323	23756
827.462	23931
827.601	23794
827.741	23699
827.88	23748
828.02	23634
828.159	23786
828.298	23764
828.437	23893
828.577	23558
828.716	23901
828.855	23634
828.994	23570
829.134	23478
829.273	23398
829.412	23471
829.551	23509
829.69	23471
829.829	23421
829.968	23539
830.107	23497
830.246	23585
830.385	23505
830.524	23345
830.663	23341
830.802	23178
830.941	22908
831.08	22972
831.219	23200
831.357	23075
831.496	23189
831.635	23044
831.774	22896
831.913	22946
832.051	22873
832.19	22778
832.329	22752
832.467	22759
832.606	22618
832.744	22656
832.883	22653
833.022	22599
833.16	22660
833.299	22679
833.437	22664
833.576	22618
833.714	22717
833.852	22930
833.991	22763
834.129	22740
834.267	22820
834.406	22691
834.544	22759
834.682	22733
834.821	22752
834.959	22866
835.097	22580
835.235	22736
835.373	22588
835.511	22573
835.65	22656
835.788	22470
835.926	22455
836.064	22367
836.202	22249
836.34	22512
836.478	22500
836.615	22443
836.753	22500
836.891	22573
837.029	22440
837.167	22394
837.305	22295
837.443	22280
837.58	22405
837.718	22322
837.856	22390
837.993	22253
838.131	22291
838.269	22169
838.406	22280
838.544	22128
838.681	22010
838.819	21865
838.956	21800
839.094	21694
839.231	21656
839.369	21994
839.506	22135
839.643	21987
839.781	21804
839.918	21663
840.055	21686
840.193	21747
840.33	21694
840.467	21629
840.604	21846
840.742	22036
840.879	21492
841.016	21671
841.153	21580
841.29	21713
841.427	21610
841.564	21587
841.701	21652
841.838	21663
841.975	21507
842.112	21488
842.249	21370
842.385	21302
842.522	21564
842.659	21340
842.796	21351
842.933	21325
843.069	21321
843.206	21302
843.343	21428
843.479	21382
843.616	21370
843.752	21207
843.889	21112
844.025	21154
844.162	21013
844.298	21077
844.435	21138
844.571	20902
844.708	21176
844.844	21264
844.98	21233
845.117	21211
845.253	21169
845.389	21131
845.525	21195
845.661	21344
845.798	21542
845.934	21599
846.07	21629
846.206	21774
846.342	21671
846.478	21332
846.614	21089
846.75	20724
846.886	20598
847.022	20701
847.158	20602
847.294	20590
847.429	20716
847.565	20556
847.701	20765
847.837	20313
847.972	20183
848.108	20317
848.244	20271
848.379	20263
848.515	20100
848.65	20054
848.786	20161
848.921	20145
849.057	20157
849.192	20130
849.328	20077
849.463	20058
849.598	20039
849.734	20031
849.869	19868
850.004	19875
850.14	19852
850.275	19849
850.41	19727
850.545	19875
850.68	19731
850.815	19875
850.95	19761
851.085	20031
851.22	19928
851.355	19788
851.49	19871
851.625	19731
851.76	19700
851.895	19635
852.03	19704
852.165	19719
852.299	19841
852.434	19769
852.569	19761
852.703	19738
852.838	19868
852.973	20008
853.107	19890
853.242	19715
853.376	19647
853.511	19449
853.645	19628
853.78	19700
853.914	19727
854.048	19632
854.183	19609
854.317	19746
854.451	19780
854.585	19594
854.72	19685
854.854	19670
854.988	19597
855.122	19518
855.256	19388
855.39	19552
855.524	19715
855.658	19616
855.792	19643
855.926	19696
856.06	19643
856.194	19601
856.327	19635
856.461	19632
856.595	19563
856.729	19609
856.862	19757
856.996	19651
857.13	19639
857.263	19674
857.397	19681
857.53	19624
857.664	19700
857.797	19616
857.931	19647
858.064	19677
858.197	19750
858.331	19601
858.464	19655
858.597	19430
858.731	19510
858.864	19575
858.997	19556
859.13	19613
859.263	19518
859.396	19738
859.529	19559
859.662	19495
859.795	19540
859.928	19518
860.061	19849
860.194	19643
860.327	19468
860.46	19597
860.592	19548
860.725	19693
860.858	19601
860.99	19430
861.123	19468
861.256	19453
861.388	19525
861.521	20073
861.653	19365
861.786	19308
861.918	19533
862.05	19502
862.183	19563
862.315	19662
862.447	19586
862.58	19616
862.712	19316
862.844	19381
862.976	19324
863.108	19285
863.24	19681
863.372	19259
863.504	19228
863.636	19225
863.768	19274
863.9	19247
864.032	19187
864.164	19183
864.296	19343
864.428	19282
864.559	19244
864.691	19297
864.823	19236
864.954	19247
865.086	19213
865.217	19095
865.349	19046
865.48	19168
865.612	19080
865.743	19304
865.875	19221
866.006	19190
866.137	19000
866.269	19148
866.4	19114
866.531	19179
866.662	19103
866.793	19050
866.924	19061
867.055	18939
867.186	19133
867.317	18947
867.448	19042
867.579	19076
867.71	19031
867.841	18958
867.972	19141
868.103	19202
868.233	19118
868.364	19088
868.495	19141
868.625	19297
868.756	19476
868.886	19244
869.017	19282
869.147	19510
869.278	19438
869.408	19350
869.539	19274
869.669	19327
869.799	19415
869.929	19396
870.06	19445
870.19	19552
870.32	19556
870.45	19628
870.58	19693
870.71	19826
870.84	19871
870.97	19833
871.1	19746
871.23	19807
871.36	19849
871.489	19837
871.619	19875
871.749	19917
871.879	20054
872.008	19997
872.138	19875
872.267	19978
872.397	19776
872.526	19830
872.656	19731
872.785	19761
872.915	19913
873.044	19997
873.173	19986
873.303	20024
873.432	19955
873.561	20062
873.69	19894
873.819	19868
873.948	20062
874.077	19944
874.206	19902
874.335	19936
874.464	20046
874.593	20126
874.722	20103
874.851	20233
874.979	20237
875.108	20210
875.237	20142
875.365	20138
875.494	20282
875.623	20256
875.751	20107
875.88	20218
876.008	20446
876.136	20400
876.265	20693
876.393	20880
876.521	20670
876.65	20743
876.778	20545
876.906	20556
877.034	20541
877.162	20617
877.29	20552
877.418	20651
877.546	20590
877.674	20541
877.802	20583
877.93	20609
878.058	20533
878.185	20541
878.313	20678
878.441	20609
878.568	20575
878.696	20670
878.824	20758
878.951	20796
879.079	20944
879.206	21161
879.333	21104
879.461	21077
879.588	21127
879.715	21218
879.842	21249
879.97	20967
880.097	20659
880.224	20518
880.351	20629
880.478	20564
880.605	20511
880.732	20400
880.859	20750
880.986	20609
881.112	20575
881.239	20362
881.366	20355
881.493	20168
881.619	20172
881.746	20195
881.872	20298
881.999	20111
882.125	20077
882.252	20191
882.378	20221
882.505	20294
882.631	20050
882.757	19864
882.883	19909
883.01	19932
883.136	19868
883.262	19746
883.388	19704
883.514	19875
883.64	19925
883.766	19704
883.892	19765
884.018	19632
884.143	19875
884.269	19921
884.395	19624
884.52	19586
884.646	19480
884.772	19518
884.897	19441
885.023	19533
885.148	19746
885.274	19750
885.399	19556
885.524	19552
885.65	19540
885.775	19510
885.9	19544
886.025	19666
886.15	19571
886.275	19362
886.4	19453
886.525	19457
886.65	19438
886.775	19407
886.9	19586
887.025	19757
887.149	19552
887.274	19354
887.399	19369
887.523	19293
887.648	19278
887.773	19278
887.897	19263
888.021	19289
888.146	19228
888.27	19411
888.395	19407
888.519	19247
888.643	19297
888.767	19392
888.891	19065
889.015	19107
889.139	19061
889.263	19012
889.387	19187
889.511	19187
889.635	19129
889.759	19042
889.883	19156
890.006	19114
890.13	19034
890.254	18932
890.377	18973
890.501	18798
890.624	18696
890.748	18825
890.871	18646
890.995	18669
891.118	18566
891.241	18673
891.364	18711
891.488	18863
891.611	18620
891.734	18646
891.857	18730
891.98	18661
892.103	18654
892.226	18673
892.349	18642
892.471	18521
892.594	18532
892.717	18574
892.839	18452
892.962	18631
893.085	18642
893.207	18635
893.33	18452
893.452	18498
893.575	18623
893.697	18563
893.819	18707
893.941	18597
894.064	18703
894.186	18563
894.308	18623
894.43	18597
894.552	18681
894.674	18734
894.796	18517
894.918	18570
895.04	18490
895.161	18700
895.283	18642
895.405	18528
895.526	18563
895.648	18532
895.769	18616
895.891	18749
896.012	18665
896.134	18627
896.255	18688
896.376	18536
896.498	18741
896.619	18635
896.74	18707
896.861	18707
896.982	19015
897.103	19164
897.224	18985
897.345	18852
897.466	18749
897.587	18894
897.708	19031
897.828	18890
897.949	18738
898.07	18646
898.19	18715
898.311	18878
898.431	18848
898.552	18848
898.672	18920
898.792	18970
898.913	18913
899.033	18738
899.153	18589
899.273	18563
899.393	18604
899.513	18696
899.633	18669
899.753	18604
899.873	18620
899.993	18589
900.113	18433
900.232	18711
900.352	18525
900.472	18418
900.591	18403
900.711	18475
900.83	18407
900.95	18486
901.069	18452
901.189	18399
901.308	18148
901.427	18152
901.546	18011
901.665	18201
901.784	18026
901.904	18053
902.023	17802
902.141	17687
902.26	17535
902.379	17558
902.498	17551
902.617	17467
902.735	17497
902.854	17455
902.973	17543
903.091	17258
903.21	17242
903.328	17056
903.446	17166
903.565	17048
903.683	17018
903.801	16885
903.919	17124
904.038	17033
904.156	16809
904.274	16877
904.392	16839
904.51	16771
904.627	16767
904.745	16717
904.863	16805
904.981	16561
905.098	16367
905.216	16451
905.334	16519
905.451	16421
905.569	16504
905.686	16440
905.803	16409
905.921	16310
906.038	16291
906.155	16303
906.272	16234
906.389	16185
906.506	15922
906.623	15918
906.74	16006
906.857	15956
906.974	15865
907.091	16013
907.208	16093
907.324	15991
907.441	15922
907.557	15675
907.674	15698
907.79	15603
907.907	15755
908.023	15724
908.139	15679
908.256	15701
908.372	15580
908.488	15530
908.604	15359
908.72	15310
908.836	15393
908.952	15306
909.068	15340
909.184	15393
909.3	15382
909.415	15386
909.531	15329
909.647	15119
909.762	15036
909.878	15112
909.993	14982
910.108	15047
910.224	15020
910.339	15108
910.454	15005
910.57	15005
910.685	14792
910.8	15108
910.915	14929
911.03	15036
911.145	14746
911.259	14769
911.374	14735
911.489	14526
911.604	14511
911.718	14423
911.833	14396
911.947	14343
912.062	14301
912.176	14415
912.291	14404
912.405	14358
912.519	14644
912.633	14697
912.748	14492
912.862	14465
912.976	14309
913.09	14191
913.204	14168
913.318	14240
913.431	14294
913.545	14256
913.659	14271
913.772	14180
913.886	14115
914	14119
914.113	14172
914.226	14161
914.34	14123
914.453	13906
914.566	14138
914.68	14012
914.793	14092
914.906	13864
915.019	13769
915.132	13605
915.245	13742
915.358	13753
915.47	13761
915.583	13681
915.696	13761
915.809	13845
915.921	13799
916.034	13738
916.146	13590
916.259	13575
916.371	13708
916.483	13636
916.595	13533
916.708	13632
916.82	13552
916.932	13533
917.044	13464
917.156	13586
917.268	13495
917.38	13419
917.491	13381
917.603	13556
917.715	13426
917.826	13525
917.938	13430
918.049	13293
918.161	13411
918.272	13578
918.384	13472
918.495	13343
918.606	13221
918.717	13145
918.828	13255
918.939	13175
919.05	12973
919.161	13061
919.272	12954
919.383	13053
919.494	13217
919.604	13388
919.715	13152
919.826	13023
919.936	13152
920.047	13149
920.157	13266
920.267	13304
920.378	13183
920.488	13122
920.598	13331
920.708	13457
920.818	13236
920.928	13316
921.038	13407
921.148	13400
921.258	13088
921.368	12951
921.477	12954
921.587	12909
921.697	12779
921.806	12886
921.916	12677
922.025	12589
922.134	12544
922.244	12490
922.353	12642
922.462	12380
922.571	12388
922.68	12308
922.789	12197
922.898	12205
923.007	12159
923.116	12197
923.224	12136
923.333	12205
923.442	11996
923.55	12057
923.659	12110
923.767	12110
923.876	12030
923.984	12083
924.092	11996
924.201	12011
924.309	11961
924.417	11996
924.525	11950
924.633	12076
924.741	12821
924.849	11718
924.956	11893
925.064	11710
925.172	11748
925.279	11688
925.387	11737
925.494	11741
925.602	11908
925.709	11802
925.816	11627
925.924	11688
926.031	11726
926.138	11638
926.245	11718
926.352	11592
926.459	11745
926.566	11775
926.673	11646
926.779	11509
926.886	11463
926.993	11406
927.099	11334
927.206	11258
927.312	11277
927.419	11353
927.525	11303
927.631	11376
927.737	11216
927.843	11151
927.95	11094
928.056	11136
928.162	11174
928.267	11208
928.373	11779
928.479	11261
928.585	11033
928.69	11189
928.796	11204
928.901	11086
929.007	10953
929.112	11037
929.218	11022
929.323	10972
929.428	10911
929.533	11052
929.638	10881
929.743	10839
929.848	10896
929.953	10850
930.058	10733
930.163	10634
930.267	10565
930.372	10752
930.477	10580
930.581	10771
930.685	10660
930.79	10500
930.894	10535
930.998	10538
931.103	10668
931.207	10234
931.311	10234
931.415	10139
931.519	9979
931.623	9892
