Data from test_V78500241_736.txt Node
Date: Fri Mar 25 14:38:50 CST 2022
User: usil
Spectrometer: V785-0024
Trigger mode: 0
Integration Time (sec): 4.000000E-1
Scans to average: 1
Nonlinearity correction enabled: false
Boxcar width: 0
Storing dark spectrum: false
XAxis mode: Wavelengths
Number of Pixels in Spectrum: 1024
>>>>>Begin Spectral Data<<<<<
801.071	27374
801.214	27127
801.356	27028
801.499	26895
801.641	26667
801.783	26651
801.926	26674
802.068	26606
802.211	26434
802.353	26210
802.496	26145
802.638	26164
802.78	26263
802.923	26195
803.065	25963
803.208	26161
803.35	26172
803.492	26313
803.635	26278
803.777	26256
803.919	26183
804.061	26720
804.204	26412
804.346	26305
804.488	26305
804.63	26343
804.773	26343
804.915	26602
805.057	26613
805.199	26571
805.341	26693
805.483	26819
805.626	26731
805.768	26853
805.91	27043
806.052	27169
806.194	27317
806.336	27599
806.478	27671
806.62	27861
806.762	28143
806.904	28588
807.046	29208
807.188	29277
807.33	29889
807.472	30456
807.614	31019
807.756	31993
807.898	33260
808.04	34831
808.182	36882
808.324	39606
808.465	42757
808.607	46158
808.749	49350
808.891	51131
809.033	51401
809.174	49708
809.316	46637
809.458	43023
809.6	39150
809.741	36475
809.883	34082
810.025	32792
810.166	31594
810.308	30753
810.45	30003
810.591	29459
810.733	28957
810.875	28443
811.016	28131
811.158	27895
811.299	27861
811.441	27842
811.582	27557
811.724	27420
811.865	27348
812.007	27154
812.148	27093
812.29	27066
812.431	27138
812.573	27131
812.714	27272
812.855	27123
812.997	27340
813.138	27310
813.279	27287
813.421	27055
813.562	26906
813.703	26750
813.845	26708
813.986	26248
814.127	25959
814.268	25997
814.41	25841
814.551	25921
814.692	25925
814.833	25746
814.974	25597
815.115	25784
815.256	25533
815.397	25502
815.539	25476
815.68	25419
815.821	25339
815.962	25339
816.103	25339
816.244	25206
816.385	24932
816.526	25061
816.666	24890
816.807	24620
816.948	24821
817.089	24924
817.23	24665
817.371	24627
817.512	24521
817.653	24642
817.793	24437
817.934	24498
818.075	24532
818.216	24460
818.356	24582
818.497	24365
818.638	24258
818.778	24216
818.919	24194
819.06	24334
819.2	24407
819.341	24490
819.481	24502
819.622	24513
819.762	24829
819.903	24711
820.043	24650
820.184	24505
820.324	24505
820.465	24536
820.605	24441
820.746	24262
820.886	24273
821.026	24330
821.167	24213
821.307	24369
821.447	24182
821.588	24174
821.728	23992
821.868	23752
822.008	23703
822.149	23493
822.289	23589
822.429	23406
822.569	23417
822.709	23273
822.849	22995
822.99	23109
823.13	23033
823.27	23014
823.41	22835
823.55	22793
823.69	22809
823.83	22812
823.97	22786
824.11	22713
824.25	22538
824.389	22672
824.529	22622
824.669	22717
824.809	22729
824.949	22687
825.089	22725
825.228	22679
825.368	22462
825.508	22523
825.648	22455
825.787	22402
825.927	22504
826.067	22329
826.206	22341
826.346	22451
826.485	22478
826.625	22371
826.765	22523
826.904	22363
827.044	22162
827.183	22086
827.323	22093
827.462	22204
827.601	22162
827.741	22025
827.88	22059
828.02	22131
828.159	22055
828.298	22112
828.437	22055
828.577	22109
828.716	22219
828.855	21994
828.994	21823
829.134	21812
829.273	21869
829.412	21583
829.551	21819
829.69	21770
829.829	21823
829.968	21884
830.107	21781
830.246	21743
830.385	21675
830.524	21545
830.663	21549
830.802	21488
830.941	21340
831.08	21298
831.219	21443
831.357	21576
831.496	21618
831.635	21393
831.774	21298
831.913	21298
832.051	21169
832.19	21184
832.329	21378
832.467	21188
832.606	21184
832.744	21169
832.883	21268
833.022	21389
833.16	21485
833.299	21739
833.437	21793
833.576	21953
833.714	22032
833.852	22207
833.991	22436
834.129	22497
834.267	22466
834.406	22356
834.544	22306
834.682	22196
834.821	21842
834.959	21987
835.097	21762
835.235	21694
835.373	21545
835.511	21431
835.65	21370
835.788	21180
835.926	20883
836.064	20914
836.202	20990
836.34	21039
836.478	21112
836.615	20891
836.753	20963
836.891	21058
837.029	20834
837.167	20838
837.305	20815
837.443	20750
837.58	20689
837.718	20804
837.856	20743
837.993	20640
838.131	20651
838.269	20651
838.406	20629
838.544	20533
838.681	20412
838.819	20336
838.956	20271
839.094	20172
839.231	20237
839.369	20351
839.506	20480
839.643	20339
839.781	20111
839.918	20077
840.055	20161
840.193	20065
840.33	20115
840.467	20039
840.604	20164
840.742	20400
840.879	20107
841.016	20024
841.153	20008
841.29	20176
841.427	20119
841.564	20157
841.701	20183
841.838	20069
841.975	20088
842.112	20100
842.249	19970
842.385	19993
842.522	20043
842.659	19967
842.796	19913
842.933	20077
843.069	19856
843.206	19986
843.343	20115
843.479	20164
843.616	20024
843.752	19989
843.889	19921
844.025	20195
844.162	20100
844.298	20202
844.435	20431
844.571	20579
844.708	20925
844.844	21298
844.98	21766
845.117	22565
845.253	23512
845.389	25350
845.525	29258
845.661	35512
845.798	42669
845.934	47805
846.07	49864
846.206	48163
846.342	43225
846.478	35988
846.614	29992
846.75	26027
846.886	23627
847.022	22310
847.158	21317
847.294	20701
847.429	20309
847.565	20073
847.701	20142
847.837	19518
847.972	19403
848.108	19301
848.244	19362
848.379	19103
848.515	19031
848.65	19042
848.786	18909
848.921	18973
849.057	18973
849.192	19031
849.328	18989
849.463	18916
849.598	18829
849.734	18753
849.869	18684
850.004	18570
850.14	18681
850.275	18635
850.41	18452
850.545	18498
850.68	18665
850.815	18604
850.95	18631
851.085	18715
851.22	18582
851.355	18536
851.49	18620
851.625	18433
851.76	18551
851.895	18570
852.03	18441
852.165	18585
852.299	18635
852.434	18604
852.569	18684
852.703	18677
852.838	18726
852.973	18757
853.107	18783
853.242	18555
853.376	18604
853.511	18559
853.645	18589
853.78	18745
853.914	18791
854.048	18757
854.183	18844
854.317	18810
854.451	19061
854.585	18840
854.72	18768
854.854	18776
854.988	18700
855.122	18684
855.256	18544
855.39	18700
855.524	18627
855.658	18726
855.792	18544
855.926	18566
856.06	18460
856.194	18597
856.327	18437
856.461	18403
856.595	18391
856.729	18414
856.862	18479
856.996	18384
857.13	18475
857.263	18445
857.397	18410
857.53	18296
857.664	18342
857.797	18365
857.931	18471
858.064	18376
858.197	18273
858.331	18254
858.464	18224
858.597	18224
858.731	18235
858.864	18228
858.997	18125
859.13	18270
859.263	18205
859.396	18445
859.529	18194
859.662	18136
859.795	18262
859.928	18220
860.061	18372
860.194	18372
860.327	18300
860.46	18205
860.592	18258
860.725	18350
860.858	18247
860.99	18140
861.123	18182
861.256	18140
861.388	18224
861.521	18871
861.653	18095
861.786	17996
861.918	18068
862.05	18083
862.183	18144
862.315	18159
862.447	18110
862.58	18129
862.712	17950
862.844	17908
862.976	17908
863.108	17802
863.24	18391
863.372	17817
863.504	17893
863.636	17843
863.768	17912
863.9	17840
864.032	17832
864.164	17771
864.296	17840
864.428	17912
864.559	17885
864.691	17904
864.823	17885
864.954	17828
865.086	17760
865.217	17718
865.349	17699
865.48	17691
865.612	17779
865.743	17939
865.875	17821
866.006	17760
866.137	17882
866.269	17828
866.4	17779
866.531	17668
866.662	17604
866.793	17737
866.924	17703
867.055	17786
867.186	17733
867.317	17600
867.448	17642
867.579	17710
867.71	17714
867.841	17668
867.972	17752
868.103	17611
868.233	17745
868.364	17847
868.495	17851
868.625	17999
868.756	18171
868.886	17958
869.017	18011
869.147	18117
869.278	18110
869.408	18106
869.539	17996
869.669	18140
869.799	18159
869.929	18133
870.06	18125
870.19	18281
870.32	18296
870.45	18414
870.58	18528
870.71	18559
870.84	18623
870.97	18498
871.1	18467
871.23	18631
871.36	18760
871.489	18620
871.619	18768
871.749	18798
871.879	18738
872.008	18848
872.138	18837
872.267	18715
872.397	18692
872.526	18681
872.656	18574
872.785	18665
872.915	18814
873.044	18966
873.173	18920
873.303	18958
873.432	19015
873.561	19023
873.69	18966
873.819	19008
873.948	19091
874.077	19061
874.206	19088
874.335	19110
874.464	19339
874.593	19495
874.722	19331
874.851	19563
874.979	19605
875.108	19731
875.237	19495
875.365	19525
875.494	19575
875.623	19708
875.751	19620
875.88	19818
876.008	20035
876.136	20054
876.265	20355
876.393	20579
876.521	20602
876.65	20720
876.778	20632
876.906	20636
877.034	20632
877.162	20773
877.29	20689
877.418	20963
877.546	21032
877.674	21104
877.802	21207
877.93	21340
878.058	21462
878.185	21587
878.313	21991
878.441	22497
878.568	22580
878.696	23356
878.824	24213
878.951	25441
879.079	26975
879.206	29124
879.333	31225
879.461	33108
879.588	34223
879.715	34268
879.842	33427
879.97	31540
880.097	29166
880.224	27492
880.351	26298
880.478	25266
880.605	24627
880.732	24361
880.859	24194
880.986	23870
881.112	23916
881.239	23604
881.366	23444
881.493	23292
881.619	23307
881.746	23414
881.872	23376
881.999	23223
882.125	23326
882.252	23505
882.378	23505
882.505	23699
882.631	23554
882.757	23463
882.883	23368
883.01	23425
883.136	23311
883.262	23147
883.388	23075
883.514	23391
883.64	23383
883.766	23273
883.892	23147
884.018	23151
884.143	23296
884.269	23368
884.395	23162
884.52	23056
884.646	23090
884.772	23162
884.897	22968
885.023	23140
885.148	23128
885.274	23109
885.399	22991
885.524	22862
885.65	22736
885.775	22557
885.9	22409
886.025	22402
886.15	22162
886.275	21979
886.4	21690
886.525	21701
886.65	21553
886.775	21306
886.9	21439
887.025	21340
887.149	21047
887.274	20686
887.399	20815
887.523	20678
887.648	20602
887.773	20431
887.897	20412
888.021	20355
888.146	20195
888.27	20275
888.395	20282
888.519	20161
888.643	20195
888.767	20050
888.891	19750
889.015	19658
889.139	19788
889.263	19643
889.387	19685
889.511	19841
889.635	19643
889.759	19491
889.883	19472
890.006	19411
890.13	19403
890.254	19327
890.377	19270
890.501	19103
890.624	19023
890.748	19076
890.871	18943
890.995	18802
891.118	18802
891.241	18684
891.364	18730
891.488	18776
891.611	18715
891.734	18707
891.857	18768
891.98	18589
892.103	18623
892.226	18532
892.349	18399
892.471	18315
892.594	18319
892.717	18353
892.839	18327
892.962	18372
893.085	18289
893.207	18186
893.33	18076
893.452	18125
893.575	18205
893.697	18110
893.819	18213
893.941	18369
894.064	18232
894.186	18003
894.308	17988
894.43	18068
894.552	18087
894.674	18114
894.796	17817
894.918	17878
895.04	17824
895.161	18011
895.283	17870
895.405	17707
895.526	17893
895.648	17874
895.769	17832
895.891	17859
896.012	17847
896.134	17809
896.255	17779
896.376	17756
896.498	17786
896.619	17916
896.74	17840
896.861	17897
896.982	18087
897.103	18273
897.224	18026
897.345	17992
897.466	17874
897.587	18007
897.708	18072
897.828	17863
897.949	17840
898.07	17859
898.19	17946
898.311	17961
898.431	17843
898.552	17885
898.672	18034
898.792	18003
898.913	18041
899.033	17832
899.153	17882
899.273	17687
899.393	17786
899.513	17790
899.633	17703
899.753	17695
899.873	17760
899.993	17691
900.113	17600
900.232	17764
900.352	17649
900.472	17668
900.591	17600
900.711	17528
900.83	17436
900.95	17600
901.069	17585
901.189	17444
901.308	17265
901.427	17136
901.546	17174
901.665	17239
901.784	17143
901.904	16946
902.023	16805
902.141	16626
902.26	16584
902.379	16740
902.498	16466
902.617	16569
902.735	16569
902.854	16504
902.973	16386
903.091	16295
903.21	16025
903.328	16219
903.446	16185
903.565	16002
903.683	15956
903.801	15842
903.919	15953
904.038	15979
904.156	15819
904.274	15926
904.392	15690
904.51	15675
904.627	15751
904.745	15797
904.863	15682
904.981	15515
905.098	15477
905.216	15408
905.334	15367
905.451	15389
905.569	15245
905.686	15310
905.803	15355
905.921	15233
906.038	15332
906.155	15169
906.272	15070
906.389	15214
906.506	14971
906.623	14910
906.74	14971
906.857	14769
906.974	14807
907.091	14937
907.208	14933
907.324	14960
907.441	14849
907.557	14762
907.674	14617
907.79	14537
907.907	14678
908.023	14617
908.139	14590
908.256	14465
908.372	14571
908.488	14541
908.604	14332
908.72	14286
908.836	14408
908.952	14320
909.068	14290
909.184	14377
909.3	14225
909.415	14366
909.531	14294
909.647	14031
909.762	14172
909.878	14081
909.993	14115
910.108	14027
910.224	13944
910.339	14164
910.454	13982
910.57	13833
910.685	13894
910.8	14077
910.915	14077
911.03	13925
911.145	13704
911.259	13639
911.374	13750
911.489	13647
911.604	13670
911.718	13384
911.833	13384
911.947	13297
912.062	13289
912.176	13434
912.291	13449
912.405	13434
912.519	13620
912.633	13715
912.748	13559
912.862	13422
912.976	13312
913.09	13206
913.204	13282
913.318	13251
913.431	13354
913.545	13392
913.659	13392
913.772	13301
913.886	13152
914	13065
914.113	13251
914.226	13274
914.34	13206
914.453	13103
914.566	13091
914.68	13114
914.793	13175
914.906	12951
915.019	12776
915.132	12840
915.245	12833
915.358	12943
915.47	12966
915.583	12840
915.696	12909
915.809	13000
915.921	13015
916.034	12920
916.146	12726
916.259	12825
916.371	12848
916.483	12897
916.595	12825
916.708	12745
916.82	12802
916.932	12779
917.044	12886
917.156	12662
917.268	12604
917.38	12684
917.491	12623
917.603	12631
917.715	12715
917.826	12772
917.938	12582
918.049	12369
918.161	12506
918.272	12715
918.384	12677
918.495	12536
918.606	12426
918.717	12330
918.828	12365
918.939	12388
919.05	12273
919.161	12330
919.272	12136
919.383	12163
919.494	12422
919.604	12604
919.715	12437
919.826	12247
919.936	12308
920.047	12407
920.157	12353
920.267	12475
920.378	12422
920.488	12418
920.598	12536
920.708	12574
920.818	12475
920.928	12509
921.038	12688
921.148	12646
921.258	12330
921.368	12262
921.477	12216
921.587	12068
921.697	12022
921.806	12148
921.916	12003
922.025	11859
922.134	11794
922.244	11688
922.353	11809
922.462	11634
922.571	11615
922.68	11463
922.789	11433
922.898	11444
923.007	11356
923.116	11600
923.224	11410
923.333	11444
923.442	11334
923.55	11372
923.659	11292
923.767	11322
923.876	11193
923.984	11345
924.092	11284
924.201	11277
924.309	11235
924.417	11311
924.525	11170
924.633	11223
924.741	11912
924.849	10987
924.956	11151
925.064	11025
925.172	10805
925.279	10942
925.387	11079
925.494	10972
925.602	11094
925.709	11086
925.816	10953
925.924	10923
926.031	11041
926.138	10987
926.245	11071
926.352	10892
926.459	11014
926.566	11010
926.673	10854
926.779	10843
926.886	10698
926.993	10641
927.099	10599
927.206	10607
927.312	10535
927.419	10679
927.525	10653
927.631	10618
927.737	10561
927.843	10447
927.95	10375
928.056	10421
928.162	10489
928.267	10519
928.373	11037
928.479	10573
928.585	10379
928.69	10481
928.796	10535
928.901	10306
929.007	10238
929.112	10379
929.218	10337
929.323	10306
929.428	10318
929.533	10379
929.638	10188
929.743	10207
929.848	10253
929.953	10242
930.058	10143
930.163	10025
930.267	9941
930.372	10120
930.477	9945
930.581	10207
930.685	10002
930.79	9915
930.894	9884
930.998	9892
931.103	10032
931.207	9717
931.311	9667
931.415	9534
931.519	9382
931.623	9359
