Data from test_V78500241_1028.txt Node
Date: Fri Mar 25 14:40:52 CST 2022
User: usil
Spectrometer: V785-0024
Trigger mode: 0
Integration Time (sec): 4.000000E-1
Scans to average: 1
Nonlinearity correction enabled: false
Boxcar width: 0
Storing dark spectrum: false
XAxis mode: Wavelengths
Number of Pixels in Spectrum: 1024
>>>>>Begin Spectral Data<<<<<
801.071	22995
801.214	22869
801.356	22554
801.499	22504
801.641	22440
801.783	22253
801.926	22310
802.068	22185
802.211	22124
802.353	22090
802.496	21884
802.638	21793
802.78	21694
802.923	21625
803.065	21580
803.208	21690
803.35	21690
803.492	21778
803.635	21781
803.777	21663
803.919	21880
804.061	21880
804.204	21701
804.346	21515
804.488	21644
804.63	21660
804.773	21500
804.915	21595
805.057	21713
805.199	21504
805.341	21622
805.483	21625
805.626	21705
805.768	21492
805.91	21530
806.052	21652
806.194	21549
806.336	21857
806.478	21610
806.62	21542
806.762	21675
806.904	21865
807.046	22169
807.188	22048
807.33	22074
807.472	22105
807.614	22021
807.756	22166
807.898	22082
808.04	22013
808.182	22143
808.324	22226
808.465	22291
808.607	22702
808.749	22866
808.891	22793
809.033	23041
809.174	22873
809.316	22645
809.458	22618
809.6	22432
809.741	22360
809.883	22284
810.025	22428
810.166	22325
810.308	22257
810.45	22226
810.591	22242
810.733	22105
810.875	22044
811.016	21736
811.158	21701
811.299	21903
811.441	21880
811.582	21804
811.724	21892
811.865	21778
812.007	21819
812.148	21854
812.29	21892
812.431	21926
812.573	22188
812.714	22242
812.855	22409
812.997	22394
813.138	22500
813.279	22405
813.421	22371
813.562	22413
813.703	22074
813.845	21861
813.986	21667
814.127	21523
814.268	21439
814.41	21462
814.551	21317
814.692	21363
814.833	21233
814.974	21226
815.115	21298
815.256	21294
815.397	21264
815.539	21146
815.68	21085
815.821	20975
815.962	21176
816.103	21070
816.244	20967
816.385	20830
816.526	20864
816.666	20708
816.807	20511
816.948	20648
817.089	20625
817.23	20461
817.371	20541
817.512	20533
817.653	20461
817.793	20370
817.934	20571
818.075	20480
818.216	20465
818.356	20476
818.497	20313
818.638	20161
818.778	20237
818.919	20237
819.06	20263
819.2	20252
819.341	20358
819.481	20446
819.622	20571
819.762	20743
819.903	20503
820.043	20457
820.184	20492
820.324	20434
820.465	20640
820.605	20526
820.746	20442
820.886	20282
821.026	20469
821.167	20412
821.307	20450
821.447	20351
821.588	20290
821.728	20233
821.868	19974
822.008	19765
822.149	19856
822.289	19788
822.429	19575
822.569	19521
822.709	19586
822.849	19369
822.99	19274
823.13	19419
823.27	19244
823.41	19168
823.55	19202
823.69	19141
823.83	19080
823.97	18970
824.11	18916
824.25	18947
824.389	18935
824.529	18890
824.669	18867
824.809	19152
824.949	19187
825.089	19004
825.228	18966
825.368	18760
825.508	18696
825.648	18673
825.787	18787
825.927	18878
826.067	18677
826.206	18749
826.346	18700
826.485	18711
826.625	18741
826.765	18661
826.904	18661
827.044	18544
827.183	18426
827.323	18369
827.462	18388
827.601	18410
827.741	18342
827.88	18369
828.02	18254
828.159	18490
828.298	18475
828.437	18407
828.577	18330
828.716	18502
828.855	18342
828.994	18121
829.134	18167
829.273	18262
829.412	17999
829.551	18114
829.69	18201
829.829	18254
829.968	18216
830.107	18091
830.246	18110
830.385	18136
830.524	18076
830.663	18045
830.802	17863
830.941	17786
831.08	17699
831.219	17756
831.357	17741
831.496	17988
831.635	17745
831.774	17722
831.913	17691
832.051	17554
832.19	17543
832.329	17493
832.467	17520
832.606	17421
832.744	17391
832.883	17444
833.022	17376
833.16	17429
833.299	17532
833.437	17528
833.576	17592
833.714	17608
833.852	17577
833.991	17592
834.129	17573
834.267	17646
834.406	17558
834.544	17535
834.682	17512
834.821	17589
834.959	17577
835.097	17471
835.235	17535
835.373	17547
835.511	17440
835.65	17444
835.788	17406
835.926	17296
836.064	17151
836.202	17299
836.34	17471
836.478	17520
836.615	17280
836.753	17425
836.891	17467
837.029	17463
837.167	17383
837.305	17315
837.443	17265
837.58	17185
837.718	17330
837.856	17284
837.993	17155
838.131	17181
838.269	17105
838.406	17235
838.544	17159
838.681	16889
838.819	16930
838.956	16843
839.094	16816
839.231	16873
839.369	16938
839.506	17193
839.643	16949
839.781	16786
839.918	16763
840.055	16824
840.193	16713
840.33	16767
840.467	16824
840.604	16778
840.742	17052
840.879	16664
841.016	16763
841.153	16550
841.29	16889
841.427	16797
841.564	16877
841.701	16824
841.838	16733
841.975	16622
842.112	16637
842.249	16481
842.385	16603
842.522	16691
842.659	16649
842.796	16599
842.933	16538
843.069	16527
843.206	16588
843.343	16580
843.479	16558
843.616	16584
843.752	16398
843.889	16310
844.025	16542
844.162	16356
844.298	16474
844.435	16242
844.571	16310
844.708	16348
844.844	16405
844.98	16535
845.117	16554
845.253	16352
845.389	16421
845.525	16611
845.661	16634
845.798	16923
845.934	17083
846.07	17136
846.206	17155
846.342	17121
846.478	16805
846.614	16360
846.75	16169
846.886	16013
847.022	16093
847.158	15956
847.294	15903
847.429	15983
847.565	15823
847.701	16112
847.837	15724
847.972	15622
848.108	15804
848.244	15667
848.379	15534
848.515	15466
848.65	15519
848.786	15431
848.921	15538
849.057	15599
849.192	15545
849.328	15572
849.463	15428
849.598	15344
849.734	15408
849.869	15237
850.004	15291
850.14	15317
850.275	15199
850.41	15188
850.545	15256
850.68	15157
850.815	15188
850.95	15233
851.085	15496
851.22	15329
851.355	15336
851.49	15268
851.625	15161
851.76	15104
851.895	15138
852.03	15188
852.165	15230
852.299	15256
852.434	15313
852.569	15272
852.703	15245
852.838	15351
852.973	15389
853.107	15393
853.242	15127
853.376	15047
853.511	14998
853.645	15039
853.78	15275
853.914	15051
854.048	15100
854.183	15032
854.317	15173
854.451	15176
854.585	15146
854.72	15070
854.854	15176
854.988	15070
855.122	15089
855.256	15017
855.39	15020
855.524	15214
855.658	15150
855.792	15119
855.926	15100
856.06	15207
856.194	15272
856.327	15176
856.461	15013
856.595	15020
856.729	15157
856.862	15188
856.996	15176
857.13	15146
857.263	15207
857.397	15165
857.53	15028
857.664	15142
857.797	15127
857.931	15291
858.064	15150
858.197	15127
858.331	15047
858.464	15051
858.597	14963
858.731	15036
858.864	15161
858.997	15039
859.13	15176
859.263	15085
859.396	15264
859.529	15135
859.662	15066
859.795	14990
859.928	15058
860.061	15218
860.194	15275
860.327	15123
860.46	15131
860.592	15211
860.725	15211
860.858	15256
860.99	15055
861.123	15104
861.256	15039
861.388	15176
861.521	15827
861.653	14963
861.786	14933
861.918	14982
862.05	15013
862.183	15108
862.315	15028
862.447	15154
862.58	15055
862.712	14864
862.844	14842
862.976	14883
863.108	14952
863.24	15218
863.372	14823
863.504	14842
863.636	14933
863.768	14872
863.9	14838
864.032	14826
864.164	14857
864.296	14845
864.428	15020
864.559	14891
864.691	14982
864.823	14956
864.954	14918
865.086	14906
865.217	14876
865.349	14796
865.48	14826
865.612	14857
865.743	14895
865.875	14853
866.006	14754
866.137	14834
866.269	14773
866.4	14743
866.531	14876
866.662	14773
866.793	14781
866.924	14834
867.055	14804
867.186	14777
867.317	14857
867.448	14689
867.579	14785
867.71	14739
867.841	14743
867.972	14899
868.103	14853
868.233	14796
868.364	14743
868.495	14876
868.625	15119
868.756	15089
868.886	14937
869.017	15100
869.147	15180
869.278	15192
869.408	15097
869.539	15066
869.669	15230
869.799	15176
869.929	15230
870.06	15264
870.19	15321
870.32	15302
870.45	15401
870.58	15481
870.71	15545
870.84	15526
870.97	15526
871.1	15424
871.23	15739
871.36	15622
871.489	15625
871.619	15618
871.749	15652
871.879	15701
872.008	15778
872.138	15595
872.267	15736
872.397	15549
872.526	15485
872.656	15534
872.785	15545
872.915	15663
873.044	15747
873.173	15667
873.303	15751
873.432	15690
873.561	15766
873.69	15755
873.819	15698
873.948	15739
874.077	15835
874.206	15762
874.335	15793
874.464	15953
874.593	15998
874.722	15835
874.851	16105
874.979	16036
875.108	16032
875.237	16101
875.365	15930
875.494	15941
875.623	16166
875.751	15937
875.88	16116
876.008	16166
876.136	16242
876.265	16398
876.393	16565
876.521	16588
876.65	16573
876.778	16538
876.906	16527
877.034	16405
877.162	16417
877.29	16409
877.418	16329
877.546	16531
877.674	16432
877.802	16504
877.93	16485
878.058	16569
878.185	16405
878.313	16508
878.441	16466
878.568	16405
878.696	16637
878.824	16615
878.951	16801
879.079	16915
879.206	17041
879.333	17060
879.461	16900
879.588	17045
879.715	17105
879.842	17254
879.97	16980
880.097	16618
880.224	16634
880.351	16478
880.478	16440
880.605	16421
880.732	16428
880.859	16660
880.986	16489
881.112	16485
881.239	16382
881.366	16325
881.493	16055
881.619	16044
881.746	16097
881.872	16071
881.999	16109
882.125	16074
882.252	16090
882.378	16185
882.505	16261
882.631	15983
882.757	15953
882.883	16044
883.01	15983
883.136	15884
883.262	15724
883.388	15793
883.514	15945
883.64	16021
883.766	15850
883.892	15705
884.018	15717
884.143	15850
884.269	15895
884.395	15603
884.52	15557
884.646	15599
884.772	15515
884.897	15477
885.023	15606
885.148	15614
885.274	15679
885.399	15660
885.524	15580
885.65	15557
885.775	15595
885.9	15564
886.025	15686
886.15	15564
886.275	15572
886.4	15488
886.525	15485
886.65	15393
886.775	15511
886.9	15580
887.025	15686
887.149	15564
887.274	15275
887.399	15306
887.523	15359
887.648	15287
887.773	15256
887.897	15367
888.021	15344
888.146	15260
888.27	15439
888.395	15454
888.519	15287
888.643	15435
888.767	15466
888.891	15249
889.015	15112
889.139	15146
889.263	15233
889.387	15226
889.511	15363
889.635	15256
889.759	15093
889.883	15154
890.006	15123
890.13	15249
890.254	15135
890.377	15039
890.501	14979
890.624	14952
890.748	15024
890.871	14944
890.995	14796
891.118	14758
891.241	14819
891.364	14872
891.488	14933
891.611	14716
891.734	14773
891.857	14925
891.98	14834
892.103	14876
892.226	14880
892.349	14800
892.471	14712
892.594	14796
892.717	14853
892.839	14785
892.962	14823
893.085	14910
893.207	14823
893.33	14598
893.452	14689
893.575	14948
893.697	14800
893.819	15020
893.941	15047
894.064	14941
894.186	14769
894.308	14750
894.43	14864
894.552	14986
894.674	14910
894.796	14819
894.918	14902
895.04	14823
895.161	14998
895.283	14872
895.405	14845
895.526	14834
895.648	14845
895.769	14899
895.891	14960
896.012	14982
896.134	14921
896.255	14899
896.376	14918
896.498	14960
896.619	15047
896.74	15085
896.861	15017
896.982	15245
897.103	15473
897.224	15287
897.345	15203
897.466	15074
897.587	15192
897.708	15435
897.828	15218
897.949	15188
898.07	15077
898.19	15207
898.311	15363
898.431	15195
898.552	15256
898.672	15389
898.792	15355
898.913	15340
899.033	15249
899.153	15116
899.273	15081
899.393	15055
899.513	15058
899.633	15081
899.753	15157
899.873	15058
899.993	15214
900.113	15161
900.232	15233
900.352	15093
900.472	14979
900.591	15043
900.711	15001
900.83	14941
900.95	15123
901.069	15058
901.189	14941
901.308	14583
901.427	14598
901.546	14636
901.665	14727
901.784	14640
901.904	14568
902.023	14522
902.141	14362
902.26	14290
902.379	14298
902.498	14187
902.617	14180
902.735	14244
902.854	14206
902.973	14103
903.091	13955
903.21	13947
903.328	13947
903.446	13898
903.565	13906
903.683	13769
903.801	13731
903.919	13677
904.038	13784
904.156	13529
904.274	13636
904.392	13525
904.51	13552
904.627	13491
904.745	13605
904.863	13666
904.981	13392
905.098	13297
905.216	13320
905.334	13320
905.451	13301
905.569	13194
905.686	13343
905.803	13213
905.921	13019
906.038	13221
906.155	13099
906.272	12951
906.389	13000
906.506	12863
906.623	12867
906.74	12939
906.857	12791
906.974	12798
907.091	12932
907.208	12947
907.324	12859
907.441	12726
907.557	12646
907.674	12601
907.79	12566
907.907	12513
908.023	12616
908.139	12597
908.256	12517
908.372	12502
908.488	12506
908.604	12315
908.72	12296
908.836	12353
908.952	12357
909.068	12369
909.184	12547
909.3	12300
909.415	12372
909.531	12289
909.647	12083
909.762	12182
909.878	12015
909.993	12057
910.108	11999
910.224	12064
910.339	12076
910.454	11973
910.57	11954
910.685	11828
910.8	12144
910.915	12011
911.03	11923
911.145	11817
911.259	11786
911.374	11756
911.489	11710
911.604	11604
911.718	11539
911.833	11573
911.947	11433
912.062	11345
912.176	11448
912.291	11604
912.405	11573
912.519	11691
912.633	11741
912.748	11570
912.862	11478
912.976	11463
913.09	11284
913.204	11368
913.318	11368
913.431	11493
913.545	11520
913.659	11436
913.772	11391
913.886	11341
914	11204
914.113	11364
914.226	11372
914.34	11341
914.453	11197
914.566	11326
914.68	11239
914.793	11197
914.906	10991
915.019	10972
915.132	10934
915.245	11022
915.358	11041
915.47	10927
915.583	10972
915.696	11086
915.809	11090
915.921	11201
916.034	11018
916.146	10854
916.259	10877
916.371	10961
916.483	11048
916.595	10850
916.708	10908
916.82	10889
916.932	10946
917.044	10828
917.156	10900
917.268	10733
917.38	10828
917.491	10816
917.603	10828
917.715	10911
917.826	10991
917.938	10729
918.049	10660
918.161	10805
918.272	10961
918.384	10965
918.495	10877
918.606	10721
918.717	10611
918.828	10672
918.939	10645
919.05	10584
919.161	10694
919.272	10455
919.383	10504
919.494	10748
919.604	10877
919.715	10691
919.826	10588
919.936	10569
920.047	10740
920.157	10698
920.267	10847
920.378	10740
920.488	10622
920.598	10869
920.708	10972
920.818	10824
920.928	10862
921.038	11094
921.148	10968
921.258	10656
921.368	10668
921.477	10462
921.587	10497
921.697	10344
921.806	10580
921.916	10341
922.025	10200
922.134	10280
922.244	10154
922.353	10310
922.462	10093
922.571	10109
922.68	9926
922.789	9884
922.898	9968
923.007	9876
923.116	9979
923.224	9926
923.333	9968
923.442	9785
923.55	9755
923.659	9842
923.767	9808
923.876	9717
923.984	9846
924.092	9698
924.201	9781
924.309	9778
924.417	9732
924.525	9682
924.633	9755
924.741	10607
924.849	9492
924.956	9679
925.064	9526
925.172	9450
925.279	9507
925.387	9564
925.494	9599
925.602	9759
925.709	9618
925.816	9447
925.924	9488
926.031	9591
926.138	9587
926.245	9622
926.352	9511
926.459	9538
926.566	9595
926.673	9507
926.779	9370
926.886	9401
926.993	9176
927.099	9340
927.206	9146
927.312	9226
927.419	9260
927.525	9207
927.631	9279
927.737	9165
927.843	9097
927.95	9001
928.056	9150
928.162	9051
928.267	9230
928.373	9800
928.479	9294
928.585	8975
928.69	9077
928.796	9097
928.901	9039
929.007	8925
929.112	9024
929.218	8986
929.323	9001
929.428	8941
929.533	9097
929.638	8910
929.743	8906
929.848	8937
929.953	8921
930.058	8796
930.163	8693
930.267	8716
930.372	8891
930.477	8705
930.581	8887
930.685	8800
930.79	8602
930.894	8670
930.998	8613
931.103	8788
931.207	8427
931.311	8454
931.415	8309
931.519	8123
931.623	8153
