Data from test_V78500241_1281.txt Node
Date: Fri Mar 25 14:42:38 CST 2022
User: usil
Spectrometer: V785-0024
Trigger mode: 0
Integration Time (sec): 4.000000E-1
Scans to average: 1
Nonlinearity correction enabled: false
Boxcar width: 0
Storing dark spectrum: false
XAxis mode: Wavelengths
Number of Pixels in Spectrum: 1024
>>>>>Begin Spectral Data<<<<<
801.071	22382
801.214	22371
801.356	22109
801.499	21827
801.641	21751
801.783	21743
801.926	21709
802.068	21622
802.211	21663
802.353	21481
802.496	21344
802.638	21241
802.78	21344
802.923	21192
803.065	21001
803.208	21138
803.35	21070
803.492	21123
803.635	21169
803.777	21051
803.919	21119
804.061	21443
804.204	21150
804.346	21039
804.488	20895
804.63	21096
804.773	20925
804.915	21043
805.057	21233
805.199	20979
805.341	21123
805.483	21017
805.626	21211
805.768	20998
805.91	20921
806.052	21058
806.194	20883
806.336	21199
806.478	21051
806.62	20990
806.762	21043
806.904	21355
807.046	21389
807.188	21424
807.33	21405
807.472	21405
807.614	21291
807.756	21252
807.898	21226
808.04	21077
808.182	20956
808.324	21230
808.465	21146
808.607	21408
808.749	21500
808.891	21641
809.033	21690
809.174	21599
809.316	21477
809.458	21523
809.6	21488
809.741	21511
809.883	21454
810.025	21622
810.166	21367
810.308	21561
810.45	21576
810.591	21439
810.733	21336
810.875	21226
811.016	21100
811.158	21142
811.299	21199
811.441	21355
811.582	21306
811.724	21173
811.865	21138
812.007	21222
812.148	21108
812.29	21127
812.431	21412
812.573	21469
812.714	21458
812.855	21618
812.997	21747
813.138	21915
813.279	21671
813.421	21751
813.562	21519
813.703	21378
813.845	21370
813.986	21009
814.127	20929
814.268	20796
814.41	20758
814.551	20762
814.692	20746
814.833	20720
814.974	20743
815.115	20583
815.256	20431
815.397	20587
815.539	20609
815.68	20575
815.821	20339
815.962	20423
816.103	20514
816.244	20275
816.385	20320
816.526	20164
816.666	20100
816.807	19959
816.948	19898
817.089	19997
817.23	19883
817.371	19890
817.512	19947
817.653	19902
817.793	19856
817.934	19898
818.075	19887
818.216	19860
818.356	19818
818.497	19746
818.638	19499
818.778	19495
818.919	19548
819.06	19639
819.2	19620
819.341	19875
819.481	19681
819.622	19852
819.762	20157
819.903	19970
820.043	19989
820.184	19837
820.324	19845
820.465	19875
820.605	19925
820.746	19837
820.886	19609
821.026	19856
821.167	19731
821.307	19890
821.447	19864
821.588	19715
821.728	19510
821.868	19449
822.008	19263
822.149	19297
822.289	19266
822.429	19012
822.569	18958
822.709	19038
822.849	18882
822.99	18707
823.13	18924
823.27	18707
823.41	18707
823.55	18521
823.69	18604
823.83	18585
823.97	18574
824.11	18437
824.25	18422
824.389	18376
824.529	18414
824.669	18395
824.809	18467
824.949	18498
825.089	18445
825.228	18448
825.368	18346
825.508	18273
825.648	18102
825.787	18258
825.927	18243
826.067	18159
826.206	18159
826.346	18224
826.485	18155
826.625	18129
826.765	18346
826.904	18159
827.044	18038
827.183	17908
827.323	17851
827.462	17790
827.601	17901
827.741	17729
827.88	17843
828.02	17817
828.159	17821
828.298	17847
828.437	17939
828.577	17783
828.716	18041
828.855	17828
828.994	17596
829.134	17668
829.273	17722
829.412	17554
829.551	17532
829.69	17623
829.829	17638
829.968	17786
830.107	17608
830.246	17691
830.385	17532
830.524	17539
830.663	17440
830.802	17414
830.941	17322
831.08	17242
831.219	17220
831.357	17334
831.496	17543
831.635	17277
831.774	17128
831.913	17105
832.051	17052
832.19	17048
832.329	17018
832.467	17105
832.606	16873
832.744	16919
832.883	16862
833.022	16896
833.16	16885
833.299	16976
833.437	17056
833.576	17025
833.714	17010
833.852	17098
833.991	17022
834.129	17048
834.267	16976
834.406	16987
834.544	17121
834.682	16980
834.821	16980
834.959	17086
835.097	16965
835.235	17056
835.373	17083
835.511	17033
835.65	16900
835.788	16850
835.926	16812
836.064	16691
836.202	16782
836.34	16965
836.478	16904
836.615	16927
836.753	16919
836.891	16850
837.029	16953
837.167	16831
837.305	16790
837.443	16873
837.58	16744
837.718	16866
837.856	16790
837.993	16733
838.131	16778
838.269	16668
838.406	16778
838.544	16626
838.681	16497
838.819	16466
838.956	16306
839.094	16276
839.231	16291
839.369	16451
839.506	16721
839.643	16592
839.781	16478
839.918	16188
840.055	16287
840.193	16299
840.33	16291
840.467	16299
840.604	16325
840.742	16603
840.879	16257
841.016	16196
841.153	16284
841.29	16440
841.427	16280
841.564	16367
841.701	16265
841.838	16344
841.975	16226
842.112	16147
842.249	16166
842.385	16032
842.522	16375
842.659	16124
842.796	15983
842.933	16071
843.069	16013
843.206	16021
843.343	16059
843.479	15975
843.616	16090
843.752	15892
843.889	15823
844.025	16040
844.162	15857
844.298	16010
844.435	15888
844.571	15827
844.708	15949
844.844	16040
844.98	16048
845.117	16036
845.253	15838
845.389	15819
845.525	15827
845.661	15911
845.798	15797
845.934	15846
846.07	15911
846.206	15998
846.342	15800
846.478	15827
846.614	15561
846.75	15431
846.886	15504
847.022	15488
847.158	15462
847.294	15454
847.429	15519
847.565	15443
847.701	15660
847.837	15161
847.972	15192
848.108	15237
848.244	15218
848.379	15058
848.515	14998
848.65	14960
848.786	15020
848.921	15085
849.057	15146
849.192	15161
849.328	15188
849.463	15157
849.598	15127
849.734	15005
849.869	14971
850.004	14853
850.14	14815
850.275	14762
850.41	14800
850.545	14758
850.68	14743
850.815	14834
850.95	14857
851.085	14956
851.22	15020
851.355	14819
851.49	14811
851.625	14735
851.76	14792
851.895	14727
852.03	14712
852.165	14758
852.299	14811
852.434	14857
852.569	14845
852.703	14823
852.838	14887
852.973	14952
853.107	14941
853.242	14743
853.376	14697
853.511	14629
853.645	14644
853.78	14804
853.914	14724
854.048	14617
854.183	14579
854.317	14655
854.451	14887
854.585	14533
854.72	14530
854.854	14792
854.988	14541
855.122	14670
855.256	14488
855.39	14617
855.524	14788
855.658	14648
855.792	14750
855.926	14746
856.06	14773
856.194	14754
856.327	14746
856.461	14590
856.595	14606
856.729	14636
856.862	14792
856.996	14727
857.13	14777
857.263	14792
857.397	14849
857.53	14773
857.664	14727
857.797	14739
857.931	14796
858.064	14697
858.197	14769
858.331	14613
858.464	14587
858.597	14533
858.731	14644
858.864	14663
858.997	14678
859.13	14674
859.263	14724
859.396	14720
859.529	14575
859.662	14556
859.795	14663
859.928	14621
860.061	14842
860.194	14921
860.327	14583
860.46	14629
860.592	14762
860.725	14842
860.858	14712
860.99	14644
861.123	14568
861.256	14533
861.388	14746
861.521	15424
861.653	14625
861.786	14457
861.918	14587
862.05	14606
862.183	14571
862.315	14682
862.447	14724
862.58	14533
862.712	14518
862.844	14423
862.976	14461
863.108	14545
863.24	14948
863.372	14393
863.504	14526
863.636	14454
863.768	14484
863.9	14488
864.032	14366
864.164	14370
864.296	14511
864.428	14640
864.559	14431
864.691	14499
864.823	14434
864.954	14480
865.086	14469
865.217	14404
865.349	14488
865.48	14526
865.612	14442
865.743	14571
865.875	14412
866.006	14343
866.137	14511
866.269	14434
866.4	14442
866.531	14374
866.662	14351
866.793	14351
866.924	14450
867.055	14290
867.186	14457
867.317	14393
867.448	14290
867.579	14423
867.71	14400
867.841	14362
867.972	14461
868.103	14366
868.233	14347
868.364	14393
868.495	14621
868.625	14708
868.756	14857
868.886	14488
869.017	14651
869.147	14708
869.278	14743
869.408	14727
869.539	14606
869.669	14823
869.799	14754
869.929	14788
870.06	14754
870.19	15043
870.32	14998
870.45	15013
870.58	15009
870.71	15184
870.84	15214
870.97	15146
871.1	15024
871.23	15226
871.36	15233
871.489	15116
871.619	15268
871.749	15287
871.879	15283
872.008	15329
872.138	15291
872.267	15199
872.397	15169
872.526	15161
872.656	14998
872.785	15077
872.915	15249
873.044	15447
873.173	15161
873.303	15249
873.432	15283
873.561	15397
873.69	15268
873.819	15317
873.948	15294
874.077	15420
874.206	15275
874.335	15355
874.464	15523
874.593	15682
874.722	15576
874.851	15713
874.979	15682
875.108	15618
875.237	15557
875.365	15557
875.494	15603
875.623	15656
875.751	15663
875.88	15732
876.008	15804
876.136	15842
876.265	16029
876.393	16207
876.521	16013
876.65	16139
876.778	16105
876.906	15945
877.034	15869
877.162	15994
877.29	16029
877.418	16097
877.546	16044
877.674	15983
877.802	16040
877.93	15983
878.058	16074
878.185	15968
878.313	16093
878.441	16101
878.568	15953
878.696	15998
878.824	16112
878.951	16181
879.079	16234
879.206	16436
879.333	16303
879.461	16143
879.588	16268
879.715	16295
879.842	16394
879.97	16249
880.097	16036
880.224	15972
880.351	15907
880.478	15899
880.605	15831
880.732	15838
880.859	15987
880.986	15846
881.112	15838
881.239	15774
881.366	15762
881.493	15614
881.619	15504
881.746	15576
881.872	15603
881.999	15572
882.125	15523
882.252	15553
882.378	15648
882.505	15732
882.631	15507
882.757	15393
882.883	15435
883.01	15416
883.136	15386
883.262	15291
883.388	15176
883.514	15462
883.64	15382
883.766	15264
883.892	15214
884.018	15188
884.143	15340
884.269	15405
884.395	15127
884.52	15066
884.646	15112
884.772	15051
884.897	14994
885.023	15077
885.148	15222
885.274	15245
885.399	15142
885.524	15169
885.65	15017
885.775	15058
885.9	15093
886.025	15203
886.15	15146
886.275	15024
886.4	14891
886.525	14982
886.65	15032
886.775	14914
886.9	15161
887.025	15252
887.149	15024
887.274	14990
887.399	14838
887.523	14937
887.648	14804
887.773	14838
887.897	15013
888.021	14941
888.146	14876
888.27	14982
888.395	15047
888.519	14975
888.643	14857
888.767	14899
888.891	14815
889.015	14735
889.139	14796
889.263	14663
889.387	14796
889.511	14910
889.635	14906
889.759	14727
889.883	14804
890.006	14830
890.13	14830
890.254	14583
890.377	14705
890.501	14522
890.624	14568
890.748	14541
890.871	14564
890.995	14332
891.118	14362
891.241	14389
891.364	14381
891.488	14518
891.611	14419
891.734	14488
891.857	14564
891.98	14385
892.103	14499
892.226	14522
892.349	14476
892.471	14309
892.594	14320
892.717	14442
892.839	14385
892.962	14492
893.085	14564
893.207	14431
893.33	14366
893.452	14320
893.575	14427
893.697	14358
893.819	14560
893.941	14568
894.064	14507
894.186	14465
894.308	14377
894.43	14484
894.552	14625
894.674	14636
894.796	14355
894.918	14503
895.04	14465
895.161	14587
895.283	14518
895.405	14461
895.526	14499
895.648	14492
895.769	14533
895.891	14617
896.012	14686
896.134	14568
896.255	14617
896.376	14465
896.498	14537
896.619	14507
896.74	14575
896.861	14602
896.982	14963
897.103	15055
897.224	14914
897.345	14845
897.466	14853
897.587	14804
897.708	15001
897.828	14982
897.949	14807
898.07	14568
898.19	14914
898.311	14910
898.431	14861
898.552	14868
898.672	15051
898.792	15043
898.913	14899
899.033	14883
899.153	14826
899.273	14610
899.393	14727
899.513	14750
899.633	14674
899.753	14826
899.873	14785
899.993	14861
900.113	14796
900.232	14883
900.352	14762
900.472	14724
900.591	14644
900.711	14659
900.83	14613
900.95	14796
901.069	14625
901.189	14530
901.308	14427
901.427	14286
901.546	14275
901.665	14305
901.784	14252
901.904	14092
902.023	14035
902.141	13932
902.26	13807
902.379	13894
902.498	13856
902.617	13780
902.735	13940
902.854	13822
902.973	13746
903.091	13597
903.21	13521
903.328	13674
903.446	13552
903.565	13499
903.683	13400
903.801	13354
903.919	13419
904.038	13369
904.156	13308
904.274	13324
904.392	13240
904.51	13164
904.627	13312
904.745	13297
904.863	13308
904.981	13050
905.098	12958
905.216	12951
905.334	12913
905.451	12920
905.569	12913
905.686	12943
905.803	13008
905.921	12821
906.038	12939
906.155	12795
906.272	12665
906.389	12749
906.506	12452
906.623	12563
906.74	12483
906.857	12395
906.974	12452
907.091	12540
907.208	12650
907.324	12502
907.441	12418
907.557	12334
907.674	12281
907.79	12182
907.907	12216
908.023	12308
908.139	12289
908.256	12258
908.372	12175
908.488	12144
908.604	12049
908.72	11958
908.836	11984
908.952	12045
909.068	12038
909.184	12087
909.3	12106
909.415	12114
909.531	12034
909.647	11866
909.762	11817
909.878	11745
909.993	11794
910.108	11691
910.224	11707
910.339	11794
910.454	11649
910.57	11665
910.685	11573
910.8	11859
910.915	11767
911.03	11630
911.145	11543
911.259	11501
911.374	11459
911.489	11440
911.604	11349
911.718	11227
911.833	11296
911.947	11102
912.062	11075
912.176	11235
912.291	11216
912.405	11208
912.519	11429
912.633	11497
912.748	11311
912.862	11216
912.976	11128
913.09	10957
913.204	11052
913.318	11109
913.431	11258
913.545	11155
913.659	11254
913.772	11064
913.886	11010
914	10927
914.113	11041
914.226	11067
914.34	11155
914.453	10980
914.566	11086
914.68	10949
914.793	10976
914.906	10889
915.019	10706
915.132	10622
915.245	10664
915.358	10668
915.47	10714
915.583	10835
915.696	10820
915.809	10904
915.921	10843
916.034	10710
916.146	10668
916.259	10717
916.371	10744
916.483	10694
916.595	10596
916.708	10622
916.82	10626
916.932	10618
917.044	10634
917.156	10675
917.268	10584
917.38	10481
917.491	10462
917.603	10519
917.715	10664
917.826	10687
917.938	10599
918.049	10447
918.161	10599
918.272	10687
918.384	10694
918.495	10580
918.606	10466
918.717	10394
918.828	10390
918.939	10417
919.05	10405
919.161	10295
919.272	10188
919.383	10303
919.494	10493
919.604	10660
919.715	10485
919.826	10394
919.936	10474
920.047	10508
920.157	10379
920.267	10592
920.378	10485
920.488	10462
920.598	10641
920.708	10733
920.818	10664
920.928	10649
921.038	10729
921.148	10698
921.258	10478
921.368	10386
921.477	10306
921.587	10249
921.697	10196
921.806	10284
921.916	10185
922.025	10040
922.134	10032
922.244	9979
922.353	10010
922.462	9816
922.571	9789
922.68	9751
922.789	9736
922.898	9656
923.007	9629
923.116	9762
923.224	9648
923.333	9595
923.442	9679
923.55	9568
923.659	9587
923.767	9549
923.876	9500
923.984	9511
924.092	9447
924.201	9553
924.309	9564
924.417	9603
924.525	9466
924.633	9485
924.741	10188
924.849	9306
924.956	9473
925.064	9321
925.172	9207
925.279	9291
925.387	9306
925.494	9321
925.602	9393
925.709	9374
925.816	9283
925.924	9370
926.031	9370
926.138	9317
926.245	9386
926.352	9142
926.459	9454
926.566	9397
926.673	9291
926.779	9214
926.886	9154
926.993	9013
927.099	8971
927.206	8910
927.312	8971
927.419	8998
927.525	9100
927.631	9047
927.737	8960
927.843	8880
927.95	8804
928.056	8902
928.162	8967
928.267	9001
928.373	9603
928.479	9043
928.585	8708
928.69	8933
928.796	8956
928.901	8823
929.007	8651
929.112	8864
929.218	8785
929.323	8693
929.428	8800
929.533	8864
929.638	8682
929.743	8716
929.848	8716
929.953	8731
930.058	8587
930.163	8408
930.267	8488
930.372	8640
930.477	8454
930.581	8705
930.685	8636
930.79	8473
930.894	8488
930.998	8412
931.103	8625
931.207	8202
931.311	8237
931.415	8084
931.519	7959
931.623	7936
