Data from test_V78500241_91.txt Node
Date: Fri Mar 25 14:34:21 CST 2022
User: usil
Spectrometer: V785-0024
Trigger mode: 0
Integration Time (sec): 4.000000E-1
Scans to average: 1
Nonlinearity correction enabled: false
Boxcar width: 0
Storing dark spectrum: false
XAxis mode: Wavelengths
Number of Pixels in Spectrum: 1024
>>>>>Begin Spectral Data<<<<<
801.071	28801
801.214	28740
801.356	28481
801.499	28409
801.641	28215
801.783	28303
801.926	28284
802.068	28192
802.211	28109
802.353	28086
802.496	27926
802.638	27979
802.78	27903
802.923	27808
803.065	27705
803.208	27694
803.35	27770
803.492	27987
803.635	28036
803.777	27953
803.919	27964
804.061	28249
804.204	27850
804.346	27903
804.488	27759
804.63	27808
804.773	27785
804.915	27838
805.057	27797
805.199	27880
805.341	27972
805.483	28013
805.626	27953
805.768	27972
805.91	27979
806.052	28067
806.194	27846
806.336	28234
806.478	28021
806.62	28067
806.762	28166
806.904	28306
807.046	28535
807.188	28276
807.33	28348
807.472	28504
807.614	28382
807.756	28455
807.898	28333
808.04	28287
808.182	28401
808.324	28451
808.465	28550
808.607	28656
808.749	28691
808.891	28976
809.033	29033
809.174	28771
809.316	28782
809.458	28767
809.6	28679
809.741	28706
809.883	28828
810.025	28805
810.166	28782
810.308	28793
810.45	28573
810.591	28733
810.733	28470
810.875	28493
811.016	28360
811.158	28398
811.299	28390
811.441	28584
811.582	28504
811.724	28417
811.865	28531
812.007	28382
812.148	28390
812.29	28504
812.431	28462
812.573	28786
812.714	28835
812.855	28831
812.997	28930
813.138	29140
813.279	28968
813.421	28824
813.562	28892
813.703	28706
813.845	28516
813.986	28303
814.127	28101
814.268	27911
814.41	28010
814.551	27934
814.692	28059
814.833	27808
814.974	27979
815.115	27911
815.256	27899
815.397	27743
815.539	27545
815.68	27800
815.821	27686
815.962	27667
816.103	27644
816.244	27477
816.385	27420
816.526	27291
816.666	27184
816.807	27043
816.948	27165
817.089	27218
817.23	27119
817.371	27146
817.512	27070
817.653	27017
817.793	26902
817.934	27093
818.075	27157
818.216	27058
818.356	27013
818.497	26971
818.638	26754
818.778	26910
818.919	26754
819.06	26758
819.2	26891
819.341	27058
819.481	26990
819.622	27085
819.762	27359
819.903	27226
820.043	27287
820.184	27192
820.324	27062
820.465	27062
820.605	26933
820.746	26975
820.886	26910
821.026	26849
821.167	26937
821.307	27100
821.447	26979
821.588	26678
821.728	26682
821.868	26518
822.008	26259
822.149	26301
822.289	26381
822.429	26111
822.569	25959
822.709	26077
822.849	25864
822.99	25898
823.13	25753
823.27	25715
823.41	25601
823.55	25521
823.69	25483
823.83	25651
823.97	25628
824.11	25400
824.25	25453
824.389	25339
824.529	25460
824.669	25324
824.809	25491
824.949	25377
825.089	25529
825.228	25354
825.368	25206
825.508	25343
825.648	25285
825.787	25213
825.927	25240
826.067	25202
826.206	25091
826.346	25156
826.485	25118
826.625	25259
826.765	25266
826.904	25247
827.044	24916
827.183	24977
827.323	24970
827.462	24943
827.601	24863
827.741	24795
827.88	24833
828.02	24783
828.159	24719
828.298	24795
828.437	24958
828.577	24555
828.716	24875
828.855	24688
828.994	24536
829.134	24585
829.273	24407
829.412	24525
829.551	24502
829.69	24517
829.829	24475
829.968	24513
830.107	24460
830.246	24490
830.385	24403
830.524	24311
830.663	24270
830.802	24194
830.941	24079
831.08	24079
831.219	24106
831.357	24022
831.496	24296
831.635	24022
831.774	23984
831.913	23866
832.051	23748
832.19	23634
832.329	23847
832.467	23661
832.606	23714
832.744	23676
832.883	23478
833.022	23699
833.16	23581
833.299	23718
833.437	23737
833.576	23672
833.714	23604
833.852	23794
833.991	23703
834.129	23608
834.267	23939
834.406	23657
834.544	23722
834.682	23570
834.821	23687
834.959	23817
835.097	23630
835.235	23710
835.373	23707
835.511	23577
835.65	23509
835.788	23562
835.926	23516
836.064	23337
836.202	23242
836.34	23577
836.478	23642
836.615	23452
836.753	23376
836.891	23619
837.029	23452
837.167	23417
837.305	23414
837.443	23383
837.58	23216
837.718	23402
837.856	23337
837.993	23330
838.131	23337
838.269	23212
838.406	23151
838.544	23124
838.681	22991
838.819	23052
838.956	22637
839.094	22752
839.231	22778
839.369	22961
839.506	23067
839.643	22858
839.781	22649
839.918	22809
840.055	22660
840.193	22668
840.33	22622
840.467	22596
840.604	22664
840.742	22946
840.879	22489
841.016	22603
841.153	22424
841.29	22721
841.427	22660
841.564	22569
841.701	22565
841.838	22504
841.975	22516
842.112	22341
842.249	22402
842.385	22352
842.522	22489
842.659	22360
842.796	22379
842.933	22421
843.069	22166
843.206	22169
843.343	22375
843.479	22318
843.616	22310
843.752	22139
843.889	22070
844.025	22200
844.162	22036
844.298	22090
844.435	22040
844.571	22021
844.708	22169
844.844	22135
844.98	22006
845.117	22143
845.253	22059
845.389	22017
845.525	22025
845.661	22082
845.798	22147
845.934	22188
846.07	22238
846.206	22207
846.342	22188
846.478	22036
846.614	21827
846.75	21679
846.886	21500
847.022	21652
847.158	21561
847.294	21538
847.429	21507
847.565	21389
847.701	21724
847.837	21260
847.972	21184
848.108	21222
848.244	21405
848.379	21051
848.515	21043
848.65	20956
848.786	21024
848.921	21070
849.057	21138
849.192	21104
849.328	21161
849.463	21020
849.598	21108
849.734	20872
849.869	20899
850.004	20762
850.14	20834
850.275	20716
850.41	20621
850.545	20651
850.68	20697
850.815	20739
850.95	20731
851.085	20933
851.22	20781
851.355	20754
851.49	20792
851.625	20724
851.76	20727
851.895	20705
852.03	20621
852.165	20678
852.299	20773
852.434	20716
852.569	20735
852.703	20769
852.838	20792
852.973	20788
853.107	20937
853.242	20564
853.376	20427
853.511	20495
853.645	20552
853.78	20705
853.914	20434
854.048	20575
854.183	20579
854.317	20465
854.451	20636
854.585	20648
854.72	20507
854.854	20629
854.988	20465
855.122	20564
855.256	20427
855.39	20522
855.524	20583
855.658	20518
855.792	20533
855.926	20427
856.06	20473
856.194	20514
856.327	20393
856.461	20446
856.595	20385
856.729	20423
856.862	20594
856.996	20568
857.13	20579
857.263	20545
857.397	20602
857.53	20503
857.664	20461
857.797	20446
857.931	20609
858.064	20530
858.197	20541
858.331	20431
858.464	20434
858.597	20347
858.731	20457
858.864	20473
858.997	20454
859.13	20400
859.263	20545
859.396	20473
859.529	20351
859.662	20355
859.795	20423
859.928	20488
860.061	20606
860.194	20511
860.327	20495
860.46	20473
860.592	20556
860.725	20446
860.858	20537
860.99	20317
861.123	20339
861.256	20237
861.388	20495
861.521	21214
861.653	20396
861.786	20180
861.918	20347
862.05	20324
862.183	20499
862.315	20427
862.447	20499
862.58	20431
862.712	20301
862.844	20069
862.976	20282
863.108	20313
863.24	20590
863.372	20065
863.504	20084
863.636	20153
863.768	20244
863.9	20195
864.032	20027
864.164	20012
864.296	20145
864.428	20134
864.559	20206
864.691	20206
864.823	20183
864.954	20119
865.086	20191
865.217	20081
865.349	19921
865.48	19947
865.612	19967
865.743	20248
865.875	20027
866.006	20024
866.137	19986
866.269	20058
866.4	20100
866.531	19970
866.662	20012
866.793	19940
866.924	19963
867.055	20100
867.186	20100
867.317	19951
867.448	19875
867.579	20001
867.71	19845
867.841	19860
867.972	20020
868.103	19864
868.233	19970
868.364	19959
868.495	20069
868.625	20168
868.756	20278
868.886	20073
869.017	20092
869.147	20244
869.278	20210
869.408	20180
869.539	20214
869.669	20221
869.799	20168
869.929	20275
870.06	20263
870.19	20507
870.32	20412
870.45	20446
870.58	20629
870.71	20602
870.84	20693
870.97	20507
871.1	20526
871.23	20705
871.36	20857
871.489	20594
871.619	20705
871.749	20629
871.879	20849
872.008	20918
872.138	20872
872.267	20807
872.397	20617
872.526	20571
872.656	20598
872.785	20602
872.915	20716
873.044	20769
873.173	20800
873.303	20830
873.432	20891
873.561	20834
873.69	20857
873.819	20914
873.948	20872
874.077	20834
874.206	20720
874.335	20819
874.464	20960
874.593	20937
874.722	21043
874.851	20967
874.979	21077
875.108	21150
875.237	21039
875.365	20925
875.494	21043
875.623	21180
875.751	20925
875.88	21131
876.008	21222
876.136	21298
876.265	21538
876.393	21515
876.521	21515
876.65	21530
876.778	21450
876.906	21340
877.034	21485
877.162	21458
877.29	21386
877.418	21378
877.546	21412
877.674	21481
877.802	21359
877.93	21397
878.058	21424
878.185	21329
878.313	21310
878.441	21424
878.568	21268
878.696	21386
878.824	21515
878.951	21496
879.079	21641
879.206	21846
879.333	21686
879.461	21633
879.588	21732
879.715	21819
879.842	21892
879.97	21595
880.097	21351
880.224	21367
880.351	21469
880.478	21325
880.605	21313
880.732	21264
880.859	21443
880.986	21306
881.112	21336
881.239	21184
881.366	21058
881.493	21047
881.619	20975
881.746	21001
881.872	20948
881.999	20868
882.125	20842
882.252	20986
882.378	20830
882.505	20941
882.631	20739
882.757	20632
882.883	20617
883.01	20621
883.136	20606
883.262	20488
883.388	20518
883.514	20659
883.64	20640
883.766	20663
883.892	20446
884.018	20301
884.143	20667
884.269	20678
884.395	20507
884.52	20336
884.646	20278
884.772	20252
884.897	20225
885.023	20286
885.148	20423
885.274	20343
885.399	20271
885.524	20244
885.65	20252
885.775	20263
885.9	20275
886.025	20377
886.15	20374
886.275	20206
886.4	20130
886.525	20115
886.65	20096
886.775	20062
886.9	20271
887.025	20450
887.149	20210
887.274	20172
887.399	19932
887.523	20035
887.648	19951
887.773	19856
887.897	20214
888.021	19986
888.146	19909
888.27	19974
888.395	20073
888.519	20046
888.643	20077
888.767	19974
888.891	19875
889.015	19769
889.139	19898
889.263	19700
889.387	19860
889.511	19898
889.635	19864
889.759	19674
889.883	19738
890.006	19746
890.13	19750
890.254	19674
890.377	19556
890.501	19464
890.624	19438
890.748	19567
890.871	19392
890.995	19346
891.118	19274
891.241	19297
891.364	19297
891.488	19468
891.611	19388
891.734	19411
891.857	19358
891.98	19350
892.103	19472
892.226	19407
892.349	19320
892.471	19091
892.594	19331
892.717	19365
892.839	19194
892.962	19304
893.085	19266
893.207	19232
893.33	19122
893.452	19152
893.575	19327
893.697	19285
893.819	19407
893.941	19384
894.064	19407
894.186	19152
894.308	19217
894.43	19324
894.552	19495
894.674	19343
894.796	19206
894.918	19324
895.04	19240
895.161	19175
895.283	19278
895.405	19217
895.526	19209
895.648	19179
895.769	19247
895.891	19293
896.012	19365
896.134	19259
896.255	19346
896.376	19282
896.498	19381
896.619	19381
896.74	19350
896.861	19415
896.982	19578
897.103	19742
897.224	19552
897.345	19635
897.466	19377
897.587	19400
897.708	19601
897.828	19521
897.949	19601
898.07	19365
898.19	19426
898.311	19662
898.431	19525
898.552	19586
898.672	19533
898.792	19601
898.913	19597
899.033	19403
899.153	19312
899.273	19236
899.393	19244
899.513	19251
899.633	19240
899.753	19198
899.873	19225
899.993	19228
900.113	19171
900.232	19240
900.352	19232
900.472	19133
900.591	19053
900.711	19118
900.83	19042
900.95	19126
901.069	19145
901.189	19004
901.308	18802
901.427	18738
901.546	18669
901.665	18593
901.784	18661
901.904	18582
902.023	18384
902.141	18315
902.26	18148
902.379	18357
902.498	18144
902.617	18102
902.735	18209
902.854	18072
902.973	18095
903.091	17859
903.21	17851
903.328	17748
903.446	17581
903.565	17638
903.683	17653
903.801	17516
903.919	17459
904.038	17604
904.156	17452
904.274	17463
904.392	17493
904.51	17376
904.627	17425
904.745	17486
904.863	17516
904.981	17235
905.098	17143
905.216	17060
905.334	17010
905.451	17121
905.569	16972
905.686	17048
905.803	17022
905.921	16866
906.038	16938
906.155	16805
906.272	16687
906.389	16771
906.506	16542
906.623	16645
906.74	16493
906.857	16489
906.974	16447
907.091	16675
907.208	16675
907.324	16653
907.441	16523
907.557	16341
907.674	16291
907.79	16135
907.907	16230
908.023	16181
908.139	16223
908.256	16185
908.372	16006
908.488	16086
908.604	15968
908.72	15876
908.836	15956
908.952	15960
909.068	15846
909.184	16040
909.3	15869
909.415	15998
909.531	15941
909.647	15656
909.762	15667
909.878	15580
909.993	15564
910.108	15595
910.224	15641
910.339	15576
910.454	15500
910.57	15584
910.685	15355
910.8	15679
910.915	15599
911.03	15408
911.145	15119
911.259	15112
911.374	15161
911.489	15203
911.604	15047
911.718	14937
911.833	14849
911.947	14876
912.062	14811
912.176	14906
912.291	14998
912.405	14941
912.519	15157
912.633	15100
912.748	15074
912.862	15013
912.976	14735
913.09	14610
913.204	14716
913.318	14834
913.431	14857
913.545	14872
913.659	14845
913.772	14701
913.886	14571
914	14670
914.113	14777
914.226	14823
914.34	14629
914.453	14552
914.566	14716
914.68	14537
914.793	14473
914.906	14313
915.019	14290
915.132	14202
915.245	14161
915.358	14298
915.47	14320
915.583	14142
915.696	14259
915.809	14377
915.921	14328
916.034	14161
916.146	14073
916.259	14134
916.371	14111
916.483	14195
916.595	14008
916.708	14088
916.82	14092
916.932	14043
917.044	14130
917.156	13989
917.268	13860
917.38	13986
917.491	13917
917.603	13890
917.715	13993
917.826	13978
917.938	13788
918.049	13719
918.161	13864
918.272	13978
918.384	13970
918.495	13921
918.606	13700
918.717	13689
918.828	13639
918.939	13670
919.05	13700
919.161	13674
919.272	13373
919.383	13518
919.494	13586
919.604	13845
919.715	13715
919.826	13537
919.936	13544
920.047	13727
920.157	13529
920.267	13807
920.378	13518
920.488	13578
920.598	13811
920.708	13940
920.818	13750
920.928	13700
921.038	13898
921.148	13822
921.258	13537
921.368	13411
921.477	13354
921.587	13331
921.697	13175
921.806	13343
921.916	13244
922.025	13080
922.134	13034
922.244	12935
922.353	13091
922.462	12920
922.571	12856
922.68	12707
922.789	12715
922.898	12726
923.007	12620
923.116	12776
923.224	12627
923.333	12566
923.442	12582
923.55	12494
923.659	12479
923.767	12566
923.876	12441
923.984	12502
924.092	12380
924.201	12498
924.309	12429
924.417	12426
924.525	12350
924.633	12361
924.741	13285
924.849	12167
924.956	12319
925.064	12228
925.172	12079
925.279	12144
925.387	12163
925.494	12129
925.602	12205
925.709	12178
925.816	12019
925.924	12064
926.031	12125
926.138	12068
926.245	12079
926.352	11920
926.459	12125
926.566	12167
926.673	11984
926.779	11855
926.886	11916
926.993	11786
927.099	11729
927.206	11623
927.312	11627
927.419	11748
927.525	11699
927.631	11729
927.737	11611
927.843	11512
927.95	11463
928.056	11554
928.162	11558
928.267	11596
928.373	12114
928.479	11554
928.585	11330
928.69	11512
928.796	11577
928.901	11440
929.007	11296
929.112	11372
929.218	11421
929.323	11269
929.428	11223
929.533	11433
929.638	11189
929.743	11277
929.848	11265
929.953	11235
930.058	11170
930.163	11018
930.267	10919
930.372	11094
930.477	10919
930.581	11159
930.685	10999
930.79	10923
930.894	10915
930.998	10744
931.103	10961
931.207	10550
931.311	10565
931.415	10436
931.519	10234
931.623	10276
