Data from test_V78500241_861.txt Node
Date: Fri Mar 25 14:39:42 CST 2022
User: usil
Spectrometer: V785-0024
Trigger mode: 0
Integration Time (sec): 4.000000E-1
Scans to average: 1
Nonlinearity correction enabled: false
Boxcar width: 0
Storing dark spectrum: false
XAxis mode: Wavelengths
Number of Pixels in Spectrum: 1024
>>>>>Begin Spectral Data<<<<<
801.071	25613
801.214	25681
801.356	25422
801.499	25221
801.641	25107
801.783	25171
801.926	25050
802.068	24939
802.211	25004
802.353	24825
802.496	24745
802.638	24486
802.78	24418
802.923	24502
803.065	24365
803.208	24532
803.35	24513
803.492	24494
803.635	24604
803.777	24429
803.919	24566
804.061	24837
804.204	24654
804.346	24490
804.488	24505
804.63	24471
804.773	24490
804.915	24589
805.057	24730
805.199	24608
805.341	24783
805.483	24863
805.626	24772
805.768	24688
805.91	24730
806.052	24939
806.194	24848
806.336	25183
806.478	25141
806.62	25175
806.762	25225
806.904	25559
807.046	25993
807.188	26001
807.33	26389
807.472	26499
807.614	26800
807.756	27313
807.898	27538
808.04	28196
808.182	29132
808.324	30349
808.465	31632
808.607	33131
808.749	34489
808.891	35227
809.033	35200
809.174	34440
809.316	33199
809.458	31586
809.6	30163
809.741	29033
809.883	28192
810.025	27667
810.166	27154
810.308	26716
810.45	26415
810.591	26119
810.733	25879
810.875	25742
811.016	25362
811.158	25304
811.299	25483
811.441	25270
811.582	25285
811.724	25080
811.865	24985
812.007	25023
812.148	24943
812.29	25061
812.431	25236
812.573	25209
812.714	25308
812.855	25365
812.997	25445
813.138	25578
813.279	25434
813.421	25350
813.562	25236
813.703	25084
813.845	24951
813.986	24593
814.127	24467
814.268	24342
814.41	24372
814.551	24296
814.692	24350
814.833	24174
814.974	24163
815.115	24239
815.256	24117
815.397	24060
815.539	24045
815.68	23817
815.821	23870
815.962	23950
816.103	23752
816.244	23752
816.385	23661
816.526	23539
816.666	23501
816.807	23368
816.948	23292
817.089	23360
817.23	23181
817.371	23254
817.512	23318
817.653	23235
817.793	23193
817.934	23292
818.075	23197
818.216	23258
818.356	23136
818.497	22957
818.638	22820
818.778	22866
818.919	22866
819.06	22908
819.2	22995
819.341	23124
819.481	23037
819.622	23250
819.762	23334
819.903	23292
820.043	23250
820.184	23254
820.324	23174
820.465	23292
820.605	23067
820.746	23071
820.886	23044
821.026	23200
821.167	23090
821.307	23071
821.447	23109
821.588	22900
821.728	22759
821.868	22565
822.008	22417
822.149	22436
822.289	22436
822.429	22177
822.569	22055
822.709	22207
822.849	22002
822.99	22013
823.13	21838
823.27	21793
823.41	21709
823.55	21564
823.69	21717
823.83	21671
823.97	21644
824.11	21561
824.25	21428
824.389	21473
824.529	21606
824.669	21416
824.809	21530
824.949	21717
825.089	21481
825.228	21473
825.368	21310
825.508	21279
825.648	21230
825.787	21256
825.927	21420
826.067	21279
826.206	21226
826.346	21256
826.485	21165
826.625	21260
826.765	21321
826.904	21272
827.044	20960
827.183	20956
827.323	20944
827.462	20960
827.601	21062
827.741	20906
827.88	20941
828.02	20849
828.159	20876
828.298	20899
828.437	20975
828.577	20773
828.716	21150
828.855	20823
828.994	20571
829.134	20769
829.273	20651
829.412	20655
829.551	20606
829.69	20674
829.829	20625
829.968	20636
830.107	20579
830.246	20594
830.385	20492
830.524	20549
830.663	20423
830.802	20332
830.941	20301
831.08	20145
831.219	20328
831.357	20282
831.496	20480
831.635	20267
831.774	20157
831.913	20134
832.051	20126
832.19	19978
832.329	20069
832.467	19974
832.606	19909
832.744	20001
832.883	19978
833.022	19970
833.16	20145
833.299	20149
833.437	20081
833.576	20240
833.714	20317
833.852	20374
833.991	20488
834.129	20530
834.267	20396
834.406	20431
834.544	20473
834.682	20282
834.821	20233
834.959	20412
835.097	20031
835.235	20183
835.373	20180
835.511	20012
835.65	19822
835.788	19826
835.926	19685
836.064	19655
836.202	19586
836.34	19807
836.478	19871
836.615	19780
836.753	19750
836.891	19746
837.029	19772
837.167	19647
837.305	19597
837.443	19632
837.58	19620
837.718	19559
837.856	19468
837.993	19597
838.131	19487
838.269	19384
838.406	19419
838.544	19400
838.681	19225
838.819	19175
838.956	18977
839.094	18985
839.231	19050
839.369	19187
839.506	19453
839.643	19217
839.781	19019
839.918	18890
840.055	19057
840.193	18966
840.33	18890
840.467	18989
840.604	19053
840.742	19312
840.879	18947
841.016	18981
841.153	18810
841.29	19053
841.427	19061
841.564	18989
841.701	18924
841.838	18989
841.975	18852
842.112	18932
842.249	18802
842.385	18700
842.522	18947
842.659	18798
842.796	18795
842.933	18684
843.069	18753
843.206	18787
843.343	18810
843.479	18722
843.616	18947
843.752	18604
843.889	18673
844.025	18764
844.162	18684
844.298	18760
844.435	18757
844.571	18882
844.708	19042
844.844	19304
844.98	19426
845.117	19712
845.253	19982
845.389	20640
845.525	22181
845.661	24486
845.798	27420
845.934	29927
846.07	30935
846.206	30467
846.342	28603
846.478	25594
846.614	22774
846.75	20982
846.886	20081
847.022	19445
847.158	18962
847.294	18700
847.429	18544
847.565	18395
847.701	18544
847.837	18114
847.972	17889
848.108	18011
848.244	17931
848.379	17809
848.515	17707
848.65	17691
848.786	17627
848.921	17695
849.057	17843
849.192	17699
849.328	17722
849.463	17710
849.598	17512
849.734	17509
849.869	17528
850.004	17395
850.14	17368
850.275	17326
850.41	17356
850.545	17315
850.68	17334
850.815	17376
850.95	17299
851.085	17471
851.22	17562
851.355	17425
851.49	17425
851.625	17410
851.76	17250
851.895	17296
852.03	17292
852.165	17326
852.299	17501
852.434	17478
852.569	17391
852.703	17417
852.838	17452
852.973	17623
853.107	17520
853.242	17349
853.376	17315
853.511	17284
853.645	17254
853.78	17436
853.914	17356
854.048	17326
854.183	17455
854.317	17292
854.451	17608
854.585	17421
854.72	17379
854.854	17436
854.988	17250
855.122	17349
855.256	17132
855.39	17296
855.524	17353
855.658	17265
855.792	17261
855.926	17273
856.06	17269
856.194	17349
856.327	17246
856.461	17159
856.595	17220
856.729	17174
856.862	17376
856.996	17277
857.13	17246
857.263	17368
857.397	17311
857.53	17102
857.664	17258
857.797	17223
857.931	17280
858.064	17269
858.197	17277
858.331	17204
858.464	17105
858.597	17079
858.731	17018
858.864	17029
858.997	17083
859.13	17124
859.263	17185
859.396	17239
859.529	17117
859.662	17060
859.795	17006
859.928	17121
860.061	17326
860.194	17242
860.327	17094
860.46	17029
860.592	17189
860.725	17185
860.858	17239
860.99	17117
861.123	17052
861.256	17014
861.388	17174
861.521	17752
861.653	17029
861.786	16919
861.918	16930
862.05	17128
862.183	17132
862.315	16965
862.447	17162
862.58	16953
862.712	16889
862.844	16771
862.976	16919
863.108	16850
863.24	17223
863.372	16691
863.504	16847
863.636	16755
863.768	16881
863.9	16767
864.032	16740
864.164	16729
864.296	16805
864.428	16889
864.559	16881
864.691	16873
864.823	16892
864.954	16774
865.086	16858
865.217	16828
865.349	16664
865.48	16828
865.612	16835
865.743	16896
865.875	16793
866.006	16759
866.137	16736
866.269	16759
866.4	16755
866.531	16755
866.662	16672
866.793	16736
866.924	16645
867.055	16866
867.186	16782
867.317	16710
867.448	16542
867.579	16710
867.71	16558
867.841	16577
867.972	16790
868.103	16706
868.233	16771
868.364	16740
868.495	16824
868.625	16980
868.756	17029
868.886	16881
869.017	17014
869.147	17018
869.278	17113
869.408	16987
869.539	17067
869.669	17098
869.799	16995
869.929	17060
870.06	17113
870.19	17216
870.32	17337
870.45	17353
870.58	17436
870.71	17554
870.84	17410
870.97	17471
871.1	17421
871.23	17722
871.36	17520
871.489	17501
871.619	17589
871.749	17627
871.879	17668
872.008	17748
872.138	17592
872.267	17608
872.397	17448
872.526	17497
872.656	17547
872.785	17570
872.915	17851
873.044	17885
873.173	17821
873.303	17809
873.432	17794
873.561	17863
873.69	17783
873.819	17779
873.948	17828
874.077	17798
874.206	17824
874.335	17832
874.464	17980
874.593	18011
874.722	18079
874.851	18159
874.979	18311
875.108	18213
875.237	18098
875.365	18076
875.494	18098
875.623	18216
875.751	18289
875.88	18186
876.008	18388
876.136	18471
876.265	18700
876.393	18844
876.521	18856
876.65	18837
876.778	18886
876.906	18700
877.034	18791
877.162	18844
877.29	18852
877.418	18981
877.546	18977
877.674	19099
877.802	19084
877.93	19301
878.058	19228
878.185	19202
878.313	19525
878.441	19533
878.568	19556
878.696	19822
878.824	20385
878.951	20899
879.079	21549
879.206	22500
879.333	23406
879.461	24304
879.588	24753
879.715	24810
879.842	24399
879.97	23452
880.097	22356
880.224	21595
880.351	20979
880.478	20773
880.605	20362
880.732	20282
880.859	20385
880.986	20149
881.112	20020
881.239	19887
881.366	19814
881.493	19765
881.619	19559
881.746	19567
881.872	19613
881.999	19628
882.125	19750
882.252	19750
882.378	19776
882.505	19852
882.631	19628
882.757	19605
882.883	19582
883.01	19518
883.136	19419
883.262	19350
883.388	19365
883.514	19499
883.64	19582
883.766	19430
883.892	19289
884.018	19350
884.143	19620
884.269	19605
884.395	19285
884.52	19247
884.646	19175
884.772	19225
884.897	19107
885.023	19324
885.148	19304
885.274	19373
885.399	19236
885.524	19160
885.65	19114
885.775	19118
885.9	18856
886.025	18939
886.15	18825
886.275	18665
886.4	18654
886.525	18627
886.65	18566
886.775	18506
886.9	18620
887.025	18757
887.149	18448
887.274	18197
887.399	18178
887.523	18163
887.648	17965
887.773	17882
887.897	18034
888.021	17984
888.146	17977
888.27	18117
888.395	18079
888.519	17958
888.643	17984
888.767	17863
888.891	17771
889.015	17554
889.139	17722
889.263	17596
889.387	17703
889.511	17798
889.635	17649
889.759	17634
889.883	17448
890.006	17585
890.13	17589
890.254	17490
890.377	17288
890.501	17269
890.624	17277
890.748	17303
890.871	17162
890.995	17041
891.118	16984
891.241	17075
891.364	17090
891.488	17124
891.611	17109
891.734	16987
891.857	17060
891.98	17014
892.103	16972
892.226	17060
892.349	16942
892.471	16763
892.594	16881
892.717	16892
892.839	16877
892.962	16934
893.085	16987
893.207	16809
893.33	16702
893.452	16797
893.575	16854
893.697	16744
893.819	16908
893.941	16957
894.064	16957
894.186	16767
894.308	16698
894.43	16809
894.552	16949
894.674	16915
894.796	16683
894.918	16698
895.04	16786
895.161	16820
895.283	16706
895.405	16675
895.526	16713
895.648	16694
895.769	16736
895.891	16752
896.012	16820
896.134	16752
896.255	16790
896.376	16656
896.498	16835
896.619	16736
896.74	16679
896.861	16706
896.982	17067
897.103	17220
897.224	17029
897.345	16987
897.466	16930
897.587	16976
897.708	17048
897.828	17006
897.949	16790
898.07	16790
898.19	17048
898.311	17090
898.431	16942
898.552	16976
898.672	17071
898.792	17098
898.913	17018
899.033	16911
899.153	16877
899.273	16752
899.393	16820
899.513	16835
899.633	16816
899.753	16869
899.873	16771
899.993	16915
900.113	16790
900.232	16862
900.352	16755
900.472	16649
900.591	16653
900.711	16710
900.83	16611
900.95	16759
901.069	16820
901.189	16637
901.308	16466
901.427	16337
901.546	16306
901.665	16280
901.784	16375
901.904	16112
902.023	16017
902.141	15774
902.26	15717
902.379	15846
902.498	15766
902.617	15747
902.735	15884
902.854	15743
902.973	15637
903.091	15412
903.21	15405
903.328	15420
903.446	15367
903.565	15203
903.683	15287
903.801	15203
903.919	15199
904.038	15222
904.156	14944
904.274	15074
904.392	15051
904.51	15051
904.627	15058
904.745	14982
904.863	15051
904.981	14853
905.098	14720
905.216	14701
905.334	14648
905.451	14769
905.569	14708
905.686	14720
905.803	14640
905.921	14526
906.038	14606
906.155	14598
906.272	14400
906.389	14374
906.506	14115
906.623	14240
906.74	14240
906.857	14043
906.974	14043
907.091	14320
907.208	14256
907.324	14218
907.441	14145
907.557	14107
907.674	14058
907.79	13772
907.907	13932
908.023	13913
908.139	13890
908.256	13925
908.372	13921
908.488	13772
908.604	13765
908.72	13620
908.836	13651
908.952	13594
909.068	13674
909.184	13845
909.3	13609
909.415	13624
909.531	13636
909.647	13369
909.762	13381
909.878	13400
909.993	13457
910.108	13396
910.224	13228
910.339	13301
910.454	13350
910.57	13187
910.685	13118
910.8	13369
910.915	13426
911.03	13282
911.145	13057
911.259	13061
911.374	13027
911.489	12989
911.604	12962
911.718	12863
911.833	12749
911.947	12669
912.062	12608
912.176	12772
912.291	12730
912.405	12776
912.519	12993
912.633	13015
912.748	12833
912.862	12878
912.976	12677
913.09	12513
913.204	12547
913.318	12623
913.431	12715
913.545	12814
913.659	12795
913.772	12608
913.886	12467
914	12414
914.113	12563
914.226	12677
914.34	12650
914.453	12448
914.566	12513
914.68	12437
914.793	12353
914.906	12308
915.019	12117
915.132	12129
915.245	12243
915.358	12247
915.47	12247
915.583	12186
915.696	12330
915.809	12319
915.921	12475
916.034	12163
916.146	12117
916.259	12140
916.371	12175
916.483	12258
916.595	12106
916.708	12079
916.82	12175
916.932	12087
917.044	11999
917.156	12106
917.268	11950
917.38	12007
917.491	11988
917.603	12068
917.715	12019
917.826	12125
917.938	11923
918.049	11847
918.161	11958
918.272	12117
918.384	12110
918.495	11923
918.606	11783
918.717	11722
918.828	11805
918.939	11847
919.05	11756
919.161	11764
919.272	11600
919.383	11623
919.494	11912
919.604	11950
919.715	11733
919.826	11707
919.936	11729
920.047	11779
920.157	11794
920.267	11969
920.378	11821
920.488	11756
920.598	12007
920.708	12114
920.818	11893
920.928	11965
921.038	12045
921.148	12003
921.258	11718
921.368	11688
921.477	11646
921.587	11611
921.697	11337
921.806	11551
921.916	11440
922.025	11341
922.134	11212
922.244	11212
922.353	11296
922.462	11197
922.571	11166
922.68	10873
922.789	10904
922.898	10908
923.007	10797
923.116	10908
923.224	10892
923.333	10923
923.442	10778
923.55	10778
923.659	10748
923.767	10866
923.876	10752
923.984	10809
924.092	10714
924.201	10755
924.309	10767
924.417	10774
924.525	10641
924.633	10660
924.741	11657
924.849	10466
924.956	10698
925.064	10527
925.172	10409
925.279	10466
925.387	10573
925.494	10516
925.602	10558
925.709	10485
925.816	10421
925.924	10394
926.031	10535
926.138	10455
926.245	10603
926.352	10531
926.459	10592
926.566	10618
926.673	10497
926.779	10287
926.886	10352
926.993	10211
927.099	10116
927.206	10097
927.312	10029
927.419	10154
927.525	10207
927.631	10223
927.737	10082
927.843	9987
927.95	9949
928.056	10063
928.162	10006
928.267	10150
928.373	10679
928.479	10105
928.585	9899
928.69	9956
928.796	10002
928.901	9903
929.007	9793
929.112	9945
929.218	9861
929.323	9842
929.428	9797
929.533	9956
929.638	9701
929.743	9793
929.848	9846
929.953	9827
930.058	9686
930.163	9488
930.267	9523
930.372	9701
930.477	9553
930.581	9717
930.685	9603
930.79	9500
930.894	9504
930.998	9523
931.103	9622
931.207	9272
931.311	9230
931.415	9165
931.519	8944
931.623	8925
