Data from test_V78500241_3120.txt Node
Date: Fri Mar 25 14:55:26 CST 2022
User: usil
Spectrometer: V785-0024
Trigger mode: 0
Integration Time (sec): 4.000000E-1
Scans to average: 1
Nonlinearity correction enabled: false
Boxcar width: 0
Storing dark spectrum: false
XAxis mode: Wavelengths
Number of Pixels in Spectrum: 1024
>>>>>Begin Spectral Data<<<<<
801.071	22040
801.214	21930
801.356	21732
801.499	21637
801.641	21507
801.783	21389
801.926	21443
802.068	21447
802.211	21180
802.353	21374
802.496	20963
802.638	20998
802.78	20838
802.923	20796
803.065	20796
803.208	20678
803.35	20819
803.492	20941
803.635	20807
803.777	20773
803.919	20906
804.061	21123
804.204	20777
804.346	20689
804.488	20514
804.63	20826
804.773	20743
804.915	20758
805.057	20880
805.199	20514
805.341	20762
805.483	20785
805.626	20625
805.768	20617
805.91	20583
806.052	20758
806.194	20663
806.336	20857
806.478	20594
806.62	20655
806.762	20682
806.904	20861
807.046	21085
807.188	20971
807.33	20998
807.472	21138
807.614	20948
807.756	20960
807.898	20845
808.04	20701
808.182	20769
808.324	20785
808.465	20769
808.607	20921
808.749	21077
808.891	21161
809.033	21283
809.174	21028
809.316	21058
809.458	21028
809.6	21070
809.741	21074
809.883	21119
810.025	21279
810.166	21211
810.308	21085
810.45	21222
810.591	21032
810.733	20845
810.875	20895
811.016	20754
811.158	20697
811.299	20853
811.441	20929
811.582	21043
811.724	20708
811.865	20785
812.007	20788
812.148	20800
812.29	20834
812.431	20986
812.573	21036
812.714	21173
812.855	21260
812.997	21374
813.138	21515
813.279	21458
813.421	21195
813.562	21275
813.703	21055
813.845	20956
813.986	20655
814.127	20469
814.268	20324
814.41	20374
814.551	20427
814.692	20457
814.833	20301
814.974	20278
815.115	20385
815.256	20149
815.397	20320
815.539	20233
815.68	20069
815.821	20008
815.962	19936
816.103	20039
816.244	19963
816.385	19799
816.526	19849
816.666	19605
816.807	19605
816.948	19590
817.089	19567
817.23	19624
817.371	19476
817.512	19582
817.653	19487
817.793	19597
817.934	19438
818.075	19556
818.216	19472
818.356	19400
818.497	19297
818.638	19118
818.778	19206
818.919	19255
819.06	19171
819.2	19324
819.341	19362
819.481	19327
819.622	19559
819.762	19658
819.903	19571
820.043	19540
820.184	19381
820.324	19487
820.465	19525
820.605	19460
820.746	19422
820.886	19263
821.026	19445
821.167	19510
821.307	19518
821.447	19411
821.588	19274
821.728	19213
821.868	19019
822.008	18840
822.149	18859
822.289	18856
822.429	18646
822.569	18585
822.709	18486
822.849	18395
822.99	18330
823.13	18266
823.27	18365
823.41	18273
823.55	18121
823.69	18186
823.83	18281
823.97	18019
824.11	17843
824.25	17920
824.389	17977
824.529	18026
824.669	17973
824.809	18079
824.949	18072
825.089	17908
825.228	18011
825.368	17748
825.508	17840
825.648	17638
825.787	17726
825.927	17710
826.067	17661
826.206	17809
826.346	17642
826.485	17684
826.625	17608
826.765	17760
826.904	17752
827.044	17566
827.183	17471
827.323	17535
827.462	17486
827.601	17337
827.741	17448
827.88	17349
828.02	17166
828.159	17433
828.298	17417
828.437	17398
828.577	17299
828.716	17554
828.855	17318
828.994	17212
829.134	17113
829.273	17200
829.412	17208
829.551	17136
829.69	17212
829.829	17208
829.968	17185
830.107	17208
830.246	17143
830.385	17060
830.524	17029
830.663	16927
830.802	16900
830.941	16744
831.08	16782
831.219	16771
831.357	16831
831.496	16980
831.635	16797
831.774	16649
831.913	16687
832.051	16645
832.19	16516
832.329	16481
832.467	16470
832.606	16322
832.744	16413
832.883	16470
833.022	16405
833.16	16436
833.299	16489
833.437	16478
833.576	16432
833.714	16394
833.852	16523
833.991	16550
834.129	16558
834.267	16607
834.406	16394
834.544	16470
834.682	16470
834.821	16489
834.959	16645
835.097	16508
835.235	16588
835.373	16527
835.511	16512
835.65	16470
835.788	16360
835.926	16257
836.064	16169
836.202	16223
836.34	16352
836.478	16512
836.615	16443
836.753	16474
836.891	16497
837.029	16375
837.167	16234
837.305	16257
837.443	16223
837.58	16268
837.718	16299
837.856	16265
837.993	16207
838.131	16238
838.269	16253
838.406	16234
838.544	16101
838.681	15915
838.819	15960
838.956	15739
839.094	15827
839.231	15857
839.369	15915
839.506	16162
839.643	15926
839.781	15812
839.918	15743
840.055	15861
840.193	15728
840.33	15732
840.467	15747
840.604	15857
840.742	16013
840.879	15667
841.016	15694
841.153	15629
841.29	15987
841.427	15819
841.564	15842
841.701	15762
841.838	15797
841.975	15743
842.112	15614
842.249	15587
842.385	15526
842.522	15762
842.659	15530
842.796	15603
842.933	15492
843.069	15473
843.206	15568
843.343	15629
843.479	15606
843.616	15561
843.752	15363
843.889	15450
844.025	15481
844.162	15348
844.298	15507
844.435	15340
844.571	15230
844.708	15519
844.844	15580
844.98	15485
845.117	15351
845.253	15306
845.389	15268
845.525	15291
845.661	15275
845.798	15097
845.934	15279
846.07	15100
846.206	15207
846.342	15317
846.478	15150
846.614	15066
846.75	14861
846.886	15020
847.022	15047
847.158	14986
847.294	14937
847.429	15024
847.565	14925
847.701	15100
847.837	14739
847.972	14545
848.108	14804
848.244	14617
848.379	14602
848.515	14583
848.65	14476
848.786	14594
848.921	14537
849.057	14579
849.192	14636
849.328	14610
849.463	14610
849.598	14442
849.734	14530
849.869	14381
850.004	14320
850.14	14332
850.275	14267
850.41	14282
850.545	14267
850.68	14317
850.815	14286
850.95	14309
851.085	14484
851.22	14438
851.355	14290
851.49	14324
851.625	14248
851.76	14256
851.895	14263
852.03	14126
852.165	14320
852.299	14396
852.434	14313
852.569	14256
852.703	14271
852.838	14396
852.973	14465
853.107	14476
853.242	14237
853.376	14195
853.511	14081
853.645	14161
853.78	14313
853.914	14172
854.048	14168
854.183	14161
854.317	14172
854.451	14282
854.585	14088
854.72	14161
854.854	14240
854.988	14065
855.122	14168
855.256	13970
855.39	14123
855.524	14225
855.658	14259
855.792	14248
855.926	14183
856.06	14202
856.194	14278
856.327	14168
856.461	14046
856.595	14180
856.729	14149
856.862	14328
856.996	14176
857.13	14176
857.263	14278
857.397	14355
857.53	14267
857.664	14271
857.797	14259
857.931	14282
858.064	14195
858.197	14244
858.331	14362
858.464	14168
858.597	14020
858.731	14138
858.864	14240
858.997	14180
859.13	14195
859.263	14259
859.396	14229
859.529	14195
859.662	14130
859.795	14123
859.928	14084
860.061	14317
860.194	14298
860.327	14240
860.46	14267
860.592	14206
860.725	14351
860.858	14267
860.99	14172
861.123	14161
861.256	14058
861.388	14282
861.521	14861
861.653	14027
861.786	13986
861.918	14054
862.05	14130
862.183	14130
862.315	14161
862.447	14187
862.58	14084
862.712	13947
862.844	13864
862.976	13993
863.108	14001
863.24	14305
863.372	13883
863.504	14001
863.636	13974
863.768	14035
863.9	13967
864.032	13849
864.164	13921
864.296	14046
864.428	14081
864.559	14031
864.691	14062
864.823	14031
864.954	13963
865.086	13997
865.217	13902
865.349	13887
865.48	13814
865.612	13959
865.743	14069
865.875	13936
866.006	13940
866.137	13967
866.269	13883
866.4	14008
866.531	13879
866.662	13799
866.793	13963
866.924	13822
867.055	13932
867.186	13849
867.317	13978
867.448	13746
867.579	13883
867.71	13909
867.841	13856
867.972	13940
868.103	13932
868.233	13909
868.364	14031
868.495	13986
868.625	14191
868.756	14259
868.886	14142
869.017	14221
869.147	14324
869.278	14332
869.408	14183
869.539	14103
869.669	14183
869.799	14210
869.929	14351
870.06	14305
870.19	14446
870.32	14480
870.45	14480
870.58	14632
870.71	14659
870.84	14701
870.97	14579
871.1	14568
871.23	14830
871.36	14769
871.489	14693
871.619	14826
871.749	14743
871.879	14758
872.008	14933
872.138	14785
872.267	14804
872.397	14746
872.526	14606
872.656	14621
872.785	14678
872.915	14864
873.044	14765
873.173	14796
873.303	14845
873.432	14864
873.561	14906
873.69	14876
873.819	14785
873.948	14899
874.077	14883
874.206	14746
874.335	14864
874.464	14960
874.593	15116
874.722	15032
874.851	15272
874.979	15176
875.108	15199
875.237	15165
875.365	15020
875.494	15176
875.623	15192
875.751	15104
875.88	15298
876.008	15317
876.136	15344
876.265	15534
876.393	15698
876.521	15671
876.65	15728
876.778	15644
876.906	15591
877.034	15488
877.162	15496
877.29	15473
877.418	15701
877.546	15622
877.674	15564
877.802	15553
877.93	15580
878.058	15637
878.185	15439
878.313	15538
878.441	15557
878.568	15397
878.696	15534
878.824	15572
878.951	15625
879.079	15671
879.206	15816
879.333	15709
879.461	15591
879.588	15625
879.715	15812
879.842	15892
879.97	15652
880.097	15443
880.224	15260
880.351	15477
880.478	15439
880.605	15443
880.732	15439
880.859	15652
880.986	15454
881.112	15492
881.239	15321
881.366	15241
881.493	15074
881.619	15097
881.746	14994
881.872	15112
881.999	15089
882.125	14990
882.252	15138
882.378	15058
882.505	15230
882.631	14941
882.757	14876
882.883	14963
883.01	14990
883.136	14819
883.262	14739
883.388	14773
883.514	14918
883.64	15036
883.766	14868
883.892	14613
884.018	14708
884.143	14861
884.269	14929
884.395	14678
884.52	14545
884.646	14636
884.772	14613
884.897	14590
885.023	14648
885.148	14686
885.274	14781
885.399	14754
885.524	14594
885.65	14693
885.775	14617
885.9	14568
886.025	14735
886.15	14708
886.275	14545
886.4	14549
886.525	14568
886.65	14461
886.775	14560
886.9	14697
887.025	14830
887.149	14667
887.274	14495
887.399	14419
887.523	14408
887.648	14336
887.773	14256
887.897	14469
888.021	14442
888.146	14355
888.27	14579
888.395	14621
888.519	14503
888.643	14533
888.767	14469
888.891	14381
889.015	14275
889.139	14347
889.263	14385
889.387	14465
889.511	14514
889.635	14427
889.759	14370
889.883	14339
890.006	14366
890.13	14389
890.254	14187
890.377	14229
890.501	14119
890.624	14107
890.748	14248
890.871	14069
890.995	13902
891.118	13955
891.241	13940
891.364	13959
891.488	14043
891.611	14027
891.734	13967
891.857	14012
891.98	13993
892.103	14119
892.226	13970
892.349	13989
892.471	13849
892.594	13928
892.717	13974
892.839	13951
892.962	13925
893.085	14119
893.207	14043
893.33	13913
893.452	13909
893.575	14092
893.697	14008
893.819	14161
893.941	14252
894.064	14252
894.186	13970
894.308	13913
894.43	14062
894.552	14210
894.674	14142
894.796	14084
894.918	14046
895.04	13947
895.161	14225
895.283	14164
895.405	14111
895.526	14176
895.648	14134
895.769	14221
895.891	14263
896.012	14263
896.134	14199
896.255	14142
896.376	14115
896.498	14248
896.619	14214
896.74	14161
896.861	14339
896.982	14503
897.103	14651
897.224	14537
897.345	14366
897.466	14351
897.587	14446
897.708	14594
897.828	14495
897.949	14351
898.07	14313
898.19	14434
898.311	14629
898.431	14450
898.552	14514
898.672	14602
898.792	14583
898.913	14438
899.033	14541
899.153	14381
899.273	14256
899.393	14366
899.513	14446
899.633	14290
899.753	14385
899.873	14412
899.993	14480
900.113	14370
900.232	14381
900.352	14324
900.472	14317
900.591	14256
900.711	14328
900.83	14176
900.95	14446
901.069	14381
901.189	14233
901.308	13871
901.427	14043
901.546	14024
901.665	13978
901.784	13921
901.904	13864
902.023	13719
902.141	13590
902.26	13670
902.379	13575
902.498	13544
902.617	13491
902.735	13578
902.854	13521
902.973	13499
903.091	13190
903.21	13263
903.328	13137
903.446	13259
903.565	13088
903.683	13091
903.801	12977
903.919	13046
904.038	13027
904.156	12852
904.274	12947
904.392	12859
904.51	12821
904.627	12913
904.745	12882
904.863	12962
904.981	12593
905.098	12597
905.216	12540
905.334	12677
905.451	12551
905.569	12570
905.686	12597
905.803	12525
905.921	12334
906.038	12502
906.155	12422
906.272	12311
906.389	12270
906.506	12167
906.623	12228
906.74	12106
906.857	12102
906.974	12133
907.091	12273
907.208	12323
907.324	12190
907.441	12083
907.557	11885
907.674	11973
907.79	11855
907.907	11912
908.023	12022
908.139	11863
908.256	11783
908.372	11901
908.488	11805
908.604	11668
908.72	11707
908.836	11707
908.952	11570
909.068	11676
909.184	11745
909.3	11737
909.415	11741
909.531	11661
909.647	11478
909.762	11448
909.878	11410
909.993	11543
910.108	11421
910.224	11433
910.339	11516
910.454	11307
910.57	11284
910.685	11231
910.8	11524
910.915	11433
911.03	11398
911.145	11189
911.259	11201
911.374	11147
911.489	11086
911.604	11029
911.718	10919
911.833	10934
911.947	10843
912.062	10793
912.176	10892
912.291	10889
912.405	10923
912.519	11045
912.633	10991
912.748	10980
912.862	10854
912.976	10717
913.09	10714
913.204	10710
913.318	10824
913.431	10976
913.545	10930
913.659	10885
913.772	10820
913.886	10664
914	10653
914.113	10774
914.226	10706
914.34	10740
914.453	10577
914.566	10740
914.68	10649
914.793	10592
914.906	10470
915.019	10462
915.132	10360
915.245	10375
915.358	10318
915.47	10402
915.583	10424
915.696	10493
915.809	10649
915.921	10630
916.034	10390
916.146	10341
916.259	10253
916.371	10432
916.483	10447
916.595	10310
916.708	10367
916.82	10360
916.932	10322
917.044	10322
917.156	10280
917.268	10207
917.38	10303
917.491	10211
917.603	10299
917.715	10295
917.826	10379
917.938	10284
918.049	10086
918.161	10253
918.272	10424
918.384	10341
918.495	10238
918.606	10192
918.717	10055
918.828	10101
918.939	10154
919.05	10021
919.161	10082
919.272	9918
919.383	9975
919.494	10188
919.604	10367
919.715	10150
919.826	10048
919.936	10105
920.047	10196
920.157	10219
920.267	10352
920.378	10223
920.488	10181
920.598	10386
920.708	10519
920.818	10356
920.928	10348
921.038	10527
921.148	10493
921.258	10131
921.368	10059
921.477	10002
921.587	10010
921.697	9903
921.806	10090
921.916	9873
922.025	9717
922.134	9675
922.244	9675
922.353	9781
922.462	9534
922.571	9519
922.68	9439
922.789	9336
922.898	9431
923.007	9374
923.116	9378
923.224	9344
923.333	9359
923.442	9298
923.55	9249
923.659	9298
923.767	9367
923.876	9291
923.984	9374
924.092	9264
924.201	9272
924.309	9287
924.417	9321
924.525	9188
924.633	9332
924.741	10185
924.849	9081
924.956	9165
925.064	9043
925.172	8933
925.279	9039
925.387	9081
925.494	9081
925.602	9207
925.709	9138
925.816	9077
925.924	9104
926.031	9131
926.138	9135
926.245	9093
926.352	8982
926.459	9214
926.566	9188
926.673	8975
926.779	8944
926.886	8952
926.993	8845
927.099	8773
927.206	8792
927.312	8762
927.419	8739
927.525	8758
927.631	8807
927.737	8697
927.843	8678
927.95	8606
928.056	8598
928.162	8689
928.267	8712
928.373	9241
928.479	8781
928.585	8537
928.69	8621
928.796	8758
928.901	8575
929.007	8457
929.112	8602
929.218	8556
929.323	8560
929.428	8503
929.533	8655
929.638	8408
929.743	8461
929.848	8442
929.953	8533
930.058	8362
930.163	8294
930.267	8343
930.372	8400
930.477	8317
930.581	8537
930.685	8343
930.79	8149
930.894	8267
930.998	8183
931.103	8343
931.207	7951
931.311	7963
931.415	7947
931.519	7731
931.623	7704
