Data from test_V78500241_3233.txt Node
Date: Fri Mar 25 14:56:13 CST 2022
User: usil
Spectrometer: V785-0024
Trigger mode: 0
Integration Time (sec): 4.000000E-1
Scans to average: 1
Nonlinearity correction enabled: false
Boxcar width: 0
Storing dark spectrum: false
XAxis mode: Wavelengths
Number of Pixels in Spectrum: 1024
>>>>>Begin Spectral Data<<<<<
801.071	22013
801.214	21945
801.356	21572
801.499	21534
801.641	21428
801.783	21420
801.926	21431
802.068	21378
802.211	21252
802.353	21184
802.496	20994
802.638	20773
802.78	20792
802.923	20792
803.065	20678
803.208	20655
803.35	20689
803.492	20682
803.635	20705
803.777	20571
803.919	20716
804.061	20933
804.204	20670
804.346	20598
804.488	20598
804.63	20575
804.773	20514
804.915	20697
805.057	20655
805.199	20629
805.341	20716
805.483	20583
805.626	20674
805.768	20606
805.91	20640
806.052	20530
806.194	20518
806.336	20716
806.478	20552
806.62	20583
806.762	20674
806.904	20773
807.046	21058
807.188	20849
807.33	20986
807.472	20880
807.614	20857
807.756	20800
807.898	20815
808.04	20712
808.182	20609
808.324	20640
808.465	20739
808.607	20773
808.749	20921
808.891	21028
809.033	21089
809.174	20887
809.316	20887
809.458	20921
809.6	20792
809.741	20944
809.883	21096
810.025	21237
810.166	21123
810.308	21039
810.45	20921
810.591	21062
810.733	20906
810.875	20800
811.016	20549
811.158	20602
811.299	20762
811.441	20800
811.582	20785
811.724	20716
811.865	20670
812.007	20727
812.148	20804
812.29	20762
812.431	20864
812.573	21066
812.714	21169
812.855	21344
812.997	21313
813.138	21332
813.279	21306
813.421	21161
813.562	21131
813.703	21009
813.845	20891
813.986	20541
814.127	20362
814.268	20332
814.41	20351
814.551	20259
814.692	20305
814.833	20320
814.974	20187
815.115	20263
815.256	20084
815.397	20103
815.539	20138
815.68	19951
815.821	19967
815.962	19989
816.103	19955
816.244	19791
816.385	19719
816.526	19719
816.666	19563
816.807	19400
816.948	19422
817.089	19537
817.23	19441
817.371	19320
817.512	19464
817.653	19384
817.793	19476
817.934	19445
818.075	19381
818.216	19365
818.356	19396
818.497	19263
818.638	19072
818.778	19217
818.919	19069
819.06	19050
819.2	19148
819.341	19228
819.481	19266
819.622	19430
819.762	19590
819.903	19533
820.043	19346
820.184	19381
820.324	19384
820.465	19422
820.605	19392
820.746	19362
820.886	19285
821.026	19297
821.167	19411
821.307	19438
821.447	19327
821.588	19232
821.728	19076
821.868	18905
822.008	18810
822.149	18760
822.289	18741
822.429	18506
822.569	18410
822.709	18437
822.849	18247
822.99	18281
823.13	18194
823.27	18258
823.41	18034
823.55	18060
823.69	18091
823.83	18087
823.97	17977
824.11	17863
824.25	17836
824.389	17794
824.529	17973
824.669	17904
824.809	17999
824.949	17824
825.089	17950
825.228	17851
825.368	17707
825.508	17703
825.648	17512
825.787	17653
825.927	17817
826.067	17516
826.206	17638
826.346	17558
826.485	17551
826.625	17634
826.765	17726
826.904	17611
827.044	17490
827.183	17337
827.323	17322
827.462	17436
827.601	17345
827.741	17277
827.88	17364
828.02	17254
828.159	17212
828.298	17383
828.437	17444
828.577	17265
828.716	17421
828.855	17288
828.994	17132
829.134	17090
829.273	17067
829.412	17060
829.551	17006
829.69	17033
829.829	17155
829.968	17254
830.107	17147
830.246	16995
830.385	17052
830.524	16972
830.663	16896
830.802	16820
830.941	16694
831.08	16725
831.219	16877
831.357	16889
831.496	16889
831.635	16584
831.774	16607
831.913	16592
832.051	16497
832.19	16367
832.329	16561
832.467	16428
832.606	16276
832.744	16303
832.883	16314
833.022	16272
833.16	16382
833.299	16432
833.437	16421
833.576	16386
833.714	16417
833.852	16394
833.991	16478
834.129	16603
834.267	16508
834.406	16409
834.544	16497
834.682	16432
834.821	16481
834.959	16500
835.097	16367
835.235	16649
835.373	16493
835.511	16398
835.65	16459
835.788	16272
835.926	16215
836.064	16139
836.202	16234
836.34	16443
836.478	16382
836.615	16230
836.753	16360
836.891	16451
837.029	16428
837.167	16386
837.305	16257
837.443	16173
837.58	16295
837.718	16333
837.856	16310
837.993	16147
838.131	16253
838.269	16154
838.406	16166
838.544	16093
838.681	15987
838.819	15873
838.956	15797
839.094	15808
839.231	15854
839.369	15922
839.506	16109
839.643	15972
839.781	15770
839.918	15739
840.055	15854
840.193	15823
840.33	15648
840.467	15819
840.604	15880
840.742	16044
840.879	15660
841.016	15808
841.153	15762
841.29	15926
841.427	15766
841.564	15724
841.701	15793
841.838	15778
841.975	15663
842.112	15656
842.249	15530
842.385	15519
842.522	15751
842.659	15610
842.796	15507
842.933	15443
843.069	15641
843.206	15595
843.343	15637
843.479	15610
843.616	15622
843.752	15382
843.889	15378
844.025	15587
844.162	15329
844.298	15439
844.435	15367
844.571	15363
844.708	15424
844.844	15523
844.98	15534
845.117	15431
845.253	15321
845.389	15157
845.525	15287
845.661	15176
845.798	15169
845.934	15192
846.07	15154
846.206	15211
846.342	15260
846.478	15161
846.614	14899
846.75	14864
846.886	14845
847.022	15005
847.158	14868
847.294	14910
847.429	14902
847.565	14883
847.701	15104
847.837	14682
847.972	14549
848.108	14785
848.244	14720
848.379	14571
848.515	14522
848.65	14488
848.786	14552
848.921	14526
849.057	14575
849.192	14583
849.328	14613
849.463	14522
849.598	14514
849.734	14389
849.869	14419
850.004	14286
850.14	14244
850.275	14275
850.41	14256
850.545	14218
850.68	14237
850.815	14275
850.95	14305
851.085	14446
851.22	14366
851.355	14317
851.49	14168
851.625	14191
851.76	14248
851.895	14043
852.03	14168
852.165	14214
852.299	14225
852.434	14275
852.569	14183
852.703	14313
852.838	14263
852.973	14473
853.107	14549
853.242	14195
853.376	14077
853.511	14039
853.645	14172
853.78	14229
853.914	14202
854.048	14088
854.183	14039
854.317	14176
854.451	14343
854.585	14149
854.72	14153
854.854	14180
854.988	14081
855.122	14149
855.256	14016
855.39	14088
855.524	14218
855.658	14237
855.792	14062
855.926	14172
856.06	14180
856.194	14301
856.327	14210
856.461	14130
856.595	14096
856.729	14130
856.862	14210
856.996	14145
857.13	14161
857.263	14286
857.397	14320
857.53	14149
857.664	14195
857.797	14111
857.931	14370
858.064	14172
858.197	14343
858.331	14088
858.464	14161
858.597	14005
858.731	14119
858.864	14130
858.997	14084
859.13	14123
859.263	14046
859.396	14218
859.529	14157
859.662	14126
859.795	14134
859.928	14058
860.061	14317
860.194	14336
860.327	14103
860.46	14164
860.592	14252
860.725	14267
860.858	14355
860.99	14149
861.123	14157
861.256	13982
861.388	14271
861.521	14971
861.653	14073
861.786	13909
861.918	13978
862.05	14134
862.183	14130
862.315	14172
862.447	14168
862.58	14168
862.712	13894
862.844	13837
862.976	14043
863.108	13982
863.24	14370
863.372	13906
863.504	13986
863.636	13947
863.768	14065
863.9	13959
864.032	13871
864.164	13742
864.296	13970
864.428	13940
864.559	14031
864.691	14031
864.823	14046
864.954	13989
865.086	13955
865.217	13856
865.349	13852
865.48	13883
865.612	13841
865.743	14084
865.875	13913
866.006	13940
866.137	13947
866.269	13963
866.4	13814
866.531	13731
866.662	13811
866.793	13814
866.924	13921
867.055	13932
867.186	13898
867.317	13795
867.448	13818
867.579	13883
867.71	13841
867.841	13784
867.972	13906
868.103	13887
868.233	13940
868.364	13875
868.495	13940
868.625	14126
868.756	14282
868.886	14081
869.017	14126
869.147	14191
869.278	14358
869.408	14199
869.539	14206
869.669	14233
869.799	14275
869.929	14355
870.06	14301
870.19	14545
870.32	14404
870.45	14530
870.58	14667
870.71	14640
870.84	14701
870.97	14514
871.1	14518
871.23	14792
871.36	14807
871.489	14678
871.619	14773
871.749	14735
871.879	14880
872.008	14861
872.138	14754
872.267	14838
872.397	14541
872.526	14575
872.656	14594
872.785	14602
872.915	14849
873.044	14887
873.173	14838
873.303	14868
873.432	14800
873.561	14883
873.69	14800
873.819	14819
873.948	14868
874.077	14842
874.206	14762
874.335	14864
874.464	14921
874.593	15169
874.722	15123
874.851	15230
874.979	15214
875.108	15089
875.237	15039
875.365	15024
875.494	15104
875.623	15199
875.751	15070
875.88	15138
876.008	15302
876.136	15412
876.265	15534
876.393	15717
876.521	15717
876.65	15599
876.778	15526
876.906	15580
877.034	15450
877.162	15580
877.29	15496
877.418	15568
877.546	15485
877.674	15538
877.802	15633
877.93	15523
878.058	15466
878.185	15386
878.313	15481
878.441	15584
878.568	15466
878.696	15405
878.824	15576
878.951	15606
879.079	15713
879.206	15922
879.333	15686
879.461	15637
879.588	15637
879.715	15838
879.842	15892
879.97	15717
880.097	15428
880.224	15466
880.351	15488
880.478	15408
880.605	15370
880.732	15336
880.859	15584
880.986	15405
881.112	15412
881.239	15321
881.366	15157
881.493	15062
881.619	15100
881.746	14982
881.872	15039
881.999	14975
882.125	14994
882.252	15135
882.378	15077
882.505	15275
882.631	15043
882.757	14811
882.883	14914
883.01	14937
883.136	14815
883.262	14682
883.388	14644
883.514	15005
883.64	15020
883.766	14952
883.892	14549
884.018	14746
884.143	14880
884.269	14906
884.395	14682
884.52	14507
884.646	14610
884.772	14537
884.897	14541
885.023	14693
885.148	14697
885.274	14682
885.399	14670
885.524	14568
885.65	14689
885.775	14606
885.9	14507
886.025	14716
886.15	14686
886.275	14556
886.4	14484
886.525	14484
886.65	14484
886.775	14514
886.9	14636
887.025	14739
887.149	14575
887.274	14412
887.399	14282
887.523	14408
887.648	14370
887.773	14305
887.897	14438
888.021	14495
888.146	14454
888.27	14537
888.395	14579
888.519	14408
888.643	14480
888.767	14583
888.891	14351
889.015	14290
889.139	14252
889.263	14172
889.387	14370
889.511	14461
889.635	14389
889.759	14233
889.883	14252
890.006	14214
890.13	14336
890.254	14221
890.377	14214
890.501	14062
890.624	14058
890.748	14229
890.871	14054
890.995	14001
891.118	13902
891.241	13997
891.364	13978
891.488	14115
891.611	13967
891.734	14005
891.857	14062
891.98	14103
892.103	14149
892.226	14012
892.349	13936
892.471	13883
892.594	13860
892.717	13967
892.839	13944
892.962	13986
893.085	14058
893.207	14062
893.33	13944
893.452	14024
893.575	13951
893.697	14054
893.819	14229
893.941	14195
894.064	14081
894.186	13993
894.308	13989
894.43	14039
894.552	14065
894.674	14100
894.796	14008
894.918	14065
895.04	14016
895.161	14183
895.283	14237
895.405	14043
895.526	14100
895.648	14084
895.769	14138
895.891	14187
896.012	14233
896.134	14309
896.255	14210
896.376	14107
896.498	14161
896.619	14278
896.74	14168
896.861	14206
896.982	14602
897.103	14644
897.224	14476
897.345	14450
897.466	14294
897.587	14396
897.708	14530
897.828	14438
897.949	14522
898.07	14347
898.19	14370
898.311	14503
898.431	14461
898.552	14621
898.672	14640
898.792	14632
898.913	14522
899.033	14583
899.153	14366
899.273	14191
899.393	14317
899.513	14366
899.633	14396
899.753	14419
899.873	14328
899.993	14362
900.113	14351
900.232	14404
900.352	14404
900.472	14237
900.591	14199
900.711	14145
900.83	14191
900.95	14301
901.069	14377
901.189	14073
901.308	13997
901.427	13826
901.546	13940
901.665	13940
901.784	13970
901.904	13765
902.023	13605
902.141	13575
902.26	13449
902.379	13552
902.498	13590
902.617	13499
902.735	13483
902.854	13575
902.973	13304
903.091	13133
903.21	13209
903.328	13149
903.446	13137
903.565	13141
903.683	12970
903.801	12954
903.919	13095
904.038	13015
904.156	12848
904.274	12935
904.392	12894
904.51	12745
904.627	12875
904.745	12966
904.863	12935
904.981	12681
905.098	12536
905.216	12483
905.334	12616
905.451	12582
905.569	12578
905.686	12578
905.803	12646
905.921	12407
906.038	12475
906.155	12445
906.272	12342
906.389	12388
906.506	12148
906.623	12194
906.74	12163
906.857	12022
906.974	12045
907.091	12152
907.208	12258
907.324	12251
907.441	12083
907.557	11958
907.674	11950
907.79	11889
907.907	11821
908.023	11939
908.139	11912
908.256	11855
908.372	11783
908.488	11764
908.604	11809
908.72	11672
908.836	11653
908.952	11668
909.068	11657
909.184	11699
909.3	11680
909.415	11748
909.531	11714
909.647	11467
909.762	11421
909.878	11512
909.993	11383
910.108	11353
910.224	11410
910.339	11387
910.454	11326
910.57	11261
910.685	11181
910.8	11566
910.915	11463
911.03	11284
911.145	11128
911.259	11143
911.374	11105
911.489	11060
911.604	11121
911.718	10801
911.833	11006
911.947	10847
912.062	10729
912.176	10908
912.291	10911
912.405	10869
912.519	11113
912.633	11102
912.748	10934
912.862	10930
912.976	10824
913.09	10618
913.204	10717
913.318	10740
913.431	10843
913.545	10797
913.659	10869
913.772	10820
913.886	10706
914	10637
914.113	10774
914.226	10839
914.34	10755
914.453	10660
914.566	10702
914.68	10599
914.793	10531
914.906	10451
915.019	10356
915.132	10402
915.245	10367
915.358	10432
915.47	10352
915.583	10413
915.696	10417
915.809	10489
915.921	10493
916.034	10356
916.146	10360
916.259	10325
916.371	10451
916.483	10367
916.595	10390
916.708	10303
916.82	10352
916.932	10268
917.044	10280
917.156	10280
917.268	10158
917.38	10219
917.491	10185
917.603	10246
917.715	10337
917.826	10390
917.938	10211
918.049	10196
918.161	10257
918.272	10379
918.384	10371
918.495	10272
918.606	10086
918.717	10063
918.828	10181
918.939	10120
919.05	10021
919.161	10154
919.272	9934
919.383	10013
919.494	10234
919.604	10303
919.715	10200
919.826	10032
919.936	10032
920.047	10188
920.157	10128
920.267	10379
920.378	10215
920.488	10135
920.598	10375
920.708	10379
920.818	10310
920.928	10371
921.038	10413
921.148	10508
921.258	10200
921.368	10086
921.477	10048
921.587	9956
921.697	9934
921.806	10021
921.916	9937
922.025	9797
922.134	9675
922.244	9694
922.353	9766
922.462	9587
922.571	9545
922.68	9355
922.789	9355
922.898	9408
923.007	9332
923.116	9370
923.224	9420
923.333	9378
923.442	9310
923.55	9287
923.659	9260
923.767	9351
923.876	9199
923.984	9287
924.092	9207
924.201	9264
924.309	9344
924.417	9298
924.525	9245
924.633	9256
924.741	10147
924.849	9055
924.956	9116
925.064	9051
925.172	8990
925.279	9001
925.387	9085
925.494	9036
925.602	9188
925.709	9077
925.816	8982
925.924	9017
926.031	9165
926.138	9055
926.245	9100
926.352	8963
926.459	9112
926.566	9131
926.673	9058
926.779	8937
926.886	8925
926.993	8735
927.099	8773
927.206	8781
927.312	8727
927.419	8811
927.525	8766
927.631	8876
927.737	8701
927.843	8682
927.95	8556
928.056	8640
928.162	8689
928.267	8689
928.373	9222
928.479	8762
928.585	8522
928.69	8758
928.796	8777
928.901	8575
929.007	8431
929.112	8594
929.218	8503
929.323	8507
929.428	8473
929.533	8613
929.638	8457
929.743	8488
929.848	8533
929.953	8408
930.058	8389
930.163	8221
930.267	8286
930.372	8431
930.477	8248
930.581	8484
930.685	8290
930.79	8164
930.894	8336
930.998	8180
931.103	8317
931.207	8016
931.311	8001
931.415	7883
931.519	7696
931.623	7738
