Data from test_V78500241_144.txt Node
Date: Fri Mar 25 14:34:43 CST 2022
User: usil
Spectrometer: V785-0024
Trigger mode: 0
Integration Time (sec): 4.000000E-1
Scans to average: 1
Nonlinearity correction enabled: false
Boxcar width: 0
Storing dark spectrum: false
XAxis mode: Wavelengths
Number of Pixels in Spectrum: 1024
>>>>>Begin Spectral Data<<<<<
801.071	29615
801.214	29668
801.356	29417
801.499	29181
801.641	29121
801.783	29189
801.926	29155
802.068	28965
802.211	28934
802.353	28999
802.496	28858
802.638	28717
802.78	28596
802.923	28611
803.065	28755
803.208	28603
803.35	28634
803.492	28892
803.635	28938
803.777	28942
803.919	29018
804.061	29124
804.204	28995
804.346	28835
804.488	28927
804.63	28862
804.773	28869
804.915	28961
805.057	29064
805.199	29037
805.341	29212
805.483	29189
805.626	29216
805.768	29277
805.91	29166
806.052	29277
806.194	29318
806.336	29627
806.478	29478
806.62	29581
806.762	29828
806.904	30121
807.046	30418
807.188	30502
807.33	30779
807.472	31091
807.614	31266
807.756	31780
807.898	31955
808.04	32868
808.182	33732
808.324	34866
808.465	36285
808.607	37651
808.749	39032
808.891	39747
809.033	39728
809.174	38937
809.316	37662
809.458	36060
809.6	34535
809.741	33431
809.883	32587
810.025	32237
810.166	31552
810.308	31270
810.45	30821
810.591	30627
810.733	30452
810.875	30133
811.016	30079
811.158	29935
811.299	29999
811.441	30072
811.582	29977
811.724	29608
811.865	29767
812.007	29592
812.148	29589
812.29	29581
812.431	29684
812.573	29889
812.714	30007
812.855	29942
812.997	29954
813.138	30171
813.279	29897
813.421	29851
813.562	29866
813.703	29649
813.845	29520
813.986	29292
814.127	29056
814.268	29010
814.41	29014
814.551	28771
814.692	28972
814.833	28763
814.974	28885
815.115	28793
815.256	28729
815.397	28615
815.539	28683
815.68	28531
815.821	28470
815.962	28500
816.103	28432
816.244	28379
816.385	28291
816.526	28299
816.666	27907
816.807	27816
816.948	27953
817.089	27857
817.23	27949
817.371	27766
817.512	27838
817.653	27827
817.793	27888
817.934	27759
818.075	27930
818.216	27823
818.356	27759
818.497	27762
818.638	27511
818.778	27561
818.919	27447
819.06	27641
819.2	27705
819.341	27694
819.481	27660
819.622	27922
819.762	28173
819.903	28013
820.043	27903
820.184	27808
820.324	27808
820.465	27797
820.605	27603
820.746	27614
820.886	27504
821.026	27660
821.167	27637
821.307	27724
821.447	27549
821.588	27450
821.728	27329
821.868	27173
822.008	27108
822.149	27009
822.289	27032
822.429	26731
822.569	26602
822.709	26708
822.849	26442
822.99	26438
823.13	26473
823.27	26393
823.41	26248
823.55	26164
823.69	26202
823.83	26130
823.97	26115
824.11	26020
824.25	26035
824.389	25963
824.529	26225
824.669	26020
824.809	26145
824.949	26176
825.089	26221
825.228	26005
825.368	25879
825.508	25799
825.648	25750
825.787	25799
825.927	25879
826.067	25715
826.206	25868
826.346	25902
826.485	25864
826.625	25700
826.765	25913
826.904	25856
827.044	25613
827.183	25559
827.323	25419
827.462	25590
827.601	25472
827.741	25396
827.88	25552
828.02	25289
828.159	25335
828.298	25354
828.437	25483
828.577	25320
828.716	25518
828.855	25247
828.994	25187
829.134	25187
829.273	25107
829.412	25072
829.551	25194
829.69	24913
829.829	25183
829.968	25091
830.107	25240
830.246	25103
830.385	25031
830.524	25042
830.663	25004
830.802	24958
830.941	24650
831.08	24631
831.219	24669
831.357	24753
831.496	24924
831.635	24661
831.774	24646
831.913	24688
832.051	24464
832.19	24384
832.329	24650
832.467	24456
832.606	24437
832.744	24410
832.883	24483
833.022	24308
833.16	24498
833.299	24559
833.437	24563
833.576	24760
833.714	24604
833.852	24840
833.991	24882
834.129	24875
834.267	24973
834.406	24814
834.544	24840
834.682	24753
834.821	24608
834.959	24859
835.097	24532
835.235	24574
835.373	24490
835.511	24395
835.65	24342
835.788	24270
835.926	24026
836.064	24026
836.202	24068
836.34	24133
836.478	24201
836.615	24197
836.753	24159
836.891	24205
837.029	24072
837.167	24114
837.305	23988
837.443	23931
837.58	23855
837.718	23946
837.856	23977
837.993	23885
838.131	24022
838.269	23699
838.406	23794
838.544	23745
838.681	23528
838.819	23455
838.956	23391
839.094	23337
839.231	23326
839.369	23524
839.506	23547
839.643	23661
839.781	23417
839.918	23178
840.055	23311
840.193	23162
840.33	23197
840.467	23235
840.604	23231
840.742	23516
840.879	23044
841.016	23113
841.153	23075
841.29	23425
841.427	23261
841.564	23250
841.701	23166
841.838	22984
841.975	23204
842.112	22957
842.249	22908
842.385	22923
842.522	23102
842.659	23067
842.796	22961
842.933	22976
843.069	22923
843.206	22949
843.343	23010
843.479	23033
843.616	22987
843.752	22679
843.889	22869
844.025	22961
844.162	22885
844.298	23086
844.435	22984
844.571	23102
844.708	23178
844.844	23429
844.98	23589
845.117	23840
845.253	24117
845.389	24928
845.525	26351
845.661	28812
845.798	31609
845.934	34204
846.07	35151
846.206	34672
846.342	32750
846.478	29676
846.614	27043
846.75	25099
846.886	23992
847.022	23490
847.158	23220
847.294	22877
847.429	22622
847.565	22379
847.701	22710
847.837	22120
847.972	22154
848.108	22051
848.244	22082
848.379	21888
848.515	21770
848.65	21827
848.786	21861
848.921	21861
849.057	21865
849.192	21800
849.328	21751
849.463	21690
849.598	21652
849.734	21641
849.869	21591
850.004	21473
850.14	21473
850.275	21393
850.41	21348
850.545	21424
850.68	21431
850.815	21382
850.95	21374
851.085	21614
851.22	21466
851.355	21336
851.49	21485
851.625	21420
851.76	21397
851.895	21367
852.03	21351
852.165	21382
852.299	21378
852.434	21523
852.569	21382
852.703	21367
852.838	21450
852.973	21663
853.107	21496
853.242	21416
853.376	21473
853.511	21321
853.645	21256
853.78	21473
853.914	21454
854.048	21363
854.183	21329
854.317	21412
854.451	21561
854.585	21408
854.72	21279
854.854	21458
854.988	21317
855.122	21245
855.256	21332
855.39	21291
855.524	21386
855.658	21359
855.792	21397
855.926	21351
856.06	21214
856.194	21203
856.327	21252
856.461	21074
856.595	21199
856.729	21214
856.862	21237
856.996	21100
857.13	21291
857.263	21211
857.397	21211
857.53	21062
857.664	21203
857.797	21203
857.931	21306
858.064	21161
858.197	21138
858.331	21131
858.464	21093
858.597	20902
858.731	21108
858.864	21020
858.997	21081
859.13	21051
859.263	21135
859.396	21131
859.529	21024
859.662	20994
859.795	20982
859.928	21051
860.061	21112
860.194	21237
860.327	21024
860.46	21081
860.592	21104
860.725	21287
860.858	21096
860.99	21005
861.123	20971
861.256	20963
861.388	21112
861.521	21781
861.653	21028
861.786	20781
861.918	20937
862.05	21066
862.183	21058
862.315	21074
862.447	21108
862.58	21051
862.712	20785
862.844	20785
862.976	20857
863.108	20849
863.24	21150
863.372	20617
863.504	20625
863.636	20693
863.768	20693
863.9	20811
864.032	20697
864.164	20651
864.296	20830
864.428	20883
864.559	20800
864.691	20773
864.823	20701
864.954	20834
865.086	20705
865.217	20686
865.349	20598
865.48	20743
865.612	20507
865.743	20762
865.875	20590
866.006	20621
866.137	20556
866.269	20735
866.4	20556
866.531	20533
866.662	20613
866.793	20568
866.924	20560
867.055	20507
867.186	20629
867.317	20514
867.448	20427
867.579	20450
867.71	20393
867.841	20377
867.972	20648
868.103	20518
868.233	20598
868.364	20492
868.495	20682
868.625	20697
868.756	20823
868.886	20701
869.017	20853
869.147	20796
869.278	20872
869.408	20781
869.539	20796
869.669	20861
869.799	20834
869.929	20994
870.06	21032
870.19	21123
870.32	20998
870.45	21157
870.58	21135
870.71	21348
870.84	21367
870.97	21241
871.1	21317
871.23	21389
871.36	21431
871.489	21332
871.619	21397
871.749	21431
871.879	21462
872.008	21519
872.138	21488
872.267	21435
872.397	21386
872.526	21264
872.656	21355
872.785	21268
872.915	21648
873.044	21515
873.173	21519
873.303	21675
873.432	21622
873.561	21633
873.69	21648
873.819	21568
873.948	21610
874.077	21580
874.206	21587
874.335	21720
874.464	21846
874.593	21838
874.722	21789
874.851	21850
874.979	21926
875.108	21876
875.237	21941
875.365	21812
875.494	21842
875.623	22185
875.751	22105
875.88	22055
876.008	22162
876.136	22356
876.265	22516
876.393	22626
876.521	22694
876.65	22580
876.778	22713
876.906	22554
877.034	22447
877.162	22740
877.29	22618
877.418	22710
877.546	22767
877.674	22736
877.802	22763
877.93	22805
878.058	22972
878.185	23025
878.313	23143
878.441	23299
878.568	23486
878.696	23790
878.824	24258
878.951	24525
879.079	25426
879.206	26377
879.333	27199
879.461	27922
879.588	28470
879.715	28485
879.842	28215
879.97	27317
880.097	26081
880.224	25285
880.351	24814
880.478	24464
880.605	24201
880.732	24072
880.859	24087
880.986	23878
881.112	23767
881.239	23615
881.366	23554
881.493	23406
881.619	23368
881.746	23395
881.872	23455
881.999	23299
882.125	23395
882.252	23611
882.378	23455
882.505	23558
882.631	23311
882.757	23311
882.883	23337
883.01	23318
883.136	23083
883.262	23105
883.388	23010
883.514	23189
883.64	23315
883.766	23181
883.892	23044
884.018	23006
884.143	23044
884.269	23288
884.395	22923
884.52	22885
884.646	22984
884.772	22904
884.897	22812
885.023	22755
885.148	22976
885.274	22961
885.399	22801
885.524	22698
885.65	22637
885.775	22717
885.9	22592
886.025	22748
886.15	22421
886.275	22242
886.4	22207
886.525	22367
886.65	22139
886.775	22013
886.9	22124
887.025	22223
887.149	22105
887.274	21827
887.399	21660
887.523	21778
887.648	21675
887.773	21549
887.897	21610
888.021	21466
888.146	21450
888.27	21686
888.395	21500
888.519	21469
888.643	21435
888.767	21526
888.891	21370
889.015	21165
889.139	21226
889.263	21195
889.387	21211
889.511	21260
889.635	21211
889.759	21017
889.883	20960
890.006	21108
890.13	21058
890.254	20861
890.377	20937
890.501	20716
890.624	20609
890.748	20746
890.871	20785
890.995	20533
891.118	20427
891.241	20556
891.364	20412
891.488	20541
891.611	20457
891.734	20511
891.857	20450
891.98	20473
892.103	20324
892.226	20332
892.349	20305
892.471	20130
892.594	20218
892.717	20282
892.839	20294
892.962	20233
893.085	20233
893.207	20225
893.33	20115
893.452	20043
893.575	20073
893.697	20218
893.819	20336
893.941	20305
894.064	20278
894.186	20058
894.308	20031
894.43	20157
894.552	20244
894.674	20172
894.796	20031
894.918	20073
895.04	19993
895.161	19982
895.283	20024
895.405	19951
895.526	19917
895.648	20008
895.769	20122
895.891	19970
896.012	20008
896.134	19944
896.255	19936
896.376	19986
896.498	20062
896.619	19875
896.74	19963
896.861	20092
896.982	20332
897.103	20423
897.224	20172
897.345	20290
897.466	20138
897.587	20145
897.708	20305
897.828	20202
897.949	20062
898.07	19913
898.19	19989
898.311	20278
898.431	20096
898.552	20115
898.672	20122
898.792	20062
898.913	20240
899.033	19940
899.153	19974
899.273	19883
899.393	19780
899.513	19936
899.633	19799
899.753	19925
899.873	19814
899.993	19890
900.113	19696
900.232	19951
900.352	19746
900.472	19609
900.591	19491
900.711	19693
900.83	19613
900.95	19666
901.069	19677
901.189	19483
901.308	19381
901.427	19301
901.546	19251
901.665	19285
901.784	19217
901.904	19133
902.023	18973
902.141	18844
902.26	18722
902.379	18837
902.498	18772
902.617	18563
902.735	18677
902.854	18635
902.973	18608
903.091	18327
903.21	18285
903.328	18395
903.446	18285
903.565	18194
903.683	18129
903.801	18019
903.919	18083
904.038	18049
904.156	17836
904.274	17851
904.392	17824
904.51	17908
904.627	17847
904.745	17939
904.863	17893
904.981	17668
905.098	17581
905.216	17482
905.334	17452
905.451	17471
905.569	17436
905.686	17505
905.803	17436
905.921	17284
906.038	17433
906.155	17216
906.272	17136
906.389	17140
906.506	17067
906.623	17006
906.74	17067
906.857	16972
906.974	16965
907.091	16995
907.208	17098
907.324	17052
907.441	16908
907.557	16828
907.674	16771
907.79	16596
907.907	16675
908.023	16843
908.139	16660
908.256	16672
908.372	16508
908.488	16717
908.604	16402
908.72	16474
908.836	16379
908.952	16329
909.068	16394
909.184	16504
909.3	16379
909.415	16352
909.531	16363
909.647	16162
909.762	16200
909.878	16093
909.993	16063
910.108	16082
910.224	15983
910.339	15926
910.454	15956
910.57	15842
910.685	15922
910.8	16036
910.915	15998
911.03	15850
911.145	15770
911.259	15648
911.374	15606
911.489	15584
911.604	15542
911.718	15351
911.833	15397
911.947	15389
912.062	15256
912.176	15416
912.291	15481
912.405	15443
912.519	15580
912.633	15584
912.748	15538
912.862	15416
912.976	15180
913.09	15169
913.204	15272
913.318	15233
913.431	15302
913.545	15199
913.659	15275
913.772	15142
913.886	15017
914	14998
914.113	15157
914.226	15222
914.34	15066
914.453	14849
914.566	15123
914.68	14853
914.793	14929
914.906	14800
915.019	14724
915.132	14648
915.245	14686
915.358	14727
915.47	14617
915.583	14670
915.696	14724
915.809	14765
915.921	14830
916.034	14625
916.146	14549
916.259	14541
916.371	14503
916.483	14636
916.595	14461
916.708	14571
916.82	14488
916.932	14484
917.044	14530
917.156	14526
917.268	14290
917.38	14492
917.491	14267
917.603	14366
917.715	14454
917.826	14419
917.938	14355
918.049	14218
918.161	14374
918.272	14389
918.384	14381
918.495	14237
918.606	14195
918.717	14016
918.828	14092
918.939	14005
919.05	13963
919.161	13986
919.272	13868
919.383	13947
919.494	14065
919.604	14278
919.715	13986
919.826	13959
919.936	13963
920.047	14027
920.157	14100
920.267	14210
920.378	14062
920.488	14012
920.598	14214
920.708	14252
920.818	14096
920.928	14168
921.038	14267
921.148	14233
921.258	13951
921.368	13837
921.477	13753
921.587	13750
921.697	13639
921.806	13693
921.916	13525
922.025	13430
922.134	13415
922.244	13213
922.353	13449
922.462	13244
922.571	13126
922.68	13046
922.789	12973
922.898	13076
923.007	12939
923.116	12977
923.224	13027
923.333	12954
923.442	12867
923.55	12875
923.659	12779
923.767	12890
923.876	12757
923.984	12783
924.092	12722
924.201	12688
924.309	12741
924.417	12821
924.525	12627
924.633	12677
924.741	13636
924.849	12616
924.956	12753
925.064	12452
925.172	12452
925.279	12486
925.387	12437
925.494	12448
925.602	12654
925.709	12475
925.816	12414
925.924	12365
926.031	12547
926.138	12372
926.245	12422
926.352	12403
926.459	12414
926.566	12437
926.673	12273
926.779	12213
926.886	12182
926.993	12068
927.099	12072
927.206	11954
927.312	11988
927.419	12064
927.525	12057
927.631	12007
927.737	11958
927.843	11843
927.95	11741
928.056	11893
928.162	11958
928.267	11942
928.373	12471
928.479	11984
928.585	11699
928.69	11752
928.796	11908
928.901	11726
929.007	11551
929.112	11737
929.218	11764
929.323	11638
929.428	11676
929.533	11722
929.638	11497
929.743	11551
929.848	11554
929.953	11539
930.058	11440
930.163	11341
930.267	11250
930.372	11383
930.477	11227
930.581	11482
930.685	11349
930.79	11197
930.894	11162
930.998	11193
931.103	11265
931.207	10911
931.311	10801
931.415	10812
931.519	10599
931.623	10592
