Data from test_V78500241_3351.txt Node
Date: Fri Mar 25 14:57:02 CST 2022
User: usil
Spectrometer: V785-0024
Trigger mode: 0
Integration Time (sec): 4.000000E-1
Scans to average: 1
Nonlinearity correction enabled: false
Boxcar width: 0
Storing dark spectrum: false
XAxis mode: Wavelengths
Number of Pixels in Spectrum: 1024
>>>>>Begin Spectral Data<<<<<
801.071	21998
801.214	21857
801.356	21698
801.499	21652
801.641	21405
801.783	21264
801.926	21332
802.068	21252
802.211	21310
802.353	21131
802.496	20918
802.638	20902
802.78	20750
802.923	20853
803.065	20735
803.208	20670
803.35	20613
803.492	20746
803.635	20804
803.777	20663
803.919	20842
804.061	20982
804.204	20762
804.346	20590
804.488	20533
804.63	20629
804.773	20518
804.915	20579
805.057	20644
805.199	20427
805.341	20568
805.483	20640
805.626	20659
805.768	20492
805.91	20609
806.052	20648
806.194	20423
806.336	20674
806.478	20541
806.62	20511
806.762	20621
806.904	20830
807.046	21066
807.188	20872
807.33	20944
807.472	20948
807.614	20807
807.756	20857
807.898	20712
808.04	20708
808.182	20648
808.324	20575
808.465	20549
808.607	20727
808.749	20990
808.891	21135
809.033	21024
809.174	20933
809.316	20861
809.458	20834
809.6	20883
809.741	20906
809.883	20914
810.025	21089
810.166	21081
810.308	21100
810.45	20857
810.591	21020
810.733	20868
810.875	20720
811.016	20617
811.158	20488
811.299	20746
811.441	20788
811.582	20811
811.724	20735
811.865	20659
812.007	20621
812.148	20720
812.29	20819
812.431	20929
812.573	21013
812.714	21142
812.855	21112
812.997	21233
813.138	21435
813.279	21252
813.421	21195
813.562	21154
813.703	20861
813.845	20735
813.986	20499
814.127	20442
814.268	20259
814.41	20320
814.551	20221
814.692	20355
814.833	20195
814.974	20164
815.115	20164
815.256	20058
815.397	20039
815.539	20130
815.68	19917
815.821	19936
815.962	19978
816.103	19947
816.244	19780
816.385	19666
816.526	19715
816.666	19578
816.807	19396
816.948	19556
817.089	19438
817.23	19392
817.371	19358
817.512	19362
817.653	19270
817.793	19240
817.934	19346
818.075	19232
818.216	19285
818.356	19358
818.497	19198
818.638	19042
818.778	18916
818.919	19027
819.06	19038
819.2	19175
819.341	19301
819.481	19217
819.622	19369
819.762	19635
819.903	19582
820.043	19335
820.184	19308
820.324	19346
820.465	19339
820.605	19350
820.746	19198
820.886	19141
821.026	19240
821.167	19225
821.307	19434
821.447	19244
821.588	19156
821.728	19042
821.868	18928
822.008	18707
822.149	18681
822.289	18726
822.429	18521
822.569	18547
822.709	18517
822.849	18292
822.99	18239
823.13	18228
823.27	18144
823.41	18102
823.55	18034
823.69	17965
823.83	17893
823.97	17969
824.11	17805
824.25	17828
824.389	17851
824.529	17874
824.669	17786
824.809	17851
824.949	17904
825.089	17885
825.228	17764
825.368	17630
825.508	17657
825.648	17589
825.787	17600
825.927	17684
826.067	17501
826.206	17585
826.346	17608
826.485	17680
826.625	17512
826.765	17710
826.904	17627
827.044	17421
827.183	17398
827.323	17277
827.462	17379
827.601	17250
827.741	17322
827.88	17280
828.02	17189
828.159	17242
828.298	17421
828.437	17288
828.577	17239
828.716	17303
828.855	17170
828.994	17128
829.134	17056
829.273	17067
829.412	17056
829.551	16984
829.69	17071
829.829	17143
829.968	17086
830.107	17162
830.246	17079
830.385	17064
830.524	17079
830.663	16854
830.802	16694
830.941	16710
831.08	16710
831.219	16790
831.357	16675
831.496	16885
831.635	16611
831.774	16592
831.913	16554
832.051	16500
832.19	16413
832.329	16455
832.467	16284
832.606	16424
832.744	16291
832.883	16265
833.022	16314
833.16	16516
833.299	16489
833.437	16329
833.576	16333
833.714	16417
833.852	16360
833.991	16428
834.129	16508
834.267	16535
834.406	16443
834.544	16493
834.682	16447
834.821	16382
834.959	16573
835.097	16390
835.235	16504
835.373	16402
835.511	16440
835.65	16375
835.788	16398
835.926	16177
836.064	16059
836.202	16299
836.34	16276
836.478	16421
836.615	16318
836.753	16409
836.891	16470
837.029	16360
837.167	16299
837.305	16375
837.443	16204
837.58	16207
837.718	16318
837.856	16223
837.993	16185
838.131	16246
838.269	16185
838.406	16147
838.544	16078
838.681	16010
838.819	15915
838.956	15808
839.094	15728
839.231	15823
839.369	16010
839.506	16154
839.643	15968
839.781	15739
839.918	15747
840.055	15785
840.193	15793
840.33	15747
840.467	15789
840.604	15884
840.742	16021
840.879	15614
841.016	15812
841.153	15728
841.29	15922
841.427	15770
841.564	15781
841.701	15857
841.838	15656
841.975	15728
842.112	15743
842.249	15564
842.385	15496
842.522	15728
842.659	15549
842.796	15580
842.933	15530
843.069	15542
843.206	15542
843.343	15538
843.479	15625
843.616	15568
843.752	15370
843.889	15412
844.025	15572
844.162	15329
844.298	15481
844.435	15260
844.571	15176
844.708	15325
844.844	15545
844.98	15530
845.117	15405
845.253	15332
845.389	15218
845.525	15291
845.661	15336
845.798	15108
845.934	15169
846.07	14990
846.206	15131
846.342	15291
846.478	15173
846.614	15013
846.75	15085
846.886	14941
847.022	14975
847.158	14895
847.294	14925
847.429	14952
847.565	14906
847.701	15264
847.837	14648
847.972	14636
848.108	14708
848.244	14746
848.379	14442
848.515	14571
848.65	14575
848.786	14465
848.921	14511
849.057	14644
849.192	14663
849.328	14488
849.463	14575
849.598	14461
849.734	14404
849.869	14461
850.004	14271
850.14	14320
850.275	14233
850.41	14206
850.545	14271
850.68	14259
850.815	14324
850.95	14263
851.085	14461
851.22	14298
851.355	14305
851.49	14214
851.625	14191
851.76	14187
851.895	14126
852.03	14275
852.165	14252
852.299	14313
852.434	14393
852.569	14286
852.703	14366
852.838	14355
852.973	14370
853.107	14336
853.242	14290
853.376	14252
853.511	14073
853.645	14115
853.78	14290
853.914	14153
854.048	14134
854.183	14138
854.317	14077
854.451	14313
854.585	14046
854.72	14115
854.854	14149
854.988	14088
855.122	14138
855.256	13963
855.39	14111
855.524	14256
855.658	14225
855.792	14153
855.926	14195
856.06	14225
856.194	14290
856.327	14096
856.461	14134
856.595	14024
856.729	14164
856.862	14206
856.996	14157
857.13	14214
857.263	14248
857.397	14332
857.53	14221
857.664	14282
857.797	14294
857.931	14195
858.064	14157
858.197	14195
858.331	14096
858.464	14195
858.597	14016
858.731	14149
858.864	14180
858.997	14119
859.13	14123
859.263	14191
859.396	14225
859.529	14153
859.662	14199
859.795	14096
859.928	14103
860.061	14362
860.194	14294
860.327	14210
860.46	14183
860.592	14263
860.725	14191
860.858	14362
860.99	14176
861.123	14020
861.256	14084
861.388	14134
861.521	14948
861.653	14005
861.786	13955
861.918	14027
862.05	14001
862.183	14123
862.315	14107
862.447	14195
862.58	14081
862.712	13925
862.844	13871
862.976	13967
863.108	13940
863.24	14263
863.372	13906
863.504	14008
863.636	13887
863.768	13947
863.9	13951
864.032	13761
864.164	13807
864.296	13970
864.428	14107
864.559	14062
864.691	14016
864.823	14046
864.954	14031
865.086	13967
865.217	13811
865.349	13913
865.48	13890
865.612	13894
865.743	14107
865.875	13936
866.006	13845
866.137	14039
866.269	13913
866.4	13940
866.531	13833
866.662	13909
866.793	13826
866.924	13936
867.055	13856
867.186	13902
867.317	13959
867.448	13887
867.579	13856
867.71	13780
867.841	13761
867.972	13902
868.103	13906
868.233	13883
868.364	13875
868.495	14035
868.625	14142
868.756	14187
868.886	14073
869.017	14199
869.147	14286
869.278	14157
869.408	14138
869.539	14172
869.669	14157
869.799	14244
869.929	14286
870.06	14393
870.19	14461
870.32	14556
870.45	14381
870.58	14568
870.71	14674
870.84	14644
870.97	14590
871.1	14590
871.23	14697
871.36	14769
871.489	14640
871.619	14807
871.749	14663
871.879	14838
872.008	14921
872.138	14762
872.267	14796
872.397	14678
872.526	14598
872.656	14518
872.785	14602
872.915	14861
873.044	14819
873.173	14792
873.303	14853
873.432	14804
873.561	14944
873.69	14804
873.819	14739
873.948	14963
874.077	14845
874.206	14785
874.335	14815
874.464	15001
874.593	15074
874.722	15043
874.851	15169
874.979	15150
875.108	15207
875.237	15131
875.365	15028
875.494	15074
875.623	15237
875.751	15097
875.88	15199
876.008	15336
876.136	15306
876.265	15515
876.393	15690
876.521	15599
876.65	15709
876.778	15584
876.906	15545
877.034	15504
877.162	15469
877.29	15553
877.418	15580
877.546	15485
877.674	15526
877.802	15538
877.93	15496
878.058	15542
878.185	15561
878.313	15587
878.441	15587
878.568	15386
878.696	15420
878.824	15504
878.951	15603
879.079	15667
879.206	15831
879.333	15816
879.461	15591
879.588	15660
879.715	15713
879.842	15819
879.97	15637
880.097	15443
880.224	15363
880.351	15542
880.478	15408
880.605	15408
880.732	15348
880.859	15584
880.986	15401
881.112	15355
881.239	15294
881.366	15169
881.493	15077
881.619	14990
881.746	15070
881.872	15104
881.999	15020
882.125	15051
882.252	15028
882.378	15043
882.505	15279
882.631	15032
882.757	14902
882.883	14963
883.01	14941
883.136	14785
883.262	14750
883.388	14746
883.514	14868
883.64	14979
883.766	14830
883.892	14583
884.018	14777
884.143	14883
884.269	14929
884.395	14575
884.52	14651
884.646	14579
884.772	14499
884.897	14457
885.023	14590
885.148	14686
885.274	14743
885.399	14727
885.524	14625
885.65	14564
885.775	14659
885.9	14530
886.025	14655
886.15	14697
886.275	14587
886.4	14533
886.525	14587
886.65	14507
886.775	14446
886.9	14682
887.025	14845
887.149	14655
887.274	14431
887.399	14328
887.523	14347
887.648	14389
887.773	14278
887.897	14522
888.021	14480
888.146	14339
888.27	14545
888.395	14518
888.519	14499
888.643	14457
888.767	14507
888.891	14286
889.015	14358
889.139	14275
889.263	14278
889.387	14343
889.511	14476
889.635	14396
889.759	14263
889.883	14301
890.006	14351
890.13	14393
890.254	14240
890.377	14237
890.501	14043
890.624	14035
890.748	14119
890.871	14088
890.995	13951
891.118	13799
891.241	13967
891.364	13947
891.488	14081
891.611	14035
891.734	13963
891.857	14065
891.98	14039
892.103	14031
892.226	14020
892.349	13928
892.471	13788
892.594	13940
892.717	13951
892.839	13925
892.962	13970
893.085	14081
893.207	13944
893.33	13883
893.452	13947
893.575	14054
893.697	13963
893.819	14111
893.941	14210
894.064	14210
894.186	13894
894.308	14001
894.43	14123
894.552	14278
894.674	14191
894.796	14039
894.918	14024
895.04	13955
895.161	14206
895.283	14069
895.405	13936
895.526	14153
895.648	14103
895.769	14081
895.891	14115
896.012	14183
896.134	14180
896.255	14168
896.376	14149
896.498	14183
896.619	14225
896.74	14202
896.861	14256
896.982	14518
897.103	14670
897.224	14495
897.345	14400
897.466	14355
897.587	14442
897.708	14549
897.828	14446
897.949	14336
898.07	14256
898.19	14404
898.311	14522
898.431	14488
898.552	14613
898.672	14579
898.792	14613
898.913	14629
899.033	14499
899.153	14347
899.273	14286
899.393	14355
899.513	14377
899.633	14328
899.753	14381
899.873	14221
899.993	14412
900.113	14396
900.232	14419
900.352	14313
900.472	14221
900.591	14298
900.711	14233
900.83	14157
900.95	14294
901.069	14381
901.189	14130
901.308	13936
901.427	13841
901.546	13883
901.665	13909
901.784	13928
901.904	13769
902.023	13753
902.141	13609
902.26	13575
902.379	13571
902.498	13381
902.617	13407
902.735	13575
902.854	13365
902.973	13419
903.091	13213
903.21	13168
903.328	13240
903.446	13145
903.565	12947
903.683	13042
903.801	12935
903.919	12996
904.038	13027
904.156	12795
904.274	12973
904.392	12852
904.51	12817
904.627	12814
904.745	12894
904.863	12935
904.981	12574
905.098	12532
905.216	12612
905.334	12471
905.451	12582
905.569	12574
905.686	12631
905.803	12566
905.921	12376
906.038	12525
906.155	12399
906.272	12251
906.389	12277
906.506	12175
906.623	12213
906.74	12129
906.857	12133
906.974	11969
907.091	12235
907.208	12296
907.324	12148
907.441	12041
907.557	11878
907.674	11901
907.79	11798
907.907	11882
908.023	11843
908.139	11840
908.256	11767
908.372	11885
908.488	11745
908.604	11676
908.72	11688
908.836	11703
908.952	11672
909.068	11691
909.184	11771
909.3	11623
909.415	11653
909.531	11707
909.647	11425
909.762	11459
909.878	11402
909.993	11372
910.108	11440
910.224	11414
910.339	11387
910.454	11349
910.57	11292
910.685	11284
910.8	11459
910.915	11360
911.03	11303
911.145	11014
911.259	11189
911.374	11113
911.489	11090
911.604	11060
911.718	10854
911.833	10908
911.947	10759
912.062	10687
912.176	10835
912.291	10961
912.405	10835
912.519	11147
912.633	11067
912.748	10984
912.862	10850
912.976	10790
913.09	10691
913.204	10790
913.318	10763
913.431	10862
913.545	10831
913.659	10942
913.772	10668
913.886	10641
914	10717
914.113	10736
914.226	10755
914.34	10736
914.453	10588
914.566	10721
914.68	10645
914.793	10584
914.906	10462
915.019	10337
915.132	10344
915.245	10443
915.358	10413
915.47	10440
915.583	10402
915.696	10485
915.809	10569
915.921	10565
916.034	10379
916.146	10341
916.259	10333
916.371	10413
916.483	10405
916.595	10276
916.708	10299
916.82	10333
916.932	10291
917.044	10329
917.156	10352
917.268	10196
917.38	10246
917.491	10192
917.603	10196
917.715	10394
917.826	10379
917.938	10249
918.049	10135
918.161	10299
918.272	10459
918.384	10386
918.495	10192
918.606	10150
918.717	10017
918.828	10162
918.939	10139
919.05	10093
919.161	10051
919.272	9937
919.383	10036
919.494	10135
919.604	10382
919.715	10120
919.826	10040
919.936	10181
920.047	10154
920.157	10105
920.267	10341
920.378	10135
920.488	10166
920.598	10257
920.708	10546
920.818	10280
920.928	10284
921.038	10493
921.148	10466
921.258	10185
921.368	10120
921.477	9994
921.587	9945
921.697	9880
921.806	10078
921.916	9850
922.025	9747
922.134	9682
922.244	9648
922.353	9743
922.462	9667
922.571	9618
922.68	9386
922.789	9397
922.898	9412
923.007	9302
923.116	9439
923.224	9329
923.333	9313
923.442	9279
923.55	9256
923.659	9329
923.767	9332
923.876	9283
923.984	9348
924.092	9237
924.201	9253
924.309	9306
924.417	9310
924.525	9268
924.633	9222
924.741	10150
924.849	9074
924.956	9241
925.064	9119
925.172	9017
925.279	9032
925.387	9032
925.494	9089
925.602	9150
925.709	9127
925.816	9036
925.924	9112
926.031	9070
926.138	9055
926.245	9127
926.352	8975
926.459	9112
926.566	9226
926.673	8963
926.779	8883
926.886	8834
926.993	8750
927.099	8811
927.206	8746
927.312	8773
927.419	8872
927.525	8838
927.631	8807
927.737	8693
927.843	8693
927.95	8590
928.056	8590
928.162	8674
928.267	8697
928.373	9367
928.479	8781
928.585	8537
928.69	8678
928.796	8766
928.901	8549
929.007	8480
929.112	8495
929.218	8533
929.323	8484
929.428	8503
929.533	8606
929.638	8434
929.743	8473
929.848	8526
929.953	8450
930.058	8427
930.163	8298
930.267	8263
930.372	8434
930.477	8221
930.581	8457
930.685	8309
930.79	8237
930.894	8294
930.998	8084
931.103	8358
931.207	8016
931.311	7982
931.415	7890
931.519	7689
931.623	7742
