Data from test_V78500241_412.txt Node
Date: Fri Mar 25 14:36:35 CST 2022
User: usil
Spectrometer: V785-0024
Trigger mode: 0
Integration Time (sec): 4.000000E-1
Scans to average: 1
Nonlinearity correction enabled: false
Boxcar width: 0
Storing dark spectrum: false
XAxis mode: Wavelengths
Number of Pixels in Spectrum: 1024
>>>>>Begin Spectral Data<<<<<
801.071	26705
801.214	26594
801.356	26396
801.499	26122
801.641	26100
801.783	25997
801.926	26039
802.068	25974
802.211	25982
802.353	25890
802.496	25689
802.638	25586
802.78	25753
802.923	25772
803.065	25575
803.208	25479
803.35	25651
803.492	25700
803.635	25727
803.777	25613
803.919	25738
804.061	25932
804.204	25772
804.346	25438
804.488	25601
804.63	25628
804.773	25479
804.915	25605
805.057	25590
805.199	25556
805.341	25590
805.483	25788
805.626	25742
805.768	25491
805.91	25502
806.052	25693
806.194	25518
806.336	25898
806.478	25719
806.62	25639
806.762	25807
806.904	25860
807.046	26043
807.188	26043
807.33	26039
807.472	26050
807.614	25871
807.756	25898
807.898	25799
808.04	25704
808.182	25670
808.324	25769
808.465	25814
808.607	25959
808.749	26012
808.891	26107
809.033	26305
809.174	26206
809.316	26077
809.458	26195
809.6	26134
809.741	26035
809.883	26096
810.025	26290
810.166	26218
810.308	26282
810.45	26180
810.591	26229
810.733	26062
810.875	26020
811.016	26016
811.158	25765
811.299	26069
811.441	26046
811.582	26157
811.724	25925
811.865	26005
812.007	26008
812.148	25947
812.29	25913
812.431	26062
812.573	26214
812.714	26252
812.855	26492
812.997	26453
813.138	26648
813.279	26583
813.421	26484
813.562	26442
813.703	26256
813.845	26134
813.986	25677
814.127	25643
814.268	25590
814.41	25620
814.551	25510
814.692	25571
814.833	25521
814.974	25460
815.115	25419
815.256	25343
815.397	25369
815.539	25388
815.68	25209
815.821	25118
815.962	25217
816.103	25110
816.244	25061
816.385	24958
816.526	24935
816.666	24783
816.807	24654
816.948	24673
817.089	24833
817.23	24544
817.371	24715
817.512	24658
817.653	24734
817.793	24585
817.934	24654
818.075	24593
818.216	24574
818.356	24703
818.497	24566
818.638	24327
818.778	24311
818.919	24555
819.06	24372
819.2	24437
819.341	24555
819.481	24464
819.622	24677
819.762	24951
819.903	24779
820.043	24719
820.184	24589
820.324	24601
820.465	24665
820.605	24582
820.746	24635
820.886	24460
821.026	24631
821.167	24608
821.307	24677
821.447	24547
821.588	24399
821.728	24327
821.868	24083
822.008	24087
822.149	24018
822.289	23893
822.429	23767
822.569	23653
822.709	23592
822.849	23501
822.99	23592
823.13	23463
823.27	23448
823.41	23265
823.55	23102
823.69	23311
823.83	23117
823.97	23159
824.11	22957
824.25	22942
824.389	22976
824.529	23048
824.669	22919
824.809	23071
824.949	23102
825.089	23075
825.228	23079
825.368	22919
825.508	22721
825.648	22927
825.787	22919
825.927	22862
826.067	22759
826.206	22790
826.346	22835
826.485	22816
826.625	22801
826.765	22881
826.904	22839
827.044	22584
827.183	22424
827.323	22470
827.462	22527
827.601	22478
827.741	22481
827.88	22405
828.02	22440
828.159	22390
828.298	22527
828.437	22527
828.577	22485
828.716	22592
828.855	22402
828.994	22124
829.134	22185
829.273	22185
829.412	22131
829.551	22246
829.69	22169
829.829	22185
829.968	22112
830.107	22291
830.246	22169
830.385	22048
830.524	22055
830.663	21972
830.802	21861
830.941	21747
831.08	21739
831.219	21838
831.357	21747
831.496	22040
831.635	21739
831.774	21785
831.913	21622
832.051	21496
832.19	21564
832.329	21545
832.467	21412
832.606	21378
832.744	21431
832.883	21454
833.022	21268
833.16	21447
833.299	21564
833.437	21450
833.576	21424
833.714	21454
833.852	21408
833.991	21336
834.129	21443
834.267	21500
834.406	21454
834.544	21473
834.682	21363
834.821	21264
834.959	21469
835.097	21416
835.235	21549
835.373	21378
835.511	21355
835.65	21260
835.788	21256
835.926	21123
836.064	21138
836.202	21039
836.34	21237
836.478	21336
836.615	21188
836.753	21260
836.891	21344
837.029	21260
837.167	21283
837.305	21119
837.443	21188
837.58	21028
837.718	21218
837.856	21119
837.993	20982
838.131	21036
838.269	21001
838.406	21093
838.544	20815
838.681	20773
838.819	20701
838.956	20499
839.094	20568
839.231	20644
839.369	20731
839.506	20857
839.643	20857
839.781	20518
839.918	20427
840.055	20499
840.193	20541
840.33	20404
840.467	20484
840.604	20495
840.742	20819
840.879	20412
841.016	20385
841.153	20389
841.29	20602
841.427	20545
841.564	20431
841.701	20522
841.838	20427
841.975	20328
842.112	20355
842.249	20305
842.385	20278
842.522	20415
842.659	20164
842.796	20130
842.933	20096
843.069	20084
843.206	20084
843.343	20282
843.479	20267
843.616	20218
843.752	20084
843.889	20043
844.025	20100
844.162	19898
844.298	20081
844.435	19921
844.571	19837
844.708	19997
844.844	20088
844.98	20115
845.117	20027
845.253	19879
845.389	19761
845.525	19799
845.661	19940
845.798	19753
845.934	19753
846.07	19651
846.206	19795
846.342	19830
846.478	19605
846.614	19445
846.75	19419
846.886	19289
847.022	19506
847.158	19525
847.294	19476
847.429	19518
847.565	19422
847.701	19609
847.837	19080
847.972	19168
848.108	19206
848.244	19232
848.379	18890
848.515	19012
848.65	18863
848.786	19008
848.921	18947
849.057	19034
849.192	19088
849.328	18962
849.463	19034
849.598	18760
849.734	18913
849.869	18886
850.004	18654
850.14	18878
850.275	18734
850.41	18730
850.545	18654
850.68	18757
850.815	18623
850.95	18802
851.085	18897
851.22	18783
851.355	18650
851.49	18764
851.625	18646
851.76	18700
851.895	18582
852.03	18604
852.165	18707
852.299	18661
852.434	18715
852.569	18753
852.703	18555
852.838	18738
852.973	18806
853.107	18806
853.242	18623
853.376	18528
853.511	18399
853.645	18456
853.78	18623
853.914	18528
854.048	18441
854.183	18460
854.317	18566
854.451	18661
854.585	18559
854.72	18456
854.854	18589
854.988	18380
855.122	18639
855.256	18464
855.39	18597
855.524	18574
855.658	18646
855.792	18445
855.926	18547
856.06	18407
856.194	18692
856.327	18620
856.461	18547
856.595	18464
856.729	18448
856.862	18597
856.996	18521
857.13	18582
857.263	18608
857.397	18559
857.53	18566
857.664	18540
857.797	18525
857.931	18502
858.064	18506
858.197	18593
858.331	18437
858.464	18525
858.597	18254
858.731	18388
858.864	18353
858.997	18604
859.13	18448
859.263	18498
859.396	18642
859.529	18414
859.662	18319
859.795	18422
859.928	18414
860.061	18597
860.194	18639
860.327	18369
860.46	18338
860.592	18570
860.725	18627
860.858	18513
860.99	18509
861.123	18338
861.256	18391
861.388	18395
861.521	19244
861.653	18388
861.786	18224
861.918	18281
862.05	18388
862.183	18486
862.315	18467
862.447	18574
862.58	18441
862.712	18273
862.844	18121
862.976	18235
863.108	18281
863.24	18502
863.372	18091
863.504	18178
863.636	18167
863.768	18129
863.9	18121
864.032	18049
864.164	18034
864.296	18098
864.428	18235
864.559	18277
864.691	18209
864.823	18205
864.954	18129
865.086	18174
865.217	18034
865.349	17992
865.48	18102
865.612	18133
865.743	18251
865.875	18087
866.006	18026
866.137	18144
866.269	18087
866.4	18098
866.531	18068
866.662	18007
866.793	17946
866.924	18041
867.055	18155
867.186	18038
867.317	18060
867.448	17927
867.579	17965
867.71	17939
867.841	18015
867.972	17980
868.103	18022
868.233	18110
868.364	18026
868.495	18144
868.625	18197
868.756	18277
868.886	18213
869.017	18247
869.147	18346
869.278	18388
869.408	18308
869.539	18186
869.669	18357
869.799	18319
869.929	18311
870.06	18418
870.19	18532
870.32	18635
870.45	18658
870.58	18563
870.71	18665
870.84	18776
870.97	18684
871.1	18684
871.23	18779
871.36	18894
871.489	18677
871.619	18776
871.749	18810
871.879	18958
872.008	18928
872.138	18882
872.267	18791
872.397	18635
872.526	18814
872.656	18688
872.785	18631
872.915	18943
873.044	19012
873.173	18859
873.303	18977
873.432	18856
873.561	19012
873.69	18981
873.819	18882
873.948	18977
874.077	18958
874.206	18802
874.335	18867
874.464	19122
874.593	19118
874.722	19057
874.851	19183
874.979	19171
875.108	19263
875.237	19103
875.365	19168
875.494	19171
875.623	19175
875.751	19179
875.88	19209
876.008	19278
876.136	19316
876.265	19552
876.393	19734
876.521	19590
876.65	19552
876.778	19563
876.906	19586
877.034	19457
877.162	19537
877.29	19468
877.418	19620
877.546	19540
877.674	19491
877.802	19540
877.93	19544
878.058	19518
878.185	19483
878.313	19575
878.441	19521
878.568	19441
878.696	19324
878.824	19529
878.951	19655
879.079	19681
879.206	19909
879.333	19761
879.461	19628
879.588	19639
879.715	19799
879.842	19845
879.97	19605
880.097	19514
880.224	19411
880.351	19460
880.478	19468
880.605	19365
880.732	19464
880.859	19681
880.986	19335
881.112	19358
881.239	19301
881.366	19133
881.493	19126
881.619	18954
881.746	19072
881.872	19069
881.999	19027
882.125	19008
882.252	18985
882.378	19148
882.505	19148
882.631	18947
882.757	18700
882.883	18966
883.01	18776
883.136	18745
883.262	18696
883.388	18681
883.514	18806
883.64	18837
883.766	18692
883.892	18574
884.018	18639
884.143	18669
884.269	18779
884.395	18563
884.52	18353
884.646	18429
884.772	18338
884.897	18319
885.023	18422
885.148	18532
885.274	18597
885.399	18616
885.524	18399
885.65	18391
885.775	18464
885.9	18464
886.025	18593
886.15	18418
886.275	18273
886.4	18414
886.525	18445
886.65	18277
886.775	18388
886.9	18525
887.025	18631
887.149	18369
887.274	18201
887.399	18205
887.523	18102
887.648	18163
887.773	18076
887.897	18251
888.021	18292
888.146	18171
888.27	18273
888.395	18327
888.519	18270
888.643	18277
888.767	18266
888.891	18167
889.015	18038
889.139	18015
889.263	18060
889.387	18159
889.511	18327
889.635	18228
889.759	17996
889.883	17931
890.006	17980
890.13	18152
890.254	17939
890.377	17977
890.501	17752
890.624	17817
890.748	17863
890.871	17714
890.995	17630
891.118	17619
891.241	17680
891.364	17665
891.488	17889
891.611	17680
891.734	17653
891.857	17756
891.98	17630
892.103	17649
892.226	17649
892.349	17524
892.471	17482
892.594	17524
892.717	17551
892.839	17509
892.962	17566
893.085	17684
893.207	17589
893.33	17406
893.452	17497
893.575	17589
893.697	17551
893.819	17805
893.941	17764
894.064	17707
894.186	17535
894.308	17558
894.43	17608
894.552	17748
894.674	17668
894.796	17421
894.918	17524
895.04	17615
895.161	17672
895.283	17634
895.405	17501
895.526	17611
895.648	17562
895.769	17589
895.891	17634
896.012	17836
896.134	17760
896.255	17703
896.376	17649
896.498	17680
896.619	17687
896.74	17657
896.861	17726
896.982	17988
897.103	18114
897.224	17889
897.345	17878
897.466	17920
897.587	17836
897.708	18049
897.828	17984
897.949	17859
898.07	17748
898.19	17878
898.311	17942
898.431	17954
898.552	17950
898.672	17958
898.792	18026
898.913	17885
899.033	17824
899.153	17718
899.273	17623
899.393	17798
899.513	17710
899.633	17638
899.753	17745
899.873	17722
899.993	17733
900.113	17680
900.232	17581
900.352	17589
900.472	17512
900.591	17478
900.711	17512
900.83	17455
900.95	17581
901.069	17539
901.189	17516
901.308	17258
901.427	17060
901.546	17143
901.665	17162
901.784	17098
901.904	17094
902.023	17003
902.141	16717
902.26	16740
902.379	16706
902.498	16588
902.617	16474
902.735	16694
902.854	16634
902.973	16573
903.091	16428
903.21	16295
903.328	16322
903.446	16215
903.565	16147
903.683	16181
903.801	16090
903.919	16249
904.038	16059
904.156	15895
904.274	15983
904.392	15869
904.51	16002
904.627	16017
904.745	15930
904.863	16044
904.981	15789
905.098	15557
905.216	15584
905.334	15759
905.451	15572
905.569	15652
905.686	15667
905.803	15599
905.921	15439
906.038	15519
906.155	15462
906.272	15291
906.389	15351
906.506	15112
906.623	15173
906.74	15245
906.857	15028
906.974	15047
907.091	15119
907.208	15230
907.324	15218
907.441	15074
907.557	14960
907.674	14952
907.79	14807
907.907	14769
908.023	14804
908.139	14819
908.256	14735
908.372	14701
908.488	14750
908.604	14640
908.72	14511
908.836	14629
908.952	14492
909.068	14663
909.184	14682
909.3	14587
909.415	14575
909.531	14537
909.647	14358
909.762	14317
909.878	14225
909.993	14298
910.108	14263
910.224	14206
910.339	14263
910.454	14149
910.57	14065
910.685	14043
910.8	14328
910.915	14199
911.03	14115
911.145	13928
911.259	13871
911.374	13955
911.489	13871
911.604	13772
911.718	13753
911.833	13674
911.947	13575
912.062	13525
912.176	13719
912.291	13628
912.405	13734
912.519	13837
912.633	13765
912.748	13731
912.862	13540
912.976	13502
913.09	13388
913.204	13480
913.318	13491
913.431	13681
913.545	13586
913.659	13666
913.772	13510
913.886	13419
914	13350
914.113	13495
914.226	13472
914.34	13426
914.453	13228
914.566	13426
914.68	13293
914.793	13304
914.906	13095
915.019	12962
915.132	13012
915.245	12977
915.358	13000
915.47	13015
915.583	13008
915.696	13019
915.809	13069
915.921	13091
916.034	13000
916.146	12871
916.259	12798
916.371	12951
916.483	12993
916.595	12875
916.708	12897
916.82	13000
916.932	12966
917.044	12871
917.156	12738
917.268	12745
917.38	12738
917.491	12692
917.603	12696
917.715	12825
917.826	12810
917.938	12768
918.049	12650
918.161	12673
918.272	12738
918.384	12825
918.495	12631
918.606	12589
918.717	12513
918.828	12517
918.939	12513
919.05	12456
919.161	12528
919.272	12228
919.383	12388
919.494	12506
919.604	12753
919.715	12544
919.826	12460
919.936	12521
920.047	12517
920.157	12475
920.267	12654
920.378	12490
920.488	12471
920.598	12650
920.708	12802
920.818	12612
920.928	12673
921.038	12894
921.148	12734
921.258	12445
921.368	12403
921.477	12334
921.587	12239
921.697	12034
921.806	12285
921.916	12175
922.025	12072
922.134	12011
922.244	11942
922.353	11969
922.462	11851
922.571	11798
922.68	11684
922.789	11672
922.898	11646
923.007	11512
923.116	11695
923.224	11646
923.333	11482
923.442	11493
923.55	11459
923.659	11493
923.767	11551
923.876	11417
923.984	11547
924.092	11326
924.201	11436
924.309	11383
924.417	11425
924.525	11463
924.633	11349
924.741	12266
924.849	11147
924.956	11250
925.064	11166
925.172	11098
925.279	11071
925.387	11128
925.494	11140
925.602	11231
925.709	11227
925.816	11067
925.924	11048
926.031	11204
926.138	11121
926.245	11109
926.352	11025
926.459	11151
926.566	11155
926.673	10965
926.779	11018
926.886	10942
926.993	10782
927.099	10843
927.206	10714
927.312	10710
927.419	10790
927.525	10790
927.631	10797
927.737	10679
927.843	10664
927.95	10561
928.056	10618
928.162	10649
928.267	10698
928.373	11326
928.479	10691
928.585	10485
928.69	10637
928.796	10668
928.901	10489
929.007	10394
929.112	10504
929.218	10405
929.323	10432
929.428	10360
929.533	10421
929.638	10363
929.743	10390
929.848	10382
929.953	10398
930.058	10230
930.163	10154
930.267	10116
930.372	10234
930.477	10010
930.581	10268
930.685	10150
930.79	9964
930.894	10002
930.998	10036
931.103	10139
931.207	9728
931.311	9690
931.415	9652
931.519	9405
931.623	9450
