Data from test_V78500241_2330.txt Node
Date: Fri Mar 25 14:49:56 CST 2022
User: usil
Spectrometer: V785-0024
Trigger mode: 0
Integration Time (sec): 4.000000E-1
Scans to average: 1
Nonlinearity correction enabled: false
Boxcar width: 0
Storing dark spectrum: false
XAxis mode: Wavelengths
Number of Pixels in Spectrum: 1024
>>>>>Begin Spectral Data<<<<<
801.071	22238
801.214	22025
801.356	21812
801.499	21743
801.641	21526
801.783	21633
801.926	21637
802.068	21458
802.211	21439
802.353	21184
802.496	21055
802.638	21020
802.78	21043
802.923	21013
803.065	20982
803.208	20773
803.35	20834
803.492	20990
803.635	20918
803.777	20845
803.919	20952
804.061	21241
804.204	20937
804.346	20781
804.488	20781
804.63	20788
804.773	20686
804.915	20815
805.057	20952
805.199	20648
805.341	20800
805.483	20918
805.626	20845
805.768	20663
805.91	20834
806.052	20826
806.194	20754
806.336	20902
806.478	20754
806.62	20724
806.762	20948
806.904	21089
807.046	21279
807.188	21077
807.33	21028
807.472	21195
807.614	20971
807.756	21039
807.898	20880
808.04	20876
808.182	20910
808.324	20918
808.465	21009
808.607	21096
808.749	21218
808.891	21389
809.033	21386
809.174	21245
809.316	21131
809.458	21157
809.6	21135
809.741	21218
809.883	21241
810.025	21374
810.166	21310
810.308	21237
810.45	21287
810.591	21123
810.733	21096
810.875	20876
811.016	20819
811.158	20830
811.299	20986
811.441	21112
811.582	21062
811.724	21024
811.865	20925
812.007	20956
812.148	20910
812.29	21001
812.431	21116
812.573	21291
812.714	21458
812.855	21458
812.997	21580
813.138	21660
813.279	21481
813.421	21408
813.562	21256
813.703	21135
813.845	21066
813.986	20701
814.127	20648
814.268	20583
814.41	20549
814.551	20461
814.692	20465
814.833	20381
814.974	20442
815.115	20518
815.256	20286
815.397	20298
815.539	20362
815.68	20202
815.821	20161
815.962	20271
816.103	20130
816.244	20107
816.385	19913
816.526	19925
816.666	19693
816.807	19670
816.948	19681
817.089	19670
817.23	19670
817.371	19647
817.512	19601
817.653	19499
817.793	19624
817.934	19609
818.075	19784
818.216	19643
818.356	19563
818.497	19514
818.638	19225
818.778	19282
818.919	19316
819.06	19373
819.2	19487
819.341	19438
819.481	19594
819.622	19628
819.762	19841
819.903	19647
820.043	19681
820.184	19685
820.324	19601
820.465	19693
820.605	19674
820.746	19567
820.886	19430
821.026	19495
821.167	19476
821.307	19609
821.447	19480
821.588	19373
821.728	19289
821.868	19247
822.008	19023
822.149	19057
822.289	18909
822.429	18707
822.569	18726
822.709	18814
822.849	18513
822.99	18540
823.13	18555
823.27	18448
823.41	18304
823.55	18273
823.69	18334
823.83	18346
823.97	18205
824.11	18030
824.25	18091
824.389	18049
824.529	18209
824.669	18117
824.809	18163
824.949	18190
825.089	18197
825.228	18053
825.368	17874
825.508	17817
825.648	17882
825.787	17946
825.927	17935
826.067	17863
826.206	17908
826.346	17847
826.485	17912
826.625	17878
826.765	17999
826.904	17760
827.044	17592
827.183	17608
827.323	17562
827.462	17687
827.601	17501
827.741	17570
827.88	17558
828.02	17482
828.159	17509
828.298	17539
828.437	17634
828.577	17520
828.716	17718
828.855	17532
828.994	17315
829.134	17269
829.273	17364
829.412	17254
829.551	17216
829.69	17200
829.829	17360
829.968	17448
830.107	17353
830.246	17379
830.385	17250
830.524	17109
830.663	17086
830.802	17075
830.941	16968
831.08	16934
831.219	16999
831.357	16976
831.496	17178
831.635	17022
831.774	16900
831.913	16835
832.051	16698
832.19	16679
832.329	16694
832.467	16550
832.606	16584
832.744	16519
832.883	16592
833.022	16584
833.16	16512
833.299	16603
833.437	16592
833.576	16645
833.714	16531
833.852	16656
833.991	16622
834.129	16653
834.267	16748
834.406	16675
834.544	16611
834.682	16668
834.821	16516
834.959	16752
835.097	16531
835.235	16725
835.373	16668
835.511	16668
835.65	16675
835.788	16573
835.926	16436
836.064	16398
836.202	16409
836.34	16588
836.478	16656
836.615	16538
836.753	16542
836.891	16577
837.029	16546
837.167	16493
837.305	16474
837.443	16394
837.58	16329
837.718	16535
837.856	16447
837.993	16386
838.131	16447
838.269	16272
838.406	16306
838.544	16219
838.681	16131
838.819	16059
838.956	15915
839.094	15922
839.231	15880
839.369	16040
839.506	16394
839.643	16204
839.781	15857
839.918	15880
840.055	15888
840.193	15823
840.33	15911
840.467	15823
840.604	15968
840.742	16166
840.879	15838
841.016	15857
841.153	15732
841.29	16109
841.427	16013
841.564	15911
841.701	15979
841.838	15930
841.975	15930
842.112	15865
842.249	15827
842.385	15610
842.522	15854
842.659	15755
842.796	15682
842.933	15671
843.069	15762
843.206	15736
843.343	15682
843.479	15728
843.616	15694
843.752	15488
843.889	15606
844.025	15660
844.162	15496
844.298	15660
844.435	15530
844.571	15416
844.708	15568
844.844	15701
844.98	15667
845.117	15496
845.253	15530
845.389	15447
845.525	15450
845.661	15336
845.798	15310
845.934	15298
846.07	15245
846.206	15359
846.342	15428
846.478	15310
846.614	15074
846.75	15017
846.886	15028
847.022	15222
847.158	15074
847.294	15055
847.429	15093
847.565	15066
847.701	15351
847.837	14902
847.972	14788
848.108	14845
848.244	14823
848.379	14746
848.515	14705
848.65	14689
848.786	14674
848.921	14682
849.057	14883
849.192	14811
849.328	14655
849.463	14792
849.598	14705
849.734	14568
849.869	14549
850.004	14476
850.14	14461
850.275	14412
850.41	14355
850.545	14366
850.68	14339
850.815	14454
850.95	14427
851.085	14689
851.22	14549
851.355	14431
851.49	14450
851.625	14366
851.76	14366
851.895	14332
852.03	14275
852.165	14374
852.299	14419
852.434	14511
852.569	14560
852.703	14434
852.838	14533
852.973	14568
853.107	14579
853.242	14423
853.376	14332
853.511	14100
853.645	14221
853.78	14408
853.914	14328
854.048	14218
854.183	14317
854.317	14298
854.451	14541
854.585	14267
854.72	14286
854.854	14385
854.988	14351
855.122	14240
855.256	14134
855.39	14210
855.524	14355
855.658	14275
855.792	14362
855.926	14313
856.06	14499
856.194	14362
856.327	14320
856.461	14290
856.595	14298
856.729	14290
856.862	14385
856.996	14343
857.13	14473
857.263	14396
857.397	14381
857.53	14328
857.664	14389
857.797	14415
857.931	14393
858.064	14408
858.197	14465
858.331	14343
858.464	14286
858.597	14237
858.731	14298
858.864	14225
858.997	14259
859.13	14248
859.263	14282
859.396	14358
859.529	14263
859.662	14195
859.795	14286
859.928	14351
860.061	14495
860.194	14476
860.327	14214
860.46	14351
860.592	14358
860.725	14396
860.858	14393
860.99	14309
861.123	14244
861.256	14305
861.388	14271
861.521	14910
861.653	14115
861.786	14145
861.918	14202
862.05	14275
862.183	14267
862.315	14320
862.447	14374
862.58	14305
862.712	14206
862.844	14062
862.976	14210
863.108	14218
863.24	14499
863.372	13902
863.504	14130
863.636	14161
863.768	14111
863.9	14103
864.032	14035
864.164	14100
864.296	14119
864.428	14199
864.559	14149
864.691	14153
864.823	14123
864.954	14149
865.086	14100
865.217	14020
865.349	14065
865.48	14103
865.612	14062
865.743	14210
865.875	14001
866.006	13993
866.137	13951
866.269	14130
866.4	14035
866.531	14062
866.662	13986
866.793	13997
866.924	13989
867.055	14043
867.186	14164
867.317	13978
867.448	14043
867.579	14081
867.71	13913
867.841	13974
867.972	14054
868.103	14031
868.233	14096
868.364	13978
868.495	14202
868.625	14294
868.756	14339
868.886	14248
869.017	14324
869.147	14495
869.278	14358
869.408	14347
869.539	14336
869.669	14328
869.799	14362
869.929	14351
870.06	14362
870.19	14667
870.32	14629
870.45	14659
870.58	14743
870.71	14788
870.84	14849
870.97	14716
871.1	14758
871.23	14880
871.36	14918
871.489	14800
871.619	14921
871.749	14819
871.879	14948
872.008	15032
872.138	14982
872.267	14929
872.397	14853
872.526	14804
872.656	14785
872.785	14697
872.915	14979
873.044	14918
873.173	14880
873.303	14994
873.432	15028
873.561	15135
873.69	14918
873.819	14944
873.948	15009
874.077	14994
874.206	15001
874.335	15001
874.464	15192
874.593	15180
874.722	15176
874.851	15275
874.979	15313
875.108	15462
875.237	15161
875.365	15192
875.494	15233
875.623	15252
875.751	15291
875.88	15325
876.008	15507
876.136	15466
876.265	15747
876.393	15724
876.521	15793
876.65	15713
876.778	15747
876.906	15603
877.034	15644
877.162	15682
877.29	15584
877.418	15656
877.546	15728
877.674	15595
877.802	15679
877.93	15667
878.058	15625
878.185	15500
878.313	15675
878.441	15618
878.568	15534
878.696	15614
878.824	15679
878.951	15743
879.079	15819
879.206	16002
879.333	15865
879.461	15728
879.588	15755
879.715	15926
879.842	15838
879.97	15728
880.097	15473
880.224	15382
880.351	15561
880.478	15450
880.605	15492
880.732	15500
880.859	15766
880.986	15538
881.112	15526
881.239	15447
881.366	15283
881.493	15195
881.619	15207
881.746	15207
881.872	15119
881.999	15119
882.125	15047
882.252	15207
882.378	15157
882.505	15336
882.631	15093
882.757	14971
882.883	15104
883.01	15017
883.136	14937
883.262	14899
883.388	14788
883.514	14971
883.64	15028
883.766	14941
883.892	14781
884.018	14807
884.143	15085
884.269	15119
884.395	14743
884.52	14682
884.646	14746
884.772	14727
884.897	14674
885.023	14670
885.148	14876
885.274	14849
885.399	14842
885.524	14720
885.65	14689
885.775	14659
885.9	14777
886.025	14708
886.15	14769
886.275	14674
886.4	14629
886.525	14762
886.65	14663
886.775	14590
886.9	14861
887.025	14967
887.149	14712
887.274	14549
887.399	14495
887.523	14465
887.648	14442
887.773	14476
887.897	14621
888.021	14552
888.146	14499
888.27	14568
888.395	14640
888.519	14621
888.643	14583
888.767	14636
888.891	14434
889.015	14393
889.139	14473
889.263	14294
889.387	14530
889.511	14537
889.635	14552
889.759	14355
889.883	14374
890.006	14415
890.13	14400
890.254	14336
890.377	14305
890.501	14214
890.624	14100
890.748	14172
890.871	14123
890.995	14073
891.118	14043
891.241	14172
891.364	13989
891.488	14103
891.611	14069
891.734	14088
891.857	14172
891.98	14069
892.103	14191
892.226	14126
892.349	14096
892.471	13883
892.594	14062
892.717	14088
892.839	14050
892.962	14039
893.085	14259
893.207	14077
893.33	13932
893.452	13978
893.575	14046
893.697	13989
893.819	14324
893.941	14259
894.064	14206
894.186	14115
894.308	13982
894.43	14298
894.552	14358
894.674	14218
894.796	13982
894.918	14005
895.04	14065
895.161	14290
895.283	14157
895.405	14065
895.526	14271
895.648	14157
895.769	14286
895.891	14301
896.012	14396
896.134	14267
896.255	14278
896.376	14187
896.498	14233
896.619	14229
896.74	14153
896.861	14271
896.982	14571
897.103	14716
897.224	14640
897.345	14530
897.466	14511
897.587	14617
897.708	14716
897.828	14613
897.949	14571
898.07	14355
898.19	14522
898.311	14644
898.431	14488
898.552	14575
898.672	14644
898.792	14708
898.913	14640
899.033	14541
899.153	14434
899.273	14484
899.393	14438
899.513	14579
899.633	14514
899.753	14484
899.873	14533
899.993	14560
900.113	14423
900.232	14457
900.352	14419
900.472	14465
900.591	14328
900.711	14400
900.83	14324
900.95	14434
901.069	14393
901.189	14290
901.308	14107
901.427	13940
901.546	14008
901.665	14100
901.784	14020
901.904	13947
902.023	13700
902.141	13666
902.26	13620
902.379	13613
902.498	13575
902.617	13468
902.735	13594
902.854	13521
902.973	13537
903.091	13259
903.21	13304
903.328	13434
903.446	13247
903.565	13213
903.683	13175
903.801	13095
903.919	13133
904.038	13194
904.156	12924
904.274	13023
904.392	13046
904.51	12996
904.627	13027
904.745	12966
904.863	12989
904.981	12863
905.098	12700
905.216	12650
905.334	12673
905.451	12642
905.569	12559
905.686	12719
905.803	12719
905.921	12426
906.038	12574
906.155	12517
906.272	12319
906.389	12433
906.506	12186
906.623	12239
906.74	12277
906.857	12167
906.974	12144
907.091	12292
907.208	12384
907.324	12300
907.441	12201
907.557	11999
907.674	12007
907.79	11923
907.907	11969
908.023	11996
908.139	12038
908.256	12003
908.372	11882
908.488	11942
908.604	11809
908.72	11752
908.836	11722
908.952	11688
909.068	11817
909.184	11821
909.3	11843
909.415	11836
909.531	11824
909.647	11592
909.762	11535
909.878	11436
909.993	11543
910.108	11524
910.224	11596
910.339	11501
910.454	11463
910.57	11379
910.685	11368
910.8	11551
910.915	11463
911.03	11376
911.145	11292
911.259	11246
911.374	11254
911.489	11121
911.604	11140
911.718	10995
911.833	11018
911.947	10908
912.062	10847
912.176	11041
912.291	10999
912.405	11018
912.519	11086
912.633	11223
912.748	11037
912.862	11052
912.976	10820
913.09	10736
913.204	10889
913.318	10858
913.431	10984
913.545	10828
913.659	10980
913.772	10824
913.886	10694
914	10759
914.113	10862
914.226	10866
914.34	10805
914.453	10759
914.566	10790
914.68	10630
914.793	10668
914.906	10500
915.019	10462
915.132	10394
915.245	10497
915.358	10440
915.47	10508
915.583	10558
915.696	10603
915.809	10538
915.921	10702
916.034	10512
916.146	10489
916.259	10337
916.371	10478
916.483	10481
916.595	10325
916.708	10398
916.82	10367
916.932	10375
917.044	10379
917.156	10360
917.268	10284
917.38	10314
917.491	10287
917.603	10280
917.715	10428
917.826	10375
917.938	10287
918.049	10310
918.161	10299
918.272	10440
918.384	10485
918.495	10394
918.606	10230
918.717	10097
918.828	10207
918.939	10234
919.05	10169
919.161	10230
919.272	9964
919.383	10071
919.494	10234
919.604	10466
919.715	10177
919.826	10158
919.936	10124
920.047	10341
920.157	10246
920.267	10436
920.378	10177
920.488	10295
920.598	10470
920.708	10596
920.818	10443
920.928	10352
921.038	10580
921.148	10481
921.258	10268
921.368	10135
921.477	10002
921.587	10025
921.697	9915
921.806	10105
921.916	9953
922.025	9724
922.134	9781
922.244	9686
922.353	9850
922.462	9660
922.571	9622
922.68	9447
922.789	9431
922.898	9416
923.007	9359
923.116	9542
923.224	9488
923.333	9477
923.442	9317
923.55	9291
923.659	9447
923.767	9485
923.876	9302
923.984	9431
924.092	9192
924.201	9408
924.309	9367
924.417	9401
924.525	9260
924.633	9359
924.741	10029
924.849	9135
924.956	9302
925.064	9085
925.172	9051
925.279	9077
925.387	9062
925.494	9127
925.602	9279
925.709	9207
925.816	9024
925.924	9127
926.031	9203
926.138	9104
926.245	9138
926.352	9081
926.459	9195
926.566	9184
926.673	9077
926.779	8994
926.886	9039
926.993	8842
927.099	8842
927.206	8788
927.312	8826
927.419	8902
927.525	8857
927.631	8876
927.737	8800
927.843	8773
927.95	8583
928.056	8746
928.162	8785
928.267	8849
928.373	9439
928.479	8857
928.585	8602
928.69	8731
928.796	8788
928.901	8648
929.007	8507
929.112	8693
929.218	8636
929.323	8594
929.428	8579
929.533	8701
929.638	8454
929.743	8552
929.848	8610
929.953	8579
930.058	8431
930.163	8339
930.267	8358
930.372	8484
930.477	8290
930.581	8530
930.685	8446
930.79	8263
930.894	8237
930.998	8248
931.103	8393
931.207	8005
931.311	8039
931.415	7963
931.519	7795
931.623	7807
