Data from test_V78500241_523.txt Node
Date: Fri Mar 25 14:37:21 CST 2022
User: usil
Spectrometer: V785-0024
Trigger mode: 0
Integration Time (sec): 4.000000E-1
Scans to average: 1
Nonlinearity correction enabled: false
Boxcar width: 0
Storing dark spectrum: false
XAxis mode: Wavelengths
Number of Pixels in Spectrum: 1024
>>>>>Begin Spectral Data<<<<<
801.071	26933
801.214	26933
801.356	26705
801.499	26575
801.641	26495
801.783	26400
801.926	26404
802.068	26256
802.211	26164
802.353	26221
802.496	25902
802.638	26008
802.78	25917
802.923	25887
803.065	25799
803.208	25849
803.35	25811
803.492	25932
803.635	26187
803.777	25966
803.919	25986
804.061	26370
804.204	26031
804.346	25925
804.488	25959
804.63	26005
804.773	25890
804.915	26020
805.057	26305
805.199	25894
805.341	26065
805.483	25951
805.626	26005
805.768	26012
805.91	25849
806.052	26206
806.194	26142
806.336	26256
806.478	26134
806.62	26187
806.762	26355
806.904	26476
807.046	26960
807.188	26921
807.33	26910
807.472	27093
807.614	27211
807.756	27317
807.898	27500
808.04	27759
808.182	28120
808.324	28679
808.465	29318
808.607	29996
808.749	30779
808.891	31232
809.033	31137
809.174	30635
809.316	30057
809.458	29311
809.6	28580
809.741	28242
809.883	27838
810.025	27675
810.166	27450
810.308	27420
810.45	27184
810.591	26861
810.733	26727
810.875	26670
811.016	26583
811.158	26552
811.299	26590
811.441	26720
811.582	26499
811.724	26336
811.865	26434
812.007	26393
812.148	26332
812.29	26507
812.431	26549
812.573	26556
812.714	26689
812.855	26807
812.997	26956
813.138	26948
813.279	26819
813.421	26845
813.562	26640
813.703	26495
813.845	26453
813.986	26084
814.127	25986
814.268	25780
814.41	25727
814.551	25742
814.692	25830
814.833	25632
814.974	25689
815.115	25784
815.256	25647
815.397	25544
815.539	25563
815.68	25556
815.821	25537
815.962	25453
816.103	25422
816.244	25308
816.385	25247
816.526	25213
816.666	24935
816.807	24890
816.948	24875
817.089	24966
817.23	24810
817.371	24840
817.512	24700
817.653	24707
817.793	24829
817.934	24726
818.075	24749
818.216	24901
818.356	24677
818.497	24616
818.638	24418
818.778	24384
818.919	24540
819.06	24311
819.2	24620
819.341	24661
819.481	24692
819.622	24837
819.762	25038
819.903	25053
820.043	24749
820.184	24768
820.324	24749
820.465	24897
820.605	24882
820.746	24909
820.886	24589
821.026	24745
821.167	24658
821.307	24764
821.447	24658
821.588	24593
821.728	24483
821.868	24159
822.008	24136
822.149	24125
822.289	24155
822.429	23726
822.569	23809
822.709	23764
822.849	23566
822.99	23596
823.13	23623
823.27	23410
823.41	23448
823.55	23372
823.69	23402
823.83	23364
823.97	23075
824.11	23121
824.25	23170
824.389	23048
824.529	23075
824.669	23185
824.809	23185
824.949	23178
825.089	23261
825.228	23197
825.368	22965
825.508	22961
825.648	22957
825.787	22812
825.927	22957
826.067	22930
826.206	22995
826.346	22919
826.485	22831
826.625	23006
826.765	22995
826.904	22885
827.044	22580
827.183	22588
827.323	22508
827.462	22740
827.601	22462
827.741	22535
827.88	22702
828.02	22485
828.159	22497
828.298	22561
828.437	22561
828.577	22432
828.716	22717
828.855	22390
828.994	22276
829.134	22299
829.273	22360
829.412	22257
829.551	22219
829.69	22181
829.829	22280
829.968	22356
830.107	22337
830.246	22162
830.385	22154
830.524	22097
830.663	22059
830.802	21827
830.941	21816
831.08	21819
831.219	21823
831.357	21880
831.496	21964
831.635	21797
831.774	21728
831.913	21743
832.051	21644
832.19	21538
832.329	21606
832.467	21553
832.606	21542
832.744	21488
832.883	21568
833.022	21530
833.16	21542
833.299	21641
833.437	21663
833.576	21759
833.714	21629
833.852	21816
833.991	21770
834.129	21831
834.267	21922
834.406	21709
834.544	21770
834.682	21656
834.821	21660
834.959	21861
835.097	21599
835.235	21603
835.373	21587
835.511	21458
835.65	21348
835.788	21511
835.926	21249
836.064	21157
836.202	21150
836.34	21287
836.478	21329
836.615	21397
836.753	21332
836.891	21412
837.029	21245
837.167	21317
837.305	21218
837.443	21275
837.58	21074
837.718	21176
837.856	21161
837.993	21119
838.131	21112
838.269	21005
838.406	21058
838.544	20918
838.681	20895
838.819	20712
838.956	20629
839.094	20579
839.231	20613
839.369	20842
839.506	20998
839.643	20792
839.781	20499
839.918	20590
840.055	20636
840.193	20499
840.33	20457
840.467	20511
840.604	20686
840.742	20864
840.879	20396
841.016	20476
841.153	20541
841.29	20583
841.427	20530
841.564	20473
841.701	20446
841.838	20442
841.975	20442
842.112	20434
842.249	20271
842.385	20267
842.522	20476
842.659	20358
842.796	20218
842.933	20313
843.069	20221
843.206	20214
843.343	20278
843.479	20396
843.616	20275
843.752	20153
843.889	20081
844.025	20199
844.162	20096
844.298	20172
844.435	20153
844.571	20172
844.708	20218
844.844	20427
844.98	20518
845.117	20587
845.253	20735
845.389	20914
845.525	21564
845.661	22573
845.798	23958
845.934	25004
846.07	25419
846.206	25343
846.342	24627
846.478	23178
846.614	21819
846.75	20910
846.886	20427
847.022	20286
847.158	20096
847.294	19818
847.429	19746
847.565	19639
847.701	19860
847.837	19316
847.972	19293
848.108	19400
848.244	19327
848.379	19187
848.515	19110
848.65	19042
848.786	19152
848.921	19088
849.057	19190
849.192	19164
849.328	19057
849.463	19080
849.598	19046
849.734	19015
849.869	18951
850.004	19019
850.14	18776
850.275	18798
850.41	18795
850.545	18700
850.68	18684
850.815	18753
850.95	18787
851.085	18932
851.22	18810
851.355	18863
851.49	18840
851.625	18810
851.76	18753
851.895	18753
852.03	18681
852.165	18840
852.299	18730
852.434	18970
852.569	18928
852.703	18764
852.838	18875
852.973	18871
853.107	18924
853.242	18722
853.376	18787
853.511	18540
853.645	18631
853.78	18741
853.914	18677
854.048	18574
854.183	18578
854.317	18658
854.451	18859
854.585	18661
854.72	18696
854.854	18757
854.988	18574
855.122	18692
855.256	18604
855.39	18658
855.524	18604
855.658	18677
855.792	18612
855.926	18665
856.06	18631
856.194	18783
856.327	18631
856.461	18563
856.595	18490
856.729	18612
856.862	18673
856.996	18593
857.13	18665
857.263	18779
857.397	18703
857.53	18536
857.664	18608
857.797	18658
857.931	18757
858.064	18532
858.197	18654
858.331	18627
858.464	18452
858.597	18509
858.731	18506
858.864	18494
858.997	18502
859.13	18536
859.263	18544
859.396	18684
859.529	18525
859.662	18433
859.795	18471
859.928	18551
860.061	18684
860.194	18639
860.327	18574
860.46	18403
860.592	18563
860.725	18715
860.858	18574
860.99	18490
861.123	18426
861.256	18486
861.388	18551
861.521	19285
861.653	18292
861.786	18418
861.918	18559
862.05	18544
862.183	18570
862.315	18578
862.447	18555
862.58	18513
862.712	18353
862.844	18311
862.976	18323
863.108	18342
863.24	18760
863.372	18110
863.504	18205
863.636	18281
863.768	18342
863.9	18239
864.032	18102
864.164	18186
864.296	18232
864.428	18342
864.559	18323
864.691	18285
864.823	18273
864.954	18194
865.086	18110
865.217	18174
865.349	18057
865.48	18057
865.612	18152
865.743	18304
865.875	18114
866.006	18201
866.137	18247
866.269	18117
866.4	18091
866.531	18190
866.662	17927
866.793	18110
866.924	18091
867.055	18102
867.186	18117
867.317	18083
867.448	17973
867.579	18087
867.71	17950
867.841	17954
867.972	18155
868.103	18163
868.233	18159
868.364	18148
868.495	18296
868.625	18350
868.756	18475
868.886	18384
869.017	18346
869.147	18669
869.278	18433
869.408	18285
869.539	18433
869.669	18410
869.799	18369
869.929	18441
870.06	18506
870.19	18669
870.32	18711
870.45	18745
870.58	18654
870.71	18764
870.84	18901
870.97	18821
871.1	18867
871.23	18882
871.36	19061
871.489	18871
871.619	18913
871.749	19015
871.879	18977
872.008	19110
872.138	18981
872.267	18848
872.397	18905
872.526	18882
872.656	18776
872.785	18810
872.915	19023
873.044	19057
873.173	18966
873.303	19004
873.432	19038
873.561	19190
873.69	18973
873.819	19099
873.948	19148
874.077	19206
874.206	19053
874.335	19031
874.464	19187
874.593	19369
874.722	19274
874.851	19320
874.979	19377
875.108	19362
875.237	19362
875.365	19396
875.494	19362
875.623	19472
875.751	19430
875.88	19438
876.008	19518
876.136	19681
876.265	19875
876.393	19898
876.521	19814
876.65	19917
876.778	19856
876.906	19822
877.034	19837
877.162	19795
877.29	19814
877.418	19936
877.546	19944
877.674	19997
877.802	20062
877.93	19982
878.058	19959
878.185	20012
878.313	20164
878.441	20191
878.568	20153
878.696	20374
878.824	20552
878.951	20918
879.079	21245
879.206	21660
879.333	22025
879.461	22363
879.588	22626
879.715	22721
879.842	22550
879.97	21968
880.097	21439
880.224	21089
880.351	20899
880.478	20640
880.605	20461
880.732	20492
880.859	20739
880.986	20469
881.112	20396
881.239	20263
881.366	20073
881.493	20050
881.619	19993
881.746	19951
881.872	19921
881.999	19864
882.125	19947
882.252	20103
882.378	20065
882.505	19986
882.631	19791
882.757	19852
882.883	19940
883.01	19837
883.136	19765
883.262	19613
883.388	19578
883.514	19784
883.64	19704
883.766	19814
883.892	19601
884.018	19586
884.143	19685
884.269	19757
884.395	19434
884.52	19518
884.646	19495
884.772	19285
884.897	19396
885.023	19411
885.148	19472
885.274	19510
885.399	19457
885.524	19308
885.65	19384
885.775	19293
885.9	19301
886.025	19415
886.15	19320
886.275	19148
886.4	19012
886.525	19194
886.65	19065
886.775	19133
886.9	19228
887.025	19312
887.149	19019
887.274	18833
887.399	18783
887.523	18745
887.648	18661
887.773	18589
887.897	18677
888.021	18719
888.146	18700
888.27	18852
888.395	18821
888.519	18791
888.643	18696
888.767	18665
888.891	18593
889.015	18494
889.139	18517
889.263	18437
889.387	18616
889.511	18719
889.635	18623
889.759	18410
889.883	18433
890.006	18437
890.13	18479
890.254	18346
890.377	18277
890.501	18262
890.624	18140
890.748	18235
890.871	18049
890.995	18011
891.118	17889
891.241	17942
891.364	17916
891.488	18026
891.611	18072
891.734	17950
891.857	17988
891.98	17965
892.103	18003
892.226	17999
892.349	17946
892.471	17794
892.594	17874
892.717	17813
892.839	17821
892.962	17893
893.085	17901
893.207	17923
893.33	17657
893.452	17707
893.575	17946
893.697	17775
893.819	17764
893.941	18015
894.064	17885
894.186	17726
894.308	17756
894.43	17805
894.552	17904
894.674	17866
894.796	17703
894.918	17710
895.04	17786
895.161	17870
895.283	17847
895.405	17798
895.526	17794
895.648	17748
895.769	17771
895.891	17878
896.012	17950
896.134	17843
896.255	17840
896.376	17802
896.498	17745
896.619	17923
896.74	17920
896.861	17893
896.982	18159
897.103	18239
897.224	18034
897.345	18140
897.466	18026
897.587	17984
897.708	18098
897.828	18079
897.949	17950
898.07	17920
898.19	17897
898.311	18106
898.431	17897
898.552	17996
898.672	18144
898.792	18125
898.913	17912
899.033	17965
899.153	17840
899.273	17794
899.393	17798
899.513	17878
899.633	17764
899.753	17855
899.873	17790
899.993	17805
900.113	17756
900.232	17691
900.352	17813
900.472	17630
900.591	17573
900.711	17665
900.83	17676
900.95	17699
901.069	17726
901.189	17455
901.308	17254
901.427	17174
901.546	17330
901.665	17273
901.784	17337
901.904	17056
902.023	17033
902.141	16923
902.26	16637
902.379	16843
902.498	16771
902.617	16790
902.735	16717
902.854	16702
902.973	16694
903.091	16386
903.21	16371
903.328	16428
903.446	16242
903.565	16265
903.683	16310
903.801	16109
903.919	16200
904.038	16265
904.156	16048
904.274	16131
904.392	16017
904.51	15964
904.627	15964
904.745	16025
904.863	15857
904.981	15873
905.098	15690
905.216	15724
905.334	15736
905.451	15800
905.569	15682
905.686	15709
905.803	15732
905.921	15500
906.038	15587
906.155	15473
906.272	15344
906.389	15393
906.506	15165
906.623	15184
906.74	15279
906.857	15089
906.974	15146
907.091	15252
907.208	15317
907.324	15252
907.441	15123
907.557	14967
907.674	14967
907.79	14796
907.907	14960
908.023	14891
908.139	14910
908.256	14830
908.372	14804
908.488	14826
908.604	14575
908.72	14606
908.836	14594
908.952	14568
909.068	14727
909.184	14686
909.3	14689
909.415	14625
909.531	14663
909.647	14332
909.762	14381
909.878	14305
909.993	14332
910.108	14374
910.224	14336
910.339	14298
910.454	14336
910.57	14084
910.685	14126
910.8	14385
910.915	14313
911.03	14187
911.145	14027
911.259	14039
911.374	13989
911.489	13970
911.604	13906
911.718	13712
911.833	13769
911.947	13590
912.062	13575
912.176	13643
912.291	13670
912.405	13738
912.519	13803
912.633	13849
912.748	13772
912.862	13677
912.976	13674
913.09	13491
913.204	13540
913.318	13468
913.431	13666
913.545	13624
913.659	13715
913.772	13514
913.886	13388
914	13434
914.113	13449
914.226	13552
914.34	13529
914.453	13377
914.566	13464
914.68	13304
914.793	13209
914.906	13129
915.019	12993
915.132	13015
915.245	13133
915.358	13156
915.47	13084
915.583	13107
915.696	13118
915.809	13255
915.921	13206
916.034	13065
916.146	13038
916.259	12909
916.371	13091
916.483	13023
916.595	12939
916.708	12981
916.82	12989
916.932	12928
917.044	12901
917.156	12947
917.268	12795
917.38	12795
917.491	12734
917.603	12772
917.715	12894
917.826	12909
917.938	12757
918.049	12665
918.161	12806
918.272	12871
918.384	12894
918.495	12760
918.606	12646
918.717	12528
918.828	12589
918.939	12650
919.05	12464
919.161	12509
919.272	12388
919.383	12395
919.494	12642
919.604	12779
919.715	12570
919.826	12483
919.936	12555
920.047	12631
920.157	12574
920.267	12806
920.378	12616
920.488	12544
920.598	12692
920.708	12798
920.818	12715
920.928	12681
921.038	12844
921.148	12844
921.258	12517
921.368	12475
921.477	12273
921.587	12292
921.697	12209
921.806	12319
921.916	12182
922.025	12060
922.134	11992
922.244	11958
922.353	12015
922.462	11855
922.571	11726
922.68	11726
922.789	11661
922.898	11657
923.007	11684
923.116	11703
923.224	11630
923.333	11646
923.442	11532
923.55	11539
923.659	11532
923.767	11642
923.876	11509
923.984	11509
924.092	11337
924.201	11471
924.309	11497
924.417	11459
924.525	11307
924.633	11455
924.741	12121
924.849	11208
924.956	11356
925.064	11204
925.172	11121
925.279	11132
925.387	11212
925.494	11128
925.602	11284
925.709	11208
925.816	11140
925.924	11185
926.031	11189
926.138	11178
926.245	11227
926.352	11113
926.459	11174
926.566	11280
926.673	11090
926.779	10961
926.886	10968
926.993	10866
927.099	10740
927.206	10721
927.312	10771
927.419	10908
927.525	10793
927.631	10812
927.737	10752
927.843	10630
927.95	10500
928.056	10729
928.162	10675
928.267	10706
928.373	11322
928.479	10679
928.585	10478
928.69	10538
928.796	10599
928.901	10550
929.007	10382
929.112	10500
929.218	10497
929.323	10390
929.428	10394
929.533	10584
929.638	10360
929.743	10348
929.848	10516
929.953	10398
930.058	10291
930.163	10143
930.267	10177
930.372	10272
930.477	10074
930.581	10348
930.685	10238
930.79	10032
930.894	10021
930.998	10010
931.103	10166
931.207	9888
931.311	9747
931.415	9641
931.519	9515
931.623	9507
