Data from test_V78500241_2077.txt Node
Date: Fri Mar 25 14:48:10 CST 2022
User: usil
Spectrometer: V785-0024
Trigger mode: 0
Integration Time (sec): 4.000000E-1
Scans to average: 1
Nonlinearity correction enabled: false
Boxcar width: 0
Storing dark spectrum: false
XAxis mode: Wavelengths
Number of Pixels in Spectrum: 1024
>>>>>Begin Spectral Data<<<<<
801.071	22082
801.214	21983
801.356	21694
801.499	21568
801.641	21534
801.783	21492
801.926	21458
802.068	21306
802.211	21363
802.353	21287
802.496	21138
802.638	21001
802.78	20899
802.923	20838
803.065	20800
803.208	20701
803.35	20796
803.492	20906
803.635	20963
803.777	20838
803.919	20914
804.061	21192
804.204	20826
804.346	20765
804.488	20689
804.63	20724
804.773	20560
804.915	20689
805.057	20845
805.199	20758
805.341	20834
805.483	20861
805.626	20769
805.768	20556
805.91	20769
806.052	20788
806.194	20579
806.336	20902
806.478	20727
806.62	20674
806.762	20773
806.904	20967
807.046	21176
807.188	21062
807.33	21039
807.472	21150
807.614	20918
807.756	20925
807.898	20796
808.04	20864
808.182	20686
808.324	20906
808.465	20769
808.607	21066
808.749	21176
808.891	21310
809.033	21313
809.174	21142
809.316	21135
809.458	21074
809.6	21131
809.741	21165
809.883	21199
810.025	21302
810.166	21325
810.308	21302
810.45	21119
810.591	21100
810.733	20929
810.875	20891
811.016	20792
811.158	20887
811.299	20857
811.441	20986
811.582	21013
811.724	20826
811.865	20785
812.007	20804
812.148	20925
812.29	20937
812.431	21119
812.573	21116
812.714	21264
812.855	21287
812.997	21393
813.138	21557
813.279	21412
813.421	21424
813.562	21344
813.703	21123
813.845	20960
813.986	20739
814.127	20484
814.268	20381
814.41	20427
814.551	20461
814.692	20473
814.833	20431
814.974	20370
815.115	20358
815.256	20282
815.397	20191
815.539	20259
815.68	20138
815.821	20107
815.962	20191
816.103	20153
816.244	19921
816.385	19959
816.526	19822
816.666	19761
816.807	19582
816.948	19624
817.089	19700
817.23	19578
817.371	19521
817.512	19533
817.653	19597
817.793	19506
817.934	19506
818.075	19662
818.216	19525
818.356	19419
818.497	19354
818.638	19171
818.778	19171
818.919	19141
819.06	19255
819.2	19384
819.341	19274
819.481	19304
819.622	19540
819.762	19769
819.903	19655
820.043	19616
820.184	19571
820.324	19487
820.465	19624
820.605	19518
820.746	19510
820.886	19339
821.026	19430
821.167	19453
821.307	19476
821.447	19430
821.588	19343
821.728	19304
821.868	19148
822.008	19000
822.149	19015
822.289	18954
822.429	18692
822.569	18642
822.709	18658
822.849	18437
822.99	18502
823.13	18296
823.27	18319
823.41	18270
823.55	18201
823.69	18148
823.83	18243
823.97	18201
824.11	18015
824.25	17969
824.389	18003
824.529	18068
824.669	17923
824.809	18003
824.949	17980
825.089	18117
825.228	18140
825.368	17859
825.508	17729
825.648	17832
825.787	17821
825.927	17779
826.067	17737
826.206	17691
826.346	17703
826.485	17805
826.625	17775
826.765	17798
826.904	17779
827.044	17608
827.183	17490
827.323	17539
827.462	17577
827.601	17474
827.741	17486
827.88	17421
828.02	17421
828.159	17421
828.298	17528
828.437	17474
828.577	17376
828.716	17554
828.855	17387
828.994	17254
829.134	17250
829.273	17261
829.412	17208
829.551	17178
829.69	17178
829.829	17189
829.968	17318
830.107	17360
830.246	17223
830.385	17193
830.524	17075
830.663	17117
830.802	16949
830.941	16812
831.08	16866
831.219	16900
831.357	16908
831.496	17079
831.635	16885
831.774	16774
831.913	16759
832.051	16634
832.19	16618
832.329	16611
832.467	16584
832.606	16542
832.744	16402
832.883	16504
833.022	16542
833.16	16519
833.299	16584
833.437	16618
833.576	16516
833.714	16611
833.852	16577
833.991	16653
834.129	16687
834.267	16691
834.406	16523
834.544	16550
834.682	16516
834.821	16630
834.959	16828
835.097	16535
835.235	16710
835.373	16637
835.511	16679
835.65	16504
835.788	16481
835.926	16344
836.064	16291
836.202	16295
836.34	16584
836.478	16584
836.615	16527
836.753	16592
836.891	16679
837.029	16577
837.167	16481
837.305	16447
837.443	16417
837.58	16284
837.718	16398
837.856	16352
837.993	16341
838.131	16348
838.269	16276
838.406	16261
838.544	16314
838.681	16078
838.819	16006
838.956	15873
839.094	15987
839.231	15911
839.369	16112
839.506	16367
839.643	16204
839.781	15892
839.918	15850
840.055	15937
840.193	15884
840.33	15854
840.467	15945
840.604	15884
840.742	16188
840.879	15835
841.016	15724
841.153	15869
841.29	16074
841.427	15941
841.564	15888
841.701	16021
841.838	15949
841.975	15766
842.112	15903
842.249	15884
842.385	15637
842.522	15884
842.659	15762
842.796	15618
842.933	15686
843.069	15679
843.206	15637
843.343	15675
843.479	15751
843.616	15759
843.752	15424
843.889	15595
844.025	15549
844.162	15523
844.298	15667
844.435	15485
844.571	15492
844.708	15603
844.844	15667
844.98	15591
845.117	15663
845.253	15401
845.389	15374
845.525	15473
845.661	15367
845.798	15340
845.934	15382
846.07	15298
846.206	15332
846.342	15439
846.478	15332
846.614	15116
846.75	15058
846.886	15020
847.022	15195
847.158	15146
847.294	15131
847.429	15119
847.565	14937
847.701	15294
847.837	14838
847.972	14762
848.108	14864
848.244	14853
848.379	14705
848.515	14819
848.65	14568
848.786	14606
848.921	14727
849.057	14716
849.192	14861
849.328	14686
849.463	14705
849.598	14545
849.734	14480
849.869	14446
850.004	14400
850.14	14457
850.275	14393
850.41	14408
850.545	14366
850.68	14442
850.815	14381
850.95	14374
851.085	14636
851.22	14419
851.355	14476
851.49	14419
851.625	14381
851.76	14484
851.895	14336
852.03	14320
852.165	14286
852.299	14412
852.434	14431
852.569	14473
852.703	14438
852.838	14423
852.973	14617
853.107	14556
853.242	14317
853.376	14267
853.511	14180
853.645	14252
853.78	14438
853.914	14320
854.048	14294
854.183	14263
854.317	14290
854.451	14404
854.585	14332
854.72	14259
854.854	14347
854.988	14256
855.122	14286
855.256	14218
855.39	14267
855.524	14400
855.658	14343
855.792	14366
855.926	14450
856.06	14366
856.194	14427
856.327	14267
856.461	14221
856.595	14332
856.729	14275
856.862	14355
856.996	14328
857.13	14408
857.263	14309
857.397	14366
857.53	14271
857.664	14351
857.797	14358
857.931	14454
858.064	14396
858.197	14370
858.331	14294
858.464	14225
858.597	14130
858.731	14305
858.864	14290
858.997	14317
859.13	14351
859.263	14339
859.396	14358
859.529	14301
859.662	14336
859.795	14180
859.928	14317
860.061	14434
860.194	14522
860.327	14358
860.46	14347
860.592	14442
860.725	14438
860.858	14427
860.99	14271
861.123	14237
861.256	14180
861.388	14282
861.521	15062
861.653	14252
861.786	14096
861.918	14172
862.05	14252
862.183	14256
862.315	14256
862.447	14465
862.58	14294
862.712	14092
862.844	13982
862.976	14062
863.108	14043
863.24	14415
863.372	14054
863.504	14020
863.636	14020
863.768	14119
863.9	14123
864.032	14024
864.164	14050
864.296	14187
864.428	14123
864.559	14119
864.691	14153
864.823	14195
864.954	14100
865.086	14092
865.217	14035
865.349	13913
865.48	14073
865.612	14096
865.743	14237
865.875	14012
866.006	14039
866.137	14115
866.269	14065
866.4	13925
866.531	13974
866.662	14020
866.793	13951
866.924	13993
867.055	14096
867.186	14005
867.317	14103
867.448	13879
867.579	13944
867.71	14001
867.841	13959
867.972	14024
868.103	13989
868.233	13997
868.364	14069
868.495	14084
868.625	14317
868.756	14393
868.886	14301
869.017	14275
869.147	14427
869.278	14393
869.408	14233
869.539	14317
869.669	14351
869.799	14305
869.929	14484
870.06	14507
870.19	14583
870.32	14655
870.45	14667
870.58	14781
870.71	14762
870.84	14651
870.97	14762
871.1	14625
871.23	14815
871.36	14960
871.489	14826
871.619	14880
871.749	14845
871.879	15024
872.008	15039
872.138	14902
872.267	14956
872.397	14948
872.526	14746
872.656	14705
872.785	14826
872.915	15028
873.044	14944
873.173	14906
873.303	15009
873.432	15058
873.561	15123
873.69	14944
873.819	14941
873.948	15074
874.077	14998
874.206	15005
874.335	14967
874.464	15138
874.593	15142
874.722	15195
874.851	15325
874.979	15241
875.108	15169
875.237	15252
875.365	15241
875.494	15241
875.623	15374
875.751	15222
875.88	15310
876.008	15481
876.136	15424
876.265	15637
876.393	15838
876.521	15789
876.65	15755
876.778	15660
876.906	15652
877.034	15667
877.162	15755
877.29	15591
877.418	15728
877.546	15675
877.674	15633
877.802	15717
877.93	15641
878.058	15644
878.185	15610
878.313	15682
878.441	15698
878.568	15557
878.696	15614
878.824	15690
878.951	15808
879.079	15857
879.206	16051
879.333	15808
879.461	15671
879.588	15778
879.715	15903
879.842	16097
879.97	15762
880.097	15469
880.224	15572
880.351	15564
880.478	15682
880.605	15515
880.732	15534
880.859	15793
880.986	15576
881.112	15656
881.239	15416
881.366	15317
881.493	15340
881.619	15260
881.746	15188
881.872	15245
881.999	15127
882.125	15161
882.252	15230
882.378	15245
882.505	15321
882.631	15180
882.757	15047
882.883	15047
883.01	15028
883.136	14914
883.262	14899
883.388	14872
883.514	15005
883.64	15066
883.766	14979
883.892	14765
884.018	14804
884.143	15043
884.269	15119
884.395	14765
884.52	14644
884.646	14785
884.772	14689
884.897	14674
885.023	14689
885.148	14762
885.274	14861
885.399	14815
885.524	14716
885.65	14804
885.775	14686
885.9	14754
886.025	14967
886.15	14689
886.275	14758
886.4	14606
886.525	14743
886.65	14659
886.775	14701
886.9	14853
887.025	14998
887.149	14765
887.274	14560
887.399	14507
887.523	14442
887.648	14484
887.773	14450
887.897	14564
888.021	14552
888.146	14530
888.27	14648
888.395	14640
888.519	14518
888.643	14610
888.767	14663
888.891	14526
889.015	14408
889.139	14461
889.263	14434
889.387	14545
889.511	14640
889.635	14537
889.759	14339
889.883	14389
890.006	14339
890.13	14450
890.254	14320
890.377	14415
890.501	14180
890.624	14145
890.748	14343
890.871	14142
890.995	14039
891.118	14001
891.241	14050
891.364	14058
891.488	14244
891.611	14119
891.734	14164
891.857	14237
891.98	14050
892.103	14172
892.226	14058
892.349	14149
892.471	13989
892.594	14031
892.717	14168
892.839	14046
892.962	14130
893.085	14237
893.207	14172
893.33	14020
893.452	13951
893.575	14172
893.697	14153
893.819	14324
893.941	14374
894.064	14324
894.186	14054
894.308	14024
894.43	14115
894.552	14240
894.674	14168
894.796	14039
894.918	14138
895.04	14199
895.161	14244
895.283	14320
895.405	14123
895.526	14180
895.648	14275
895.769	14210
895.891	14275
896.012	14389
896.134	14267
896.255	14214
896.376	14202
896.498	14267
896.619	14400
896.74	14206
896.861	14362
896.982	14640
897.103	14765
897.224	14629
897.345	14503
897.466	14556
897.587	14533
897.708	14625
897.828	14522
897.949	14469
898.07	14419
898.19	14484
898.311	14682
898.431	14556
898.552	14613
898.672	14705
898.792	14765
898.913	14693
899.033	14564
899.153	14522
899.273	14446
899.393	14476
899.513	14533
899.633	14499
899.753	14587
899.873	14503
899.993	14514
900.113	14473
900.232	14503
900.352	14526
900.472	14355
900.591	14305
900.711	14377
900.83	14221
900.95	14351
901.069	14438
901.189	14172
901.308	14065
901.427	13936
901.546	14039
901.665	14027
901.784	14081
901.904	13875
902.023	13871
902.141	13628
902.26	13578
902.379	13761
902.498	13624
902.617	13529
902.735	13544
902.854	13571
902.973	13518
903.091	13377
903.21	13396
903.328	13369
903.446	13179
903.565	13095
903.683	13247
903.801	13038
903.919	13236
904.038	13160
904.156	13050
904.274	13057
904.392	12951
904.51	12973
904.627	12920
904.745	12943
904.863	13046
904.981	12825
905.098	12623
905.216	12787
905.334	12696
905.451	12711
905.569	12635
905.686	12616
905.803	12692
905.921	12445
906.038	12612
906.155	12532
906.272	12346
906.389	12525
906.506	12247
906.623	12273
906.74	12163
906.857	12136
906.974	12152
907.091	12285
907.208	12391
907.324	12281
907.441	12205
907.557	12015
907.674	11939
907.79	11988
907.907	11984
908.023	12007
908.139	12026
908.256	12022
908.372	11889
908.488	11866
908.604	11786
908.72	11729
908.836	11794
908.952	11691
909.068	11748
909.184	11901
909.3	11737
909.415	11817
909.531	11798
909.647	11543
909.762	11452
909.878	11467
909.993	11566
910.108	11551
910.224	11520
910.339	11558
910.454	11478
910.57	11433
910.685	11315
910.8	11627
910.915	11509
911.03	11440
911.145	11261
911.259	11220
911.374	11201
911.489	11212
911.604	11064
911.718	11010
911.833	10987
911.947	10854
912.062	10866
912.176	10946
912.291	10942
912.405	10923
912.519	11242
912.633	11223
912.748	10961
912.862	11037
912.976	10885
913.09	10755
913.204	10854
913.318	10854
913.431	10919
913.545	10873
913.659	10999
913.772	10896
913.886	10831
914	10691
914.113	10873
914.226	10835
914.34	10801
914.453	10714
914.566	10786
914.68	10763
914.793	10679
914.906	10512
915.019	10421
915.132	10466
915.245	10466
915.358	10546
915.47	10550
915.583	10554
915.696	10550
915.809	10672
915.921	10675
916.034	10474
916.146	10402
916.259	10390
916.371	10542
916.483	10485
916.595	10413
916.708	10436
916.82	10417
916.932	10424
917.044	10363
917.156	10500
917.268	10299
917.38	10299
917.491	10234
917.603	10322
917.715	10360
917.826	10421
917.938	10322
918.049	10238
918.161	10352
918.272	10432
918.384	10527
918.495	10390
918.606	10253
918.717	10150
918.828	10169
918.939	10230
919.05	10093
919.161	10177
919.272	10048
919.383	10116
919.494	10185
919.604	10459
919.715	10299
919.826	10173
919.936	10230
920.047	10352
920.157	10223
920.267	10421
920.378	10219
920.488	10299
920.598	10360
920.708	10561
920.818	10440
920.928	10440
921.038	10626
921.148	10596
921.258	10268
921.368	10204
921.477	10181
921.587	10067
921.697	9964
921.806	10192
921.916	9953
922.025	9869
922.134	9736
922.244	9747
922.353	9869
922.462	9705
922.571	9667
922.68	9507
922.789	9519
922.898	9587
923.007	9500
923.116	9553
923.224	9469
923.333	9447
923.442	9348
923.55	9367
923.659	9401
923.767	9496
923.876	9393
923.984	9435
924.092	9355
924.201	9321
924.309	9428
924.417	9370
924.525	9355
924.633	9321
924.741	10284
924.849	9207
924.956	9321
925.064	9192
925.172	9119
925.279	9135
925.387	9188
925.494	9184
925.602	9294
925.709	9272
925.816	9203
925.924	9249
926.031	9161
926.138	9169
926.245	9176
926.352	9028
926.459	9298
926.566	9294
926.673	9226
926.779	9066
926.886	9142
926.993	8868
927.099	8895
927.206	8868
927.312	8853
927.419	8941
927.525	8944
927.631	8979
927.737	8853
927.843	8800
927.95	8617
928.056	8720
928.162	8746
928.267	8876
928.373	9469
928.479	8872
928.585	8697
928.69	8777
928.796	8796
928.901	8712
929.007	8621
929.112	8743
929.218	8720
929.323	8632
929.428	8613
929.533	8766
929.638	8568
929.743	8514
929.848	8640
929.953	8560
930.058	8507
930.163	8377
930.267	8366
930.372	8480
930.477	8336
930.581	8587
930.685	8469
930.79	8351
930.894	8324
930.998	8298
931.103	8423
931.207	8153
931.311	8005
931.415	7978
931.519	7753
931.623	7750
