Data from test_V78500241_2777.txt Node
Date: Fri Mar 25 14:53:03 CST 2022
User: usil
Spectrometer: V785-0024
Trigger mode: 0
Integration Time (sec): 4.000000E-1
Scans to average: 1
Nonlinearity correction enabled: false
Boxcar width: 0
Storing dark spectrum: false
XAxis mode: Wavelengths
Number of Pixels in Spectrum: 1024
>>>>>Begin Spectral Data<<<<<
801.071	22021
801.214	21899
801.356	21766
801.499	21679
801.641	21466
801.783	21416
801.926	21428
802.068	21363
802.211	21386
802.353	21188
802.496	20933
802.638	20807
802.78	20845
802.923	20891
803.065	20682
803.208	20549
803.35	20819
803.492	20777
803.635	20842
803.777	20682
803.919	20830
804.061	21116
804.204	20800
804.346	20651
804.488	20693
804.63	20769
804.773	20636
804.915	20590
805.057	20674
805.199	20629
805.341	20678
805.483	20746
805.626	20758
805.768	20526
805.91	20655
806.052	20667
806.194	20606
806.336	20765
806.478	20663
806.62	20503
806.762	20758
806.904	20815
807.046	21112
807.188	21146
807.33	20975
807.472	21085
807.614	20876
807.756	20948
807.898	20830
808.04	20686
808.182	20667
808.324	20625
808.465	20682
808.607	20906
808.749	21001
808.891	21100
809.033	21142
809.174	21142
809.316	20845
809.458	20944
809.6	21062
809.741	21032
809.883	21047
810.025	21074
810.166	21028
810.308	21169
810.45	21123
810.591	20948
810.733	20804
810.875	20750
811.016	20678
811.158	20545
811.299	20838
811.441	20876
811.582	20853
811.724	20800
811.865	20613
812.007	20773
812.148	20769
812.29	20697
812.431	20872
812.573	21169
812.714	21066
812.855	21199
812.997	21386
813.138	21492
813.279	21275
813.421	21207
813.562	21214
813.703	20960
813.845	20933
813.986	20678
814.127	20434
814.268	20389
814.41	20499
814.551	20221
814.692	20377
814.833	20218
814.974	20347
815.115	20294
815.256	20168
815.397	20210
815.539	20115
815.68	19982
815.821	19917
815.962	20058
816.103	20043
816.244	19864
816.385	19799
816.526	19799
816.666	19575
816.807	19407
816.948	19571
817.089	19575
817.23	19476
817.371	19445
817.512	19529
817.653	19476
817.793	19369
817.934	19529
818.075	19491
818.216	19377
818.356	19362
818.497	19187
818.638	19118
818.778	19225
818.919	19099
819.06	19225
819.2	19244
819.341	19244
819.481	19304
819.622	19487
819.762	19750
819.903	19571
820.043	19525
820.184	19441
820.324	19373
820.465	19373
820.605	19441
820.746	19415
820.886	19213
821.026	19426
821.167	19377
821.307	19457
821.447	19312
821.588	19202
821.728	19168
821.868	19038
822.008	18859
822.149	18878
822.289	18795
822.429	18604
822.569	18547
822.709	18593
822.849	18171
822.99	18209
823.13	18220
823.27	18194
823.41	18209
823.55	18041
823.69	18121
823.83	18174
823.97	18011
824.11	17950
824.25	17824
824.389	17969
824.529	18026
824.669	17866
824.809	18015
824.949	18053
825.089	17969
825.228	17965
825.368	17783
825.508	17714
825.648	17684
825.787	17741
825.927	17714
826.067	17608
826.206	17596
826.346	17771
826.485	17748
826.625	17646
826.765	17752
826.904	17775
827.044	17482
827.183	17395
827.323	17406
827.462	17440
827.601	17303
827.741	17307
827.88	17467
828.02	17376
828.159	17356
828.298	17280
828.437	17463
828.577	17410
828.716	17512
828.855	17360
828.994	17041
829.134	17204
829.273	17208
829.412	17117
829.551	17060
829.69	17121
829.829	17174
829.968	17246
830.107	17166
830.246	17159
830.385	17121
830.524	17128
830.663	17014
830.802	16900
830.941	16725
831.08	16729
831.219	16812
831.357	16820
831.496	16923
831.635	16839
831.774	16698
831.913	16679
832.051	16588
832.19	16554
832.329	16603
832.467	16451
832.606	16516
832.744	16470
832.883	16417
833.022	16356
833.16	16470
833.299	16573
833.437	16455
833.576	16519
833.714	16398
833.852	16462
833.991	16512
834.129	16592
834.267	16512
834.406	16481
834.544	16466
834.682	16440
834.821	16398
834.959	16637
835.097	16500
835.235	16607
835.373	16481
835.511	16531
835.65	16417
835.788	16390
835.926	16226
836.064	16131
836.202	16173
836.34	16402
836.478	16516
836.615	16348
836.753	16390
836.891	16481
837.029	16386
837.167	16382
837.305	16356
837.443	16299
837.58	16234
837.718	16287
837.856	16303
837.993	16295
838.131	16363
838.269	16207
838.406	16200
838.544	16238
838.681	15972
838.819	16036
838.956	15823
839.094	15808
839.231	15861
839.369	16063
839.506	16185
839.643	16128
839.781	15778
839.918	15819
840.055	15983
840.193	15808
840.33	15789
840.467	15873
840.604	15808
840.742	16048
840.879	15679
841.016	15682
841.153	15865
841.29	15941
841.427	15873
841.564	15793
841.701	15903
841.838	15823
841.975	15770
842.112	15751
842.249	15709
842.385	15572
842.522	15831
842.659	15652
842.796	15633
842.933	15679
843.069	15701
843.206	15648
843.343	15622
843.479	15599
843.616	15660
843.752	15302
843.889	15435
844.025	15553
844.162	15348
844.298	15568
844.435	15435
844.571	15477
844.708	15462
844.844	15530
844.98	15633
845.117	15496
845.253	15340
845.389	15302
845.525	15329
845.661	15313
845.798	15169
845.934	15195
846.07	15173
846.206	15207
846.342	15348
846.478	15138
846.614	14986
846.75	15001
846.886	14872
847.022	15119
847.158	15036
847.294	15005
847.429	14982
847.565	14956
847.701	15294
847.837	14712
847.972	14720
848.108	14811
848.244	14819
848.379	14568
848.515	14526
848.65	14431
848.786	14686
848.921	14598
849.057	14602
849.192	14720
849.328	14511
849.463	14648
849.598	14507
849.734	14503
849.869	14408
850.004	14415
850.14	14408
850.275	14442
850.41	14225
850.545	14221
850.68	14347
850.815	14355
850.95	14358
851.085	14511
851.22	14412
851.355	14252
851.49	14286
851.625	14301
851.76	14377
851.895	14225
852.03	14294
852.165	14286
852.299	14389
852.434	14347
852.569	14374
852.703	14320
852.838	14393
852.973	14495
853.107	14450
853.242	14282
853.376	14161
853.511	14073
853.645	14168
853.78	14351
853.914	14214
854.048	14202
854.183	14218
854.317	14237
854.451	14317
854.585	14218
854.72	14168
854.854	14324
854.988	14062
855.122	14214
855.256	14065
855.39	14206
855.524	14313
855.658	14248
855.792	14218
855.926	14229
856.06	14320
856.194	14374
856.327	14138
856.461	14187
856.595	14103
856.729	14183
856.862	14290
856.996	14248
857.13	14233
857.263	14252
857.397	14328
857.53	14191
857.664	14286
857.797	14343
857.931	14271
858.064	14332
858.197	14313
858.331	14187
858.464	14252
858.597	14130
858.731	14244
858.864	14214
858.997	14191
859.13	14221
859.263	14233
859.396	14336
859.529	14107
859.662	14153
859.795	14206
859.928	14282
860.061	14298
860.194	14461
860.327	14240
860.46	14183
860.592	14374
860.725	14347
860.858	14374
860.99	14161
861.123	14115
861.256	14142
861.388	14267
861.521	14921
861.653	14005
861.786	14065
861.918	14065
862.05	14111
862.183	14096
862.315	14172
862.447	14195
862.58	14183
862.712	13913
862.844	14027
862.976	14088
863.108	14058
863.24	14389
863.372	13925
863.504	14005
863.636	13955
863.768	14016
863.9	14035
864.032	13989
864.164	13932
864.296	14039
864.428	14168
864.559	13993
864.691	14081
864.823	14054
864.954	13944
865.086	14008
865.217	14016
865.349	13936
865.48	14005
865.612	14050
865.743	14145
865.875	14027
866.006	13909
866.137	13967
866.269	13959
866.4	13909
866.531	14016
866.662	13868
866.793	13890
866.924	13932
867.055	14027
867.186	13921
867.317	13959
867.448	13967
867.579	13833
867.71	13894
867.841	13944
867.972	14077
868.103	14107
868.233	14065
868.364	14008
868.495	14050
868.625	14157
868.756	14267
868.886	14149
869.017	14244
869.147	14355
869.278	14351
869.408	14309
869.539	14271
869.669	14347
869.799	14237
869.929	14294
870.06	14317
870.19	14610
870.32	14495
870.45	14587
870.58	14632
870.71	14777
870.84	14670
870.97	14571
871.1	14632
871.23	14773
871.36	14807
871.489	14769
871.619	14724
871.749	14918
871.879	14842
872.008	14944
872.138	14830
872.267	14796
872.397	14689
872.526	14674
872.656	14667
872.785	14644
872.915	14853
873.044	14902
873.173	14872
873.303	14883
873.432	14910
873.561	14880
873.69	14819
873.819	14880
873.948	14994
874.077	14990
874.206	14796
874.335	14948
874.464	15081
874.593	15173
874.722	15165
874.851	15241
874.979	15176
875.108	15241
875.237	15176
875.365	15089
875.494	15199
875.623	15298
875.751	15169
875.88	15230
876.008	15351
876.136	15401
876.265	15694
876.393	15865
876.521	15781
876.65	15572
876.778	15584
876.906	15660
877.034	15526
877.162	15584
877.29	15462
877.418	15637
877.546	15679
877.674	15667
877.802	15523
877.93	15747
878.058	15618
878.185	15500
878.313	15576
878.441	15648
878.568	15458
878.696	15435
878.824	15728
878.951	15614
879.079	15652
879.206	15895
879.333	15819
879.461	15618
879.588	15724
879.715	15732
879.842	15975
879.97	15679
880.097	15405
880.224	15466
880.351	15477
880.478	15473
880.605	15393
880.732	15344
880.859	15679
880.986	15488
881.112	15553
881.239	15336
881.366	15252
881.493	15237
881.619	15173
881.746	15142
881.872	15104
881.999	15165
882.125	15097
882.252	15146
882.378	15116
882.505	15325
882.631	15127
882.757	14971
882.883	14933
883.01	15043
883.136	14857
883.262	14830
883.388	14895
883.514	14982
883.64	15024
883.766	15024
883.892	14762
884.018	14712
884.143	14891
884.269	14986
884.395	14781
884.52	14644
884.646	14678
884.772	14602
884.897	14476
885.023	14678
885.148	14788
885.274	14731
885.399	14750
885.524	14708
885.65	14667
885.775	14625
885.9	14670
886.025	14861
886.15	14773
886.275	14697
886.4	14610
886.525	14613
886.65	14602
886.775	14571
886.9	14697
887.025	14834
887.149	14625
887.274	14552
887.399	14461
887.523	14404
887.648	14408
887.773	14427
887.897	14579
888.021	14488
888.146	14408
888.27	14575
888.395	14625
888.519	14541
888.643	14499
888.767	14507
888.891	14400
889.015	14362
889.139	14339
889.263	14309
889.387	14400
889.511	14568
889.635	14438
889.759	14396
889.883	14328
890.006	14404
890.13	14385
890.254	14218
890.377	14347
890.501	14142
890.624	14183
890.748	14191
890.871	14058
890.995	13997
891.118	13959
891.241	14035
891.364	14050
891.488	14145
891.611	14046
891.734	14065
891.857	14134
891.98	14058
892.103	14172
892.226	14100
892.349	13989
892.471	13841
892.594	13986
892.717	14035
892.839	14046
892.962	14077
893.085	13986
893.207	13997
893.33	13845
893.452	13963
893.575	14123
893.697	14046
893.819	14320
893.941	14187
894.064	14233
894.186	14005
894.308	13974
894.43	14225
894.552	14248
894.674	14229
894.796	13993
894.918	14058
895.04	14138
895.161	14172
895.283	14142
895.405	14065
895.526	14046
895.648	14111
895.769	14180
895.891	14164
896.012	14252
896.134	14210
896.255	14172
896.376	14164
896.498	14183
896.619	14370
896.74	14199
896.861	14370
896.982	14602
897.103	14648
897.224	14590
897.345	14457
897.466	14480
897.587	14427
897.708	14644
897.828	14495
897.949	14469
898.07	14370
898.19	14427
898.311	14629
898.431	14438
898.552	14606
898.672	14712
898.792	14602
898.913	14617
899.033	14434
899.153	14415
899.273	14240
899.393	14385
899.513	14419
899.633	14484
899.753	14442
899.873	14309
899.993	14480
900.113	14339
900.232	14446
900.352	14446
900.472	14358
900.591	14233
900.711	14164
900.83	14298
900.95	14282
901.069	14431
901.189	14278
901.308	14024
901.427	13917
901.546	13875
901.665	13944
901.784	13947
901.904	13818
902.023	13761
902.141	13594
902.26	13529
902.379	13639
902.498	13499
902.617	13525
902.735	13609
902.854	13590
902.973	13499
903.091	13350
903.21	13118
903.328	13327
903.446	13179
903.565	13053
903.683	13099
903.801	13038
903.919	13072
904.038	13088
904.156	12935
904.274	13000
904.392	12901
904.51	12993
904.627	12935
904.745	12958
904.863	12913
904.981	12696
905.098	12559
905.216	12582
905.334	12642
905.451	12555
905.569	12570
905.686	12627
905.803	12620
905.921	12494
906.038	12578
906.155	12399
906.272	12353
906.389	12315
906.506	12254
906.623	12171
906.74	12251
906.857	12091
906.974	12053
907.091	12197
907.208	12266
907.324	12186
907.441	12079
907.557	12003
907.674	11961
907.79	11882
907.907	11912
908.023	11950
908.139	12034
908.256	11954
908.372	11923
908.488	11809
908.604	11786
908.72	11684
908.836	11703
908.952	11684
909.068	11737
909.184	11790
909.3	11703
909.415	11729
909.531	11695
909.647	11532
909.762	11482
909.878	11490
909.993	11444
910.108	11493
910.224	11425
910.339	11471
910.454	11406
910.57	11284
910.685	11318
910.8	11539
910.915	11433
911.03	11334
911.145	11208
911.259	11155
911.374	11136
911.489	11083
911.604	11022
911.718	10976
911.833	10938
911.947	10816
912.062	10721
912.176	10892
912.291	10965
912.405	10911
912.519	11124
912.633	11159
912.748	11052
912.862	10976
912.976	10820
913.09	10706
913.204	10736
913.318	10831
913.431	10923
913.545	10866
913.659	10942
913.772	10812
913.886	10714
914	10679
914.113	10733
914.226	10866
914.34	10790
914.453	10653
914.566	10740
914.68	10634
914.793	10637
914.906	10481
915.019	10481
915.132	10386
915.245	10451
915.358	10489
915.47	10485
915.583	10447
915.696	10459
915.809	10542
915.921	10592
916.034	10424
916.146	10398
916.259	10367
916.371	10580
916.483	10504
916.595	10417
916.708	10421
916.82	10398
916.932	10295
917.044	10348
917.156	10337
917.268	10287
917.38	10341
917.491	10268
917.603	10299
917.715	10379
917.826	10405
917.938	10291
918.049	10196
918.161	10287
918.272	10481
918.384	10375
918.495	10306
918.606	10124
918.717	10078
918.828	10120
918.939	10238
919.05	10090
919.161	10150
919.272	9945
919.383	9987
919.494	10200
919.604	10360
919.715	10261
919.826	10128
919.936	10135
920.047	10276
920.157	10143
920.267	10371
920.378	10272
920.488	10143
920.598	10409
920.708	10527
920.818	10295
920.928	10356
921.038	10531
921.148	10500
921.258	10230
921.368	10147
921.477	10071
921.587	10013
921.697	9918
921.806	10067
921.916	9876
922.025	9812
922.134	9755
922.244	9724
922.353	9682
922.462	9595
922.571	9610
922.68	9481
922.789	9450
922.898	9515
923.007	9355
923.116	9469
923.224	9405
923.333	9370
923.442	9317
923.55	9287
923.659	9351
923.767	9378
923.876	9321
923.984	9332
924.092	9230
924.201	9283
924.309	9298
924.417	9302
924.525	9233
924.633	9317
924.741	9983
924.849	9142
924.956	9218
925.064	9138
925.172	8895
925.279	8998
925.387	9154
925.494	9036
925.602	9256
925.709	9180
925.816	9085
925.924	9123
926.031	9157
926.138	9127
926.245	9024
926.352	9013
926.459	9169
926.566	9108
926.673	9051
926.779	8944
926.886	8876
926.993	8777
927.099	8849
927.206	8766
927.312	8739
927.419	8811
927.525	8826
927.631	8861
927.737	8708
927.843	8651
927.95	8648
928.056	8708
928.162	8724
928.267	8746
928.373	9336
928.479	8853
928.585	8568
928.69	8781
928.796	8674
928.901	8663
929.007	8518
929.112	8579
929.218	8648
929.323	8556
929.428	8465
929.533	8640
929.638	8381
929.743	8442
929.848	8556
929.953	8511
930.058	8419
930.163	8286
930.267	8320
930.372	8473
930.477	8282
930.581	8423
930.685	8324
930.79	8259
930.894	8244
930.998	8214
931.103	8343
931.207	8058
931.311	7955
931.415	7978
931.519	7765
931.623	7689
