Data from test_V78500241_1840.txt Node
Date: Fri Mar 25 14:46:31 CST 2022
User: usil
Spectrometer: V785-0024
Trigger mode: 0
Integration Time (sec): 4.000000E-1
Scans to average: 1
Nonlinearity correction enabled: false
Boxcar width: 0
Storing dark spectrum: false
XAxis mode: Wavelengths
Number of Pixels in Spectrum: 1024
>>>>>Begin Spectral Data<<<<<
801.071	22150
801.214	21960
801.356	21759
801.499	21656
801.641	21500
801.783	21519
801.926	21595
802.068	21454
802.211	21424
802.353	21245
802.496	21112
802.638	21032
802.78	21051
802.923	20861
803.065	20743
803.208	20739
803.35	20868
803.492	20998
803.635	20944
803.777	20800
803.919	20861
804.061	21192
804.204	20941
804.346	20762
804.488	20625
804.63	20861
804.773	20674
804.915	20872
805.057	20804
805.199	20743
805.341	20845
805.483	20872
805.626	20891
805.768	20807
805.91	20819
806.052	20849
806.194	20731
806.336	20876
806.478	20701
806.62	20785
806.762	20819
806.904	20971
807.046	21146
807.188	21081
807.33	21150
807.472	21039
807.614	20902
807.756	21104
807.898	20834
808.04	20785
808.182	20872
808.324	20853
808.465	20807
808.607	21005
808.749	21150
808.891	21150
809.033	21351
809.174	21245
809.316	21188
809.458	21222
809.6	21066
809.741	21138
809.883	21176
810.025	21351
810.166	21420
810.308	21348
810.45	21302
810.591	21058
810.733	20956
810.875	20998
811.016	20872
811.158	20800
811.299	20975
811.441	20906
811.582	21039
811.724	21058
811.865	20842
812.007	20880
812.148	20804
812.29	20990
812.431	21074
812.573	21142
812.714	21268
812.855	21557
812.997	21443
813.138	21591
813.279	21496
813.421	21557
813.562	21249
813.703	21321
813.845	21123
813.986	20693
814.127	20473
814.268	20473
814.41	20499
814.551	20419
814.692	20583
814.833	20427
814.974	20423
815.115	20434
815.256	20317
815.397	20176
815.539	20377
815.68	20218
815.821	20145
815.962	20126
816.103	20122
816.244	19947
816.385	19875
816.526	19967
816.666	19727
816.807	19518
816.948	19795
817.089	19772
817.23	19651
817.371	19635
817.512	19647
817.653	19594
817.793	19537
817.934	19472
818.075	19597
818.216	19510
818.356	19476
818.497	19381
818.638	19297
818.778	19335
818.919	19377
819.06	19335
819.2	19400
819.341	19297
819.481	19487
819.622	19601
819.762	19769
819.903	19742
820.043	19693
820.184	19502
820.324	19464
820.465	19681
820.605	19521
820.746	19502
820.886	19434
821.026	19537
821.167	19502
821.307	19677
821.447	19578
821.588	19457
821.728	19206
821.868	19061
822.008	19110
822.149	19015
822.289	18920
822.429	18681
822.569	18688
822.709	18791
822.849	18570
822.99	18490
823.13	18490
823.27	18441
823.41	18285
823.55	18323
823.69	18315
823.83	18258
823.97	18201
824.11	17996
824.25	18072
824.389	18072
824.529	18205
824.669	18125
824.809	18182
824.949	18102
825.089	18095
825.228	18076
825.368	17965
825.508	17920
825.648	17745
825.787	17882
825.927	17851
826.067	17760
826.206	17790
826.346	17752
826.485	17790
826.625	17843
826.765	17866
826.904	17703
827.044	17627
827.183	17543
827.323	17551
827.462	17596
827.601	17455
827.741	17501
827.88	17524
828.02	17512
828.159	17421
828.298	17570
828.437	17661
828.577	17452
828.716	17691
828.855	17547
828.994	17239
829.134	17265
829.273	17383
829.412	17189
829.551	17330
829.69	17193
829.829	17307
829.968	17417
830.107	17242
830.246	17315
830.385	17121
830.524	17155
830.663	17090
830.802	16946
830.941	16843
831.08	16843
831.219	16862
831.357	16953
831.496	17128
831.635	16980
831.774	16877
831.913	16736
832.051	16710
832.19	16736
832.329	16812
832.467	16554
832.606	16622
832.744	16706
832.883	16577
833.022	16584
833.16	16618
833.299	16649
833.437	16516
833.576	16717
833.714	16687
833.852	16691
833.991	16656
834.129	16706
834.267	16771
834.406	16634
834.544	16668
834.682	16645
834.821	16622
834.959	16733
835.097	16603
835.235	16664
835.373	16653
835.511	16710
835.65	16561
835.788	16607
835.926	16367
836.064	16382
836.202	16436
836.34	16645
836.478	16641
836.615	16538
836.753	16611
836.891	16596
837.029	16622
837.167	16542
837.305	16558
837.443	16493
837.58	16344
837.718	16474
837.856	16497
837.993	16299
838.131	16379
838.269	16337
838.406	16398
838.544	16379
838.681	16128
838.819	16116
838.956	15983
839.094	15854
839.231	16013
839.369	16059
839.506	16424
839.643	16200
839.781	16040
839.918	15972
840.055	16010
840.193	15991
840.33	15907
840.467	15987
840.604	15949
840.742	16280
840.879	15766
841.016	15918
841.153	15888
841.29	15960
841.427	16105
841.564	15968
841.701	16017
841.838	16055
841.975	15895
842.112	15911
842.249	15656
842.385	15759
842.522	15956
842.659	15808
842.796	15778
842.933	15774
843.069	15793
843.206	15732
843.343	15797
843.479	15823
843.616	15819
843.752	15523
843.889	15511
844.025	15663
844.162	15572
844.298	15667
844.435	15435
844.571	15473
844.708	15511
844.844	15644
844.98	15633
845.117	15671
845.253	15469
845.389	15450
845.525	15507
845.661	15515
845.798	15359
845.934	15405
846.07	15275
846.206	15367
846.342	15534
846.478	15412
846.614	15180
846.75	15138
846.886	15100
847.022	15154
847.158	15161
847.294	15089
847.429	15039
847.565	15036
847.701	15336
847.837	14868
847.972	14804
848.108	15100
848.244	14941
848.379	14762
848.515	14610
848.65	14686
848.786	14689
848.921	14746
849.057	14765
849.192	14781
849.328	14792
849.463	14807
849.598	14720
849.734	14613
849.869	14610
850.004	14495
850.14	14514
850.275	14434
850.41	14507
850.545	14370
850.68	14476
850.815	14560
850.95	14427
851.085	14720
851.22	14484
851.355	14541
851.49	14461
851.625	14507
851.76	14408
851.895	14412
852.03	14332
852.165	14446
852.299	14602
852.434	14610
852.569	14450
852.703	14446
852.838	14560
852.973	14454
853.107	14659
853.242	14374
853.376	14412
853.511	14180
853.645	14305
853.78	14355
853.914	14309
854.048	14313
854.183	14263
854.317	14427
854.451	14518
854.585	14343
854.72	14282
854.854	14415
854.988	14336
855.122	14294
855.256	14123
855.39	14286
855.524	14507
855.658	14469
855.792	14301
855.926	14408
856.06	14427
856.194	14454
856.327	14374
856.461	14290
856.595	14393
856.729	14313
856.862	14442
856.996	14419
857.13	14412
857.263	14503
857.397	14488
857.53	14408
857.664	14408
857.797	14511
857.931	14541
858.064	14351
858.197	14427
858.331	14347
858.464	14290
858.597	14256
858.731	14351
858.864	14301
858.997	14374
859.13	14332
859.263	14355
859.396	14465
859.529	14278
859.662	14381
859.795	14278
859.928	14404
860.061	14552
860.194	14488
860.327	14473
860.46	14438
860.592	14518
860.725	14469
860.858	14461
860.99	14434
861.123	14199
861.256	14324
861.388	14457
861.521	14956
861.653	14195
861.786	14176
861.918	14199
862.05	14275
862.183	14298
862.315	14332
862.447	14347
862.58	14309
862.712	14016
862.844	14043
862.976	14191
863.108	14187
863.24	14446
863.372	14050
863.504	14035
863.636	14145
863.768	14077
863.9	14084
864.032	14039
864.164	14039
864.296	14164
864.428	14290
864.559	14123
864.691	14206
864.823	14161
864.954	14202
865.086	14176
865.217	14123
865.349	14024
865.48	14244
865.612	14123
865.743	14332
865.875	14103
866.006	14050
866.137	14244
866.269	14164
866.4	14084
866.531	14145
866.662	14058
866.793	14058
866.924	14016
867.055	14153
867.186	14138
867.317	14088
867.448	13921
867.579	14046
867.71	13951
867.841	14001
867.972	14126
868.103	14134
868.233	14138
868.364	14191
868.495	14237
868.625	14423
868.756	14476
868.886	14282
869.017	14313
869.147	14495
869.278	14393
869.408	14400
869.539	14275
869.669	14537
869.799	14408
869.929	14480
870.06	14503
870.19	14697
870.32	14621
870.45	14686
870.58	14724
870.71	14906
870.84	14819
870.97	14746
871.1	14743
871.23	14895
871.36	14838
871.489	14891
871.619	14937
871.749	14937
871.879	15081
872.008	15055
872.138	14933
872.267	14979
872.397	14838
872.526	14800
872.656	14811
872.785	14857
872.915	14998
873.044	15036
873.173	14982
873.303	15062
873.432	15077
873.561	15051
873.69	15001
873.819	14960
873.948	15036
874.077	15051
874.206	15017
874.335	14914
874.464	15112
874.593	15382
874.722	15287
874.851	15272
874.979	15363
875.108	15363
875.237	15279
875.365	15188
875.494	15264
875.623	15287
875.751	15389
875.88	15473
876.008	15443
876.136	15568
876.265	15720
876.393	15857
876.521	15827
876.65	15876
876.778	15762
876.906	15739
877.034	15713
877.162	15656
877.29	15690
877.418	15709
877.546	15694
877.674	15705
877.802	15751
877.93	15675
878.058	15660
878.185	15660
878.313	15663
878.441	15709
878.568	15545
878.696	15732
878.824	15728
878.951	15736
879.079	15979
879.206	15994
879.333	15876
879.461	15819
879.588	15911
879.715	15895
879.842	15884
879.97	15808
880.097	15564
880.224	15599
880.351	15603
880.478	15534
880.605	15515
880.732	15545
880.859	15774
880.986	15599
881.112	15641
881.239	15519
881.366	15370
881.493	15260
881.619	15298
881.746	15233
881.872	15313
881.999	15241
882.125	15157
882.252	15275
882.378	15264
882.505	15302
882.631	15180
882.757	15085
882.883	15123
883.01	15199
883.136	15005
883.262	14941
883.388	14971
883.514	15127
883.64	15116
883.766	15009
883.892	14861
884.018	14906
884.143	15104
884.269	15119
884.395	14807
884.52	14708
884.646	14788
884.772	14724
884.897	14678
885.023	14712
885.148	14853
885.274	14902
885.399	14853
885.524	14724
885.65	14788
885.775	14765
885.9	14743
886.025	14861
886.15	14868
886.275	14686
886.4	14640
886.525	14720
886.65	14655
886.775	14712
886.9	14914
887.025	14883
887.149	14720
887.274	14511
887.399	14575
887.523	14575
887.648	14423
887.773	14473
887.897	14667
888.021	14663
888.146	14484
888.27	14735
888.395	14708
888.519	14686
888.643	14640
888.767	14598
888.891	14571
889.015	14423
889.139	14518
889.263	14454
889.387	14560
889.511	14754
889.635	14564
889.759	14434
889.883	14427
890.006	14511
890.13	14503
890.254	14438
890.377	14374
890.501	14221
890.624	14195
890.748	14294
890.871	14237
890.995	14100
891.118	14062
891.241	14168
891.364	14180
891.488	14267
891.611	14172
891.734	14119
891.857	14145
891.98	14180
892.103	14294
892.226	14229
892.349	14218
892.471	14043
892.594	14134
892.717	14115
892.839	14168
892.962	14180
893.085	14244
893.207	14225
893.33	14062
893.452	14164
893.575	14271
893.697	14111
893.819	14320
893.941	14259
894.064	14294
894.186	14092
894.308	14134
894.43	14290
894.552	14278
894.674	14355
894.796	14092
894.918	14145
895.04	14218
895.161	14244
895.283	14256
895.405	14206
895.526	14229
895.648	14324
895.769	14275
895.891	14324
896.012	14446
896.134	14404
896.255	14290
896.376	14256
896.498	14252
896.619	14347
896.74	14320
896.861	14427
896.982	14621
897.103	14842
897.224	14606
897.345	14549
897.466	14431
897.587	14644
897.708	14689
897.828	14648
897.949	14564
898.07	14480
898.19	14560
898.311	14632
898.431	14583
898.552	14655
898.672	14720
898.792	14746
898.913	14708
899.033	14606
899.153	14583
899.273	14339
899.393	14480
899.513	14522
899.633	14571
899.753	14598
899.873	14476
899.993	14514
900.113	14590
900.232	14503
900.352	14492
900.472	14457
900.591	14423
900.711	14358
900.83	14336
900.95	14446
901.069	14488
901.189	14374
901.308	14020
901.427	13955
901.546	14164
901.665	14069
901.784	14031
901.904	13864
902.023	13791
902.141	13670
902.26	13685
902.379	13738
902.498	13666
902.617	13597
902.735	13636
902.854	13605
902.973	13525
903.091	13373
903.21	13331
903.328	13365
903.446	13297
903.565	13247
903.683	13259
903.801	13084
903.919	13187
904.038	13114
904.156	13034
904.274	13057
904.392	13091
904.51	13038
904.627	12958
904.745	13042
904.863	12973
904.981	12863
905.098	12715
905.216	12806
905.334	12711
905.451	12700
905.569	12604
905.686	12696
905.803	12662
905.921	12536
906.038	12662
906.155	12509
906.272	12429
906.389	12506
906.506	12300
906.623	12350
906.74	12251
906.857	12194
906.974	12304
907.091	12304
907.208	12437
907.324	12369
907.441	12239
907.557	12136
907.674	12072
907.79	12003
907.907	11946
908.023	12091
908.139	12083
908.256	11996
908.372	11969
908.488	11935
908.604	11885
908.72	11783
908.836	11733
908.952	11695
909.068	11851
909.184	11916
909.3	11756
909.415	11866
909.531	11874
909.647	11649
909.762	11589
909.878	11547
909.993	11551
910.108	11608
910.224	11596
910.339	11638
910.454	11493
910.57	11436
910.685	11349
910.8	11623
910.915	11509
911.03	11379
911.145	11250
911.259	11307
911.374	11376
911.489	11261
911.604	11216
911.718	11064
911.833	11079
911.947	10828
912.062	10755
912.176	10987
912.291	11045
912.405	10991
912.519	11181
912.633	11197
912.748	11098
912.862	11090
912.976	10900
913.09	10782
913.204	10854
913.318	10949
913.431	11006
913.545	11018
913.659	10984
913.772	10930
913.886	10797
914	10725
914.113	10866
914.226	10946
914.34	10847
914.453	10679
914.566	10812
914.68	10725
914.793	10744
914.906	10554
915.019	10485
915.132	10459
915.245	10542
915.358	10588
915.47	10550
915.583	10481
915.696	10607
915.809	10702
915.921	10683
916.034	10508
916.146	10531
916.259	10455
916.371	10584
916.483	10573
916.595	10440
916.708	10500
916.82	10493
916.932	10497
917.044	10398
917.156	10481
917.268	10352
917.38	10386
917.491	10287
917.603	10363
917.715	10394
917.826	10455
917.938	10371
918.049	10200
918.161	10398
918.272	10535
918.384	10459
918.495	10390
918.606	10227
918.717	10188
918.828	10306
918.939	10268
919.05	10131
919.161	10227
919.272	10097
919.383	10139
919.494	10257
919.604	10390
919.715	10242
919.826	10154
919.936	10211
920.047	10367
920.157	10291
920.267	10379
920.378	10348
920.488	10219
920.598	10512
920.708	10630
920.818	10451
920.928	10428
921.038	10611
921.148	10588
921.258	10128
921.368	10204
921.477	10150
921.587	10143
921.697	9949
921.806	10040
921.916	10082
922.025	9778
922.134	9751
922.244	9755
922.353	9854
922.462	9713
922.571	9682
922.68	9553
922.789	9496
922.898	9564
923.007	9462
923.116	9545
923.224	9431
923.333	9507
923.442	9367
923.55	9336
923.659	9435
923.767	9477
923.876	9294
923.984	9412
924.092	9272
924.201	9359
924.309	9325
924.417	9439
924.525	9329
924.633	9359
924.741	10200
924.849	9104
924.956	9340
925.064	9211
925.172	9043
925.279	9093
925.387	9154
925.494	9241
925.602	9298
925.709	9150
925.816	9070
925.924	9157
926.031	9264
926.138	9116
926.245	9131
926.352	9055
926.459	9207
926.566	9283
926.673	9100
926.779	9043
926.886	9047
926.993	8845
927.099	8883
927.206	8834
927.312	8838
927.419	8921
927.525	8899
927.631	8910
927.737	8750
927.843	8792
927.95	8625
928.056	8788
928.162	8762
928.267	8766
928.373	9340
928.479	8849
928.585	8640
928.69	8693
928.796	8746
928.901	8651
929.007	8568
929.112	8678
929.218	8621
929.323	8610
929.428	8533
929.533	8724
929.638	8473
929.743	8579
929.848	8587
929.953	8503
930.058	8457
930.163	8244
930.267	8351
930.372	8518
930.477	8282
930.581	8613
930.685	8484
930.79	8267
930.894	8301
930.998	8309
931.103	8339
931.207	8024
931.311	7997
931.415	7993
931.519	7772
931.623	7822
