Data from test_V78500241_3293.txt Node
Date: Fri Mar 25 14:56:38 CST 2022
User: usil
Spectrometer: V785-0024
Trigger mode: 0
Integration Time (sec): 4.000000E-1
Scans to average: 1
Nonlinearity correction enabled: false
Boxcar width: 0
Storing dark spectrum: false
XAxis mode: Wavelengths
Number of Pixels in Spectrum: 1024
>>>>>Begin Spectral Data<<<<<
801.071	21918
801.214	21964
801.356	21568
801.499	21454
801.641	21397
801.783	21298
801.926	21405
802.068	21241
802.211	21150
802.353	21135
802.496	20876
802.638	20819
802.78	20701
802.923	20530
803.065	20511
803.208	20644
803.35	20629
803.492	20792
803.635	20788
803.777	20720
803.919	20800
804.061	20975
804.204	20678
804.346	20522
804.488	20518
804.63	20415
804.773	20575
804.915	20621
805.057	20701
805.199	20560
805.341	20636
805.483	20765
805.626	20632
805.768	20552
805.91	20587
806.052	20537
806.194	20549
806.336	20720
806.478	20446
806.62	20495
806.762	20670
806.904	20689
807.046	20834
807.188	20800
807.33	20716
807.472	20937
807.614	20876
807.756	20727
807.898	20670
808.04	20613
808.182	20556
808.324	20655
808.465	20609
808.607	20895
808.749	20902
808.891	21028
809.033	21039
809.174	20937
809.316	20891
809.458	20967
809.6	20952
809.741	20986
809.883	21001
810.025	21157
810.166	21081
810.308	20952
810.45	20986
810.591	20849
810.733	20838
810.875	20792
811.016	20537
811.158	20587
811.299	20773
811.441	20857
811.582	20826
811.724	20686
811.865	20727
812.007	20727
812.148	20724
812.29	20743
812.431	21013
812.573	20933
812.714	21055
812.855	21237
812.997	21226
813.138	21458
813.279	21294
813.421	21188
813.562	21192
813.703	20902
813.845	20823
813.986	20503
814.127	20465
814.268	20298
814.41	20298
814.551	20107
814.692	20320
814.833	20122
814.974	20161
815.115	20244
815.256	20119
815.397	20092
815.539	20126
815.68	20035
815.821	19890
815.962	19997
816.103	19871
816.244	19822
816.385	19750
816.526	19616
816.666	19544
816.807	19445
816.948	19381
817.089	19487
817.23	19518
817.371	19381
817.512	19304
817.653	19297
817.793	19259
817.934	19312
818.075	19316
818.216	19392
818.356	19183
818.497	19107
818.638	19103
818.778	19042
818.919	19126
819.06	18932
819.2	19194
819.341	19293
819.481	19213
819.622	19362
819.762	19662
819.903	19472
820.043	19495
820.184	19320
820.324	19388
820.465	19422
820.605	19228
820.746	19266
820.886	19015
821.026	19202
821.167	19301
821.307	19362
821.447	19228
821.588	19110
821.728	18947
821.868	18757
822.008	18776
822.149	18673
822.289	18722
822.429	18604
822.569	18391
822.709	18452
822.849	18247
822.99	18220
823.13	18216
823.27	18232
823.41	17988
823.55	18106
823.69	18072
823.83	18083
823.97	18003
824.11	17824
824.25	17760
824.389	17802
824.529	17870
824.669	17832
824.809	17893
824.949	17901
825.089	17802
825.228	17802
825.368	17615
825.508	17608
825.648	17619
825.787	17608
825.927	17554
826.067	17455
826.206	17611
826.346	17547
826.485	17653
826.625	17524
826.765	17649
826.904	17752
827.044	17429
827.183	17379
827.323	17307
827.462	17421
827.601	17246
827.741	17318
827.88	17273
828.02	17223
828.159	17265
828.298	17242
828.437	17360
828.577	17189
828.716	17398
828.855	17231
828.994	17071
829.134	16953
829.273	17098
829.412	16999
829.551	16949
829.69	17022
829.829	17048
829.968	17140
830.107	17151
830.246	17067
830.385	17022
830.524	17010
830.663	16809
830.802	16744
830.941	16653
831.08	16630
831.219	16691
831.357	16573
831.496	16809
831.635	16694
831.774	16584
831.913	16641
832.051	16360
832.19	16371
832.329	16500
832.467	16447
832.606	16348
832.744	16337
832.883	16306
833.022	16253
833.16	16314
833.299	16344
833.437	16417
833.576	16337
833.714	16409
833.852	16421
833.991	16462
834.129	16386
834.267	16421
834.406	16379
834.544	16432
834.682	16481
834.821	16333
834.959	16565
835.097	16268
835.235	16504
835.373	16478
835.511	16314
835.65	16284
835.788	16291
835.926	16196
836.064	16150
836.202	16147
836.34	16322
836.478	16459
836.615	16246
836.753	16379
836.891	16455
837.029	16344
837.167	16268
837.305	16131
837.443	16238
837.58	16169
837.718	16322
837.856	16173
837.993	16139
838.131	16318
838.269	16173
838.406	16063
838.544	16116
838.681	15934
838.819	15888
838.956	15827
839.094	15713
839.231	15857
839.369	15949
839.506	16135
839.643	15975
839.781	15709
839.918	15736
840.055	15797
840.193	15667
840.33	15766
840.467	15652
840.604	15800
840.742	16013
840.879	15606
841.016	15641
841.153	15648
841.29	15876
841.427	15823
841.564	15800
841.701	15755
841.838	15713
841.975	15663
842.112	15679
842.249	15610
842.385	15549
842.522	15682
842.659	15530
842.796	15542
842.933	15660
843.069	15485
843.206	15530
843.343	15519
843.479	15561
843.616	15557
843.752	15363
843.889	15370
844.025	15412
844.162	15306
844.298	15504
844.435	15408
844.571	15302
844.708	15359
844.844	15469
844.98	15439
845.117	15477
845.253	15264
845.389	15173
845.525	15279
845.661	15275
845.798	15062
845.934	15165
846.07	15047
846.206	15165
846.342	15279
846.478	15081
846.614	14861
846.75	14853
846.886	14830
847.022	14902
847.158	14963
847.294	14895
847.429	14990
847.565	14883
847.701	15138
847.837	14682
847.972	14606
848.108	14663
848.244	14769
848.379	14541
848.515	14526
848.65	14461
848.786	14522
848.921	14541
849.057	14621
849.192	14655
849.328	14533
849.463	14556
849.598	14492
849.734	14412
849.869	14393
850.004	14278
850.14	14320
850.275	14214
850.41	14252
850.545	14221
850.68	14199
850.815	14275
850.95	14374
851.085	14454
851.22	14412
851.355	14286
851.49	14183
851.625	14229
851.76	14339
851.895	14199
852.03	14161
852.165	14259
852.299	14290
852.434	14301
852.569	14294
852.703	14305
852.838	14305
852.973	14434
853.107	14347
853.242	14199
853.376	14123
853.511	14027
853.645	14130
853.78	14355
853.914	14157
854.048	14092
854.183	14107
854.317	14161
854.451	14275
854.585	14107
854.72	13989
854.854	14145
854.988	14088
855.122	14130
855.256	14084
855.39	14153
855.524	14134
855.658	14134
855.792	14161
855.926	14172
856.06	14210
856.194	14256
856.327	14084
856.461	14050
856.595	14084
856.729	14149
856.862	14233
856.996	14157
857.13	14195
857.263	14206
857.397	14244
857.53	14172
857.664	14237
857.797	14199
857.931	14225
858.064	14229
858.197	14301
858.331	14214
858.464	14005
858.597	14058
858.731	14077
858.864	14142
858.997	14153
859.13	14240
859.263	14161
859.396	14180
859.529	14149
859.662	14065
859.795	14046
859.928	14149
860.061	14332
860.194	14328
860.327	14256
860.46	14168
860.592	14244
860.725	14374
860.858	14282
860.99	14096
861.123	14077
861.256	14088
861.388	14100
861.521	14883
861.653	13978
861.786	13970
861.918	13997
862.05	14092
862.183	14031
862.315	14202
862.447	14183
862.58	14183
862.712	14027
862.844	13837
862.976	14107
863.108	13978
863.24	14374
863.372	13879
863.504	14001
863.636	14001
863.768	13997
863.9	13967
864.032	13830
864.164	13917
864.296	14001
864.428	14005
864.559	14012
864.691	14050
864.823	14065
864.954	14054
865.086	14020
865.217	13955
865.349	13955
865.48	13856
865.612	14069
865.743	14115
865.875	13978
866.006	13890
866.137	14027
866.269	13993
866.4	13894
866.531	13860
866.662	14027
866.793	13841
866.924	13894
867.055	13913
867.186	14050
867.317	13940
867.448	13765
867.579	13807
867.71	13936
867.841	13814
867.972	13997
868.103	13913
868.233	13955
868.364	13940
868.495	14069
868.625	14309
868.756	14244
868.886	14119
869.017	14149
869.147	14385
869.278	14377
869.408	14317
869.539	14161
869.669	14259
869.799	14237
869.929	14320
870.06	14202
870.19	14594
870.32	14427
870.45	14568
870.58	14606
870.71	14693
870.84	14788
870.97	14587
871.1	14583
871.23	14636
871.36	14830
871.489	14625
871.619	14765
871.749	14727
871.879	14750
872.008	14830
872.138	14727
872.267	14842
872.397	14727
872.526	14689
872.656	14556
872.785	14724
872.915	14823
873.044	14883
873.173	14819
873.303	14819
873.432	14872
873.561	14937
873.69	14807
873.819	14800
873.948	14914
874.077	14868
874.206	14819
874.335	14872
874.464	15058
874.593	15176
874.722	15116
874.851	15180
874.979	15348
875.108	15195
875.237	15097
875.365	15093
875.494	15146
875.623	15207
875.751	15176
875.88	15173
876.008	15298
876.136	15397
876.265	15625
876.393	15698
876.521	15652
876.65	15622
876.778	15614
876.906	15542
877.034	15504
877.162	15656
877.29	15526
877.418	15603
877.546	15545
877.674	15641
877.802	15507
877.93	15603
878.058	15488
878.185	15359
878.313	15572
878.441	15439
878.568	15454
878.696	15545
878.824	15614
878.951	15633
879.079	15709
879.206	15895
879.333	15739
879.461	15656
879.588	15709
879.715	15804
879.842	15846
879.97	15625
880.097	15454
880.224	15481
880.351	15428
880.478	15473
880.605	15332
880.732	15431
880.859	15690
880.986	15488
881.112	15458
881.239	15306
881.366	15233
881.493	15146
881.619	15028
881.746	15161
881.872	15005
881.999	15070
882.125	14986
882.252	15077
882.378	15119
882.505	15279
882.631	15085
882.757	14979
882.883	14971
883.01	14979
883.136	14826
883.262	14769
883.388	14777
883.514	14857
883.64	15001
883.766	14933
883.892	14686
884.018	14777
884.143	14842
884.269	14956
884.395	14682
884.52	14564
884.646	14640
884.772	14579
884.897	14434
885.023	14693
885.148	14682
885.274	14807
885.399	14758
885.524	14617
885.65	14682
885.775	14621
885.9	14629
886.025	14705
886.15	14697
886.275	14625
886.4	14492
886.525	14606
886.65	14545
886.775	14571
886.9	14686
887.025	14823
887.149	14655
887.274	14374
887.399	14412
887.523	14492
887.648	14374
887.773	14305
887.897	14522
888.021	14545
888.146	14389
888.27	14514
888.395	14465
888.519	14552
888.643	14484
888.767	14518
888.891	14400
889.015	14267
889.139	14294
889.263	14305
889.387	14434
889.511	14545
889.635	14328
889.759	14400
889.883	14294
890.006	14419
890.13	14358
890.254	14123
890.377	14298
890.501	14153
890.624	14092
890.748	14134
890.871	14039
890.995	14031
891.118	13894
891.241	14016
891.364	14058
891.488	14153
891.611	14092
891.734	13989
891.857	14084
891.98	14077
892.103	14058
892.226	14073
892.349	14020
892.471	13845
892.594	13894
892.717	13898
892.839	13993
892.962	14039
893.085	14107
893.207	14024
893.33	14008
893.452	13894
893.575	14088
893.697	14039
893.819	14187
893.941	14290
894.064	14183
894.186	14043
894.308	14024
894.43	14092
894.552	14244
894.674	14199
894.796	14016
894.918	14024
895.04	14005
895.161	14130
895.283	14145
895.405	14024
895.526	14058
895.648	14126
895.769	14298
895.891	14218
896.012	14172
896.134	14240
896.255	14176
896.376	14111
896.498	14161
896.619	14267
896.74	14180
896.861	14282
896.982	14556
897.103	14727
897.224	14427
897.345	14415
897.466	14446
897.587	14400
897.708	14583
897.828	14381
897.949	14408
898.07	14362
898.19	14408
898.311	14648
898.431	14514
898.552	14541
898.672	14537
898.792	14613
898.913	14598
899.033	14507
899.153	14385
899.273	14248
899.393	14278
899.513	14374
899.633	14313
899.753	14469
899.873	14446
899.993	14507
900.113	14412
900.232	14427
900.352	14286
900.472	14351
900.591	14259
900.711	14267
900.83	14161
900.95	14317
901.069	14389
901.189	14168
901.308	13963
901.427	13989
901.546	13894
901.665	13936
901.784	13993
901.904	13822
902.023	13731
902.141	13544
902.26	13434
902.379	13540
902.498	13468
902.617	13460
902.735	13499
902.854	13426
902.973	13499
903.091	13247
903.21	13194
903.328	13175
903.446	13221
903.565	13114
903.683	13088
903.801	12935
903.919	13080
904.038	13019
904.156	12848
904.274	12962
904.392	12886
904.51	12875
904.627	12886
904.745	12943
904.863	12913
904.981	12692
905.098	12555
905.216	12551
905.334	12597
905.451	12528
905.569	12544
905.686	12658
905.803	12623
905.921	12471
906.038	12517
906.155	12403
906.272	12300
906.389	12247
906.506	12171
906.623	12171
906.74	12175
906.857	12076
906.974	12072
907.091	12213
907.208	12323
907.324	12216
907.441	12117
907.557	11958
907.674	11935
907.79	11805
907.907	11847
908.023	12015
908.139	11912
908.256	11775
908.372	11851
908.488	11843
908.604	11741
908.72	11657
908.836	11699
908.952	11630
909.068	11676
909.184	11802
909.3	11722
909.415	11802
909.531	11775
909.647	11474
909.762	11520
909.878	11417
909.993	11459
910.108	11463
910.224	11474
910.339	11429
910.454	11326
910.57	11284
910.685	11326
910.8	11543
910.915	11452
911.03	11288
911.145	11109
911.259	11121
911.374	11041
911.489	11094
911.604	11014
911.718	10892
911.833	10927
911.947	10850
912.062	10797
912.176	10908
912.291	10930
912.405	10919
912.519	11067
912.633	11162
912.748	11045
912.862	10972
912.976	10774
913.09	10691
913.204	10725
913.318	10778
913.431	10919
913.545	10896
913.659	10843
913.772	10892
913.886	10679
914	10660
914.113	10698
914.226	10809
914.34	10782
914.453	10577
914.566	10805
914.68	10649
914.793	10523
914.906	10375
915.019	10360
915.132	10341
915.245	10470
915.358	10443
915.47	10455
915.583	10459
915.696	10432
915.809	10550
915.921	10641
916.034	10394
916.146	10379
916.259	10306
916.371	10436
916.483	10459
916.595	10375
916.708	10291
916.82	10371
916.932	10367
917.044	10367
917.156	10333
917.268	10207
917.38	10310
917.491	10207
917.603	10329
917.715	10348
917.826	10344
917.938	10280
918.049	10181
918.161	10242
918.272	10379
918.384	10371
918.495	10295
918.606	10219
918.717	10059
918.828	10139
918.939	10067
919.05	10124
919.161	10097
919.272	9991
919.383	10006
919.494	10253
919.604	10386
919.715	10162
919.826	10093
919.936	10055
920.047	10272
920.157	10200
920.267	10329
920.378	10200
920.488	10192
920.598	10318
920.708	10447
920.818	10402
920.928	10409
921.038	10489
921.148	10459
921.258	10234
921.368	10086
921.477	10002
921.587	9979
921.697	9903
921.806	9998
921.916	9941
922.025	9720
922.134	9705
922.244	9778
922.353	9812
922.462	9599
922.571	9561
922.68	9420
922.789	9393
922.898	9401
923.007	9367
923.116	9420
923.224	9435
923.333	9447
923.442	9302
923.55	9203
923.659	9329
923.767	9344
923.876	9214
923.984	9374
924.092	9226
924.201	9245
924.309	9298
924.417	9294
924.525	9264
924.633	9264
924.741	10158
924.849	9055
924.956	9218
925.064	9005
925.172	9013
925.279	8963
925.387	9089
925.494	8998
925.602	9184
925.709	9176
925.816	9055
925.924	9119
926.031	9131
926.138	9036
926.245	9097
926.352	8998
926.459	9150
926.566	9165
926.673	9028
926.779	8906
926.886	8929
926.993	8807
927.099	8834
927.206	8800
927.312	8773
927.419	8815
927.525	8785
927.631	8880
927.737	8686
927.843	8689
927.95	8537
928.056	8693
928.162	8758
928.267	8762
928.373	9355
928.479	8807
928.585	8507
928.69	8701
928.796	8689
928.901	8613
929.007	8473
929.112	8712
929.218	8583
929.323	8522
929.428	8507
929.533	8648
929.638	8454
929.743	8446
929.848	8606
929.953	8564
930.058	8488
930.163	8317
930.267	8358
930.372	8450
930.477	8313
930.581	8537
930.685	8423
930.79	8191
930.894	8317
930.998	8267
931.103	8377
931.207	8020
931.311	8054
931.415	7868
931.519	7719
931.623	7742
