Data from test_V78500241_1742.txt Node
Date: Fri Mar 25 14:45:50 CST 2022
User: usil
Spectrometer: V785-0024
Trigger mode: 0
Integration Time (sec): 4.000000E-1
Scans to average: 1
Nonlinearity correction enabled: false
Boxcar width: 0
Storing dark spectrum: false
XAxis mode: Wavelengths
Number of Pixels in Spectrum: 1024
>>>>>Begin Spectral Data<<<<<
801.071	22188
801.214	22067
801.356	21911
801.499	21774
801.641	21644
801.783	21473
801.926	21561
802.068	21492
802.211	21401
802.353	21370
802.496	21165
802.638	21146
802.78	20998
802.923	20921
803.065	20960
803.208	20845
803.35	20925
803.492	21047
803.635	21001
803.777	20986
803.919	20826
804.061	21218
804.204	20948
804.346	20891
804.488	20773
804.63	20849
804.773	20800
804.915	20880
805.057	20910
805.199	20804
805.341	20880
805.483	20929
805.626	20880
805.768	20773
805.91	20777
806.052	20853
806.194	20712
806.336	20986
806.478	20686
806.62	20868
806.762	20910
806.904	20967
807.046	21192
807.188	21146
807.33	21096
807.472	21146
807.614	21074
807.756	21070
807.898	20864
808.04	20830
808.182	20891
808.324	20929
808.465	21017
808.607	21176
808.749	21146
808.891	21340
809.033	21298
809.174	21264
809.316	21180
809.458	21275
809.6	21222
809.741	21313
809.883	21260
810.025	21252
810.166	21321
810.308	21405
810.45	21336
810.591	21310
810.733	21116
810.875	21017
811.016	20929
811.158	20941
811.299	21043
811.441	21131
811.582	21150
811.724	20883
811.865	21020
812.007	20948
812.148	21039
812.29	21051
812.431	21230
812.573	21336
812.714	21359
812.855	21431
812.997	21538
813.138	21625
813.279	21428
813.421	21515
813.562	21447
813.703	21176
813.845	21169
813.986	20921
814.127	20689
814.268	20571
814.41	20590
814.551	20560
814.692	20625
814.833	20454
814.974	20492
815.115	20431
815.256	20404
815.397	20366
815.539	20332
815.68	20317
815.821	20256
815.962	20286
816.103	20256
816.244	20191
816.385	20035
816.526	19906
816.666	19822
816.807	19624
816.948	19746
817.089	19780
817.23	19689
817.371	19635
817.512	19681
817.653	19575
817.793	19571
817.934	19685
818.075	19765
818.216	19769
818.356	19616
818.497	19540
818.638	19445
818.778	19301
818.919	19441
819.06	19438
819.2	19483
819.341	19624
819.481	19613
819.622	19582
819.762	19944
819.903	19784
820.043	19753
820.184	19712
820.324	19632
820.465	19696
820.605	19689
820.746	19605
820.886	19510
821.026	19613
821.167	19609
821.307	19666
821.447	19586
821.588	19445
821.728	19343
821.868	19209
822.008	19038
822.149	19084
822.289	19099
822.429	18844
822.569	18673
822.709	18772
822.849	18677
822.99	18559
823.13	18467
823.27	18369
823.41	18380
823.55	18380
823.69	18410
823.83	18361
823.97	18327
824.11	18057
824.25	18117
824.389	18178
824.529	18174
824.669	18125
824.809	18281
824.949	18289
825.089	18273
825.228	18114
825.368	17923
825.508	17984
825.648	17961
825.787	18057
825.927	17969
826.067	17790
826.206	17832
826.346	17870
826.485	17920
826.625	17901
826.765	18125
826.904	17916
827.044	17710
827.183	17573
827.323	17630
827.462	17581
827.601	17638
827.741	17611
827.88	17619
828.02	17558
828.159	17581
828.298	17554
828.437	17638
828.577	17512
828.716	17657
828.855	17547
828.994	17360
829.134	17337
829.273	17376
829.412	17318
829.551	17235
829.69	17372
829.829	17349
829.968	17471
830.107	17440
830.246	17345
830.385	17246
830.524	17231
830.663	17204
830.802	17090
830.941	16885
831.08	16965
831.219	16976
831.357	17067
831.496	17258
831.635	16995
831.774	16824
831.913	16877
832.051	16717
832.19	16675
832.329	16786
832.467	16717
832.606	16611
832.744	16668
832.883	16698
833.022	16542
833.16	16694
833.299	16672
833.437	16706
833.576	16767
833.714	16656
833.852	16702
833.991	16771
834.129	16816
834.267	16828
834.406	16740
834.544	16759
834.682	16717
834.821	16656
834.959	16900
835.097	16607
835.235	16778
835.373	16717
835.511	16805
835.65	16694
835.788	16493
835.926	16527
836.064	16382
836.202	16329
836.34	16683
836.478	16820
836.615	16637
836.753	16634
836.891	16675
837.029	16660
837.167	16710
837.305	16527
837.443	16462
837.58	16470
837.718	16447
837.856	16386
837.993	16413
838.131	16462
838.269	16375
838.406	16398
838.544	16360
838.681	16242
838.819	16150
838.956	16010
839.094	16032
839.231	16006
839.369	16154
839.506	16360
839.643	16284
839.781	16071
839.918	15991
840.055	16109
840.193	16074
840.33	16082
840.467	16097
840.604	16006
840.742	16318
840.879	15861
841.016	15880
841.153	15987
841.29	16147
841.427	16063
841.564	16013
841.701	16067
841.838	15937
841.975	15991
842.112	15895
842.249	15899
842.385	15732
842.522	15998
842.659	15903
842.796	15743
842.933	15899
843.069	15778
843.206	15641
843.343	15854
843.479	15876
843.616	15838
843.752	15587
843.889	15587
844.025	15660
844.162	15652
844.298	15717
844.435	15591
844.571	15591
844.708	15618
844.844	15717
844.98	15774
845.117	15766
845.253	15599
845.389	15466
845.525	15584
845.661	15515
845.798	15454
845.934	15439
846.07	15279
846.206	15515
846.342	15538
846.478	15332
846.614	15237
846.75	15176
846.886	15188
847.022	15176
847.158	15165
847.294	15241
847.429	15252
847.565	15116
847.701	15382
847.837	14914
847.972	14910
848.108	15039
848.244	15013
848.379	14727
848.515	14735
848.65	14758
848.786	14765
848.921	14807
849.057	14925
849.192	14948
849.328	14921
849.463	14807
849.598	14651
849.734	14724
849.869	14590
850.004	14606
850.14	14545
850.275	14533
850.41	14404
850.545	14389
850.68	14537
850.815	14499
850.95	14552
851.085	14705
851.22	14602
851.355	14617
851.49	14560
851.625	14511
851.76	14461
851.895	14465
852.03	14408
852.165	14568
852.299	14492
852.434	14583
852.569	14488
852.703	14507
852.838	14606
852.973	14708
853.107	14625
853.242	14492
853.376	14393
853.511	14313
853.645	14355
853.78	14454
853.914	14393
854.048	14431
854.183	14267
854.317	14427
854.451	14533
854.585	14469
854.72	14389
854.854	14533
854.988	14282
855.122	14438
855.256	14275
855.39	14366
855.524	14507
855.658	14389
855.792	14434
855.926	14442
856.06	14469
856.194	14537
856.327	14450
856.461	14343
856.595	14362
856.729	14298
856.862	14488
856.996	14419
857.13	14465
857.263	14552
857.397	14507
857.53	14309
857.664	14533
857.797	14518
857.931	14533
858.064	14450
858.197	14613
858.331	14412
858.464	14328
858.597	14309
858.731	14415
858.864	14377
858.997	14313
859.13	14408
859.263	14374
859.396	14530
859.529	14324
859.662	14328
859.795	14298
859.928	14415
860.061	14625
860.194	14564
860.327	14389
860.46	14358
860.592	14450
860.725	14469
860.858	14465
860.99	14351
861.123	14408
861.256	14278
861.388	14396
861.521	15138
861.653	14259
861.786	14210
861.918	14263
862.05	14252
862.183	14381
862.315	14389
862.447	14423
862.58	14332
862.712	14145
862.844	14077
862.976	14195
863.108	14286
863.24	14488
863.372	14126
863.504	14233
863.636	14244
863.768	14210
863.9	14199
864.032	14065
864.164	14077
864.296	14229
864.428	14423
864.559	14267
864.691	14240
864.823	14290
864.954	14237
865.086	14202
865.217	14142
865.349	14157
865.48	14176
865.612	14126
865.743	14267
865.875	14111
866.006	14149
866.137	14153
866.269	14187
866.4	14123
866.531	14202
866.662	14100
866.793	14062
866.924	14050
867.055	14225
867.186	14164
867.317	14115
867.448	14035
867.579	13986
867.71	14027
867.841	14134
867.972	14130
868.103	14130
868.233	14199
868.364	14218
868.495	14229
868.625	14370
868.756	14499
868.886	14294
869.017	14431
869.147	14499
869.278	14469
869.408	14434
869.539	14389
869.669	14377
869.799	14484
869.929	14564
870.06	14552
870.19	14667
870.32	14762
870.45	14743
870.58	14861
870.71	14914
870.84	14956
870.97	14777
871.1	14720
871.23	14971
871.36	15074
871.489	14937
871.619	14914
871.749	15028
871.879	14975
872.008	15039
872.138	15005
872.267	15013
872.397	14788
872.526	14769
872.656	14842
872.785	14880
872.915	15036
873.044	15173
873.173	15093
873.303	15108
873.432	15097
873.561	15097
873.69	15112
873.819	15020
873.948	15131
874.077	15104
874.206	14979
874.335	15017
874.464	15157
874.593	15374
874.722	15348
874.851	15348
874.979	15348
875.108	15473
875.237	15382
875.365	15233
875.494	15340
875.623	15367
875.751	15275
875.88	15538
876.008	15549
876.136	15663
876.265	15869
876.393	15983
876.521	15869
876.65	15892
876.778	15797
876.906	15709
877.034	15789
877.162	15755
877.29	15732
877.418	15717
877.546	15816
877.674	15762
877.802	15736
877.93	15743
878.058	15732
878.185	15599
878.313	15793
878.441	15698
878.568	15549
878.696	15785
878.824	15846
878.951	15899
879.079	15998
879.206	16044
879.333	16078
879.461	15823
879.588	15861
879.715	15937
879.842	15960
879.97	15926
880.097	15652
880.224	15587
880.351	15614
880.478	15705
880.605	15656
880.732	15614
880.859	15903
880.986	15644
881.112	15717
881.239	15488
881.366	15477
881.493	15359
881.619	15233
881.746	15291
881.872	15321
881.999	15283
882.125	15245
882.252	15222
882.378	15325
882.505	15405
882.631	15222
882.757	14994
882.883	15165
883.01	15123
883.136	15108
883.262	14994
883.388	14937
883.514	15100
883.64	15127
883.766	15062
883.892	14807
884.018	14986
884.143	15043
884.269	15218
884.395	14918
884.52	14819
884.646	14792
884.772	14663
884.897	14765
885.023	14777
885.148	14956
885.274	15032
885.399	14864
885.524	14712
885.65	14887
885.775	14781
885.9	14739
886.025	14853
886.15	14788
886.275	14800
886.4	14693
886.525	14785
886.65	14697
886.775	14739
886.9	14921
887.025	14998
887.149	14762
887.274	14762
887.399	14686
887.523	14632
887.648	14526
887.773	14526
887.897	14697
888.021	14632
888.146	14610
888.27	14769
888.395	14807
888.519	14708
888.643	14640
888.767	14731
888.891	14484
889.015	14492
889.139	14571
889.263	14473
889.387	14598
889.511	14659
889.635	14648
889.759	14503
889.883	14503
890.006	14556
890.13	14575
890.254	14469
890.377	14480
890.501	14301
890.624	14377
890.748	14278
890.871	14221
890.995	14210
891.118	14187
891.241	14263
891.364	14240
891.488	14320
891.611	14123
891.734	14237
891.857	14320
891.98	14153
892.103	14214
892.226	14248
892.349	14263
892.471	14054
892.594	14180
892.717	14221
892.839	14164
892.962	14202
893.085	14339
893.207	14301
893.33	14081
893.452	14214
893.575	14320
893.697	14138
893.819	14317
893.941	14473
894.064	14294
894.186	14176
894.308	14096
894.43	14267
894.552	14457
894.674	14355
894.796	14142
894.918	14237
895.04	14244
895.161	14320
895.283	14374
895.405	14195
895.526	14305
895.648	14248
895.769	14301
895.891	14358
896.012	14423
896.134	14412
896.255	14457
896.376	14271
896.498	14400
896.619	14446
896.74	14362
896.861	14404
896.982	14686
897.103	14872
897.224	14693
897.345	14556
897.466	14579
897.587	14640
897.708	14887
897.828	14724
897.949	14640
898.07	14454
898.19	14636
898.311	14724
898.431	14556
898.552	14697
898.672	14727
898.792	14746
898.913	14876
899.033	14708
899.153	14571
899.273	14450
899.393	14412
899.513	14556
899.633	14571
899.753	14659
899.873	14499
899.993	14545
900.113	14560
900.232	14689
900.352	14511
900.472	14583
900.591	14404
900.711	14457
900.83	14404
900.95	14602
901.069	14499
901.189	14385
901.308	14172
901.427	14012
901.546	14115
901.665	14081
901.784	14126
901.904	14012
902.023	13947
902.141	13677
902.26	13693
902.379	13795
902.498	13639
902.617	13559
902.735	13651
902.854	13700
902.973	13613
903.091	13502
903.21	13384
903.328	13293
903.446	13343
903.565	13221
903.683	13266
903.801	13183
903.919	13278
904.038	13179
904.156	12993
904.274	13114
904.392	13076
904.51	13057
904.627	12958
904.745	13050
904.863	13160
904.981	12916
905.098	12684
905.216	12768
905.334	12681
905.451	12810
905.569	12658
905.686	12730
905.803	12722
905.921	12563
906.038	12696
906.155	12536
906.272	12452
906.389	12582
906.506	12311
906.623	12365
906.74	12327
906.857	12194
906.974	12167
907.091	12353
907.208	12464
907.324	12422
907.441	12254
907.557	12117
907.674	12034
907.79	11969
907.907	12019
908.023	12136
908.139	12072
908.256	12076
908.372	11965
908.488	12022
908.604	11847
908.72	11752
908.836	11916
908.952	11786
909.068	11855
909.184	11969
909.3	11802
909.415	11923
909.531	11893
909.647	11661
909.762	11653
909.878	11585
909.993	11596
910.108	11634
910.224	11592
910.339	11558
910.454	11524
910.57	11463
910.685	11455
910.8	11707
910.915	11691
911.03	11509
911.145	11353
911.259	11299
911.374	11353
911.489	11299
911.604	11216
911.718	11140
911.833	11170
911.947	11025
912.062	10904
912.176	11079
912.291	11075
912.405	11102
912.519	11227
912.633	11322
912.748	11151
912.862	11029
912.976	11022
913.09	10820
913.204	10866
913.318	10999
913.431	11025
913.545	11037
913.659	11041
913.772	10915
913.886	10858
914	10816
914.113	10919
914.226	10995
914.34	10968
914.453	10790
914.566	10976
914.68	10767
914.793	10801
914.906	10698
915.019	10558
915.132	10546
915.245	10561
915.358	10649
915.47	10634
915.583	10577
915.696	10649
915.809	10748
915.921	10740
916.034	10626
916.146	10653
916.259	10500
916.371	10649
916.483	10508
916.595	10588
916.708	10565
916.82	10527
916.932	10584
917.044	10516
917.156	10443
917.268	10409
917.38	10421
917.491	10428
917.603	10489
917.715	10474
917.826	10523
917.938	10436
918.049	10318
918.161	10474
918.272	10626
918.384	10580
918.495	10493
918.606	10310
918.717	10162
918.828	10268
918.939	10344
919.05	10223
919.161	10310
919.272	10147
919.383	10097
919.494	10299
919.604	10527
919.715	10314
919.826	10314
919.936	10291
920.047	10375
920.157	10379
920.267	10497
920.378	10386
920.488	10253
920.598	10516
920.708	10653
920.818	10584
920.928	10500
921.038	10729
921.148	10637
921.258	10348
921.368	10257
921.477	10188
921.587	10181
921.697	10040
921.806	10147
921.916	10093
922.025	9941
922.134	9934
922.244	9812
922.353	9838
922.462	9698
922.571	9720
922.68	9576
922.789	9523
922.898	9557
923.007	9485
923.116	9504
923.224	9557
923.333	9622
923.442	9458
923.55	9405
923.659	9473
923.767	9496
923.876	9454
923.984	9504
924.092	9412
924.201	9447
924.309	9477
924.417	9454
924.525	9378
924.633	9428
924.741	10360
924.849	9241
924.956	9378
925.064	9199
925.172	9173
925.279	9146
925.387	9233
925.494	9226
925.602	9355
925.709	9332
925.816	9119
925.924	9230
926.031	9291
926.138	9268
926.245	9241
926.352	9119
926.459	9325
926.566	9431
926.673	9127
926.779	9032
926.886	9051
926.993	8956
927.099	8933
927.206	8876
927.312	8880
927.419	8948
927.525	8956
927.631	8960
927.737	8864
927.843	8746
927.95	8693
928.056	8826
928.162	8876
928.267	8937
928.373	9523
928.479	8849
928.585	8689
928.69	8834
928.796	8842
928.901	8724
929.007	8575
929.112	8727
929.218	8708
929.323	8682
929.428	8667
929.533	8785
929.638	8575
929.743	8629
929.848	8716
929.953	8587
930.058	8541
930.163	8396
930.267	8415
930.372	8522
930.477	8290
930.581	8610
930.685	8469
930.79	8309
930.894	8347
930.998	8286
931.103	8476
931.207	8172
931.311	8077
931.415	8062
931.519	7890
931.623	7906
