Data from test_V78500241_688.txt Node
Date: Fri Mar 25 14:38:30 CST 2022
User: usil
Spectrometer: V785-0024
Trigger mode: 0
Integration Time (sec): 4.000000E-1
Scans to average: 1
Nonlinearity correction enabled: false
Boxcar width: 0
Storing dark spectrum: false
XAxis mode: Wavelengths
Number of Pixels in Spectrum: 1024
>>>>>Begin Spectral Data<<<<<
801.071	28078
801.214	27949
801.356	27652
801.499	27682
801.641	27473
801.783	27447
801.926	27549
802.068	27310
802.211	27233
802.353	27252
802.496	27100
802.638	26967
802.78	27001
802.923	27058
803.065	26876
803.208	26667
803.35	26960
803.492	27138
803.635	27173
803.777	27096
803.919	27123
804.061	27515
804.204	27119
804.346	27131
804.488	27104
804.63	27199
804.773	27116
804.915	27127
805.057	27435
805.199	27466
805.341	27629
805.483	27701
805.626	27553
805.768	27747
805.91	27774
806.052	27956
806.194	27960
806.336	28531
806.478	28295
806.62	28485
806.762	28885
806.904	29239
807.046	29961
807.188	30338
807.33	30585
807.472	31225
807.614	31769
807.756	32708
807.898	33914
808.04	35604
808.182	37479
808.324	40242
808.465	43217
808.607	46569
808.749	49381
808.891	51146
809.033	51332
809.174	49913
809.316	47025
809.458	43171
809.6	39880
809.741	37183
809.883	34847
810.025	33424
810.166	32324
810.308	31308
810.45	30882
810.591	30178
810.733	29592
810.875	29356
811.016	28995
811.158	28744
811.299	28843
811.441	28565
811.582	28546
811.724	28333
811.865	28067
812.007	27850
812.148	27857
812.29	27907
812.431	28063
812.573	27998
812.714	28124
812.855	27953
812.997	28128
813.138	28280
813.279	28090
813.421	27949
813.562	27793
813.703	27762
813.845	27504
813.986	27138
814.127	27096
814.268	26750
814.41	26883
814.551	26712
814.692	26750
814.833	26644
814.974	26499
815.115	26648
815.256	26476
815.397	26408
815.539	26431
815.68	26191
815.821	26199
815.962	26336
816.103	26111
816.244	26005
816.385	25978
816.526	25944
816.666	25693
816.807	25639
816.948	25727
817.089	25635
817.23	25556
817.371	25533
817.512	25609
817.653	25388
817.793	25502
817.934	25483
818.075	25609
818.216	25491
818.356	25426
818.497	25453
818.638	25266
818.778	25183
818.919	25095
819.06	25221
819.2	25354
819.341	25301
819.481	25343
819.622	25468
819.762	25518
819.903	25727
820.043	25407
820.184	25430
820.324	25457
820.465	25384
820.605	25320
820.746	25316
820.886	25145
821.026	25175
821.167	25225
821.307	25198
821.447	25118
821.588	24943
821.728	24882
821.868	24711
822.008	24616
822.149	24639
822.289	24483
822.429	24308
822.569	24110
822.709	24262
822.849	23977
822.99	24060
823.13	23988
823.27	23878
823.41	23840
823.55	23703
823.69	23843
823.83	23783
823.97	23668
824.11	23535
824.25	23524
824.389	23459
824.529	23646
824.669	23448
824.809	23687
824.949	23703
825.089	23627
825.228	23505
825.368	23360
825.508	23356
825.648	23376
825.787	23539
825.927	23398
826.067	23280
826.206	23261
826.346	23410
826.485	23299
826.625	23242
826.765	23429
826.904	23337
827.044	23075
827.183	23178
827.323	22930
827.462	23159
827.601	23022
827.741	22908
827.88	23025
828.02	22900
828.159	23044
828.298	23079
828.437	23064
828.577	22957
828.716	23044
828.855	22976
828.994	22675
829.134	22736
829.273	22630
829.412	22691
829.551	22512
829.69	22580
829.829	22698
829.968	22733
830.107	22809
830.246	22668
830.385	22535
830.524	22516
830.663	22489
830.802	22447
830.941	22188
831.08	22177
831.219	22474
831.357	22318
831.496	22557
831.635	22261
831.774	22090
831.913	22135
832.051	22185
832.19	22067
832.329	22032
832.467	22116
832.606	22067
832.744	22067
832.883	22181
833.022	22253
833.16	22280
833.299	22474
833.437	22565
833.576	22763
833.714	22946
833.852	23071
833.991	23159
834.129	23239
834.267	23246
834.406	23216
834.544	23159
834.682	23048
834.821	22755
834.959	22919
835.097	22550
835.235	22554
835.373	22516
835.511	22405
835.65	22109
835.788	22074
835.926	21907
836.064	21732
836.202	21739
836.34	21736
836.478	21911
836.615	21785
836.753	21709
836.891	21903
837.029	21842
837.167	21698
837.305	21614
837.443	21641
837.58	21606
837.718	21648
837.856	21534
837.993	21447
838.131	21515
838.269	21424
838.406	21439
838.544	21291
838.681	21176
838.819	21207
838.956	20963
839.094	21001
839.231	20979
839.369	21218
839.506	21431
839.643	21256
839.781	21020
839.918	20910
840.055	20979
840.193	21001
840.33	20914
840.467	20910
840.604	21047
840.742	21176
840.879	20804
841.016	20819
841.153	20929
841.29	21089
841.427	20933
841.564	20998
841.701	21066
841.838	20960
841.975	20788
842.112	20842
842.249	20830
842.385	20720
842.522	20937
842.659	20743
842.796	20746
842.933	20731
843.069	20807
843.206	20697
843.343	20880
843.479	20883
843.616	20937
843.752	20697
843.889	20857
844.025	21028
844.162	20944
844.298	21119
844.435	21203
844.571	21401
844.708	21648
844.844	22147
844.98	22660
845.117	23239
845.253	24106
845.389	26157
845.525	29695
845.661	35775
845.798	42677
845.934	47878
846.07	49887
846.206	48159
846.342	43384
846.478	36540
846.614	30407
846.75	26499
846.886	24292
847.022	23022
847.158	22154
847.294	21534
847.429	21081
847.565	20921
847.701	20941
847.837	20183
847.972	20214
848.108	20195
848.244	20103
848.379	19936
848.515	19822
848.65	19845
848.786	19746
848.921	19811
849.057	19776
849.192	19681
849.328	19727
849.463	19723
849.598	19674
849.734	19407
849.869	19350
850.004	19362
850.14	19415
850.275	19266
850.41	19293
850.545	19327
850.68	19308
850.815	19400
850.95	19339
851.085	19476
851.22	19438
851.355	19343
851.49	19369
851.625	19335
851.76	19335
851.895	19251
852.03	19247
852.165	19392
852.299	19419
852.434	19529
852.569	19415
852.703	19369
852.838	19445
852.973	19483
853.107	19616
853.242	19438
853.376	19449
853.511	19365
853.645	19343
853.78	19620
853.914	19514
854.048	19464
854.183	19624
854.317	19628
854.451	19632
854.585	19620
854.72	19563
854.854	19590
854.988	19381
855.122	19468
855.256	19369
855.39	19384
855.524	19483
855.658	19365
855.792	19274
855.926	19263
856.06	19392
856.194	19373
856.327	19175
856.461	19129
856.595	19168
856.729	19114
856.862	19282
856.996	19171
857.13	19133
857.263	19259
857.397	19141
857.53	19133
857.664	19187
857.797	19145
857.931	19183
858.064	19110
858.197	19187
858.331	19061
858.464	18954
858.597	19034
858.731	18947
858.864	19175
858.997	19008
859.13	19038
859.263	19000
859.396	19129
859.529	18958
859.662	18973
859.795	18897
859.928	18939
860.061	19053
860.194	19110
860.327	19050
860.46	18856
860.592	19000
860.725	19027
860.858	19110
860.99	18951
861.123	18844
861.256	18966
861.388	18962
861.521	19616
861.653	18776
861.786	18688
861.918	18768
862.05	18958
862.183	18871
862.315	18966
862.447	18993
862.58	18867
862.712	18757
862.844	18547
862.976	18635
863.108	18650
863.24	19072
863.372	18574
863.504	18604
863.636	18681
863.768	18627
863.9	18684
864.032	18479
864.164	18578
864.296	18635
864.428	18749
864.559	18604
864.691	18779
864.823	18654
864.954	18574
865.086	18506
865.217	18509
865.349	18433
865.48	18502
865.612	18437
865.743	18760
865.875	18585
866.006	18506
866.137	18460
866.269	18604
866.4	18574
866.531	18350
866.662	18555
866.793	18342
866.924	18403
867.055	18479
867.186	18479
867.317	18418
867.448	18357
867.579	18448
867.71	18372
867.841	18418
867.972	18528
868.103	18471
868.233	18597
868.364	18540
868.495	18627
868.625	18734
868.756	18802
868.886	18696
869.017	18772
869.147	18916
869.278	18795
869.408	18848
869.539	18817
869.669	18878
869.799	18890
869.929	18928
870.06	18901
870.19	19084
870.32	19168
870.45	19057
870.58	19236
870.71	19297
870.84	19316
870.97	19263
871.1	19164
871.23	19510
871.36	19506
871.489	19285
871.619	19400
871.749	19419
871.879	19575
872.008	19582
872.138	19499
872.267	19502
872.397	19396
872.526	19308
872.656	19308
872.785	19392
872.915	19537
873.044	19753
873.173	19639
873.303	19613
873.432	19761
873.561	19704
873.69	19719
873.819	19833
873.948	19940
874.077	19731
874.206	19780
874.335	19807
874.464	19890
874.593	20218
874.722	20180
874.851	20168
874.979	20252
875.108	20400
875.237	20328
875.365	20328
875.494	20400
875.623	20507
875.751	20438
875.88	20537
876.008	20651
876.136	20781
876.265	21039
876.393	21260
876.521	21192
876.65	21279
876.778	21268
876.906	21245
877.034	21306
877.162	21397
877.29	21462
877.418	21534
877.546	21705
877.674	21698
877.802	21869
877.93	22082
878.058	22287
878.185	22363
878.313	22615
878.441	22999
878.568	23273
878.696	23958
878.824	24844
878.951	26008
879.079	27405
879.206	29539
879.333	31662
879.461	33260
879.588	34504
879.715	34565
879.842	33660
879.97	31894
880.097	29448
880.224	27899
880.351	26629
880.478	25864
880.605	25175
880.732	24840
880.859	24810
880.986	24467
881.112	24292
881.239	24136
881.366	23821
881.493	24026
881.619	23748
881.746	23847
881.872	24041
881.999	23870
882.125	23942
882.252	24083
882.378	24091
882.505	24251
882.631	23969
882.757	23882
882.883	23931
883.01	24083
883.136	23828
883.262	23855
883.388	23699
883.514	24068
883.64	23893
883.766	23809
883.892	23554
884.018	23718
884.143	23824
884.269	23973
884.395	23699
884.52	23630
884.646	23668
884.772	23687
884.897	23516
885.023	23653
885.148	23570
885.274	23737
885.399	23505
885.524	23337
885.65	23269
885.775	23216
885.9	23052
886.025	22946
886.15	22778
886.275	22462
886.4	22485
886.525	22223
886.65	22207
886.775	22006
886.9	21918
887.025	22070
887.149	21587
887.274	21534
887.399	21428
887.523	21344
887.648	20979
887.773	20960
887.897	21047
888.021	21024
888.146	20731
888.27	20967
888.395	20971
888.519	20765
888.643	20678
888.767	20648
888.891	20473
889.015	20450
889.139	20298
889.263	20252
889.387	20355
889.511	20305
889.635	20355
889.759	20046
889.883	19963
890.006	20031
890.13	20081
890.254	19936
890.377	19746
890.501	19651
890.624	19594
890.748	19601
890.871	19559
890.995	19445
891.118	19308
891.241	19373
891.364	19168
891.488	19324
891.611	19228
891.734	19308
891.857	19388
891.98	19206
892.103	19247
892.226	19164
892.349	19046
892.471	18897
892.594	19027
892.717	18932
892.839	18962
892.962	18886
893.085	18939
893.207	19004
893.33	18757
893.452	18753
893.575	18817
893.697	18779
893.819	18833
893.941	18966
894.064	18928
894.186	18578
894.308	18563
894.43	18734
894.552	18844
894.674	18703
894.796	18490
894.918	18589
895.04	18646
895.161	18669
895.283	18532
895.405	18506
895.526	18578
895.648	18486
895.769	18464
895.891	18479
896.012	18555
896.134	18445
896.255	18502
896.376	18410
896.498	18399
896.619	18422
896.74	18391
896.861	18525
896.982	18681
897.103	18863
897.224	18692
897.345	18604
897.466	18654
897.587	18460
897.708	18623
897.828	18646
897.949	18502
898.07	18483
898.19	18490
898.311	18715
898.431	18490
898.552	18525
898.672	18764
898.792	18608
898.913	18608
899.033	18384
899.153	18483
899.273	18338
899.393	18296
899.513	18350
899.633	18448
899.753	18384
899.873	18289
899.993	18410
900.113	18285
900.232	18311
900.352	18228
900.472	18270
900.591	17999
900.711	18110
900.83	18106
900.95	18232
901.069	18136
901.189	17958
901.308	17832
901.427	17718
901.546	17707
901.665	17619
901.784	17634
901.904	17585
902.023	17364
902.141	17326
902.26	17147
902.379	17261
902.498	17174
902.617	17117
902.735	17102
902.854	17117
902.973	16938
903.091	16740
903.21	16717
903.328	16767
903.446	16725
903.565	16584
903.683	16645
903.801	16409
903.919	16500
904.038	16508
904.156	16341
904.274	16352
904.392	16291
904.51	16185
904.627	16257
904.745	16348
904.863	16299
904.981	16090
905.098	15972
905.216	15895
905.334	15972
905.451	16010
905.569	15854
905.686	15876
905.803	15915
905.921	15629
906.038	15804
906.155	15675
906.272	15545
906.389	15637
906.506	15507
906.623	15420
906.74	15382
906.857	15211
906.974	15386
907.091	15473
907.208	15587
907.324	15424
907.441	15348
907.557	15233
907.674	15135
907.79	15070
907.907	15108
908.023	15116
908.139	15184
908.256	15062
908.372	15039
908.488	14982
908.604	14883
908.72	14925
908.836	14849
908.952	14743
909.068	14883
909.184	14960
909.3	14853
909.415	14861
909.531	14883
909.647	14549
909.762	14590
909.878	14541
909.993	14640
910.108	14473
910.224	14579
910.339	14594
910.454	14484
910.57	14377
910.685	14381
910.8	14587
910.915	14484
911.03	14415
911.145	14237
911.259	14290
911.374	14221
911.489	14263
911.604	14130
911.718	13974
911.833	13917
911.947	13826
912.062	13780
912.176	13849
912.291	13902
912.405	13894
912.519	14031
912.633	14138
912.748	13959
912.862	13841
912.976	13761
913.09	13655
913.204	13700
913.318	13826
913.431	13830
913.545	13826
913.659	13936
913.772	13788
913.886	13700
914	13670
914.113	13609
914.226	13769
914.34	13738
914.453	13548
914.566	13674
914.68	13571
914.793	13552
914.906	13487
915.019	13335
915.132	13270
915.245	13255
915.358	13289
915.47	13335
915.583	13369
915.696	13289
915.809	13426
915.921	13521
916.034	13365
916.146	13331
916.259	13312
916.371	13407
916.483	13403
916.595	13358
916.708	13255
916.82	13369
916.932	13137
917.044	13190
917.156	13206
917.268	13080
917.38	13133
917.491	13080
917.603	13050
917.715	13145
917.826	13133
917.938	12920
918.049	12897
918.161	13004
918.272	13129
918.384	13164
918.495	13012
918.606	12844
918.717	12779
918.828	12810
918.939	12867
919.05	12810
919.161	12753
919.272	12658
919.383	12578
919.494	12783
919.604	12989
919.715	12852
919.826	12779
919.936	12829
920.047	12928
920.157	12684
920.267	12867
920.378	12757
920.488	12719
920.598	12837
920.708	13133
920.818	12867
920.928	12970
921.038	12962
921.148	13015
921.258	12734
921.368	12559
921.477	12540
921.587	12521
921.697	12433
921.806	12513
921.916	12361
922.025	12220
922.134	12258
922.244	12216
922.353	12258
922.462	12186
922.571	11946
922.68	11859
922.789	11882
922.898	11912
923.007	11878
923.116	11931
923.224	11843
923.333	11866
923.442	11779
923.55	11653
923.659	11771
923.767	11817
923.876	11642
923.984	11756
924.092	11661
924.201	11707
924.309	11600
924.417	11688
924.525	11657
924.633	11638
924.741	12456
924.849	11364
924.956	11573
925.064	11448
925.172	11345
925.279	11318
925.387	11436
925.494	11406
925.602	11509
925.709	11528
925.816	11322
925.924	11277
926.031	11463
926.138	11379
926.245	11395
926.352	11258
926.459	11410
926.566	11486
926.673	11337
926.779	11201
926.886	11159
926.993	11003
927.099	11056
927.206	10946
927.312	10915
927.419	11018
927.525	11022
927.631	11064
927.737	10869
927.843	10923
927.95	10835
928.056	10946
928.162	10866
928.267	10995
928.373	11429
928.479	10965
928.585	10714
928.69	10885
928.796	10850
928.901	10740
929.007	10573
929.112	10786
929.218	10717
929.323	10653
929.428	10611
929.533	10877
929.638	10588
929.743	10554
929.848	10615
929.953	10649
930.058	10451
930.163	10325
930.267	10314
930.372	10512
930.477	10280
930.581	10596
930.685	10398
930.79	10207
930.894	10287
930.998	10207
931.103	10409
931.207	10116
931.311	9880
931.415	9804
931.519	9690
931.623	9652
