Data from test_V78500241_1650.txt Node
Date: Fri Mar 25 14:45:12 CST 2022
User: usil
Spectrometer: V785-0024
Trigger mode: 0
Integration Time (sec): 4.000000E-1
Scans to average: 1
Nonlinearity correction enabled: false
Boxcar width: 0
Storing dark spectrum: false
XAxis mode: Wavelengths
Number of Pixels in Spectrum: 1024
>>>>>Begin Spectral Data<<<<<
801.071	22337
801.214	22253
801.356	21937
801.499	21865
801.641	21618
801.783	21652
801.926	21629
802.068	21591
802.211	21583
802.353	21576
802.496	21180
802.638	21169
802.78	21184
802.923	21096
803.065	21058
803.208	21013
803.35	21005
803.492	21218
803.635	21180
803.777	21043
803.919	21123
804.061	21428
804.204	21051
804.346	20982
804.488	20887
804.63	21024
804.773	20902
804.915	20956
805.057	21173
805.199	20941
805.341	20929
805.483	21199
805.626	21039
805.768	21051
805.91	20929
806.052	21036
806.194	20864
806.336	21085
806.478	20937
806.62	20891
806.762	20982
806.904	21104
807.046	21325
807.188	21363
807.33	21291
807.472	21329
807.614	21287
807.756	21249
807.898	21001
808.04	21032
808.182	20952
808.324	21093
808.465	21047
808.607	21214
808.749	21359
808.891	21359
809.033	21736
809.174	21500
809.316	21412
809.458	21321
809.6	21329
809.741	21397
809.883	21534
810.025	21492
810.166	21656
810.308	21530
810.45	21500
810.591	21386
810.733	21279
810.875	21222
811.016	20986
811.158	20967
811.299	21173
811.441	21329
811.582	21138
811.724	20948
811.865	20960
812.007	21043
812.148	21135
812.29	21104
812.431	21264
812.573	21370
812.714	21431
812.855	21610
812.997	21812
813.138	21808
813.279	21675
813.421	21671
813.562	21481
813.703	21389
813.845	21386
813.986	21028
814.127	20838
814.268	20701
814.41	20724
814.551	20613
814.692	20632
814.833	20564
814.974	20621
815.115	20674
815.256	20450
815.397	20438
815.539	20568
815.68	20465
815.821	20374
815.962	20457
816.103	20278
816.244	20233
816.385	20149
816.526	20138
816.666	20031
816.807	19868
816.948	19830
817.089	20027
817.23	19856
817.371	19811
817.512	19784
817.653	19708
817.793	19719
817.934	19849
818.075	19769
818.216	19788
818.356	19788
818.497	19575
818.638	19510
818.778	19491
818.919	19487
819.06	19544
819.2	19518
819.341	19780
819.481	19616
819.622	19909
819.762	19921
819.903	19913
820.043	19811
820.184	19784
820.324	19841
820.465	19894
820.605	19772
820.746	19780
820.886	19685
821.026	19731
821.167	19780
821.307	19750
821.447	19521
821.588	19563
821.728	19480
821.868	19350
822.008	19187
822.149	19031
822.289	19069
822.429	18871
822.569	18795
822.709	18779
822.849	18608
822.99	18681
823.13	18585
823.27	18608
823.41	18410
823.55	18536
823.69	18464
823.83	18395
823.97	18517
824.11	18243
824.25	18289
824.389	18232
824.529	18304
824.669	18262
824.809	18342
824.949	18270
825.089	18369
825.228	18300
825.368	18163
825.508	18087
825.648	18102
825.787	18060
825.927	17996
826.067	17999
826.206	18057
826.346	18041
826.485	18011
826.625	17946
826.765	18159
826.904	18057
827.044	17843
827.183	17741
827.323	17619
827.462	17813
827.601	17722
827.741	17687
827.88	17733
828.02	17649
828.159	17783
828.298	17764
828.437	17866
828.577	17726
828.716	17836
828.855	17680
828.994	17539
829.134	17440
829.273	17512
829.412	17509
829.551	17421
829.69	17505
829.829	17493
829.968	17551
830.107	17497
830.246	17497
830.385	17467
830.524	17303
830.663	17292
830.802	17216
830.941	17079
831.08	17140
831.219	17212
831.357	17075
831.496	17284
831.635	17003
831.774	17033
831.913	17083
832.051	16892
832.19	16999
832.329	16877
832.467	16778
832.606	16763
832.744	16767
832.883	16710
833.022	16801
833.16	16850
833.299	16793
833.437	16847
833.576	16733
833.714	16946
833.852	16934
833.991	16812
834.129	16843
834.267	16923
834.406	16797
834.544	16930
834.682	16911
834.821	16812
834.959	16946
835.097	16752
835.235	16896
835.373	16850
835.511	16831
835.65	16793
835.788	16611
835.926	16573
836.064	16504
836.202	16451
836.34	16767
836.478	16774
836.615	16759
836.753	16786
836.891	16869
837.029	16793
837.167	16744
837.305	16645
837.443	16725
837.58	16485
837.718	16660
837.856	16603
837.993	16554
838.131	16664
838.269	16493
838.406	16550
838.544	16413
838.681	16314
838.819	16204
838.956	16158
839.094	16196
839.231	16162
839.369	16318
839.506	16580
839.643	16344
839.781	16131
839.918	16150
840.055	16162
840.193	16169
840.33	16093
840.467	16200
840.604	16135
840.742	16413
840.879	16055
841.016	15949
841.153	16124
841.29	16207
841.427	16139
841.564	16128
841.701	16093
841.838	16040
841.975	16017
842.112	16010
842.249	15895
842.385	15819
842.522	16059
842.659	15949
842.796	15899
842.933	16006
843.069	15934
843.206	15876
843.343	16051
843.479	15918
843.616	15926
843.752	15720
843.889	15637
844.025	15736
844.162	15663
844.298	15797
844.435	15698
844.571	15606
844.708	15656
844.844	15911
844.98	15854
845.117	15884
845.253	15717
845.389	15420
845.525	15584
845.661	15553
845.798	15515
845.934	15648
846.07	15538
846.206	15507
846.342	15644
846.478	15500
846.614	15249
846.75	15268
846.886	15199
847.022	15340
847.158	15291
847.294	15260
847.429	15294
847.565	15173
847.701	15580
847.837	15013
847.972	14948
848.108	15058
848.244	15165
848.379	14929
848.515	14857
848.65	14887
848.786	14921
848.921	14929
849.057	14982
849.192	14929
849.328	14918
849.463	14864
849.598	14834
849.734	14754
849.869	14807
850.004	14667
850.14	14720
850.275	14552
850.41	14488
850.545	14625
850.68	14610
850.815	14674
850.95	14621
851.085	14800
851.22	14758
851.355	14659
851.49	14644
851.625	14693
851.76	14613
851.895	14484
852.03	14575
852.165	14556
852.299	14663
852.434	14750
852.569	14674
852.703	14663
852.838	14674
852.973	14678
853.107	14769
853.242	14686
853.376	14499
853.511	14351
853.645	14419
853.78	14659
853.914	14564
854.048	14492
854.183	14457
854.317	14476
854.451	14598
854.585	14400
854.72	14541
854.854	14495
854.988	14415
855.122	14469
855.256	14419
855.39	14495
855.524	14492
855.658	14442
855.792	14488
855.926	14461
856.06	14663
856.194	14587
856.327	14495
856.461	14446
856.595	14415
856.729	14602
856.862	14564
856.996	14556
857.13	14598
857.263	14495
857.397	14602
857.53	14530
857.664	14518
857.797	14629
857.931	14693
858.064	14511
858.197	14629
858.331	14499
858.464	14415
858.597	14358
858.731	14454
858.864	14511
858.997	14450
859.13	14541
859.263	14427
859.396	14564
859.529	14484
859.662	14511
859.795	14423
859.928	14507
860.061	14682
860.194	14743
860.327	14499
860.46	14492
860.592	14590
860.725	14644
860.858	14636
860.99	14469
861.123	14454
861.256	14377
861.388	14438
861.521	15188
861.653	14278
861.786	14347
861.918	14339
862.05	14476
862.183	14434
862.315	14473
862.447	14533
862.58	14313
862.712	14119
862.844	14252
862.976	14336
863.108	14351
863.24	14811
863.372	14161
863.504	14233
863.636	14305
863.768	14267
863.9	14290
864.032	14126
864.164	14267
864.296	14320
864.428	14339
864.559	14366
864.691	14408
864.823	14358
864.954	14324
865.086	14252
865.217	14237
865.349	14248
865.48	14256
865.612	14336
865.743	14377
865.875	14248
866.006	14225
866.137	14195
866.269	14233
866.4	14229
866.531	14195
866.662	14233
866.793	14195
866.924	14153
867.055	14256
867.186	14267
867.317	14176
867.448	14161
867.579	14119
867.71	14081
867.841	14161
867.972	14298
868.103	14206
868.233	14275
868.364	14256
868.495	14282
868.625	14450
868.756	14594
868.886	14431
869.017	14450
869.147	14518
869.278	14602
869.408	14556
869.539	14442
869.669	14499
869.799	14545
869.929	14590
870.06	14499
870.19	14765
870.32	14788
870.45	14796
870.58	14899
870.71	14899
870.84	15013
870.97	14880
871.1	14845
871.23	15093
871.36	15017
871.489	15001
871.619	15077
871.749	14979
871.879	15097
872.008	15165
872.138	15104
872.267	15024
872.397	14891
872.526	14918
872.656	14861
872.785	14902
872.915	15188
873.044	15226
873.173	15188
873.303	15150
873.432	15218
873.561	15207
873.69	15188
873.819	15192
873.948	15169
874.077	15245
874.206	15135
874.335	15192
874.464	15291
874.593	15405
874.722	15306
874.851	15496
874.979	15401
875.108	15507
875.237	15443
875.365	15405
875.494	15401
875.623	15500
875.751	15431
875.88	15530
876.008	15549
876.136	15606
876.265	15850
876.393	15991
876.521	16013
876.65	15907
876.778	15861
876.906	15934
877.034	15724
877.162	15797
877.29	15778
877.418	15873
877.546	15865
877.674	15846
877.802	15819
877.93	15812
878.058	15835
878.185	15778
878.313	15747
878.441	15895
878.568	15663
878.696	15857
878.824	15846
878.951	15911
879.079	16135
879.206	16226
879.333	15934
879.461	16002
879.588	15987
879.715	16025
879.842	16204
879.97	15991
880.097	15732
880.224	15728
880.351	15713
880.478	15819
880.605	15587
880.732	15705
880.859	15857
880.986	15648
881.112	15724
881.239	15644
881.366	15386
881.493	15412
881.619	15412
881.746	15473
881.872	15450
881.999	15344
882.125	15306
882.252	15443
882.378	15367
882.505	15507
882.631	15329
882.757	15230
882.883	15218
883.01	15195
883.136	15127
883.262	15058
883.388	14918
883.514	15245
883.64	15199
883.766	15058
883.892	15020
884.018	15024
884.143	15218
884.269	15264
884.395	14986
884.52	14883
884.646	14910
884.772	14834
884.897	14807
885.023	14842
885.148	14975
885.274	15085
885.399	14971
885.524	14880
885.65	14857
885.775	14918
885.9	14834
886.025	14960
886.15	14960
886.275	14811
886.4	14868
886.525	14845
886.65	14842
886.775	14781
886.9	15001
887.025	15112
887.149	14887
887.274	14750
887.399	14724
887.523	14617
887.648	14606
887.773	14629
887.897	14785
888.021	14720
888.146	14648
888.27	14750
888.395	14735
888.519	14705
888.643	14785
888.767	14720
888.891	14564
889.015	14499
889.139	14492
889.263	14545
889.387	14632
889.511	14712
889.635	14667
889.759	14541
889.883	14526
890.006	14602
890.13	14644
890.254	14533
890.377	14533
890.501	14355
890.624	14347
890.748	14484
890.871	14145
890.995	14237
891.118	14176
891.241	14358
891.364	14366
891.488	14294
891.611	14172
891.734	14267
891.857	14377
891.98	14313
892.103	14332
892.226	14309
892.349	14210
892.471	14096
892.594	14168
892.717	14313
892.839	14240
892.962	14183
893.085	14244
893.207	14267
893.33	14084
893.452	14206
893.575	14252
893.697	14187
893.819	14362
893.941	14469
894.064	14355
894.186	14240
894.308	14157
894.43	14434
894.552	14362
894.674	14404
894.796	14172
894.918	14313
895.04	14183
895.161	14358
895.283	14377
895.405	14263
895.526	14320
895.648	14370
895.769	14336
895.891	14412
896.012	14469
896.134	14381
896.255	14412
896.376	14332
896.498	14438
896.619	14480
896.74	14488
896.861	14541
896.982	14705
897.103	14883
897.224	14754
897.345	14594
897.466	14697
897.587	14701
897.708	14830
897.828	14712
897.949	14697
898.07	14594
898.19	14606
898.311	14849
898.431	14765
898.552	14811
898.672	14849
898.792	14754
898.913	14868
899.033	14735
899.153	14659
899.273	14537
899.393	14644
899.513	14473
899.633	14621
899.753	14701
899.873	14613
899.993	14735
900.113	14617
900.232	14575
900.352	14625
900.472	14552
900.591	14434
900.711	14549
900.83	14507
900.95	14613
901.069	14644
901.189	14602
901.308	14271
901.427	14180
901.546	14229
901.665	14115
901.784	14218
901.904	14107
902.023	13944
902.141	13719
902.26	13765
902.379	13830
902.498	13742
902.617	13605
902.735	13772
902.854	13689
902.973	13700
903.091	13453
903.21	13407
903.328	13426
903.446	13384
903.565	13263
903.683	13244
903.801	13198
903.919	13285
904.038	13278
904.156	13080
904.274	13183
904.392	13133
904.51	13053
904.627	13122
904.745	13156
904.863	13129
904.981	12859
905.098	12817
905.216	12833
905.334	12821
905.451	12795
905.569	12776
905.686	12837
905.803	12833
905.921	12608
906.038	12692
906.155	12639
906.272	12547
906.389	12570
906.506	12460
906.623	12357
906.74	12429
906.857	12334
906.974	12285
907.091	12445
907.208	12452
907.324	12353
907.441	12361
907.557	12171
907.674	12091
907.79	11965
907.907	12072
908.023	12228
908.139	12190
908.256	12140
908.372	11965
908.488	12041
908.604	11851
908.72	11771
908.836	11961
908.952	11840
909.068	11931
909.184	11958
909.3	11980
909.415	11965
909.531	11920
909.647	11611
909.762	11672
909.878	11630
909.993	11726
910.108	11627
910.224	11638
910.339	11729
910.454	11592
910.57	11547
910.685	11471
910.8	11707
910.915	11619
911.03	11535
911.145	11376
911.259	11353
911.374	11322
911.489	11299
911.604	11273
911.718	11174
911.833	11090
911.947	11029
912.062	10987
912.176	11056
912.291	11079
912.405	11071
912.519	11296
912.633	11337
912.748	11193
912.862	11003
912.976	10957
913.09	10839
913.204	10923
913.318	10972
913.431	11064
913.545	11109
913.659	11140
913.772	10946
913.886	10908
914	10835
914.113	10930
914.226	11025
914.34	10873
914.453	10790
914.566	10904
914.68	10835
914.793	10778
914.906	10622
915.019	10569
915.132	10474
915.245	10538
915.358	10641
915.47	10645
915.583	10668
915.696	10558
915.809	10778
915.921	10767
916.034	10569
916.146	10474
916.259	10485
916.371	10691
916.483	10592
916.595	10519
916.708	10603
916.82	10527
916.932	10481
917.044	10497
917.156	10447
917.268	10500
917.38	10398
917.491	10394
917.603	10409
917.715	10413
917.826	10607
917.938	10348
918.049	10371
918.161	10451
918.272	10535
918.384	10550
918.495	10356
918.606	10204
918.717	10234
918.828	10348
918.939	10360
919.05	10238
919.161	10303
919.272	10109
919.383	10166
919.494	10325
919.604	10512
919.715	10363
919.826	10318
919.936	10242
920.047	10462
920.157	10314
920.267	10554
920.378	10329
920.488	10382
920.598	10554
920.708	10729
920.818	10516
920.928	10527
921.038	10687
921.148	10584
921.258	10424
921.368	10230
921.477	10188
921.587	10124
921.697	9964
921.806	10211
921.916	10044
922.025	9911
922.134	9838
922.244	9812
922.353	9926
922.462	9793
922.571	9766
922.68	9606
922.789	9576
922.898	9542
923.007	9507
923.116	9595
923.224	9500
923.333	9584
923.442	9431
923.55	9408
923.659	9439
923.767	9466
923.876	9397
923.984	9568
924.092	9382
924.201	9447
924.309	9447
924.417	9454
924.525	9378
924.633	9439
924.741	10124
924.849	9253
924.956	9405
925.064	9184
925.172	9157
925.279	9226
925.387	9222
925.494	9169
925.602	9393
925.709	9283
925.816	9165
925.924	9226
926.031	9287
926.138	9230
926.245	9207
926.352	9142
926.459	9294
926.566	9294
926.673	9112
926.779	9062
926.886	9081
926.993	8956
927.099	8918
927.206	8861
927.312	8960
927.419	9009
927.525	8941
927.631	8925
927.737	8891
927.843	8777
927.95	8750
928.056	8804
928.162	8864
928.267	8868
928.373	9336
928.479	8880
928.585	8697
928.69	8804
928.796	8899
928.901	8659
929.007	8644
929.112	8689
929.218	8720
929.323	8697
929.428	8655
929.533	8777
929.638	8560
929.743	8651
929.848	8655
929.953	8590
930.058	8556
930.163	8317
930.267	8366
930.372	8503
930.477	8389
930.581	8579
930.685	8499
930.79	8313
930.894	8412
930.998	8343
931.103	8503
931.207	8161
931.311	8161
931.415	8001
931.519	7864
931.623	7788
