Data from test_V78500241_2263.txt Node
Date: Fri Mar 25 14:49:28 CST 2022
User: usil
Spectrometer: V785-0024
Trigger mode: 0
Integration Time (sec): 4.000000E-1
Scans to average: 1
Nonlinearity correction enabled: false
Boxcar width: 0
Storing dark spectrum: false
XAxis mode: Wavelengths
Number of Pixels in Spectrum: 1024
>>>>>Begin Spectral Data<<<<<
801.071	22185
801.214	22112
801.356	21751
801.499	21580
801.641	21614
801.783	21572
801.926	21553
802.068	21530
802.211	21439
802.353	21397
802.496	21131
802.638	21001
802.78	21066
802.923	20956
803.065	20819
803.208	20792
803.35	20963
803.492	20906
803.635	21058
803.777	20845
803.919	20921
804.061	21218
804.204	20952
804.346	20834
804.488	20705
804.63	20887
804.773	20720
804.915	20731
805.057	20933
805.199	20792
805.341	20792
805.483	20800
805.626	20883
805.768	20773
805.91	20727
806.052	20902
806.194	20746
806.336	21062
806.478	20842
806.62	20796
806.762	20819
806.904	20891
807.046	21154
807.188	21241
807.33	21192
807.472	21249
807.614	21165
807.756	21100
807.898	20937
808.04	20815
808.182	20921
808.324	20883
808.465	20906
808.607	21104
808.749	21116
808.891	21317
809.033	21370
809.174	21264
809.316	21108
809.458	21294
809.6	21222
809.741	21252
809.883	21195
810.025	21389
810.166	21313
810.308	21211
810.45	21207
810.591	21245
810.733	21100
810.875	21127
811.016	20910
811.158	20838
811.299	20982
811.441	21051
811.582	21089
811.724	21005
811.865	20925
812.007	20929
812.148	21108
812.29	20944
812.431	21142
812.573	21291
812.714	21389
812.855	21504
812.997	21557
813.138	21736
813.279	21530
813.421	21439
813.562	21393
813.703	21241
813.845	21001
813.986	20956
814.127	20568
814.268	20533
814.41	20560
814.551	20518
814.692	20450
814.833	20522
814.974	20454
815.115	20549
815.256	20442
815.397	20419
815.539	20377
815.68	20278
815.821	20271
815.962	20309
816.103	20210
816.244	20046
816.385	20016
816.526	19993
816.666	19841
816.807	19601
816.948	19765
817.089	19845
817.23	19715
817.371	19662
817.512	19632
817.653	19700
817.793	19575
817.934	19548
818.075	19643
818.216	19628
818.356	19575
818.497	19407
818.638	19400
818.778	19350
818.919	19350
819.06	19324
819.2	19464
819.341	19567
819.481	19514
819.622	19715
819.762	19951
819.903	19772
820.043	19651
820.184	19635
820.324	19567
820.465	19632
820.605	19548
820.746	19639
820.886	19487
821.026	19514
821.167	19548
821.307	19518
821.447	19586
821.588	19487
821.728	19381
821.868	19091
822.008	19008
822.149	19084
822.289	18962
822.429	18867
822.569	18700
822.709	18703
822.849	18639
822.99	18429
823.13	18486
823.27	18471
823.41	18311
823.55	18235
823.69	18251
823.83	18350
823.97	18182
824.11	18125
824.25	18030
824.389	18053
824.529	18114
824.669	17977
824.809	18270
824.949	18140
825.089	18144
825.228	18022
825.368	17931
825.508	18019
825.648	17882
825.787	17897
825.927	17920
826.067	17847
826.206	17836
826.346	17855
826.485	17745
826.625	17832
826.765	17992
826.904	17786
827.044	17695
827.183	17623
827.323	17532
827.462	17615
827.601	17596
827.741	17520
827.88	17535
828.02	17459
828.159	17486
828.298	17493
828.437	17627
828.577	17566
828.716	17596
828.855	17398
828.994	17372
829.134	17204
829.273	17318
829.412	17311
829.551	17181
829.69	17227
829.829	17288
829.968	17315
830.107	17353
830.246	17288
830.385	17265
830.524	17193
830.663	16999
830.802	17018
830.941	16786
831.08	16839
831.219	16949
831.357	16927
831.496	17045
831.635	16881
831.774	16850
831.913	16801
832.051	16755
832.19	16649
832.329	16717
832.467	16679
832.606	16519
832.744	16630
832.883	16459
833.022	16493
833.16	16523
833.299	16664
833.437	16493
833.576	16683
833.714	16565
833.852	16721
833.991	16713
834.129	16660
834.267	16759
834.406	16588
834.544	16725
834.682	16626
834.821	16626
834.959	16713
835.097	16455
835.235	16778
835.373	16717
835.511	16755
835.65	16523
835.788	16558
835.926	16341
836.064	16337
836.202	16405
836.34	16565
836.478	16588
836.615	16550
836.753	16489
836.891	16607
837.029	16535
837.167	16459
837.305	16478
837.443	16500
837.58	16367
837.718	16470
837.856	16386
837.993	16341
838.131	16352
838.269	16200
838.406	16238
838.544	16204
838.681	16131
838.819	16029
838.956	15838
839.094	15960
839.231	16071
839.369	16082
839.506	16394
839.643	16249
839.781	15857
839.918	15911
840.055	16017
840.193	15827
840.33	15766
840.467	15926
840.604	15930
840.742	16192
840.879	15736
841.016	15793
841.153	15899
841.29	15991
841.427	16017
841.564	15926
841.701	15975
841.838	15903
841.975	15846
842.112	15895
842.249	15724
842.385	15671
842.522	15972
842.659	15732
842.796	15694
842.933	15679
843.069	15644
843.206	15580
843.343	15743
843.479	15812
843.616	15778
843.752	15485
843.889	15408
844.025	15568
844.162	15492
844.298	15595
844.435	15538
844.571	15412
844.708	15580
844.844	15584
844.98	15694
845.117	15500
845.253	15485
845.389	15355
845.525	15481
845.661	15416
845.798	15256
845.934	15302
846.07	15291
846.206	15249
846.342	15348
846.478	15310
846.614	15165
846.75	15051
846.886	15173
847.022	15199
847.158	15097
847.294	15131
847.429	15093
847.565	15077
847.701	15306
847.837	14773
847.972	14754
848.108	14986
848.244	14899
848.379	14701
848.515	14769
848.65	14575
848.786	14735
848.921	14689
849.057	14804
849.192	14720
849.328	14762
849.463	14727
849.598	14629
849.734	14503
849.869	14533
850.004	14450
850.14	14484
850.275	14438
850.41	14370
850.545	14370
850.68	14404
850.815	14396
850.95	14438
851.085	14701
851.22	14518
851.355	14431
851.49	14339
851.625	14419
851.76	14381
851.895	14278
852.03	14271
852.165	14412
852.299	14530
852.434	14533
852.569	14450
852.703	14461
852.838	14594
852.973	14583
853.107	14556
853.242	14347
853.376	14259
853.511	14138
853.645	14229
853.78	14339
853.914	14320
854.048	14195
854.183	14259
854.317	14412
854.451	14541
854.585	14347
854.72	14214
854.854	14396
854.988	14161
855.122	14267
855.256	14161
855.39	14168
855.524	14412
855.658	14442
855.792	14248
855.926	14320
856.06	14377
856.194	14343
856.327	14374
856.461	14195
856.595	14248
856.729	14259
856.862	14415
856.996	14339
857.13	14328
857.263	14294
857.397	14419
857.53	14320
857.664	14442
857.797	14374
857.931	14423
858.064	14377
858.197	14385
858.331	14324
858.464	14180
858.597	14240
858.731	14336
858.864	14210
858.997	14252
859.13	14271
859.263	14381
859.396	14446
859.529	14305
859.662	14267
859.795	14328
859.928	14218
860.061	14450
860.194	14526
860.327	14355
860.46	14259
860.592	14419
860.725	14469
860.858	14419
860.99	14320
861.123	14298
861.256	14286
861.388	14396
861.521	14872
861.653	14214
861.786	14058
861.918	14161
862.05	14252
862.183	14317
862.315	14309
862.447	14252
862.58	14206
862.712	14183
862.844	13925
862.976	14161
863.108	14149
863.24	14469
863.372	13997
863.504	14111
863.636	14031
863.768	14092
863.9	14096
864.032	14039
864.164	14031
864.296	14088
864.428	14233
864.559	14180
864.691	14111
864.823	14111
864.954	14176
865.086	14172
865.217	14084
865.349	13989
865.48	14069
865.612	14092
865.743	14119
865.875	14012
866.006	13993
866.137	14088
866.269	13993
866.4	14016
866.531	14001
866.662	13963
866.793	14008
866.924	13917
867.055	14115
867.186	14069
867.317	14008
867.448	13928
867.579	13997
867.71	13978
867.841	13978
867.972	14161
868.103	14039
868.233	14065
868.364	14039
868.495	14153
868.625	14275
868.756	14374
868.886	14172
869.017	14267
869.147	14431
869.278	14450
869.408	14282
869.539	14332
869.669	14370
869.799	14240
869.929	14446
870.06	14366
870.19	14667
870.32	14617
870.45	14674
870.58	14727
870.71	14834
870.84	14830
870.97	14739
871.1	14659
871.23	14902
871.36	14902
871.489	14849
871.619	14830
871.749	14857
871.879	14876
872.008	15032
872.138	14902
872.267	14823
872.397	14804
872.526	14708
872.656	14549
872.785	14781
872.915	14998
873.044	14971
873.173	14826
873.303	14956
873.432	14975
873.561	15005
873.69	14948
873.819	14998
873.948	15039
874.077	15028
874.206	14876
874.335	14918
874.464	15058
874.593	15317
874.722	15245
874.851	15230
874.979	15275
875.108	15336
875.237	15211
875.365	15123
875.494	15135
875.623	15336
875.751	15233
875.88	15252
876.008	15397
876.136	15481
876.265	15644
876.393	15747
876.521	15781
876.65	15709
876.778	15747
876.906	15736
877.034	15671
877.162	15641
877.29	15511
877.418	15686
877.546	15720
877.674	15667
877.802	15728
877.93	15644
878.058	15682
878.185	15656
878.313	15713
878.441	15622
878.568	15549
878.696	15576
878.824	15713
878.951	15675
879.079	15793
879.206	15911
879.333	15846
879.461	15774
879.588	15762
879.715	15892
879.842	16032
879.97	15747
880.097	15526
880.224	15443
880.351	15561
880.478	15481
880.605	15504
880.732	15549
880.859	15838
880.986	15599
881.112	15485
881.239	15431
881.366	15233
881.493	15222
881.619	15176
881.746	15214
881.872	15157
881.999	15135
882.125	15081
882.252	15176
882.378	15131
882.505	15302
882.631	15089
882.757	15100
882.883	15009
883.01	14963
883.136	14948
883.262	14823
883.388	14754
883.514	15043
883.64	15001
883.766	14982
883.892	14849
884.018	14868
884.143	15032
884.269	15028
884.395	14697
884.52	14769
884.646	14701
884.772	14587
884.897	14556
885.023	14720
885.148	14838
885.274	14979
885.399	14849
885.524	14632
885.65	14682
885.775	14765
885.9	14693
886.025	14880
886.15	14811
886.275	14655
886.4	14602
886.525	14689
886.65	14621
886.775	14655
886.9	14830
887.025	14895
887.149	14758
887.274	14579
887.399	14530
887.523	14514
887.648	14377
887.773	14465
887.897	14610
888.021	14651
888.146	14507
888.27	14632
888.395	14625
888.519	14598
888.643	14488
888.767	14587
888.891	14564
889.015	14343
889.139	14511
889.263	14374
889.387	14461
889.511	14545
889.635	14492
889.759	14385
889.883	14313
890.006	14518
890.13	14530
890.254	14282
890.377	14229
890.501	14229
890.624	14233
890.748	14252
890.871	14111
890.995	14016
891.118	13974
891.241	14046
891.364	14043
891.488	14252
891.611	14123
891.734	14153
891.857	14092
891.98	14100
892.103	14138
892.226	14195
892.349	14039
892.471	13898
892.594	14103
892.717	14142
892.839	14035
892.962	14145
893.085	14252
893.207	14001
893.33	14008
893.452	14016
893.575	14183
893.697	13982
893.819	14286
893.941	14282
894.064	14366
894.186	14005
894.308	14027
894.43	14221
894.552	14320
894.674	14191
894.796	14046
894.918	14214
895.04	14092
895.161	14206
895.283	14237
895.405	14145
895.526	14172
895.648	14244
895.769	14298
895.891	14214
896.012	14396
896.134	14149
896.255	14275
896.376	14199
896.498	14248
896.619	14240
896.74	14336
896.861	14366
896.982	14613
897.103	14845
897.224	14689
897.345	14560
897.466	14503
897.587	14503
897.708	14629
897.828	14590
897.949	14549
898.07	14427
898.19	14522
898.311	14746
898.431	14514
898.552	14678
898.672	14705
898.792	14674
898.913	14621
899.033	14556
899.153	14476
899.273	14370
899.393	14514
899.513	14514
899.633	14499
899.753	14541
899.873	14412
899.993	14594
900.113	14415
900.232	14526
900.352	14610
900.472	14389
900.591	14313
900.711	14419
900.83	14290
900.95	14358
901.069	14400
901.189	14252
901.308	14100
901.427	14081
901.546	14001
901.665	14123
901.784	14031
901.904	13830
902.023	13860
902.141	13662
902.26	13601
902.379	13613
902.498	13651
902.617	13537
902.735	13681
902.854	13533
902.973	13487
903.091	13274
903.21	13236
903.328	13331
903.446	13160
903.565	13236
903.683	13160
903.801	13038
903.919	13145
904.038	13179
904.156	13034
904.274	13008
904.392	12939
904.51	12943
904.627	13072
904.745	13000
904.863	13050
904.981	12787
905.098	12677
905.216	12722
905.334	12757
905.451	12711
905.569	12582
905.686	12662
905.803	12597
905.921	12483
906.038	12608
906.155	12582
906.272	12262
906.389	12525
906.506	12342
906.623	12388
906.74	12266
906.857	12102
906.974	12194
907.091	12361
907.208	12437
907.324	12247
907.441	12186
907.557	11996
907.674	11980
907.79	11946
907.907	11942
908.023	12060
908.139	12019
908.256	12022
908.372	11946
908.488	11992
908.604	11737
908.72	11710
908.836	11779
908.952	11790
909.068	11726
909.184	11870
909.3	11748
909.415	11863
909.531	11752
909.647	11551
909.762	11455
909.878	11596
909.993	11577
910.108	11486
910.224	11524
910.339	11547
910.454	11482
910.57	11391
910.685	11322
910.8	11630
910.915	11448
911.03	11452
911.145	11227
911.259	11231
911.374	11250
911.489	11201
911.604	11147
911.718	11045
911.833	10972
911.947	10934
912.062	10866
912.176	10984
912.291	10900
912.405	11052
912.519	11147
912.633	11204
912.748	11151
912.862	11010
912.976	10839
913.09	10717
913.204	10824
913.318	10934
913.431	10961
913.545	10980
913.659	10972
913.772	10809
913.886	10729
914	10786
914.113	10877
914.226	10809
914.34	10820
914.453	10660
914.566	10904
914.68	10714
914.793	10706
914.906	10493
915.019	10485
915.132	10421
915.245	10466
915.358	10447
915.47	10497
915.583	10588
915.696	10535
915.809	10615
915.921	10546
916.034	10531
916.146	10432
916.259	10398
916.371	10493
916.483	10485
916.595	10299
916.708	10497
916.82	10409
916.932	10497
917.044	10424
917.156	10291
917.268	10268
917.38	10318
917.491	10344
917.603	10337
917.715	10481
917.826	10451
917.938	10329
918.049	10162
918.161	10284
918.272	10440
918.384	10341
918.495	10325
918.606	10185
918.717	10166
918.828	10188
918.939	10242
919.05	10154
919.161	10196
919.272	9991
919.383	10063
919.494	10261
919.604	10447
919.715	10249
919.826	10173
919.936	10242
920.047	10379
920.157	10306
920.267	10478
920.378	10215
920.488	10188
920.598	10443
920.708	10630
920.818	10390
920.928	10405
921.038	10519
921.148	10535
921.258	10223
921.368	10131
921.477	10097
921.587	10063
921.697	9998
921.806	10109
921.916	9956
922.025	9823
922.134	9793
922.244	9720
922.353	9797
922.462	9641
922.571	9576
922.68	9466
922.789	9454
922.898	9496
923.007	9386
923.116	9485
923.224	9523
923.333	9500
923.442	9405
923.55	9279
923.659	9355
923.767	9469
923.876	9332
923.984	9393
924.092	9230
924.201	9355
924.309	9256
924.417	9424
924.525	9237
924.633	9279
924.741	10169
924.849	9146
924.956	9294
925.064	9116
925.172	9036
925.279	9089
925.387	9173
925.494	9157
925.602	9165
925.709	9180
925.816	9097
925.924	9214
926.031	9275
926.138	9176
926.245	9116
926.352	9036
926.459	9138
926.566	9218
926.673	9135
926.779	9058
926.886	8941
926.993	8925
927.099	8849
927.206	8777
927.312	8811
927.419	8849
927.525	8826
927.631	8918
927.737	8758
927.843	8678
927.95	8670
928.056	8693
928.162	8739
928.267	8895
928.373	9447
928.479	8883
928.585	8583
928.69	8720
928.796	8785
928.901	8678
929.007	8545
929.112	8670
929.218	8621
929.323	8640
929.428	8457
929.533	8716
929.638	8549
929.743	8564
929.848	8556
929.953	8537
930.058	8450
930.163	8377
930.267	8366
930.372	8476
930.477	8343
930.581	8575
930.685	8434
930.79	8252
930.894	8279
930.998	8176
931.103	8347
931.207	8069
931.311	8088
931.415	7932
931.519	7765
931.623	7803
