Data from test_V78500241_3409.txt Node
Date: Fri Mar 25 14:57:27 CST 2022
User: usil
Spectrometer: V785-0024
Trigger mode: 0
Integration Time (sec): 4.000000E-1
Scans to average: 1
Nonlinearity correction enabled: false
Boxcar width: 0
Storing dark spectrum: false
XAxis mode: Wavelengths
Number of Pixels in Spectrum: 1024
>>>>>Begin Spectral Data<<<<<
801.071	21964
801.214	21785
801.356	21717
801.499	21656
801.641	21351
801.783	21329
801.926	21272
802.068	21298
802.211	21108
802.353	21085
802.496	20914
802.638	20800
802.78	20830
802.923	20720
803.065	20644
803.208	20644
803.35	20655
803.492	20697
803.635	20769
803.777	20697
803.919	20785
804.061	20967
804.204	20636
804.346	20511
804.488	20594
804.63	20644
804.773	20389
804.915	20621
805.057	20598
805.199	20408
805.341	20571
805.483	20705
805.626	20526
805.768	20431
805.91	20492
806.052	20358
806.194	20434
806.336	20583
806.478	20431
806.62	20415
806.762	20526
806.904	20857
807.046	20925
807.188	20899
807.33	20952
807.472	20849
807.614	20746
807.756	20746
807.898	20583
808.04	20579
808.182	20583
808.324	20602
808.465	20682
808.607	20838
808.749	20785
808.891	20994
809.033	21074
809.174	20971
809.316	20834
809.458	20785
809.6	20796
809.741	20815
809.883	20986
810.025	20921
810.166	21032
810.308	20963
810.45	20941
810.591	20918
810.733	20773
810.875	20765
811.016	20560
811.158	20522
811.299	20724
811.441	20663
811.582	20804
811.724	20549
811.865	20598
812.007	20636
812.148	20552
812.29	20560
812.431	20834
812.573	20921
812.714	21199
812.855	21036
812.997	21298
813.138	21348
813.279	21116
813.421	21131
813.562	20986
813.703	20880
813.845	20792
813.986	20499
814.127	20408
814.268	20305
814.41	20286
814.551	20142
814.692	20206
814.833	20153
814.974	20183
815.115	20115
815.256	20069
815.397	20062
815.539	19967
815.68	19875
815.821	19830
815.962	19906
816.103	19837
816.244	19681
816.385	19597
816.526	19670
816.666	19525
816.807	19339
816.948	19445
817.089	19487
817.23	19228
817.371	19304
817.512	19464
817.653	19278
817.793	19171
817.934	19331
818.075	19388
818.216	19358
818.356	19202
818.497	19053
818.638	18996
818.778	18882
818.919	19042
819.06	19133
819.2	19076
819.341	19129
819.481	19137
819.622	19312
819.762	19499
819.903	19441
820.043	19327
820.184	19308
820.324	19247
820.465	19339
820.605	19384
820.746	19301
820.886	19164
821.026	19228
821.167	19194
821.307	19282
821.447	19164
821.588	19152
821.728	19046
821.868	18939
822.008	18589
822.149	18700
822.289	18658
822.429	18433
822.569	18456
822.709	18452
822.849	18235
822.99	18327
823.13	18091
823.27	18197
823.41	18022
823.55	17920
823.69	17977
823.83	17950
823.97	17889
824.11	17680
824.25	17851
824.389	17817
824.529	17901
824.669	17771
824.809	17824
824.949	17885
825.089	17889
825.228	17741
825.368	17524
825.508	17573
825.648	17630
825.787	17615
825.927	17611
826.067	17509
826.206	17551
826.346	17516
826.485	17589
826.625	17516
826.765	17554
826.904	17551
827.044	17383
827.183	17341
827.323	17235
827.462	17311
827.601	17322
827.741	17280
827.88	17284
828.02	17025
828.159	17277
828.298	17239
828.437	17254
828.577	17216
828.716	17303
828.855	17162
828.994	17124
829.134	17025
829.273	17094
829.412	16968
829.551	16934
829.69	17037
829.829	16984
829.968	17113
830.107	17071
830.246	16915
830.385	16999
830.524	16953
830.663	16831
830.802	16778
830.941	16721
831.08	16558
831.219	16713
831.357	16763
831.496	16771
831.635	16592
831.774	16535
831.913	16561
832.051	16428
832.19	16421
832.329	16405
832.467	16371
832.606	16234
832.744	16310
832.883	16360
833.022	16246
833.16	16382
833.299	16318
833.437	16363
833.576	16405
833.714	16474
833.852	16417
833.991	16432
834.129	16481
834.267	16436
834.406	16310
834.544	16409
834.682	16363
834.821	16379
834.959	16630
835.097	16284
835.235	16432
835.373	16466
835.511	16352
835.65	16325
835.788	16367
835.926	16124
836.064	16124
836.202	16090
836.34	16325
836.478	16436
836.615	16322
836.753	16238
836.891	16367
837.029	16382
837.167	16310
837.305	16341
837.443	16265
837.58	16112
837.718	16226
837.856	16192
837.993	16169
838.131	16166
838.269	16139
838.406	16120
838.544	16097
838.681	15892
838.819	15915
838.956	15736
839.094	15724
839.231	15831
839.369	16021
839.506	16124
839.643	16124
839.781	15823
839.918	15667
840.055	15857
840.193	15739
840.33	15667
840.467	15774
840.604	15827
840.742	16036
840.879	15705
841.016	15781
841.153	15755
841.29	15884
841.427	15819
841.564	15831
841.701	15816
841.838	15652
841.975	15553
842.112	15694
842.249	15637
842.385	15519
842.522	15713
842.659	15622
842.796	15534
842.933	15572
843.069	15606
843.206	15523
843.343	15701
843.479	15431
843.616	15511
843.752	15367
843.889	15389
844.025	15424
844.162	15348
844.298	15534
844.435	15424
844.571	15351
844.708	15378
844.844	15504
844.98	15587
845.117	15458
845.253	15306
845.389	15237
845.525	15252
845.661	15275
845.798	15192
845.934	15233
846.07	15127
846.206	15245
846.342	15252
846.478	15188
846.614	14994
846.75	14902
846.886	14864
847.022	14952
847.158	14948
847.294	14910
847.429	15005
847.565	14845
847.701	15211
847.837	14739
847.972	14644
848.108	14811
848.244	14674
848.379	14579
848.515	14564
848.65	14503
848.786	14419
848.921	14560
849.057	14587
849.192	14659
849.328	14526
849.463	14602
849.598	14457
849.734	14518
849.869	14381
850.004	14370
850.14	14313
850.275	14385
850.41	14244
850.545	14267
850.68	14366
850.815	14191
850.95	14377
851.085	14431
851.22	14461
851.355	14309
851.49	14298
851.625	14206
851.76	14278
851.895	14225
852.03	14176
852.165	14305
852.299	14381
852.434	14385
852.569	14389
852.703	14347
852.838	14415
852.973	14370
853.107	14469
853.242	14271
853.376	14275
853.511	14031
853.645	14119
853.78	14309
853.914	14187
854.048	14199
854.183	14062
854.317	14123
854.451	14332
854.585	14145
854.72	14039
854.854	14263
854.988	14115
855.122	14206
855.256	13982
855.39	14115
855.524	14263
855.658	14107
855.792	14282
855.926	14233
856.06	14134
856.194	14187
856.327	14202
856.461	14073
856.595	14157
856.729	14096
856.862	14263
856.996	14138
857.13	14145
857.263	14164
857.397	14294
857.53	14069
857.664	14305
857.797	14195
857.931	14282
858.064	14130
858.197	14294
858.331	14240
858.464	14103
858.597	14050
858.731	14168
858.864	14195
858.997	14119
859.13	14157
859.263	14233
859.396	14225
859.529	14138
859.662	14092
859.795	14119
859.928	14221
860.061	14298
860.194	14366
860.327	14172
860.46	14187
860.592	14271
860.725	14180
860.858	14233
860.99	14161
861.123	14027
861.256	14035
861.388	14157
861.521	14902
861.653	14100
861.786	13963
861.918	14020
862.05	14119
862.183	14035
862.315	14218
862.447	14164
862.58	14069
862.712	13883
862.844	13830
862.976	14062
863.108	13963
863.24	14355
863.372	14008
863.504	13982
863.636	13974
863.768	14027
863.9	13944
864.032	13909
864.164	13963
864.296	14012
864.428	14039
864.559	14012
864.691	14005
864.823	14005
864.954	13978
865.086	14035
865.217	13925
865.349	13811
865.48	13856
865.612	13940
865.743	14039
865.875	13909
866.006	13909
866.137	14001
866.269	13909
866.4	13986
866.531	13902
866.662	13955
866.793	13776
866.924	13997
867.055	13841
867.186	13917
867.317	13913
867.448	13791
867.579	13811
867.71	13894
867.841	13925
867.972	13909
868.103	13921
868.233	13871
868.364	14031
868.495	13959
868.625	14153
868.756	14210
868.886	14164
869.017	14221
869.147	14336
869.278	14286
869.408	14202
869.539	14130
869.669	14332
869.799	14263
869.929	14328
870.06	14225
870.19	14442
870.32	14423
870.45	14495
870.58	14568
870.71	14670
870.84	14693
870.97	14613
871.1	14495
871.23	14769
871.36	14758
871.489	14750
871.619	14765
871.749	14845
871.879	14849
872.008	14891
872.138	14807
872.267	14796
872.397	14663
872.526	14575
872.656	14648
872.785	14640
872.915	14765
873.044	14952
873.173	14785
873.303	14807
873.432	14857
873.561	14967
873.69	14868
873.819	14781
873.948	14826
874.077	14724
874.206	14807
874.335	14811
874.464	15005
874.593	15131
874.722	15024
874.851	15157
874.979	15230
875.108	15150
875.237	15024
875.365	15020
875.494	15066
875.623	15230
875.751	15055
875.88	15195
876.008	15260
876.136	15310
876.265	15629
876.393	15675
876.521	15534
876.65	15686
876.778	15530
876.906	15523
877.034	15542
877.162	15443
877.29	15397
877.418	15561
877.546	15614
877.674	15492
877.802	15656
877.93	15576
878.058	15367
878.185	15386
878.313	15477
878.441	15610
878.568	15450
878.696	15530
878.824	15599
878.951	15644
879.079	15800
879.206	15888
879.333	15682
879.461	15580
879.588	15705
879.715	15774
879.842	15789
879.97	15599
880.097	15367
880.224	15397
880.351	15450
880.478	15469
880.605	15473
880.732	15443
880.859	15644
880.986	15477
881.112	15458
881.239	15275
881.366	15230
881.493	15180
881.619	15081
881.746	15074
881.872	15138
881.999	15066
882.125	15009
882.252	15074
882.378	14963
882.505	15325
882.631	15039
882.757	14849
882.883	14963
883.01	14819
883.136	14887
883.262	14880
883.388	14796
883.514	14925
883.64	14941
883.766	14914
883.892	14769
884.018	14785
884.143	14918
884.269	14963
884.395	14724
884.52	14636
884.646	14583
884.772	14526
884.897	14594
885.023	14731
885.148	14644
885.274	14838
885.399	14655
885.524	14590
885.65	14625
885.775	14686
885.9	14587
886.025	14762
886.15	14640
886.275	14571
886.4	14484
886.525	14629
886.65	14488
886.775	14575
886.9	14746
887.025	14849
887.149	14571
887.274	14457
887.399	14431
887.523	14396
887.648	14408
887.773	14355
887.897	14507
888.021	14564
888.146	14298
888.27	14511
888.395	14552
888.519	14438
888.643	14518
888.767	14484
888.891	14328
889.015	14298
889.139	14313
889.263	14301
889.387	14339
889.511	14636
889.635	14385
889.759	14259
889.883	14313
890.006	14332
890.13	14404
890.254	14233
890.377	14278
890.501	14088
890.624	14024
890.748	14164
890.871	14130
890.995	13909
891.118	13871
891.241	13947
891.364	14107
891.488	13967
891.611	13967
891.734	14016
891.857	14164
891.98	14008
892.103	14119
892.226	14031
892.349	13940
892.471	13951
892.594	13894
892.717	14031
892.839	13989
892.962	14039
893.085	14065
893.207	13978
893.33	13837
893.452	13868
893.575	14035
893.697	14027
893.819	14187
893.941	14191
894.064	14065
894.186	13940
894.308	13951
894.43	14157
894.552	14145
894.674	14164
894.796	13970
894.918	14046
895.04	14096
895.161	14138
895.283	14180
895.405	13974
895.526	14096
895.648	14126
895.769	14199
895.891	14130
896.012	14240
896.134	14218
896.255	14164
896.376	14180
896.498	14145
896.619	14161
896.74	14210
896.861	14244
896.982	14434
897.103	14648
897.224	14400
897.345	14393
897.466	14381
897.587	14396
897.708	14522
897.828	14511
897.949	14362
898.07	14339
898.19	14415
898.311	14617
898.431	14431
898.552	14514
898.672	14541
898.792	14613
898.913	14549
899.033	14495
899.153	14355
899.273	14301
899.393	14355
899.513	14412
899.633	14404
899.753	14294
899.873	14366
899.993	14408
900.113	14396
900.232	14434
900.352	14347
900.472	14214
900.591	14229
900.711	14286
900.83	14115
900.95	14240
901.069	14355
901.189	14138
901.308	13887
901.427	13887
901.546	13902
901.665	14054
901.784	13921
901.904	13715
902.023	13666
902.141	13559
902.26	13506
902.379	13651
902.498	13514
902.617	13430
902.735	13411
902.854	13453
902.973	13453
903.091	13190
903.21	13133
903.328	13129
903.446	13114
903.565	13069
903.683	13034
903.801	13015
903.919	13015
904.038	12966
904.156	12920
904.274	12989
904.392	12810
904.51	12814
904.627	12878
904.745	12951
904.863	12939
904.981	12703
905.098	12540
905.216	12604
905.334	12601
905.451	12559
905.569	12559
905.686	12639
905.803	12544
905.921	12399
906.038	12483
906.155	12342
906.272	12315
906.389	12365
906.506	12167
906.623	12144
906.74	12159
906.857	11950
906.974	12114
907.091	12171
907.208	12281
907.324	12220
907.441	12041
907.557	11889
907.674	11999
907.79	11824
907.907	11859
908.023	11870
908.139	11961
908.256	11828
908.372	11847
908.488	11741
908.604	11657
908.72	11646
908.836	11703
908.952	11646
909.068	11615
909.184	11828
909.3	11619
909.415	11676
909.531	11741
909.647	11532
909.762	11402
909.878	11334
909.993	11512
910.108	11436
910.224	11349
910.339	11307
910.454	11376
910.57	11292
910.685	11170
910.8	11562
910.915	11391
911.03	11277
911.145	11162
911.259	11086
911.374	11113
911.489	11014
911.604	11056
911.718	10904
911.833	10896
911.947	10786
912.062	10714
912.176	10812
912.291	10862
912.405	10858
912.519	11033
912.633	11052
912.748	10869
912.862	10915
912.976	10740
913.09	10656
913.204	10797
913.318	10740
913.431	10965
913.545	10896
913.659	10949
913.772	10733
913.886	10607
914	10641
914.113	10706
914.226	10767
914.34	10725
914.453	10622
914.566	10752
914.68	10546
914.793	10626
914.906	10485
915.019	10352
915.132	10291
915.245	10428
915.358	10413
915.47	10409
915.583	10390
915.696	10417
915.809	10603
915.921	10474
916.034	10367
916.146	10367
916.259	10333
916.371	10478
916.483	10428
916.595	10322
916.708	10344
916.82	10413
916.932	10360
917.044	10310
917.156	10363
917.268	10192
917.38	10211
917.491	10215
917.603	10238
917.715	10379
917.826	10344
917.938	10147
918.049	10204
918.161	10272
918.272	10379
918.384	10360
918.495	10253
918.606	10086
918.717	10173
918.828	10154
918.939	10059
919.05	10048
919.161	10097
919.272	9880
919.383	9975
919.494	10169
919.604	10379
919.715	10227
919.826	9991
919.936	10116
920.047	10219
920.157	10185
920.267	10318
920.378	10234
920.488	10162
920.598	10322
920.708	10538
920.818	10276
920.928	10280
921.038	10443
921.148	10470
921.258	10166
921.368	10166
921.477	10006
921.587	9987
921.697	9884
921.806	9998
921.916	9956
922.025	9740
922.134	9675
922.244	9614
922.353	9743
922.462	9507
922.571	9485
922.68	9401
922.789	9340
922.898	9386
923.007	9321
923.116	9477
923.224	9363
923.333	9389
923.442	9310
923.55	9302
923.659	9268
923.767	9363
923.876	9253
923.984	9294
924.092	9173
924.201	9313
924.309	9237
924.417	9291
924.525	9192
924.633	9268
924.741	10116
924.849	9043
924.956	9207
925.064	9077
925.172	8948
925.279	8971
925.387	9089
925.494	8994
925.602	9146
925.709	9116
925.816	9112
925.924	9028
926.031	9112
926.138	9051
926.245	9157
926.352	8979
926.459	9062
926.566	9180
926.673	9009
926.779	8929
926.886	8906
926.993	8804
927.099	8746
927.206	8781
927.312	8743
927.419	8807
927.525	8766
927.631	8883
927.737	8712
927.843	8636
927.95	8541
928.056	8659
928.162	8708
928.267	8743
928.373	9275
928.479	8766
928.585	8484
928.69	8686
928.796	8667
928.901	8613
929.007	8511
929.112	8606
929.218	8587
929.323	8549
929.428	8450
929.533	8636
929.638	8450
929.743	8438
929.848	8590
929.953	8484
930.058	8343
930.163	8252
930.267	8309
930.372	8461
930.477	8275
930.581	8484
930.685	8389
930.79	8252
930.894	8214
930.998	8145
931.103	8324
931.207	8058
931.311	7906
931.415	7860
931.519	7727
931.623	7727
