Data from test_V78500241_1396.txt Node
Date: Fri Mar 25 14:43:26 CST 2022
User: usil
Spectrometer: V785-0024
Trigger mode: 0
Integration Time (sec): 4.000000E-1
Scans to average: 1
Nonlinearity correction enabled: false
Boxcar width: 0
Storing dark spectrum: false
XAxis mode: Wavelengths
Number of Pixels in Spectrum: 1024
>>>>>Begin Spectral Data<<<<<
801.071	22546
801.214	22253
801.356	22120
801.499	21903
801.641	21846
801.783	21850
801.926	21793
802.068	21778
802.211	21732
802.353	21603
802.496	21256
802.638	21211
802.78	21256
802.923	21245
803.065	21249
803.208	21146
803.35	21218
803.492	21313
803.635	21287
803.777	21211
803.919	21180
804.061	21530
804.204	21161
804.346	21150
804.488	20967
804.63	21085
804.773	20902
804.915	21119
805.057	21348
805.199	21150
805.341	21074
805.483	21329
805.626	21066
805.768	21020
805.91	21123
806.052	21131
806.194	20998
806.336	21169
806.478	21127
806.62	21028
806.762	21222
806.904	21272
807.046	21488
807.188	21450
807.33	21389
807.472	21519
807.614	21397
807.756	21458
807.898	21336
808.04	21279
808.182	21203
808.324	21416
808.465	21439
808.607	21580
808.749	21720
808.891	21816
809.033	21911
809.174	21751
809.316	21682
809.458	21599
809.6	21545
809.741	21652
809.883	21701
810.025	21644
810.166	21641
810.308	21724
810.45	21610
810.591	21469
810.733	21473
810.875	21340
811.016	21222
811.158	21199
811.299	21344
811.441	21515
811.582	21332
811.724	21332
811.865	21161
812.007	21142
812.148	21233
812.29	21336
812.431	21481
812.573	21667
812.714	21770
812.855	21679
812.997	21857
813.138	21907
813.279	21861
813.421	21789
813.562	21781
813.703	21587
813.845	21428
813.986	21119
814.127	20956
814.268	20887
814.41	20807
814.551	20895
814.692	20773
814.833	20708
814.974	20746
815.115	20735
815.256	20606
815.397	20590
815.539	20731
815.68	20564
815.821	20530
815.962	20587
816.103	20488
816.244	20450
816.385	20305
816.526	20267
816.666	20134
816.807	19982
816.948	20035
817.089	20005
817.23	19997
817.371	19887
817.512	19944
817.653	19803
817.793	19849
817.934	19955
818.075	20005
818.216	19978
818.356	19868
818.497	19776
818.638	19651
818.778	19689
818.919	19594
819.06	19723
819.2	19795
819.341	19799
819.481	19868
819.622	19864
819.762	20065
819.903	20043
820.043	19989
820.184	19799
820.324	19989
820.465	19944
820.605	19944
820.746	19906
820.886	19811
821.026	19871
821.167	19871
821.307	19970
821.447	19731
821.588	19761
821.728	19681
821.868	19525
822.008	19308
822.149	19384
822.289	19221
822.429	19061
822.569	18973
822.709	19080
822.849	18837
822.99	18878
823.13	18772
823.27	18692
823.41	18627
823.55	18589
823.69	18684
823.83	18616
823.97	18597
824.11	18414
824.25	18369
824.389	18445
824.529	18330
824.669	18445
824.809	18456
824.949	18433
825.089	18456
825.228	18456
825.368	18174
825.508	18270
825.648	18186
825.787	18315
825.927	18228
826.067	18144
826.206	18174
826.346	18243
826.485	18152
826.625	18171
826.765	18220
826.904	18258
827.044	17946
827.183	17893
827.323	17946
827.462	17935
827.601	17920
827.741	17931
827.88	17950
828.02	17843
828.159	17821
828.298	17901
828.437	18053
828.577	17733
828.716	17950
828.855	17786
828.994	17547
829.134	17577
829.273	17710
829.412	17642
829.551	17486
829.69	17585
829.829	17638
829.968	17661
830.107	17661
830.246	17642
830.385	17596
830.524	17471
830.663	17406
830.802	17337
830.941	17250
831.08	17212
831.219	17349
831.357	17330
831.496	17417
831.635	17284
831.774	17250
831.913	17178
832.051	17079
832.19	17041
832.329	17060
832.467	16968
832.606	16953
832.744	16911
832.883	16904
833.022	16923
833.16	17025
833.299	16999
833.437	16927
833.576	17121
833.714	17022
833.852	17113
833.991	16991
834.129	17064
834.267	17109
834.406	16995
834.544	17056
834.682	17025
834.821	16976
834.959	17121
835.097	16980
835.235	17094
835.373	16968
835.511	16984
835.65	16877
835.788	16900
835.926	16866
836.064	16767
836.202	16866
836.34	16946
836.478	16866
836.615	16774
836.753	16896
836.891	17052
837.029	16873
837.167	16801
837.305	16835
837.443	16786
837.58	16729
837.718	16740
837.856	16755
837.993	16740
838.131	16733
838.269	16706
838.406	16698
838.544	16668
838.681	16447
838.819	16428
838.956	16333
839.094	16242
839.231	16287
839.369	16409
839.506	16702
839.643	16538
839.781	16276
839.918	16249
840.055	16287
840.193	16280
840.33	16265
840.467	16329
840.604	16337
840.742	16672
840.879	16112
841.016	16135
841.153	16173
841.29	16337
841.427	16306
841.564	16314
841.701	16333
841.838	16226
841.975	16325
842.112	16223
842.249	16086
842.385	16162
842.522	16261
842.659	16029
842.796	15911
842.933	16128
843.069	16101
843.206	15998
843.343	16143
843.479	16124
843.616	16139
843.752	15979
843.889	15778
844.025	16036
844.162	15850
844.298	15991
844.435	15804
844.571	15770
844.708	15907
844.844	16044
844.98	15945
845.117	15972
845.253	15800
845.389	15736
845.525	15899
845.661	15994
845.798	15926
845.934	16021
846.07	15903
846.206	15983
846.342	16059
846.478	15869
846.614	15595
846.75	15523
846.886	15431
847.022	15523
847.158	15454
847.294	15321
847.429	15549
847.565	15386
847.701	15709
847.837	15165
847.972	15195
848.108	15268
848.244	15252
848.379	15104
848.515	15009
848.65	14990
848.786	14963
848.921	15036
849.057	15131
849.192	15157
849.328	15074
849.463	15066
849.598	15024
849.734	15024
849.869	14826
850.004	14788
850.14	14842
850.275	14785
850.41	14697
850.545	14724
850.68	14663
850.815	14781
850.95	14743
851.085	14975
851.22	14857
851.355	14743
851.49	14796
851.625	14705
851.76	14712
851.895	14674
852.03	14724
852.165	14712
852.299	14948
852.434	14815
852.569	14807
852.703	14765
852.838	14857
852.973	15024
853.107	14891
853.242	14697
853.376	14670
853.511	14575
853.645	14648
853.78	14796
853.914	14682
854.048	14598
854.183	14648
854.317	14701
854.451	14872
854.585	14610
854.72	14549
854.854	14754
854.988	14594
855.122	14629
855.256	14564
855.39	14621
855.524	14743
855.658	14689
855.792	14590
855.926	14727
856.06	14693
856.194	14743
856.327	14674
856.461	14629
856.595	14705
856.729	14522
856.862	14731
856.996	14632
857.13	14746
857.263	14720
857.397	14807
857.53	14651
857.664	14743
857.797	14769
857.931	14800
858.064	14682
858.197	14781
858.331	14575
858.464	14632
858.597	14488
858.731	14594
858.864	14583
858.997	14701
859.13	14686
859.263	14663
859.396	14705
859.529	14663
859.662	14625
859.795	14663
859.928	14705
860.061	14735
860.194	14868
860.327	14701
860.46	14568
860.592	14720
860.725	14746
860.858	14811
860.99	14617
861.123	14530
861.256	14655
861.388	14739
861.521	15428
861.653	14511
861.786	14370
861.918	14484
862.05	14617
862.183	14579
862.315	14667
862.447	14682
862.58	14625
862.712	14358
862.844	14358
862.976	14511
863.108	14473
863.24	14872
863.372	14366
863.504	14431
863.636	14461
863.768	14393
863.9	14442
864.032	14431
864.164	14446
864.296	14457
864.428	14587
864.559	14427
864.691	14545
864.823	14423
864.954	14415
865.086	14412
865.217	14412
865.349	14286
865.48	14362
865.612	14438
865.743	14560
865.875	14358
866.006	14408
866.137	14336
866.269	14427
866.4	14370
866.531	14355
866.662	14309
866.793	14336
866.924	14358
867.055	14385
867.186	14396
867.317	14408
867.448	14286
867.579	14358
867.71	14290
867.841	14298
867.972	14442
868.103	14454
868.233	14328
868.364	14431
868.495	14465
868.625	14659
868.756	14746
868.886	14533
869.017	14579
869.147	14777
869.278	14758
869.408	14727
869.539	14552
869.669	14750
869.799	14648
869.929	14689
870.06	14781
870.19	14937
870.32	14857
870.45	14929
870.58	14948
870.71	15138
870.84	15192
870.97	15036
871.1	14998
871.23	15272
871.36	15249
871.489	15123
871.619	15123
871.749	15127
871.879	15283
872.008	15424
872.138	15211
872.267	15272
872.397	15051
872.526	15009
872.656	15058
872.785	15089
872.915	15256
873.044	15382
873.173	15306
873.303	15317
873.432	15367
873.561	15313
873.69	15325
873.819	15321
873.948	15454
874.077	15325
874.206	15157
874.335	15332
874.464	15462
874.593	15496
874.722	15515
874.851	15625
874.979	15648
875.108	15606
875.237	15584
875.365	15507
875.494	15614
875.623	15660
875.751	15523
875.88	15591
876.008	15759
876.136	15770
876.265	16090
876.393	16112
876.521	16109
876.65	16124
876.778	16055
876.906	15915
877.034	15945
877.162	15956
877.29	15857
877.418	16021
877.546	16025
877.674	16055
877.802	16025
877.93	16010
878.058	16017
878.185	15838
878.313	15956
878.441	16063
878.568	15789
878.696	15930
878.824	16067
878.951	16090
879.079	16238
879.206	16371
879.333	16280
879.461	16181
879.588	16348
879.715	16295
879.842	16428
879.97	16211
880.097	15888
880.224	15827
880.351	15911
880.478	15903
880.605	15857
880.732	15899
880.859	16105
880.986	15892
881.112	15953
881.239	15751
881.366	15709
881.493	15572
881.619	15591
881.746	15481
881.872	15553
881.999	15526
882.125	15504
882.252	15599
882.378	15557
882.505	15629
882.631	15420
882.757	15370
882.883	15386
883.01	15428
883.136	15313
883.262	15207
883.388	15116
883.514	15473
883.64	15462
883.766	15336
883.892	15192
884.018	15233
884.143	15386
884.269	15496
884.395	15062
884.52	14952
884.646	15055
884.772	15005
884.897	14921
885.023	15146
885.148	15211
885.274	15226
885.399	15169
885.524	15051
885.65	15055
885.775	15074
885.9	14963
886.025	15192
886.15	15097
886.275	15013
886.4	14921
886.525	14948
886.65	14979
886.775	15020
886.9	15112
887.025	15272
887.149	15085
887.274	14887
887.399	14891
887.523	14925
887.648	14842
887.773	14769
887.897	15009
888.021	14899
888.146	14834
888.27	14956
888.395	14990
888.519	14963
888.643	14925
888.767	14861
888.891	14815
889.015	14720
889.139	14739
889.263	14727
889.387	14697
889.511	14914
889.635	14762
889.759	14583
889.883	14754
890.006	14716
890.13	14857
890.254	14632
890.377	14792
890.501	14590
890.624	14427
890.748	14590
890.871	14533
890.995	14366
891.118	14278
891.241	14366
891.364	14446
891.488	14568
891.611	14381
891.734	14434
891.857	14431
891.98	14457
892.103	14442
892.226	14400
892.349	14393
892.471	14271
892.594	14332
892.717	14377
892.839	14328
892.962	14412
893.085	14541
893.207	14324
893.33	14343
893.452	14290
893.575	14400
893.697	14366
893.819	14545
893.941	14712
894.064	14518
894.186	14404
894.308	14275
894.43	14549
894.552	14587
894.674	14511
894.796	14362
894.918	14358
895.04	14377
895.161	14476
895.283	14476
895.405	14381
895.526	14503
895.648	14476
895.769	14552
895.891	14518
896.012	14617
896.134	14556
896.255	14602
896.376	14537
896.498	14552
896.619	14579
896.74	14533
896.861	14636
896.982	14849
897.103	15005
897.224	14811
897.345	14891
897.466	14739
897.587	14807
897.708	14952
897.828	14845
897.949	14720
898.07	14613
898.19	14731
898.311	14906
898.431	14792
898.552	14906
898.672	14929
898.792	15100
898.913	14933
899.033	14876
899.153	14720
899.273	14629
899.393	14739
899.513	14777
899.633	14792
899.753	14777
899.873	14777
899.993	14788
900.113	14727
900.232	14845
900.352	14686
900.472	14598
900.591	14526
900.711	14651
900.83	14613
900.95	14735
901.069	14629
901.189	14522
901.308	14370
901.427	14286
901.546	14229
901.665	14256
901.784	14309
901.904	14172
902.023	14088
902.141	13978
902.26	13913
902.379	14039
902.498	13841
902.617	13761
902.735	13856
902.854	13928
902.973	13818
903.091	13586
903.21	13464
903.328	13601
903.446	13624
903.565	13422
903.683	13468
903.801	13331
903.919	13480
904.038	13392
904.156	13225
904.274	13346
904.392	13194
904.51	13266
904.627	13122
904.745	13278
904.863	13293
904.981	13046
905.098	12894
905.216	12905
905.334	12913
905.451	12920
905.569	12894
905.686	12924
905.803	12882
905.921	12757
906.038	12741
906.155	12760
906.272	12604
906.389	12673
906.506	12467
906.623	12460
906.74	12479
906.857	12353
906.974	12441
907.091	12422
907.208	12604
907.324	12528
907.441	12410
907.557	12296
907.674	12190
907.79	12171
907.907	12243
908.023	12277
908.139	12232
908.256	12239
908.372	12152
908.488	12136
908.604	12019
908.72	11908
908.836	11942
908.952	12087
909.068	11996
909.184	12068
909.3	11988
909.415	12136
909.531	11916
909.647	11840
909.762	11790
909.878	11805
909.993	11802
910.108	11775
910.224	11745
910.339	11714
910.454	11611
910.57	11570
910.685	11608
910.8	11866
910.915	11805
911.03	11619
911.145	11528
911.259	11383
911.374	11398
911.489	11383
911.604	11326
911.718	11280
911.833	11299
911.947	11155
912.062	11025
912.176	11208
912.291	11193
912.405	11265
912.519	11360
912.633	11440
912.748	11193
912.862	11227
912.976	11090
913.09	11048
913.204	11064
913.318	11090
913.431	11178
913.545	11140
913.659	11185
913.772	11128
913.886	11098
914	10911
914.113	11083
914.226	11121
914.34	11067
914.453	10866
914.566	11003
914.68	10915
914.793	10862
914.906	10755
915.019	10637
915.132	10672
915.245	10675
915.358	10706
915.47	10759
915.583	10656
915.696	10759
915.809	10828
915.921	10881
916.034	10706
916.146	10698
916.259	10596
916.371	10744
916.483	10691
916.595	10538
916.708	10706
916.82	10618
916.932	10637
917.044	10622
917.156	10588
917.268	10527
917.38	10489
917.491	10535
917.603	10462
917.715	10558
917.826	10618
917.938	10440
918.049	10402
918.161	10535
918.272	10630
918.384	10607
918.495	10618
918.606	10409
918.717	10291
918.828	10379
918.939	10508
919.05	10299
919.161	10348
919.272	10211
919.383	10215
919.494	10455
919.604	10717
919.715	10379
919.826	10363
919.936	10318
920.047	10466
920.157	10466
920.267	10634
920.378	10413
920.488	10363
920.598	10660
920.708	10748
920.818	10569
920.928	10546
921.038	10797
921.148	10725
921.258	10440
921.368	10405
921.477	10303
921.587	10230
921.697	10147
921.806	10344
921.916	10169
922.025	10048
922.134	10006
922.244	9880
922.353	9979
922.462	9918
922.571	9751
922.68	9614
922.789	9679
922.898	9641
923.007	9519
923.116	9732
923.224	9622
923.333	9675
923.442	9576
923.55	9507
923.659	9591
923.767	9644
923.876	9523
923.984	9618
924.092	9416
924.201	9450
924.309	9538
924.417	9538
924.525	9405
924.633	9462
924.741	10405
924.849	9275
924.956	9428
925.064	9264
925.172	9260
925.279	9329
925.387	9351
925.494	9287
925.602	9466
925.709	9374
925.816	9249
925.924	9306
926.031	9397
926.138	9287
926.245	9237
926.352	9195
926.459	9348
926.566	9428
926.673	9226
926.779	9154
926.886	9165
926.993	9085
927.099	9043
927.206	8918
927.312	9036
927.419	9142
927.525	8960
927.631	9062
927.737	8918
927.843	8929
927.95	8815
928.056	8864
928.162	8944
928.267	8921
928.373	9606
928.479	9024
928.585	8746
928.69	8815
928.796	8933
928.901	8815
929.007	8632
929.112	8773
929.218	8777
929.323	8788
929.428	8705
929.533	8887
929.638	8686
929.743	8686
929.848	8750
929.953	8689
930.058	8594
930.163	8495
930.267	8503
930.372	8545
930.477	8461
930.581	8686
930.685	8541
930.79	8415
930.894	8469
930.998	8393
931.103	8556
931.207	8221
931.311	8138
931.415	8107
931.519	7894
931.623	7909
