Data from test_V78500241_1306.txt Node
Date: Fri Mar 25 14:42:48 CST 2022
User: usil
Spectrometer: V785-0024
Trigger mode: 0
Integration Time (sec): 4.000000E-1
Scans to average: 1
Nonlinearity correction enabled: false
Boxcar width: 0
Storing dark spectrum: false
XAxis mode: Wavelengths
Number of Pixels in Spectrum: 1024
>>>>>Begin Spectral Data<<<<<
801.071	22363
801.214	22341
801.356	22135
801.499	22006
801.641	21869
801.783	21911
801.926	21698
802.068	21755
802.211	21603
802.353	21473
802.496	21237
802.638	21275
802.78	21230
802.923	21112
803.065	21062
803.208	21032
803.35	21066
803.492	21157
803.635	21169
803.777	21096
803.919	21203
804.061	21469
804.204	21077
804.346	21093
804.488	20933
804.63	21024
804.773	20834
804.915	20979
805.057	21218
805.199	20990
805.341	21013
805.483	21074
805.626	21081
805.768	20952
805.91	21070
806.052	20998
806.194	20902
806.336	21081
806.478	20941
806.62	21032
806.762	21146
806.904	21138
807.046	21447
807.188	21367
807.33	21329
807.472	21348
807.614	21420
807.756	21397
807.898	21374
808.04	21207
808.182	21173
808.324	21184
808.465	21359
808.607	21420
808.749	21587
808.891	21583
809.033	21705
809.174	21652
809.316	21515
809.458	21667
809.6	21454
809.741	21469
809.883	21485
810.025	21606
810.166	21485
810.308	21694
810.45	21511
810.591	21408
810.733	21511
810.875	21294
811.016	21062
811.158	21211
811.299	21310
811.441	21355
811.582	21386
811.724	21291
811.865	21127
812.007	21230
812.148	21214
812.29	21233
812.431	21462
812.573	21454
812.714	21576
812.855	21709
812.997	21812
813.138	21960
813.279	21797
813.421	21557
813.562	21637
813.703	21458
813.845	21268
813.986	21032
814.127	20853
814.268	20731
814.41	20811
814.551	20796
814.692	20788
814.833	20705
814.974	20804
815.115	20765
815.256	20549
815.397	20606
815.539	20545
815.68	20522
815.821	20488
815.962	20511
816.103	20480
816.244	20320
816.385	20240
816.526	20202
816.666	20012
816.807	19864
816.948	20081
817.089	19944
817.23	19928
817.371	19909
817.512	19849
817.653	19849
817.793	19807
817.934	19955
818.075	19936
818.216	19925
818.356	19814
818.497	19681
818.638	19658
818.778	19575
818.919	19499
819.06	19647
819.2	19594
819.341	19772
819.481	19788
819.622	19875
819.762	20077
819.903	20081
820.043	19932
820.184	19932
820.324	19887
820.465	19951
820.605	19811
820.746	19849
820.886	19734
821.026	19898
821.167	19864
821.307	19959
821.447	19689
821.588	19780
821.728	19616
821.868	19502
822.008	19228
822.149	19266
822.289	19175
822.429	19057
822.569	18989
822.709	18970
822.849	18783
822.99	18848
823.13	18688
823.27	18779
823.41	18650
823.55	18441
823.69	18517
823.83	18627
823.97	18506
824.11	18308
824.25	18338
824.389	18429
824.529	18437
824.669	18369
824.809	18479
824.949	18502
825.089	18391
825.228	18285
825.368	18197
825.508	18144
825.648	18117
825.787	18194
825.927	18197
826.067	17961
826.206	18163
826.346	17969
826.485	18155
826.625	18148
826.765	18262
826.904	18174
827.044	17946
827.183	17893
827.323	17851
827.462	17798
827.601	17824
827.741	17786
827.88	17874
828.02	17718
828.159	17767
828.298	17855
828.437	17840
828.577	17863
828.716	17950
828.855	17783
828.994	17608
829.134	17611
829.273	17691
829.412	17585
829.551	17448
829.69	17524
829.829	17604
829.968	17611
830.107	17566
830.246	17608
830.385	17463
830.524	17566
830.663	17436
830.802	17356
830.941	17197
831.08	17033
831.219	17292
831.357	17258
831.496	17429
831.635	17136
831.774	17079
831.913	17086
832.051	17052
832.19	17109
832.329	17014
832.467	16972
832.606	16812
832.744	16968
832.883	16873
833.022	16850
833.16	16866
833.299	16923
833.437	16961
833.576	17033
833.714	16900
833.852	17029
833.991	17003
834.129	17071
834.267	17083
834.406	17025
834.544	16968
834.682	17037
834.821	16976
834.959	17113
835.097	16976
835.235	16961
835.373	16991
835.511	16961
835.65	16946
835.788	16881
835.926	16748
836.064	16691
836.202	16729
836.34	16892
836.478	17060
836.615	16763
836.753	16858
836.891	16972
837.029	16896
837.167	16816
837.305	16702
837.443	16805
837.58	16755
837.718	16763
837.856	16755
837.993	16694
838.131	16729
838.269	16649
838.406	16645
838.544	16497
838.681	16424
838.819	16341
838.956	16284
839.094	16306
839.231	16352
839.369	16413
839.506	16706
839.643	16516
839.781	16234
839.918	16185
840.055	16371
840.193	16257
840.33	16223
840.467	16173
840.604	16310
840.742	16561
840.879	16090
841.016	16181
841.153	16082
841.29	16394
841.427	16249
841.564	16322
841.701	16322
841.838	16314
841.975	16196
842.112	16234
842.249	16101
842.385	16006
842.522	16295
842.659	16086
842.796	15998
842.933	16112
843.069	15991
843.206	16063
843.343	16086
843.479	16105
843.616	16112
843.752	15865
843.889	15869
844.025	15953
844.162	15789
844.298	16021
844.435	15812
844.571	15778
844.708	15873
844.844	16017
844.98	16013
845.117	15911
845.253	15800
845.389	15720
845.525	15789
845.661	15808
845.798	15686
845.934	15937
846.07	15816
846.206	15960
846.342	15922
846.478	15762
846.614	15523
846.75	15378
846.886	15370
847.022	15545
847.158	15397
847.294	15424
847.429	15412
847.565	15431
847.701	15633
847.837	15165
847.972	15123
848.108	15241
848.244	15184
848.379	15100
848.515	15036
848.65	14906
848.786	14982
848.921	15066
849.057	15169
849.192	15089
849.328	15081
849.463	14990
849.598	14994
849.734	15028
849.869	14883
850.004	14788
850.14	14868
850.275	14864
850.41	14727
850.545	14762
850.68	14743
850.815	14830
850.95	14758
851.085	14925
851.22	14921
851.355	14769
851.49	14834
851.625	14750
851.76	14754
851.895	14625
852.03	14659
852.165	14686
852.299	14773
852.434	14842
852.569	14712
852.703	14807
852.838	14842
852.973	14891
853.107	14918
853.242	14765
853.376	14651
853.511	14617
853.645	14594
853.78	14739
853.914	14739
854.048	14495
854.183	14594
854.317	14617
854.451	14845
854.585	14636
854.72	14594
854.854	14769
854.988	14473
855.122	14610
855.256	14511
855.39	14579
855.524	14724
855.658	14712
855.792	14667
855.926	14625
856.06	14708
856.194	14735
856.327	14602
856.461	14583
856.595	14613
856.729	14686
856.862	14731
856.996	14632
857.13	14712
857.263	14754
857.397	14754
857.53	14610
857.664	14640
857.797	14644
857.931	14804
858.064	14636
858.197	14746
858.331	14663
858.464	14670
858.597	14488
858.731	14644
858.864	14659
858.997	14560
859.13	14678
859.263	14632
859.396	14792
859.529	14678
859.662	14575
859.795	14602
859.928	14610
860.061	14739
860.194	14804
860.327	14689
860.46	14716
860.592	14796
860.725	14811
860.858	14800
860.99	14674
861.123	14533
861.256	14545
861.388	14651
861.521	15313
861.653	14507
861.786	14541
861.918	14484
862.05	14560
862.183	14659
862.315	14678
862.447	14705
862.58	14583
862.712	14469
862.844	14404
862.976	14434
863.108	14469
863.24	14952
863.372	14381
863.504	14404
863.636	14355
863.768	14465
863.9	14324
864.032	14282
864.164	14461
864.296	14438
864.428	14473
864.559	14480
864.691	14492
864.823	14530
864.954	14461
865.086	14522
865.217	14412
865.349	14301
865.48	14355
865.612	14423
865.743	14541
865.875	14419
866.006	14366
866.137	14370
866.269	14442
866.4	14343
866.531	14374
866.662	14362
866.793	14259
866.924	14332
867.055	14377
867.186	14339
867.317	14355
867.448	14294
867.579	14309
867.71	14275
867.841	14328
867.972	14427
868.103	14377
868.233	14473
868.364	14480
868.495	14499
868.625	14663
868.756	14716
868.886	14568
869.017	14564
869.147	14746
869.278	14853
869.408	14697
869.539	14739
869.669	14724
869.799	14651
869.929	14739
870.06	14682
870.19	15013
870.32	14910
870.45	14918
870.58	15070
870.71	15214
870.84	15104
870.97	15058
871.1	14986
871.23	15184
871.36	15184
871.489	15123
871.619	15256
871.749	15275
871.879	15260
872.008	15393
872.138	15214
872.267	15214
872.397	15089
872.526	15055
872.656	15070
872.785	15062
872.915	15173
873.044	15222
873.173	15279
873.303	15245
873.432	15302
873.561	15344
873.69	15306
873.819	15211
873.948	15249
874.077	15214
874.206	15351
874.335	15310
874.464	15492
874.593	15576
874.722	15545
874.851	15595
874.979	15584
875.108	15599
875.237	15515
875.365	15507
875.494	15511
875.623	15671
875.751	15496
875.88	15587
876.008	15736
876.136	15880
876.265	15994
876.393	16036
876.521	16067
876.65	16105
876.778	16078
876.906	16032
877.034	16040
877.162	15998
877.29	15983
877.418	15964
877.546	16071
877.674	16006
877.802	16010
877.93	16097
878.058	16036
878.185	15968
878.313	15994
878.441	16074
878.568	15869
878.696	16010
878.824	16059
878.951	16082
879.079	16230
879.206	16356
879.333	16185
879.461	16071
879.588	16143
879.715	16268
879.842	16360
879.97	16318
880.097	15922
880.224	15915
880.351	15975
880.478	15880
880.605	15968
880.732	15892
880.859	16059
880.986	15945
881.112	15934
881.239	15770
881.366	15675
881.493	15553
881.619	15447
881.746	15587
881.872	15466
881.999	15511
882.125	15462
882.252	15572
882.378	15515
882.505	15747
882.631	15458
882.757	15355
882.883	15401
883.01	15336
883.136	15378
883.262	15173
883.388	15203
883.514	15389
883.64	15408
883.766	15146
883.892	15157
884.018	15230
884.143	15306
884.269	15424
884.395	15051
884.52	15066
884.646	15009
884.772	15058
884.897	14963
885.023	15104
885.148	15043
885.274	15184
885.399	15131
885.524	15074
885.65	15032
885.775	15051
885.9	15005
886.025	15135
886.15	15157
886.275	15020
886.4	15028
886.525	14963
886.65	14899
886.775	15058
886.9	15127
887.025	15348
887.149	15142
887.274	14899
887.399	14823
887.523	14815
887.648	14815
887.773	14811
887.897	14895
888.021	14952
888.146	14800
888.27	14994
888.395	15017
888.519	14876
888.643	14918
888.767	14963
888.891	14773
889.015	14640
889.139	14686
889.263	14667
889.387	14918
889.511	14887
889.635	14765
889.759	14667
889.883	14712
890.006	14689
890.13	14823
890.254	14617
890.377	14659
890.501	14583
890.624	14434
890.748	14560
890.871	14461
890.995	14317
891.118	14305
891.241	14457
891.364	14408
891.488	14495
891.611	14366
891.734	14438
891.857	14389
891.98	14473
892.103	14431
892.226	14465
892.349	14366
892.471	14248
892.594	14442
892.717	14450
892.839	14396
892.962	14358
893.085	14446
893.207	14431
893.33	14336
893.452	14294
893.575	14511
893.697	14434
893.819	14560
893.941	14571
894.064	14602
894.186	14374
894.308	14271
894.43	14396
894.552	14423
894.674	14541
894.796	14328
894.918	14347
895.04	14438
895.161	14514
895.283	14503
895.405	14438
895.526	14507
895.648	14518
895.769	14526
895.891	14476
896.012	14678
896.134	14590
896.255	14495
896.376	14617
896.498	14552
896.619	14583
896.74	14587
896.861	14613
896.982	14895
897.103	15089
897.224	14864
897.345	14800
897.466	14769
897.587	14849
897.708	14937
897.828	14826
897.949	14750
898.07	14663
898.19	14697
898.311	14906
898.431	14872
898.552	14899
898.672	15028
898.792	14891
898.913	14933
899.033	14804
899.153	14773
899.273	14804
899.393	14811
899.513	14823
899.633	14849
899.753	14785
899.873	14712
899.993	14720
900.113	14735
900.232	14765
900.352	14705
900.472	14659
900.591	14613
900.711	14708
900.83	14625
900.95	14678
901.069	14727
901.189	14476
901.308	14309
901.427	14278
901.546	14187
901.665	14317
901.784	14377
901.904	14168
902.023	14081
902.141	13875
902.26	13849
902.379	13894
902.498	13849
902.617	13879
902.735	13947
902.854	13818
902.973	13807
903.091	13586
903.21	13510
903.328	13590
903.446	13365
903.565	13430
903.683	13339
903.801	13331
903.919	13377
904.038	13422
904.156	13244
904.274	13320
904.392	13282
904.51	13209
904.627	13187
904.745	13285
904.863	13327
904.981	12989
905.098	12909
905.216	12913
905.334	12943
905.451	12897
905.569	12867
905.686	12951
905.803	12920
905.921	12711
906.038	12852
906.155	12837
906.272	12631
906.389	12662
906.506	12464
906.623	12490
906.74	12502
906.857	12407
906.974	12384
907.091	12597
907.208	12646
907.324	12528
907.441	12384
907.557	12243
907.674	12235
907.79	12167
907.907	12243
908.023	12277
908.139	12270
908.256	12182
908.372	12167
908.488	12125
908.604	12034
908.72	12011
908.836	12064
908.952	11916
909.068	12011
909.184	12068
909.3	12007
909.415	12019
909.531	12030
909.647	11878
909.762	11767
909.878	11836
909.993	11809
910.108	11752
910.224	11714
910.339	11813
910.454	11672
910.57	11642
910.685	11535
910.8	11733
910.915	11805
911.03	11623
911.145	11535
911.259	11459
911.374	11414
911.489	11360
911.604	11353
911.718	11296
911.833	11166
911.947	11079
912.062	11033
912.176	11216
912.291	11197
912.405	11223
912.519	11345
912.633	11448
912.748	11235
912.862	11261
912.976	11067
913.09	10968
913.204	11037
913.318	11121
913.431	11159
913.545	11250
913.659	11159
913.772	11109
913.886	10999
914	10938
914.113	11083
914.226	11124
914.34	11086
914.453	10896
914.566	11052
914.68	10869
914.793	10896
914.906	10717
915.019	10687
915.132	10641
915.245	10683
915.358	10733
915.47	10729
915.583	10790
915.696	10725
915.809	10866
915.921	10854
916.034	10694
916.146	10649
916.259	10599
916.371	10820
916.483	10679
916.595	10603
916.708	10714
916.82	10634
916.932	10565
917.044	10607
917.156	10573
917.268	10538
917.38	10470
917.491	10535
917.603	10554
917.715	10626
917.826	10649
917.938	10455
918.049	10432
918.161	10573
918.272	10618
918.384	10634
918.495	10569
918.606	10402
918.717	10306
918.828	10371
918.939	10428
919.05	10356
919.161	10428
919.272	10147
919.383	10310
919.494	10504
919.604	10580
919.715	10398
919.826	10306
919.936	10352
920.047	10519
920.157	10398
920.267	10592
920.378	10424
920.488	10402
920.598	10573
920.708	10717
920.818	10565
920.928	10542
921.038	10752
921.148	10649
921.258	10371
921.368	10447
921.477	10207
921.587	10329
921.697	10150
921.806	10272
921.916	10188
922.025	10044
922.134	9975
922.244	9934
922.353	9994
922.462	9937
922.571	9819
922.68	9713
922.789	9637
922.898	9663
923.007	9652
923.116	9717
923.224	9720
923.333	9644
923.442	9526
923.55	9549
923.659	9584
923.767	9667
923.876	9469
923.984	9580
924.092	9496
924.201	9557
924.309	9496
924.417	9477
924.525	9542
924.633	9466
924.741	10147
924.849	9275
924.956	9466
925.064	9363
925.172	9264
925.279	9332
925.387	9355
925.494	9344
925.602	9428
925.709	9401
925.816	9245
925.924	9363
926.031	9424
926.138	9393
926.245	9325
926.352	9253
926.459	9473
926.566	9370
926.673	9367
926.779	9192
926.886	9218
926.993	9123
927.099	9032
927.206	9058
927.312	9013
927.419	9108
927.525	9070
927.631	9123
927.737	9036
927.843	9013
927.95	8842
928.056	8918
928.162	8921
928.267	8963
928.373	9587
928.479	8967
928.585	8864
928.69	8944
928.796	8944
928.901	8876
929.007	8739
929.112	8861
929.218	8834
929.323	8781
929.428	8712
929.533	8830
929.638	8678
929.743	8815
929.848	8800
929.953	8746
930.058	8716
930.163	8503
930.267	8495
930.372	8678
930.477	8488
930.581	8720
930.685	8621
930.79	8446
930.894	8507
930.998	8457
931.103	8579
931.207	8317
931.311	8172
931.415	8119
931.519	7997
931.623	7982
