Data from test_V78500241_2714.txt Node
Date: Fri Mar 25 14:52:36 CST 2022
User: usil
Spectrometer: V785-0024
Trigger mode: 0
Integration Time (sec): 4.000000E-1
Scans to average: 1
Nonlinearity correction enabled: false
Boxcar width: 0
Storing dark spectrum: false
XAxis mode: Wavelengths
Number of Pixels in Spectrum: 1024
>>>>>Begin Spectral Data<<<<<
801.071	21979
801.214	22040
801.356	21705
801.499	21526
801.641	21526
801.783	21382
801.926	21291
802.068	21386
802.211	21325
802.353	21222
802.496	20910
802.638	20910
802.78	20746
802.923	20754
803.065	20556
803.208	20644
803.35	20750
803.492	20758
803.635	20830
803.777	20629
803.919	20765
804.061	21154
804.204	20754
804.346	20648
804.488	20712
804.63	20678
804.773	20503
804.915	20640
805.057	20682
805.199	20575
805.341	20720
805.483	20716
805.626	20621
805.768	20594
805.91	20511
806.052	20568
806.194	20590
806.336	20792
806.478	20609
806.62	20507
806.762	20629
806.904	20834
807.046	21001
807.188	20925
807.33	20902
807.472	20975
807.614	20773
807.756	20746
807.898	20792
808.04	20632
808.182	20648
808.324	20663
808.465	20594
808.607	20963
808.749	20960
808.891	21112
809.033	21184
809.174	21024
809.316	21043
809.458	21074
809.6	20952
809.741	20967
809.883	21108
810.025	21180
810.166	21218
810.308	21180
810.45	21039
810.591	21005
810.733	20739
810.875	20781
811.016	20625
811.158	20655
811.299	20880
811.441	20918
811.582	20906
811.724	20708
811.865	20689
812.007	20705
812.148	20731
812.29	20868
812.431	20948
812.573	21005
812.714	21142
812.855	21226
812.997	21272
813.138	21542
813.279	21428
813.421	21306
813.562	21108
813.703	20998
813.845	20838
813.986	20617
814.127	20415
814.268	20408
814.41	20339
814.551	20347
814.692	20362
814.833	20259
814.974	20252
815.115	20256
815.256	20149
815.397	20058
815.539	20149
815.68	20016
815.821	19951
815.962	20020
816.103	20039
816.244	19761
816.385	19662
816.526	19727
816.666	19662
816.807	19552
816.948	19567
817.089	19601
817.23	19441
817.371	19438
817.512	19449
817.653	19278
817.793	19487
817.934	19403
818.075	19476
818.216	19335
818.356	19438
818.497	19152
818.638	19080
818.778	19137
818.919	19069
819.06	19027
819.2	19240
819.341	19171
819.481	19354
819.622	19480
819.762	19605
819.903	19582
820.043	19480
820.184	19293
820.324	19339
820.465	19407
820.605	19324
820.746	19377
820.886	19206
821.026	19476
821.167	19259
821.307	19510
821.447	19434
821.588	19228
821.728	19198
821.868	18871
822.008	18821
822.149	18833
822.289	18871
822.429	18513
822.569	18467
822.709	18525
822.849	18418
822.99	18304
823.13	18346
823.27	18228
823.41	18144
823.55	18076
823.69	18129
823.83	18087
823.97	18064
824.11	17897
824.25	17729
824.389	17851
824.529	17916
824.669	17897
824.809	18045
824.949	17961
825.089	17977
825.228	17878
825.368	17707
825.508	17695
825.648	17722
825.787	17657
825.927	17684
826.067	17562
826.206	17623
826.346	17657
826.485	17627
826.625	17710
826.765	17783
826.904	17707
827.044	17353
827.183	17349
827.323	17379
827.462	17368
827.601	17315
827.741	17277
827.88	17353
828.02	17265
828.159	17372
828.298	17455
828.437	17452
828.577	17303
828.716	17440
828.855	17273
828.994	17098
829.134	17064
829.273	17048
829.412	17094
829.551	16984
829.69	17147
829.829	17079
829.968	17208
830.107	17094
830.246	17056
830.385	17159
830.524	17006
830.663	16908
830.802	16790
830.941	16713
831.08	16812
831.219	16980
831.357	16835
831.496	16873
831.635	16759
831.774	16656
831.913	16645
832.051	16512
832.19	16478
832.329	16538
832.467	16489
832.606	16371
832.744	16428
832.883	16291
833.022	16333
833.16	16470
833.299	16561
833.437	16504
833.576	16455
833.714	16329
833.852	16558
833.991	16455
834.129	16527
834.267	16558
834.406	16428
834.544	16573
834.682	16478
834.821	16436
834.959	16637
835.097	16363
835.235	16550
835.373	16588
835.511	16542
835.65	16432
835.788	16462
835.926	16272
836.064	16131
836.202	16188
836.34	16379
836.478	16402
836.615	16360
836.753	16527
836.891	16436
837.029	16455
837.167	16371
837.305	16337
837.443	16261
837.58	16268
837.718	16325
837.856	16333
837.993	16299
838.131	16333
838.269	16143
838.406	16185
838.544	16303
838.681	15991
838.819	15960
838.956	15823
839.094	15884
839.231	15937
839.369	15987
839.506	16230
839.643	16101
839.781	15842
839.918	15785
840.055	15785
840.193	15842
840.33	15785
840.467	15819
840.604	15835
840.742	16177
840.879	15679
841.016	15774
841.153	15618
841.29	15915
841.427	15854
841.564	15876
841.701	15873
841.838	15804
841.975	15701
842.112	15774
842.249	15667
842.385	15644
842.522	15895
842.659	15622
842.796	15599
842.933	15641
843.069	15485
843.206	15633
843.343	15667
843.479	15568
843.616	15728
843.752	15363
843.889	15351
844.025	15496
844.162	15336
844.298	15564
844.435	15454
844.571	15306
844.708	15420
844.844	15545
844.98	15648
845.117	15443
845.253	15393
845.389	15378
845.525	15367
845.661	15313
845.798	15199
845.934	15272
846.07	15135
846.206	15230
846.342	15393
846.478	15150
846.614	14910
846.75	15009
846.886	14918
847.022	14990
847.158	15043
847.294	14979
847.429	14986
847.565	14891
847.701	15180
847.837	14785
847.972	14621
848.108	14750
848.244	14834
848.379	14617
848.515	14579
848.65	14499
848.786	14530
848.921	14530
849.057	14606
849.192	14636
849.328	14587
849.463	14610
849.598	14476
849.734	14476
849.869	14454
850.004	14317
850.14	14408
850.275	14313
850.41	14267
850.545	14286
850.68	14301
850.815	14408
850.95	14248
851.085	14419
851.22	14454
851.355	14305
851.49	14221
851.625	14328
851.76	14275
851.895	14324
852.03	14119
852.165	14396
852.299	14286
852.434	14503
852.569	14328
852.703	14415
852.838	14389
852.973	14454
853.107	14476
853.242	14240
853.376	14256
853.511	14119
853.645	14161
853.78	14343
853.914	14317
854.048	14218
854.183	14225
854.317	14191
854.451	14298
854.585	14168
854.72	14240
854.854	14244
854.988	14153
855.122	14195
855.256	14065
855.39	14130
855.524	14328
855.658	14244
855.792	14336
855.926	14320
856.06	14252
856.194	14301
856.327	14214
856.461	14233
856.595	14183
856.729	14180
856.862	14237
856.996	14210
857.13	14278
857.263	14366
857.397	14358
857.53	14123
857.664	14252
857.797	14244
857.931	14320
858.064	14225
858.197	14317
858.331	14206
858.464	14111
858.597	14107
858.731	14214
858.864	14290
858.997	14130
859.13	14278
859.263	14256
859.396	14381
859.529	14115
859.662	14168
859.795	14164
859.928	14161
860.061	14366
860.194	14427
860.327	14267
860.46	14138
860.592	14240
860.725	14351
860.858	14434
860.99	14195
861.123	14111
861.256	14149
861.388	14199
861.521	14758
861.653	14100
861.786	14016
861.918	14062
862.05	14240
862.183	14225
862.315	14176
862.447	14271
862.58	14149
862.712	13928
862.844	13951
862.976	14077
863.108	14100
863.24	14442
863.372	13947
863.504	14065
863.636	13959
863.768	14134
863.9	13940
864.032	13887
864.164	13982
864.296	14035
864.428	14103
864.559	14084
864.691	13997
864.823	14088
864.954	14039
865.086	14050
865.217	13947
865.349	13856
865.48	13890
865.612	14008
865.743	14073
865.875	14046
866.006	13947
866.137	14065
866.269	13982
866.4	13875
866.531	13928
866.662	13860
866.793	14008
866.924	14008
867.055	14058
867.186	13944
867.317	13951
867.448	13852
867.579	13928
867.71	13955
867.841	13917
867.972	13902
868.103	13883
868.233	13955
868.364	14001
868.495	14043
868.625	14183
868.756	14282
868.886	14161
869.017	14278
869.147	14396
869.278	14309
869.408	14301
869.539	14256
869.669	14252
869.799	14294
869.929	14377
870.06	14408
870.19	14602
870.32	14564
870.45	14606
870.58	14689
870.71	14712
870.84	14712
870.97	14511
871.1	14556
871.23	14864
871.36	14804
871.489	14724
871.619	14883
871.749	14899
871.879	14948
872.008	14994
872.138	14842
872.267	14906
872.397	14781
872.526	14632
872.656	14594
872.785	14701
872.915	14849
873.044	14910
873.173	14880
873.303	14986
873.432	14960
873.561	14952
873.69	14883
873.819	14910
873.948	14864
874.077	14864
874.206	14918
874.335	14891
874.464	15074
874.593	15138
874.722	15047
874.851	15272
874.979	15355
875.108	15359
875.237	15214
875.365	15131
875.494	15085
875.623	15237
875.751	15180
875.88	15203
876.008	15291
876.136	15405
876.265	15644
876.393	15751
876.521	15701
876.65	15728
876.778	15637
876.906	15599
877.034	15553
877.162	15599
877.29	15610
877.418	15644
877.546	15625
877.674	15641
877.802	15618
877.93	15530
878.058	15500
878.185	15500
878.313	15549
878.441	15713
878.568	15485
878.696	15523
878.824	15663
878.951	15728
879.079	15823
879.206	15892
879.333	15850
879.461	15778
879.588	15720
879.715	15812
879.842	15907
879.97	15694
880.097	15435
880.224	15496
880.351	15526
880.478	15488
880.605	15351
880.732	15542
880.859	15743
880.986	15542
881.112	15443
881.239	15408
881.366	15249
881.493	15154
881.619	15108
881.746	15135
881.872	15226
881.999	15100
882.125	15081
882.252	15173
882.378	15131
882.505	15233
882.631	15058
882.757	14937
882.883	14998
883.01	14883
883.136	14864
883.262	14773
883.388	14792
883.514	14872
883.64	14906
883.766	14925
883.892	14708
884.018	14800
884.143	15005
884.269	14956
884.395	14724
884.52	14659
884.646	14708
884.772	14590
884.897	14598
885.023	14613
885.148	14781
885.274	14792
885.399	14720
885.524	14583
885.65	14610
885.775	14629
885.9	14640
886.025	14777
886.15	14655
886.275	14636
886.4	14503
886.525	14571
886.65	14545
886.775	14541
886.9	14823
887.025	14853
887.149	14625
887.274	14549
887.399	14457
887.523	14549
887.648	14343
887.773	14332
887.897	14545
888.021	14579
888.146	14454
888.27	14575
888.395	14571
888.519	14427
888.643	14514
888.767	14499
888.891	14362
889.015	14347
889.139	14301
889.263	14317
889.387	14488
889.511	14621
889.635	14488
889.759	14351
889.883	14339
890.006	14351
890.13	14503
890.254	14271
890.377	14259
890.501	14176
890.624	14153
890.748	14244
890.871	14043
890.995	14005
891.118	13928
891.241	14065
891.364	14069
891.488	14138
891.611	14005
891.734	14119
891.857	14096
891.98	14126
892.103	14161
892.226	14092
892.349	13947
892.471	13830
892.594	14035
892.717	14008
892.839	13986
892.962	13978
893.085	14016
893.207	14073
893.33	13890
893.452	14020
893.575	14115
893.697	13951
893.819	14157
893.941	14298
894.064	14275
894.186	14062
894.308	14065
894.43	14298
894.552	14225
894.674	14259
894.796	14123
894.918	14119
895.04	14035
895.161	14145
895.283	14153
895.405	14058
895.526	14229
895.648	14134
895.769	14290
895.891	14256
896.012	14267
896.134	14233
896.255	14218
896.376	14221
896.498	14168
896.619	14324
896.74	14305
896.861	14301
896.982	14587
897.103	14743
897.224	14484
897.345	14530
897.466	14412
897.587	14438
897.708	14606
897.828	14541
897.949	14480
898.07	14404
898.19	14370
898.311	14674
898.431	14442
898.552	14594
898.672	14648
898.792	14678
898.913	14727
899.033	14579
899.153	14374
899.273	14328
899.393	14362
899.513	14461
899.633	14389
899.753	14393
899.873	14298
899.993	14442
900.113	14408
900.232	14442
900.352	14400
900.472	14446
900.591	14210
900.711	14309
900.83	14191
900.95	14374
901.069	14484
901.189	14218
901.308	14069
901.427	13864
901.546	13959
901.665	13967
901.784	13970
901.904	13887
902.023	13715
902.141	13518
902.26	13552
902.379	13594
902.498	13495
902.617	13537
902.735	13586
902.854	13499
902.973	13430
903.091	13240
903.21	13247
903.328	13156
903.446	13202
903.565	13072
903.683	13175
903.801	13129
903.919	13046
904.038	13031
904.156	13015
904.274	12916
904.392	12905
904.51	12913
904.627	12859
904.745	13042
904.863	12947
904.981	12764
905.098	12585
905.216	12620
905.334	12563
905.451	12559
905.569	12578
905.686	12620
905.803	12593
905.921	12445
906.038	12570
906.155	12448
906.272	12247
906.389	12445
906.506	12209
906.623	12201
906.74	12152
906.857	12064
906.974	12152
907.091	12296
907.208	12319
907.324	12254
907.441	12083
907.557	11969
907.674	12003
907.79	11923
907.907	11893
908.023	11935
908.139	11878
908.256	11882
908.372	11927
908.488	11916
908.604	11745
908.72	11668
908.836	11665
908.952	11688
909.068	11695
909.184	11847
909.3	11767
909.415	11764
909.531	11779
909.647	11478
909.762	11467
909.878	11486
909.993	11520
910.108	11505
910.224	11440
910.339	11558
910.454	11376
910.57	11376
910.685	11269
910.8	11486
910.915	11512
911.03	11440
911.145	11204
911.259	11128
911.374	11208
911.489	11136
911.604	11067
911.718	11022
911.833	10911
911.947	10850
912.062	10824
912.176	10885
912.291	10896
912.405	10949
912.519	11143
912.633	11132
912.748	10961
912.862	10987
912.976	10835
913.09	10778
913.204	10752
913.318	10850
913.431	10889
913.545	10923
913.659	11018
913.772	10763
913.886	10710
914	10630
914.113	10805
914.226	10820
914.34	10839
914.453	10542
914.566	10672
914.68	10626
914.793	10615
914.906	10375
915.019	10432
915.132	10341
915.245	10470
915.358	10478
915.47	10436
915.583	10508
915.696	10394
915.809	10542
915.921	10550
916.034	10443
916.146	10455
916.259	10352
916.371	10428
916.483	10497
916.595	10367
916.708	10417
916.82	10363
916.932	10371
917.044	10367
917.156	10398
917.268	10238
917.38	10280
917.491	10268
917.603	10299
917.715	10443
917.826	10405
917.938	10272
918.049	10147
918.161	10287
918.272	10451
918.384	10440
918.495	10367
918.606	10150
918.717	10059
918.828	10200
918.939	10268
919.05	10055
919.161	10196
919.272	9960
919.383	10120
919.494	10238
919.604	10402
919.715	10143
919.826	10150
919.936	10086
920.047	10211
920.157	10169
920.267	10390
920.378	10227
920.488	10177
920.598	10405
920.708	10485
920.818	10356
920.928	10409
921.038	10577
921.148	10508
921.258	10211
921.368	10147
921.477	10112
921.587	10010
921.697	9934
921.806	9994
921.916	9930
922.025	9808
922.134	9698
922.244	9641
922.353	9740
922.462	9614
922.571	9530
922.68	9393
922.789	9439
922.898	9534
923.007	9348
923.116	9485
923.224	9477
923.333	9435
923.442	9325
923.55	9230
923.659	9325
923.767	9329
923.876	9260
923.984	9370
924.092	9306
924.201	9275
924.309	9310
924.417	9302
924.525	9256
924.633	9253
924.741	10051
924.849	9123
924.956	9226
925.064	9020
925.172	8979
925.279	9085
925.387	9127
925.494	9108
925.602	9226
925.709	9131
925.816	9077
925.924	9009
926.031	9154
926.138	9036
926.245	9127
926.352	9047
926.459	9123
926.566	9142
926.673	9009
926.779	8948
926.886	8906
926.993	8826
927.099	8861
927.206	8724
927.312	8804
927.419	8819
927.525	8868
927.631	8823
927.737	8682
927.843	8670
927.95	8590
928.056	8693
928.162	8701
928.267	8754
928.373	9367
928.479	8796
928.585	8568
928.69	8701
928.796	8762
928.901	8682
929.007	8454
929.112	8644
929.218	8587
929.323	8499
929.428	8571
929.533	8594
929.638	8526
929.743	8533
929.848	8545
929.953	8621
930.058	8454
930.163	8339
930.267	8244
930.372	8507
930.477	8248
930.581	8499
930.685	8381
930.79	8180
930.894	8282
930.998	8187
931.103	8431
931.207	8088
931.311	8024
931.415	8005
931.519	7757
931.623	7700
