Data from test_V78500241_814.txt Node
Date: Fri Mar 25 14:39:23 CST 2022
User: usil
Spectrometer: V785-0024
Trigger mode: 0
Integration Time (sec): 4.000000E-1
Scans to average: 1
Nonlinearity correction enabled: false
Boxcar width: 0
Storing dark spectrum: false
XAxis mode: Wavelengths
Number of Pixels in Spectrum: 1024
>>>>>Begin Spectral Data<<<<<
801.071	26457
801.214	26221
801.356	25928
801.499	25864
801.641	25769
801.783	25639
801.926	25811
802.068	25575
802.211	25449
802.353	25365
802.496	25240
802.638	25145
802.78	25171
802.923	25088
803.065	25194
803.208	25160
803.35	25221
803.492	25282
803.635	25346
803.777	25190
803.919	25282
804.061	25605
804.204	25327
804.346	25331
804.488	25308
804.63	25331
804.773	25304
804.915	25331
805.057	25426
805.199	25438
805.341	25609
805.483	25734
805.626	25727
805.768	25757
805.91	25704
806.052	25909
806.194	25879
806.336	26389
806.478	26267
806.62	26225
806.762	26750
806.904	26956
807.046	27382
807.188	27652
807.33	27831
807.472	28409
807.614	28869
807.756	29509
807.898	30197
808.04	31392
808.182	32937
808.324	34721
808.465	36943
808.607	39481
808.749	41817
808.891	43099
809.033	43244
809.174	41756
809.316	39694
809.458	37145
809.6	34664
809.741	32533
809.883	31088
810.025	29977
810.166	29155
810.308	28535
810.45	28173
810.591	27591
810.733	27237
810.875	26986
811.016	26629
811.158	26617
811.299	26453
811.441	26446
811.582	26374
811.724	26122
811.865	25860
812.007	25966
812.148	25944
812.29	25879
812.431	25906
812.573	26069
812.714	26210
812.855	26271
812.997	26225
813.138	26374
813.279	26225
813.421	25986
813.562	25879
813.703	25879
813.845	25772
813.986	25384
814.127	25110
814.268	25069
814.41	24977
814.551	24935
814.692	25091
814.833	24897
814.974	24970
815.115	24913
815.256	24814
815.397	24616
815.539	24673
815.68	24673
815.821	24445
815.962	24525
816.103	24486
816.244	24296
816.385	24163
816.526	24304
816.666	23901
816.807	23897
816.948	23973
817.089	23832
817.23	23961
817.371	23718
817.512	23737
817.653	23775
817.793	23718
817.934	23771
818.075	23802
818.216	23608
818.356	23653
818.497	23623
818.638	23387
818.778	23497
818.919	23478
819.06	23334
819.2	23490
819.341	23786
819.481	23535
819.622	23676
819.762	23950
819.903	23843
820.043	23741
820.184	23638
820.324	23661
820.465	23767
820.605	23722
820.746	23585
820.886	23414
821.026	23585
821.167	23604
821.307	23558
821.447	23391
821.588	23429
821.728	23296
821.868	23155
822.008	22900
822.149	22946
822.289	22828
822.429	22660
822.569	22641
822.709	22599
822.849	22333
822.99	22344
823.13	22363
823.27	22428
823.41	22135
823.55	22162
823.69	22150
823.83	22112
823.97	22135
824.11	22070
824.25	21892
824.389	21857
824.529	21998
824.669	22017
824.809	22112
824.949	21926
825.089	21960
825.228	21979
825.368	21850
825.508	21774
825.648	21717
825.787	21739
825.927	21709
826.067	21625
826.206	21618
826.346	21717
826.485	21778
826.625	21603
826.765	21759
826.904	21694
827.044	21401
827.183	21439
827.323	21378
827.462	21473
827.601	21313
827.741	21420
827.88	21405
828.02	21245
828.159	21329
828.298	21332
828.437	21408
828.577	21275
828.716	21359
828.855	21245
828.994	21100
829.134	21085
829.273	21032
829.412	20895
829.551	20956
829.69	20986
829.829	21077
829.968	21230
830.107	21112
830.246	20910
830.385	20937
830.524	20956
830.663	20765
830.802	20750
830.941	20625
831.08	20594
831.219	20750
831.357	20682
831.496	20921
831.635	20693
831.774	20587
831.913	20499
832.051	20484
832.19	20465
832.329	20514
832.467	20423
832.606	20473
832.744	20431
832.883	20579
833.022	20575
833.16	20640
833.299	20655
833.437	20811
833.576	20883
833.714	20994
833.852	21135
833.991	21154
834.129	21188
834.267	21329
834.406	21237
834.544	21218
834.682	21001
834.821	20971
834.959	21024
835.097	20804
835.235	20864
835.373	20663
835.511	20625
835.65	20465
835.788	20320
835.926	20259
836.064	20161
836.202	20058
836.34	20195
836.478	20282
836.615	20187
836.753	20161
836.891	20248
837.029	20202
837.167	20046
837.305	20065
837.443	19989
837.58	20016
837.718	19982
837.856	19944
837.993	19928
838.131	20058
838.269	19860
838.406	19955
838.544	19734
838.681	19845
838.819	19666
838.956	19411
839.094	19533
839.231	19445
839.369	19510
839.506	19921
839.643	19605
839.781	19377
839.918	19312
840.055	19415
840.193	19373
840.33	19316
840.467	19400
840.604	19453
840.742	19616
840.879	19282
841.016	19324
841.153	19247
841.29	19514
841.427	19384
841.564	19350
841.701	19499
841.838	19384
841.975	19266
842.112	19285
842.249	19187
842.385	19118
842.522	19293
842.659	19263
842.796	19179
842.933	19209
843.069	19133
843.206	19206
843.343	19343
843.479	19232
843.616	19263
843.752	19228
843.889	19133
844.025	19362
844.162	19217
844.298	19350
844.435	19453
844.571	19529
844.708	19746
844.844	20149
844.98	20427
845.117	20781
845.253	21408
845.389	22866
845.525	25308
845.661	29379
845.798	34569
845.934	38434
846.07	40082
846.206	39169
846.342	36117
846.478	30692
846.614	26412
846.75	23452
846.886	21656
847.022	20648
847.158	20081
847.294	19632
847.429	19324
847.565	19046
847.701	19160
847.837	18566
847.972	18540
848.108	18585
848.244	18563
848.379	18300
848.515	18296
848.65	18178
848.786	18251
848.921	18330
849.057	18190
849.192	18232
849.328	18072
849.463	18064
849.598	18155
849.734	18144
849.869	17950
850.004	17904
850.14	17832
850.275	17794
850.41	17798
850.545	17737
850.68	17824
850.815	17805
850.95	17718
851.085	17992
851.22	17912
851.355	17805
851.49	17764
851.625	17817
851.76	17748
851.895	17729
852.03	17741
852.165	17847
852.299	17946
852.434	17927
852.569	17912
852.703	17809
852.838	17920
852.973	18087
853.107	17863
853.242	17946
853.376	17752
853.511	17741
853.645	17878
853.78	18003
853.914	17843
854.048	17870
854.183	17920
854.317	18030
854.451	18091
854.585	17946
854.72	18057
854.854	17935
854.988	17802
855.122	17813
855.256	17745
855.39	17824
855.524	17836
855.658	17798
855.792	17733
855.926	17882
856.06	17783
856.194	17847
856.327	17779
856.461	17634
856.595	17687
856.729	17691
856.862	17794
856.996	17733
857.13	17619
857.263	17745
857.397	17611
857.53	17535
857.664	17779
857.797	17786
857.931	17684
858.064	17627
858.197	17786
858.331	17547
858.464	17554
858.597	17501
858.731	17486
858.864	17520
858.997	17497
859.13	17710
859.263	17493
859.396	17676
859.529	17619
859.662	17490
859.795	17554
859.928	17520
860.061	17707
860.194	17703
860.327	17581
860.46	17505
860.592	17600
860.725	17748
860.858	17649
860.99	17501
861.123	17376
861.256	17387
861.388	17570
861.521	18053
861.653	17315
861.786	17280
861.918	17360
862.05	17433
862.183	17444
862.315	17448
862.447	17497
862.58	17630
862.712	17246
862.844	17159
862.976	17383
863.108	17159
863.24	17619
863.372	17121
863.504	17235
863.636	17170
863.768	17181
863.9	17299
864.032	17136
864.164	17242
864.296	17250
864.428	17254
864.559	17204
864.691	17303
864.823	17269
864.954	17109
865.086	17265
865.217	17277
865.349	17212
865.48	17193
865.612	17235
865.743	17277
865.875	17216
866.006	17086
866.137	17197
866.269	17155
866.4	17128
866.531	17174
866.662	17121
866.793	17140
866.924	17018
867.055	17170
867.186	17124
867.317	17037
867.448	17075
867.579	17102
867.71	17033
867.841	16930
867.972	17094
868.103	17121
868.233	17178
868.364	17113
868.495	17098
868.625	17288
868.756	17493
868.886	17311
869.017	17258
869.147	17573
869.278	17516
869.408	17433
869.539	17444
869.669	17425
869.799	17444
869.929	17455
870.06	17493
870.19	17604
870.32	17623
870.45	17687
870.58	17828
870.71	17920
870.84	17939
870.97	17935
871.1	17684
871.23	18022
871.36	18087
871.489	18022
871.619	18072
871.749	18045
871.879	18079
872.008	18213
872.138	18072
872.267	18064
872.397	17863
872.526	17859
872.656	17954
872.785	17984
872.915	18186
873.044	18205
873.173	18102
873.303	18289
873.432	18258
873.561	18209
873.69	18273
873.819	18194
873.948	18433
874.077	18281
874.206	18311
874.335	18426
874.464	18467
874.593	18722
874.722	18639
874.851	18677
874.979	18726
875.108	18795
875.237	18795
875.365	18738
875.494	18875
875.623	19042
875.751	18840
875.88	18947
876.008	19091
876.136	19141
876.265	19411
876.393	19655
876.521	19590
876.65	19616
876.778	19575
876.906	19544
877.034	19651
877.162	19696
877.29	19723
877.418	19845
877.546	19883
877.674	20073
877.802	20081
877.93	20301
878.058	20176
878.185	20423
878.313	20613
878.441	20750
878.568	21032
878.696	21538
878.824	22177
878.951	22995
879.079	24232
879.206	25712
879.333	27222
879.461	28535
879.588	29246
879.715	29501
879.842	28656
879.97	27176
880.097	25651
880.224	24342
880.351	23531
880.478	22828
880.605	22485
880.732	22154
880.859	22150
880.986	21960
881.112	21755
881.239	21561
881.366	21382
881.493	21370
881.619	21268
881.746	21344
881.872	21233
881.999	21405
882.125	21363
882.252	21538
882.378	21583
882.505	21728
882.631	21473
882.757	21325
882.883	21428
883.01	21336
883.136	21268
883.262	21279
883.388	21173
883.514	21348
883.64	21291
883.766	21268
883.892	21039
884.018	21184
884.143	21298
884.269	21397
884.395	21093
884.52	21017
884.646	21165
884.772	20994
884.897	20872
885.023	20963
885.148	21131
885.274	21123
885.399	21070
885.524	20910
885.65	20788
885.775	20583
885.9	20606
886.025	20594
886.15	20362
886.275	20309
886.4	20065
886.525	20005
886.65	19955
886.775	19830
886.9	19902
887.025	19989
887.149	19616
887.274	19339
887.399	19293
887.523	19327
887.648	19084
887.773	19095
887.897	19160
888.021	19179
888.146	18875
888.27	19053
888.395	18962
888.519	18924
888.643	18875
888.767	18924
888.891	18768
889.015	18547
889.139	18597
889.263	18471
889.387	18616
889.511	18665
889.635	18486
889.759	18350
889.883	18376
890.006	18498
890.13	18525
890.254	18289
890.377	18235
890.501	18030
890.624	18060
890.748	17958
890.871	17992
890.995	17878
891.118	17863
891.241	17733
891.364	17707
891.488	17954
891.611	17878
891.734	17760
891.857	17817
891.98	17684
892.103	17596
892.226	17695
892.349	17627
892.471	17379
892.594	17532
892.717	17596
892.839	17414
892.962	17524
893.085	17493
893.207	17341
893.33	17261
893.452	17379
893.575	17505
893.697	17372
893.819	17505
893.941	17573
894.064	17425
894.186	17231
894.308	17162
894.43	17349
894.552	17520
894.674	17254
894.796	17121
894.918	17258
895.04	17136
895.161	17315
895.283	17261
895.405	17147
895.526	17216
895.648	17166
895.769	17128
895.891	17227
896.012	17250
896.134	17102
896.255	17246
896.376	17132
896.498	17178
896.619	17197
896.74	17094
896.861	17174
896.982	17532
897.103	17642
897.224	17482
897.345	17444
897.466	17356
897.587	17379
897.708	17482
897.828	17444
897.949	17258
898.07	17227
898.19	17322
898.311	17410
898.431	17360
898.552	17364
898.672	17512
898.792	17395
898.913	17341
899.033	17162
899.153	17136
899.273	17056
899.393	17121
899.513	17200
899.633	17189
899.753	17132
899.873	17041
899.993	17250
900.113	17155
900.232	17204
900.352	17033
900.472	17090
900.591	16984
900.711	16991
900.83	17003
900.95	17071
901.069	17185
901.189	16919
901.308	16645
901.427	16637
901.546	16573
901.665	16603
901.784	16546
901.904	16485
902.023	16398
902.141	16257
902.26	16154
902.379	16234
902.498	16188
902.617	16112
902.735	16162
902.854	15911
902.973	15922
903.091	15724
903.21	15747
903.328	15690
903.446	15694
903.565	15557
903.683	15580
903.801	15511
903.919	15443
904.038	15477
904.156	15287
904.274	15374
904.392	15321
904.51	15272
904.627	15378
904.745	15294
904.863	15298
904.981	15062
905.098	14963
905.216	14963
905.334	14986
905.451	15001
905.569	14967
905.686	14887
905.803	14918
905.921	14811
906.038	14887
906.155	14773
906.272	14743
906.389	14663
906.506	14492
906.623	14465
906.74	14613
906.857	14229
906.974	14374
907.091	14427
907.208	14655
907.324	14507
907.441	14454
907.557	14191
907.674	14130
907.79	14115
907.907	14149
908.023	14244
908.139	14183
908.256	14164
908.372	14134
908.488	14039
908.604	14001
908.72	13830
908.836	13902
908.952	13909
909.068	13856
909.184	13974
909.3	13875
909.415	13898
909.531	13871
909.647	13791
909.762	13624
909.878	13658
909.993	13662
910.108	13643
910.224	13624
910.339	13651
910.454	13556
910.57	13460
910.685	13502
910.8	13715
910.915	13643
911.03	13643
911.145	13365
911.259	13263
911.374	13308
911.489	13266
911.604	13129
911.718	13072
911.833	13042
911.947	13015
912.062	12817
912.176	13004
912.291	13027
912.405	13099
912.519	13282
912.633	13202
912.748	13110
912.862	13012
912.976	12890
913.09	12798
913.204	12878
913.318	12954
913.431	12958
913.545	12920
913.659	13027
913.772	12871
913.886	12726
914	12817
914.113	12886
914.226	12871
914.34	12897
914.453	12669
914.566	12749
914.68	12719
914.793	12559
914.906	12456
915.019	12467
915.132	12418
915.245	12467
915.358	12475
915.47	12456
915.583	12475
915.696	12445
915.809	12616
915.921	12665
916.034	12403
916.146	12353
916.259	12372
916.371	12426
916.483	12464
916.595	12407
916.708	12486
916.82	12433
916.932	12399
917.044	12372
917.156	12311
917.268	12281
917.38	12167
917.491	12228
917.603	12209
917.715	12296
917.826	12369
917.938	12140
918.049	12049
918.161	12095
918.272	12346
918.384	12338
918.495	12175
918.606	12049
918.717	11980
918.828	12095
918.939	12003
919.05	11935
919.161	11969
919.272	11771
919.383	11821
919.494	12057
919.604	12175
919.715	12026
919.826	11931
919.936	11908
920.047	12060
920.157	12068
920.267	12213
920.378	12038
920.488	11973
920.598	12178
920.708	12380
920.818	12171
920.928	12125
921.038	12330
921.148	12209
921.258	11988
921.368	11882
921.477	11737
921.587	11760
921.697	11642
921.806	11828
921.916	11752
922.025	11467
922.134	11421
922.244	11379
922.353	11524
922.462	11334
922.571	11280
922.68	11212
922.789	11201
922.898	11147
923.007	11067
923.116	11159
923.224	11143
923.333	11128
923.442	10999
923.55	10942
923.659	11014
923.767	11033
923.876	10965
923.984	11006
924.092	10900
924.201	10995
924.309	10957
924.417	10923
924.525	10862
924.633	10999
924.741	11722
924.849	10805
924.956	10915
925.064	10755
925.172	10687
925.279	10645
925.387	10694
925.494	10630
925.602	10771
925.709	10694
925.816	10611
925.924	10637
926.031	10698
926.138	10710
926.245	10698
926.352	10603
926.459	10626
926.566	10755
926.673	10565
926.779	10531
926.886	10504
926.993	10409
927.099	10299
927.206	10261
927.312	10227
927.419	10329
927.525	10337
927.631	10386
927.737	10200
927.843	10280
927.95	10093
928.056	10078
928.162	10207
928.267	10204
928.373	10869
928.479	10253
928.585	9998
928.69	10147
928.796	10211
928.901	10162
929.007	10063
929.112	10055
929.218	10010
929.323	9964
929.428	10029
929.533	10109
929.638	9816
929.743	9895
929.848	10040
929.953	9953
930.058	9918
930.163	9736
930.267	9720
930.372	9907
930.477	9797
930.581	9876
930.685	9842
930.79	9637
930.894	9690
930.998	9633
931.103	9804
931.207	9469
931.311	9374
931.415	9340
931.519	9108
931.623	9112
