Data from test_V78500241_1868.txt Node
Date: Fri Mar 25 14:46:43 CST 2022
User: usil
Spectrometer: V785-0024
Trigger mode: 0
Integration Time (sec): 4.000000E-1
Scans to average: 1
Nonlinearity correction enabled: false
Boxcar width: 0
Storing dark spectrum: false
XAxis mode: Wavelengths
Number of Pixels in Spectrum: 1024
>>>>>Begin Spectral Data<<<<<
801.071	22253
801.214	22131
801.356	21728
801.499	21644
801.641	21469
801.783	21462
801.926	21542
802.068	21530
802.211	21370
802.353	21306
802.496	21070
802.638	20941
802.78	21005
802.923	20804
803.065	20815
803.208	20701
803.35	20891
803.492	20971
803.635	20910
803.777	20796
803.919	21013
804.061	21237
804.204	20887
804.346	20686
804.488	20777
804.63	20754
804.773	20830
804.915	20804
805.057	20891
805.199	20636
805.341	20826
805.483	20811
805.626	20887
805.768	20621
805.91	20781
806.052	20849
806.194	20659
806.336	20910
806.478	20765
806.62	20659
806.762	20838
806.904	20948
807.046	21150
807.188	21131
807.33	21150
807.472	21131
807.614	20975
807.756	21024
807.898	20902
808.04	20800
808.182	20861
808.324	20849
808.465	20895
808.607	21009
808.749	21077
808.891	21306
809.033	21260
809.174	21283
809.316	21127
809.458	21070
809.6	21028
809.741	21199
809.883	21116
810.025	21367
810.166	21332
810.308	21230
810.45	21233
810.591	21077
810.733	21051
810.875	20883
811.016	20883
811.158	20792
811.299	20925
811.441	20994
811.582	21020
811.724	20975
811.865	20899
812.007	20872
812.148	20872
812.29	21055
812.431	20982
812.573	21230
812.714	21241
812.855	21321
812.997	21458
813.138	21629
813.279	21477
813.421	21488
813.562	21329
813.703	21123
813.845	20967
813.986	20785
814.127	20636
814.268	20549
814.41	20590
814.551	20434
814.692	20594
814.833	20434
814.974	20488
815.115	20404
815.256	20339
815.397	20248
815.539	20237
815.68	20271
815.821	20096
815.962	20202
816.103	20153
816.244	20100
816.385	19963
816.526	19951
816.666	19750
816.807	19605
816.948	19586
817.089	19693
817.23	19594
817.371	19655
817.512	19567
817.653	19529
817.793	19533
817.934	19518
818.075	19567
818.216	19620
818.356	19521
818.497	19377
818.638	19312
818.778	19266
818.919	19251
819.06	19324
819.2	19358
819.341	19483
819.481	19552
819.622	19753
819.762	19856
819.903	19811
820.043	19639
820.184	19605
820.324	19548
820.465	19685
820.605	19628
820.746	19460
820.886	19449
821.026	19582
821.167	19487
821.307	19491
821.447	19533
821.588	19369
821.728	19285
821.868	19198
822.008	19015
822.149	18993
822.289	19027
822.429	18760
822.569	18810
822.709	18635
822.849	18437
822.99	18494
823.13	18399
823.27	18365
823.41	18289
823.55	18251
823.69	18372
823.83	18319
823.97	18232
824.11	18057
824.25	17999
824.389	18072
824.529	18251
824.669	18095
824.809	18155
824.949	18133
825.089	18079
825.228	18079
825.368	17851
825.508	17863
825.648	17775
825.787	17866
825.927	17996
826.067	17672
826.206	17783
826.346	17935
826.485	17771
826.625	17821
826.765	17950
826.904	17923
827.044	17638
827.183	17619
827.323	17444
827.462	17490
827.601	17512
827.741	17547
827.88	17528
828.02	17372
828.159	17471
828.298	17570
828.437	17524
828.577	17433
828.716	17653
828.855	17478
828.994	17292
829.134	17311
829.273	17288
829.412	17277
829.551	17258
829.69	17288
829.829	17376
829.968	17379
830.107	17318
830.246	17330
830.385	17284
830.524	17143
830.663	17124
830.802	16984
830.941	16896
831.08	16873
831.219	17056
831.357	16961
831.496	17147
831.635	16930
831.774	16831
831.913	16706
832.051	16634
832.19	16713
832.329	16767
832.467	16611
832.606	16512
832.744	16577
832.883	16641
833.022	16516
833.16	16573
833.299	16535
833.437	16645
833.576	16599
833.714	16672
833.852	16637
833.991	16759
834.129	16721
834.267	16603
834.406	16694
834.544	16755
834.682	16752
834.821	16683
834.959	16782
835.097	16611
835.235	16786
835.373	16694
835.511	16736
835.65	16637
835.788	16569
835.926	16493
836.064	16303
836.202	16394
836.34	16634
836.478	16634
836.615	16664
836.753	16599
836.891	16672
837.029	16725
837.167	16622
837.305	16538
837.443	16459
837.58	16398
837.718	16504
837.856	16485
837.993	16356
838.131	16367
838.269	16405
838.406	16333
838.544	16276
838.681	16211
838.819	16086
838.956	16010
839.094	15983
839.231	15987
839.369	16093
839.506	16417
839.643	16333
839.781	16055
839.918	15937
840.055	16097
840.193	16025
840.33	15915
840.467	15945
840.604	16124
840.742	16230
840.879	15907
841.016	16021
841.153	15960
841.29	16215
841.427	15956
841.564	16097
841.701	16036
841.838	15991
841.975	15979
842.112	16040
842.249	15892
842.385	15751
842.522	15991
842.659	15816
842.796	15895
842.933	15793
843.069	15781
843.206	15781
843.343	15876
843.479	15797
843.616	15835
843.752	15591
843.889	15568
844.025	15739
844.162	15572
844.298	15637
844.435	15549
844.571	15660
844.708	15667
844.844	15728
844.98	15797
845.117	15663
845.253	15545
845.389	15542
845.525	15538
845.661	15564
845.798	15412
845.934	15496
846.07	15420
846.206	15473
846.342	15530
846.478	15367
846.614	15237
846.75	15119
846.886	15184
847.022	15157
847.158	15184
847.294	15165
847.429	15222
847.565	15165
847.701	15389
847.837	14891
847.972	14777
848.108	14952
848.244	14864
848.379	14883
848.515	14777
848.65	14746
848.786	14823
848.921	14796
849.057	14963
849.192	14804
849.328	14842
849.463	14830
849.598	14640
849.734	14670
849.869	14648
850.004	14537
850.14	14625
850.275	14598
850.41	14492
850.545	14507
850.68	14613
850.815	14461
850.95	14454
851.085	14773
851.22	14667
851.355	14518
851.49	14499
851.625	14465
851.76	14480
851.895	14473
852.03	14499
852.165	14492
852.299	14590
852.434	14621
852.569	14537
852.703	14499
852.838	14571
852.973	14693
853.107	14705
853.242	14438
853.376	14457
853.511	14347
853.645	14389
853.78	14511
853.914	14419
854.048	14320
854.183	14351
854.317	14320
854.451	14549
854.585	14351
854.72	14366
854.854	14412
854.988	14351
855.122	14309
855.256	14199
855.39	14431
855.524	14492
855.658	14488
855.792	14469
855.926	14457
856.06	14446
856.194	14526
856.327	14259
856.461	14259
856.595	14336
856.729	14374
856.862	14446
856.996	14404
857.13	14438
857.263	14556
857.397	14564
857.53	14461
857.664	14393
857.797	14423
857.931	14526
858.064	14389
858.197	14530
858.331	14423
858.464	14320
858.597	14240
858.731	14419
858.864	14347
858.997	14343
859.13	14431
859.263	14438
859.396	14473
859.529	14389
859.662	14370
859.795	14385
859.928	14377
860.061	14571
860.194	14526
860.327	14465
860.46	14385
860.592	14552
860.725	14598
860.858	14526
860.99	14423
861.123	14317
861.256	14286
861.388	14465
861.521	14963
861.653	14328
861.786	14123
861.918	14271
862.05	14328
862.183	14362
862.315	14492
862.447	14427
862.58	14282
862.712	14290
862.844	14046
862.976	14157
863.108	14202
863.24	14564
863.372	14035
863.504	14157
863.636	14210
863.768	14142
863.9	14248
864.032	14096
864.164	14153
864.296	14176
864.428	14336
864.559	14358
864.691	14248
864.823	14244
864.954	14180
865.086	14263
865.217	14126
865.349	14111
865.48	14153
865.612	14206
865.743	14225
865.875	14191
866.006	14157
866.137	14191
866.269	14176
866.4	14111
866.531	14100
866.662	14107
866.793	14054
866.924	14050
867.055	14176
867.186	14172
867.317	14111
867.448	14024
867.579	14035
867.71	14050
867.841	14103
867.972	14134
868.103	14153
868.233	14145
868.364	14065
868.495	14183
868.625	14434
868.756	14457
868.886	14317
869.017	14244
869.147	14564
869.278	14507
869.408	14454
869.539	14412
869.669	14492
869.799	14396
869.929	14526
870.06	14533
870.19	14727
870.32	14663
870.45	14701
870.58	14746
870.71	14849
870.84	14902
870.97	14861
871.1	14788
871.23	14967
871.36	15020
871.489	15009
871.619	14891
871.749	15001
871.879	14979
872.008	15119
872.138	15043
872.267	14998
872.397	14849
872.526	14834
872.656	14804
872.785	14906
872.915	15074
873.044	15047
873.173	14990
873.303	15058
873.432	15055
873.561	15108
873.69	14921
873.819	14986
873.948	15184
874.077	15077
874.206	15039
874.335	15108
874.464	15176
874.593	15439
874.722	15367
874.851	15416
874.979	15386
875.108	15340
875.237	15351
875.365	15184
875.494	15351
875.623	15355
875.751	15317
875.88	15439
876.008	15511
876.136	15534
876.265	15739
876.393	15987
876.521	15899
876.65	15785
876.778	15762
876.906	15675
877.034	15686
877.162	15713
877.29	15797
877.418	15865
877.546	15770
877.674	15842
877.802	15789
877.93	15804
878.058	15709
878.185	15599
878.313	15770
878.441	15797
878.568	15629
878.696	15644
878.824	15743
878.951	15930
879.079	15846
879.206	16192
879.333	15895
879.461	15846
879.588	15895
879.715	15888
879.842	16036
879.97	15808
880.097	15564
880.224	15637
880.351	15568
880.478	15610
880.605	15595
880.732	15698
880.859	15842
880.986	15701
881.112	15682
881.239	15564
881.366	15412
881.493	15370
881.619	15241
881.746	15275
881.872	15340
881.999	15302
882.125	15275
882.252	15344
882.378	15218
882.505	15439
882.631	15237
882.757	15032
882.883	15195
883.01	15135
883.136	15138
883.262	14986
883.388	14906
883.514	15028
883.64	15146
883.766	15119
883.892	14872
884.018	14967
884.143	15043
884.269	15264
884.395	14857
884.52	14697
884.646	14861
884.772	14727
884.897	14640
885.023	14914
885.148	14895
885.274	14891
885.399	14933
885.524	14807
885.65	14823
885.775	14861
885.9	14712
886.025	14971
886.15	14868
886.275	14804
886.4	14682
886.525	14731
886.65	14823
886.775	14746
886.9	14933
887.025	15028
887.149	14785
887.274	14686
887.399	14610
887.523	14617
887.648	14560
887.773	14476
887.897	14670
888.021	14564
888.146	14598
888.27	14670
888.395	14739
888.519	14670
888.643	14629
888.767	14678
888.891	14526
889.015	14469
889.139	14552
889.263	14526
889.387	14564
889.511	14613
889.635	14598
889.759	14533
889.883	14514
890.006	14541
890.13	14617
890.254	14503
890.377	14434
890.501	14431
890.624	14282
890.748	14408
890.871	14187
890.995	14164
891.118	14149
891.241	14142
891.364	14248
891.488	14339
891.611	14153
891.734	14229
891.857	14267
891.98	14267
892.103	14343
892.226	14221
892.349	14164
892.471	13955
892.594	14123
892.717	14164
892.839	14168
892.962	14244
893.085	14069
893.207	14180
893.33	14077
893.452	14031
893.575	14214
893.697	14111
893.819	14317
893.941	14389
894.064	14328
894.186	14103
894.308	14195
894.43	14294
894.552	14412
894.674	14415
894.796	14183
894.918	14244
895.04	14218
895.161	14343
895.283	14339
895.405	14138
895.526	14256
895.648	14339
895.769	14336
895.891	14252
896.012	14423
896.134	14469
896.255	14347
896.376	14351
896.498	14374
896.619	14370
896.74	14313
896.861	14351
896.982	14701
897.103	14861
897.224	14602
897.345	14621
897.466	14533
897.587	14583
897.708	14678
897.828	14720
897.949	14590
898.07	14473
898.19	14545
898.311	14765
898.431	14606
898.552	14686
898.672	14807
898.792	14777
898.913	14712
899.033	14720
899.153	14621
899.273	14419
899.393	14541
899.513	14526
899.633	14571
899.753	14629
899.873	14484
899.993	14651
900.113	14507
900.232	14530
900.352	14575
900.472	14488
900.591	14362
900.711	14385
900.83	14282
900.95	14423
901.069	14514
901.189	14404
901.308	14142
901.427	14039
901.546	14077
901.665	14172
901.784	14161
901.904	13947
902.023	13864
902.141	13590
902.26	13643
902.379	13776
902.498	13727
902.617	13537
902.735	13658
902.854	13643
902.973	13578
903.091	13384
903.21	13388
903.328	13441
903.446	13266
903.565	13236
903.683	13304
903.801	13152
903.919	13187
904.038	13217
904.156	13088
904.274	13171
904.392	12989
904.51	12970
904.627	13012
904.745	13145
904.863	13137
904.981	12871
905.098	12741
905.216	12722
905.334	12749
905.451	12688
905.569	12722
905.686	12760
905.803	12768
905.921	12502
906.038	12654
906.155	12566
906.272	12437
906.389	12460
906.506	12426
906.623	12346
906.74	12258
906.857	12266
906.974	12273
907.091	12391
907.208	12391
907.324	12334
907.441	12300
907.557	12060
907.674	12049
907.79	12026
907.907	12087
908.023	12190
908.139	12068
908.256	11988
908.372	11969
908.488	11942
908.604	11897
908.72	11809
908.836	11794
908.952	11798
909.068	11775
909.184	11939
909.3	11840
909.415	11893
909.531	11775
909.647	11630
909.762	11608
909.878	11547
909.993	11585
910.108	11573
910.224	11619
910.339	11608
910.454	11463
910.57	11459
910.685	11311
910.8	11691
910.915	11646
911.03	11452
911.145	11315
911.259	11292
911.374	11235
911.489	11227
911.604	11189
911.718	11014
911.833	11037
911.947	10946
912.062	10889
912.176	11109
912.291	11071
912.405	11090
912.519	11208
912.633	11261
912.748	11094
912.862	10984
912.976	10934
913.09	10805
913.204	10866
913.318	10961
913.431	11029
913.545	10987
913.659	11083
913.772	10900
913.886	10831
914	10752
914.113	10930
914.226	10923
914.34	10881
914.453	10721
914.566	10885
914.68	10714
914.793	10725
914.906	10546
915.019	10592
915.132	10478
915.245	10558
915.358	10596
915.47	10519
915.583	10622
915.696	10546
915.809	10698
915.921	10710
916.034	10523
916.146	10554
916.259	10508
916.371	10603
916.483	10538
916.595	10538
916.708	10497
916.82	10580
916.932	10390
917.044	10428
917.156	10447
917.268	10341
917.38	10325
917.491	10363
917.603	10436
917.715	10436
917.826	10489
917.938	10398
918.049	10238
918.161	10432
918.272	10409
918.384	10379
918.495	10436
918.606	10242
918.717	10147
918.828	10371
918.939	10325
919.05	10120
919.161	10215
919.272	10067
919.383	10166
919.494	10337
919.604	10508
919.715	10215
919.826	10200
919.936	10211
920.047	10386
920.157	10268
920.267	10504
920.378	10265
920.488	10246
920.598	10542
920.708	10687
920.818	10443
920.928	10417
921.038	10588
921.148	10569
921.258	10329
921.368	10268
921.477	10131
921.587	10036
921.697	10006
921.806	10097
921.916	10048
922.025	9857
922.134	9816
922.244	9724
922.353	9827
922.462	9694
922.571	9648
922.68	9553
922.789	9526
922.898	9553
923.007	9469
923.116	9477
923.224	9504
923.333	9542
923.442	9389
923.55	9389
923.659	9374
923.767	9428
923.876	9393
923.984	9473
924.092	9348
924.201	9374
924.309	9389
924.417	9408
924.525	9363
924.633	9332
924.741	10306
924.849	9218
924.956	9351
925.064	9222
925.172	9123
925.279	9142
925.387	9199
925.494	9108
925.602	9367
925.709	9256
925.816	9093
925.924	9195
926.031	9264
926.138	9173
926.245	9161
926.352	9112
926.459	9279
926.566	9291
926.673	9066
926.779	8998
926.886	9047
926.993	8853
927.099	8880
927.206	8838
927.312	8887
927.419	8910
927.525	8834
927.631	8902
927.737	8815
927.843	8800
927.95	8610
928.056	8777
928.162	8807
928.267	8807
928.373	9317
928.479	8967
928.585	8598
928.69	8754
928.796	8766
928.901	8670
929.007	8541
929.112	8708
929.218	8705
929.323	8579
929.428	8590
929.533	8682
929.638	8511
929.743	8537
929.848	8583
929.953	8594
930.058	8530
930.163	8366
930.267	8347
930.372	8507
930.477	8339
930.581	8621
930.685	8434
930.79	8336
930.894	8362
930.998	8263
931.103	8454
931.207	8050
931.311	7978
931.415	7974
931.519	7772
931.623	7772
