Data from test_V78500241_253.txt Node
Date: Fri Mar 25 14:35:29 CST 2022
User: usil
Spectrometer: V785-0024
Trigger mode: 0
Integration Time (sec): 4.000000E-1
Scans to average: 1
Nonlinearity correction enabled: false
Boxcar width: 0
Storing dark spectrum: false
XAxis mode: Wavelengths
Number of Pixels in Spectrum: 1024
>>>>>Begin Spectral Data<<<<<
801.071	27401
801.214	27317
801.356	27211
801.499	27047
801.641	26842
801.783	26940
801.926	26883
802.068	26758
802.211	26792
802.353	26686
802.496	26629
802.638	26442
802.78	26476
802.923	26465
803.065	26305
803.208	26419
803.35	26339
803.492	26377
803.635	26488
803.777	26381
803.919	26438
804.061	26697
804.204	26427
804.346	26358
804.488	26320
804.63	26381
804.773	26134
804.915	26427
805.057	26518
805.199	26385
805.341	26568
805.483	26400
805.626	26442
805.768	26522
805.91	26514
806.052	26423
806.194	26362
806.336	26667
806.478	26568
806.62	26438
806.762	26587
806.904	26735
807.046	26788
807.188	26716
807.33	26804
807.472	26902
807.614	26792
807.756	26750
807.898	26765
808.04	26735
808.182	26613
808.324	26811
808.465	26693
808.607	26868
808.749	26971
808.891	27268
809.033	27226
809.174	27157
809.316	27214
809.458	27066
809.6	26986
809.741	27047
809.883	26979
810.025	27188
810.166	27150
810.308	27161
810.45	27237
810.591	27013
810.733	26857
810.875	26921
811.016	26849
811.158	26834
811.299	26887
811.441	26868
811.582	26811
811.724	26750
811.865	26826
812.007	26746
812.148	26918
812.29	26952
812.431	26910
812.573	27070
812.714	27275
812.855	27317
812.997	27416
813.138	27667
813.279	27412
813.421	27359
813.562	27154
813.703	27184
813.845	26940
813.986	26804
814.127	26450
814.268	26374
814.41	26431
814.551	26301
814.692	26412
814.833	26332
814.974	26286
815.115	26256
815.256	26259
815.397	26153
815.539	26294
815.68	26111
815.821	26161
815.962	26096
816.103	26107
816.244	25898
816.385	25807
816.526	25807
816.666	25696
816.807	25594
816.948	25510
817.089	25712
817.23	25605
817.371	25476
817.512	25400
817.653	25582
817.793	25430
817.934	25506
818.075	25502
818.216	25518
818.356	25457
818.497	25392
818.638	25110
818.778	25217
818.919	25316
819.06	25240
819.2	25304
819.341	25426
819.481	25381
819.622	25567
819.762	25651
819.903	25457
820.043	25529
820.184	25514
820.324	25468
820.465	25518
820.605	25487
820.746	25438
820.886	25358
821.026	25324
821.167	25373
821.307	25597
821.447	25285
821.588	25331
821.728	25034
821.868	24992
822.008	24859
822.149	24760
822.289	24757
822.429	24559
822.569	24532
822.709	24582
822.849	24220
822.99	24350
823.13	24235
823.27	24239
823.41	24057
823.55	23980
823.69	24060
823.83	24049
823.97	23904
824.11	23809
824.25	23908
824.389	23927
824.529	23821
824.669	23745
824.809	24053
824.949	23988
825.089	23958
825.228	23939
825.368	23535
825.508	23676
825.648	23657
825.787	23687
825.927	23726
826.067	23531
826.206	23585
826.346	23630
826.485	23718
826.625	23528
826.765	23885
826.904	23680
827.044	23433
827.183	23455
827.323	23204
827.462	23429
827.601	23376
827.741	23315
827.88	23341
828.02	23159
828.159	23311
828.298	23345
828.437	23402
828.577	23223
828.716	23360
828.855	23223
828.994	23128
829.134	23155
829.273	23105
829.412	22965
829.551	23041
829.69	22999
829.829	23006
829.968	23064
830.107	23079
830.246	22946
830.385	22923
830.524	22862
830.663	22790
830.802	22672
830.941	22584
831.08	22649
831.219	22656
831.357	22653
831.496	22774
831.635	22622
831.774	22565
831.913	22443
832.051	22402
832.19	22325
832.329	22325
832.467	22207
832.606	22207
832.744	22299
832.883	22306
833.022	22249
833.16	22143
833.299	22280
833.437	22238
833.576	22246
833.714	22230
833.852	22371
833.991	22310
834.129	22402
834.267	22280
834.406	22234
834.544	22215
834.682	22215
834.821	22242
834.959	22462
835.097	22173
835.235	22268
835.373	22177
835.511	22223
835.65	22143
835.788	21945
835.926	21861
836.064	21960
836.202	21998
836.34	22010
836.478	22086
836.615	21998
836.753	22002
836.891	22169
837.029	22013
837.167	22036
837.305	22002
837.443	21876
837.58	21755
837.718	21926
837.856	21926
837.993	22051
838.131	21869
838.269	21880
838.406	21781
838.544	21713
838.681	21709
838.819	21603
838.956	21389
839.094	21367
839.231	21450
839.369	21507
839.506	21622
839.643	21614
839.781	21408
839.918	21268
840.055	21294
840.193	21268
840.33	21260
840.467	21279
840.604	21302
840.742	21428
840.879	21146
841.016	21081
841.153	21150
841.29	21310
841.427	21260
841.564	21173
841.701	21245
841.838	21188
841.975	21085
842.112	21074
842.249	20967
842.385	20906
842.522	21085
842.659	21081
842.796	21001
842.933	21017
843.069	20819
843.206	20826
843.343	20902
843.479	21001
843.616	20967
843.752	20659
843.889	20823
844.025	20849
844.162	20659
844.298	20765
844.435	20636
844.571	20701
844.708	20674
844.844	20716
844.98	20914
845.117	20796
845.253	20735
845.389	20629
845.525	20636
845.661	20739
845.798	20564
845.934	20731
846.07	20762
846.206	20731
846.342	20819
846.478	20579
846.614	20374
846.75	20115
846.886	20206
847.022	20404
847.158	20206
847.294	20176
847.429	20259
847.565	20103
847.701	20450
847.837	19989
847.972	19921
848.108	20039
848.244	19841
848.379	19624
848.515	19727
848.65	19681
848.786	19662
848.921	19727
849.057	19814
849.192	19833
849.328	19635
849.463	19666
849.598	19738
849.734	19552
849.869	19609
850.004	19502
850.14	19594
850.275	19567
850.41	19411
850.545	19400
850.68	19464
850.815	19575
850.95	19346
851.085	19666
851.22	19449
851.355	19502
851.49	19400
851.625	19457
851.76	19419
851.895	19270
852.03	19285
852.165	19518
852.299	19419
852.434	19529
852.569	19483
852.703	19438
852.838	19460
852.973	19434
853.107	19563
853.242	19373
853.376	19285
853.511	19221
853.645	19202
853.78	19308
853.914	19297
854.048	19270
854.183	19152
854.317	19308
854.451	19388
854.585	19232
854.72	19225
854.854	19278
854.988	19129
855.122	19190
855.256	19190
855.39	19278
855.524	19255
855.658	19304
855.792	19206
855.926	19316
856.06	19324
856.194	19263
856.327	19312
856.461	19190
856.595	19171
856.729	19251
856.862	19297
856.996	19247
857.13	19213
857.263	19282
857.397	19285
857.53	19240
857.664	19236
857.797	19217
857.931	19388
858.064	19270
858.197	19335
858.331	19270
858.464	19076
858.597	19080
858.731	19183
858.864	19228
858.997	19095
859.13	19103
859.263	19228
859.396	19122
859.529	19148
859.662	19183
859.795	19046
859.928	19122
860.061	19251
860.194	19168
860.327	19190
860.46	19118
860.592	19316
860.725	19274
860.858	19244
860.99	19190
861.123	19091
861.256	19015
861.388	19137
861.521	19811
861.653	19076
861.786	18871
861.918	18996
862.05	19141
862.183	19133
862.315	19179
862.447	19190
862.58	19152
862.712	19012
862.844	18859
862.976	19023
863.108	19042
863.24	19327
863.372	18779
863.504	18848
863.636	18837
863.768	18993
863.9	18856
864.032	18852
864.164	18840
864.296	18825
864.428	18951
864.559	18913
864.691	19012
864.823	18837
864.954	18829
865.086	18840
865.217	18692
865.349	18760
865.48	18791
865.612	18810
865.743	18943
865.875	18787
866.006	18703
866.137	18844
866.269	18817
866.4	18798
866.531	18757
866.662	18722
866.793	18696
866.924	18791
867.055	18848
867.186	18753
867.317	18741
867.448	18616
867.579	18719
867.71	18563
867.841	18601
867.972	18703
868.103	18764
868.233	18795
868.364	18787
868.495	18825
868.625	19065
868.756	19027
868.886	18878
869.017	18905
869.147	19027
869.278	19023
869.408	19019
869.539	18920
869.669	18947
869.799	19015
869.929	19065
870.06	19110
870.19	19270
870.32	19190
870.45	19236
870.58	19301
870.71	19457
870.84	19339
870.97	19289
871.1	19331
871.23	19575
871.36	19575
871.489	19487
871.619	19521
871.749	19487
871.879	19422
872.008	19628
872.138	19559
872.267	19480
872.397	19289
872.526	19324
872.656	19396
872.785	19422
872.915	19480
873.044	19563
873.173	19597
873.303	19689
873.432	19559
873.561	19563
873.69	19537
873.819	19514
873.948	19548
874.077	19525
874.206	19559
874.335	19605
874.464	19712
874.593	19750
874.722	19879
874.851	19868
874.979	19871
875.108	19852
875.237	19750
875.365	19700
875.494	19852
875.623	19944
875.751	19696
875.88	19932
876.008	19925
876.136	20134
876.265	20271
876.393	20385
876.521	20412
876.65	20370
876.778	20377
876.906	20317
877.034	20244
877.162	20244
877.29	20107
877.418	20176
877.546	20206
877.674	20164
877.802	20240
877.93	20278
878.058	20176
878.185	20126
878.313	20244
878.441	20210
878.568	20218
878.696	20210
878.824	20313
878.951	20339
879.079	20465
879.206	20644
879.333	20495
879.461	20347
879.588	20476
879.715	20541
879.842	20651
879.97	20408
880.097	20103
880.224	20122
880.351	20134
880.478	20164
880.605	20107
880.732	20024
880.859	20286
880.986	20050
881.112	20130
881.239	20043
881.366	19883
881.493	19776
881.619	19761
881.746	19689
881.872	19658
881.999	19715
882.125	19685
882.252	19727
882.378	19746
882.505	19738
882.631	19655
882.757	19571
882.883	19601
883.01	19434
883.136	19453
883.262	19331
883.388	19365
883.514	19601
883.64	19563
883.766	19354
883.892	19369
884.018	19244
884.143	19491
884.269	19559
884.395	19221
884.52	19038
884.646	19110
884.772	19076
884.897	19126
885.023	19175
885.148	19152
885.274	19289
885.399	19156
885.524	19088
885.65	19148
885.775	19053
885.9	19156
886.025	19244
886.15	19168
886.275	19095
886.4	18989
886.525	19061
886.65	18939
886.775	18916
886.9	19171
887.025	19339
887.149	19152
887.274	18924
887.399	18829
887.523	18802
887.648	18810
887.773	18711
887.897	18916
888.021	18932
888.146	18703
888.27	18882
888.395	18928
888.519	18897
888.643	18810
888.767	19004
888.891	18711
889.015	18749
889.139	18741
889.263	18673
889.387	18726
889.511	18810
889.635	18783
889.759	18623
889.883	18521
890.006	18654
890.13	18684
890.254	18464
890.377	18563
890.501	18376
890.624	18380
890.748	18464
890.871	18304
890.995	18155
891.118	18209
891.241	18239
891.364	18220
891.488	18464
891.611	18308
891.734	18319
891.857	18300
891.98	18346
892.103	18330
892.226	18232
892.349	18213
892.471	18091
892.594	18140
892.717	18102
892.839	18167
892.962	18205
893.085	18232
893.207	18140
893.33	18022
893.452	18152
893.575	18205
893.697	18228
893.819	18380
893.941	18384
894.064	18270
894.186	18125
894.308	18121
894.43	18190
894.552	18376
894.674	18266
894.796	18041
894.918	18300
895.04	18155
895.161	18262
895.283	18228
895.405	18144
895.526	18251
895.648	18201
895.769	18148
895.891	18266
896.012	18251
896.134	18292
896.255	18209
896.376	18228
896.498	18327
896.619	18395
896.74	18292
896.861	18319
896.982	18563
897.103	18734
897.224	18532
897.345	18494
897.466	18437
897.587	18456
897.708	18616
897.828	18471
897.949	18486
898.07	18346
898.19	18369
898.311	18483
898.431	18540
898.552	18452
898.672	18506
898.792	18635
898.913	18532
899.033	18391
899.153	18330
899.273	18209
899.393	18239
899.513	18296
899.633	18273
899.753	18235
899.873	18254
899.993	18281
900.113	18186
900.232	18216
900.352	18174
900.472	18125
900.591	18030
900.711	18083
900.83	18007
900.95	18083
901.069	18266
901.189	17999
901.308	17745
901.427	17695
901.546	17760
901.665	17783
901.784	17615
901.904	17581
902.023	17372
902.141	17315
902.26	17277
902.379	17296
902.498	17193
902.617	17151
902.735	17231
902.854	17212
902.973	17109
903.091	16923
903.21	16866
903.328	16847
903.446	16927
903.565	16755
903.683	16691
903.801	16512
903.919	16691
904.038	16649
904.156	16489
904.274	16603
904.392	16508
904.51	16546
904.627	16485
904.745	16466
904.863	16451
904.981	16204
905.098	16185
905.216	16097
905.334	16196
905.451	16120
905.569	16063
905.686	16090
905.803	16112
905.921	15953
906.038	16090
906.155	15930
906.272	15831
906.389	15876
906.506	15610
906.623	15652
906.74	15709
906.857	15637
906.974	15534
907.091	15679
907.208	15850
907.324	15732
907.441	15633
907.557	15363
907.674	15401
907.79	15268
907.907	15344
908.023	15363
908.139	15370
908.256	15268
908.372	15249
908.488	15180
908.604	15032
908.72	14990
908.836	15017
908.952	15017
909.068	15062
909.184	15176
909.3	15112
909.415	15116
909.531	15024
909.647	14739
909.762	14758
909.878	14815
909.993	14823
910.108	14720
910.224	14697
910.339	14682
910.454	14697
910.57	14556
910.685	14556
910.8	14864
910.915	14754
911.03	14625
911.145	14488
911.259	14412
911.374	14366
911.489	14271
911.604	14259
911.718	14077
911.833	14126
911.947	14096
912.062	13947
912.176	14088
912.291	14100
912.405	14111
912.519	14347
912.633	14320
912.748	14218
912.862	14161
912.976	14020
913.09	13841
913.204	13928
913.318	13967
913.431	13989
913.545	14031
913.659	14100
913.772	13890
913.886	13807
914	13689
914.113	13951
914.226	13845
914.34	13860
914.453	13685
914.566	13849
914.68	13791
914.793	13670
914.906	13495
915.019	13419
915.132	13472
915.245	13434
915.358	13476
915.47	13476
915.583	13438
915.696	13419
915.809	13563
915.921	13464
916.034	13491
916.146	13324
916.259	13400
916.371	13502
916.483	13422
916.595	13282
916.708	13312
916.82	13346
916.932	13274
917.044	13293
917.156	13270
917.268	13103
917.38	13152
917.491	13160
917.603	13221
917.715	13259
917.826	13263
917.938	13080
918.049	13065
918.161	13213
918.272	13282
918.384	13202
918.495	13141
918.606	12954
918.717	12859
918.828	12973
918.939	12962
919.05	12863
919.161	12924
919.272	12612
919.383	12901
919.494	12901
919.604	13141
919.715	12909
919.826	12871
919.936	12905
920.047	12916
920.157	12993
920.267	12993
920.378	12905
920.488	12901
920.598	13008
920.708	13209
920.818	12993
920.928	13133
921.038	13270
921.148	13137
921.258	12810
921.368	12768
921.477	12684
921.587	12601
921.697	12555
921.806	12635
921.916	12517
922.025	12361
922.134	12330
922.244	12243
922.353	12308
922.462	12205
922.571	12136
922.68	12003
922.789	12022
922.898	12053
923.007	11912
923.116	11969
923.224	11939
923.333	11969
923.442	11843
923.55	11802
923.659	11786
923.767	11908
923.876	11710
923.984	11908
924.092	11786
924.201	11859
924.309	11813
924.417	11794
924.525	11809
924.633	11676
924.741	12578
924.849	11444
924.956	11688
925.064	11497
925.172	11486
925.279	11406
925.387	11490
925.494	11459
925.602	11608
925.709	11539
925.816	11341
925.924	11467
926.031	11535
926.138	11433
926.245	11444
926.352	11425
926.459	11528
926.566	11524
926.673	11402
926.779	11315
926.886	11246
926.993	11090
927.099	11083
927.206	10976
927.312	11075
927.419	11136
927.525	11140
927.631	11037
927.737	11067
927.843	10995
927.95	10858
928.056	10934
928.162	10995
928.267	11010
928.373	11478
928.479	11025
928.585	10755
928.69	10976
928.796	11010
928.901	10809
929.007	10748
929.112	10805
929.218	10748
929.323	10729
929.428	10649
929.533	10797
929.638	10538
929.743	10725
929.848	10706
929.953	10664
930.058	10516
930.163	10409
930.267	10341
930.372	10538
930.477	10379
930.581	10546
930.685	10413
930.79	10360
930.894	10367
930.998	10272
931.103	10409
931.207	10086
931.311	9979
931.415	9903
931.519	9808
931.623	9698
