Data from test_V78500241_330.txt Node
Date: Fri Mar 25 14:36:01 CST 2022
User: usil
Spectrometer: V785-0024
Trigger mode: 0
Integration Time (sec): 4.000000E-1
Scans to average: 1
Nonlinearity correction enabled: false
Boxcar width: 0
Storing dark spectrum: false
XAxis mode: Wavelengths
Number of Pixels in Spectrum: 1024
>>>>>Begin Spectral Data<<<<<
801.071	26914
801.214	26830
801.356	26689
801.499	26545
801.641	26400
801.783	26351
801.926	26594
802.068	26351
802.211	26305
802.353	26180
802.496	26024
802.638	25989
802.78	25837
802.923	25856
803.065	25898
803.208	25864
803.35	25913
803.492	26084
803.635	25982
803.777	25875
803.919	26027
804.061	26176
804.204	26008
804.346	25818
804.488	25890
804.63	25947
804.773	25780
804.915	25928
805.057	26008
805.199	25932
805.341	25997
805.483	25826
805.626	25944
805.768	25864
805.91	26058
806.052	25993
806.194	25841
806.336	26229
806.478	25986
806.62	25837
806.762	26065
806.904	26092
807.046	26396
807.188	26347
807.33	26145
807.472	26412
807.614	26058
807.756	26259
807.898	25989
808.04	25989
808.182	25944
808.324	26252
808.465	26153
808.607	26347
808.749	26556
808.891	26602
809.033	26720
809.174	26571
809.316	26476
809.458	26476
809.6	26408
809.741	26602
809.883	26453
810.025	26552
810.166	26545
810.308	26549
810.45	26606
810.591	26434
810.733	26336
810.875	26336
811.016	26309
811.158	26278
811.299	26389
811.441	26358
811.582	26469
811.724	26328
811.865	26187
812.007	26282
812.148	26202
812.29	26275
812.431	26533
812.573	26575
812.714	26537
812.855	26823
812.997	26804
813.138	26902
813.279	26956
813.421	26701
813.562	26746
813.703	26705
813.845	26453
813.986	26164
814.127	26081
814.268	25894
814.41	25982
814.551	25940
814.692	26035
814.833	25814
814.974	25784
815.115	25837
815.256	25666
815.397	25693
815.539	25753
815.68	25556
815.821	25624
815.962	25609
816.103	25578
816.244	25285
816.385	25346
816.526	25327
816.666	25179
816.807	25133
816.948	25061
817.089	25160
817.23	25023
817.371	24894
817.512	25038
817.653	24924
817.793	24905
817.934	24989
818.075	25046
818.216	25110
818.356	24875
818.497	24802
818.638	24787
818.778	24673
818.919	24544
819.06	24688
819.2	24768
819.341	24867
819.481	24810
819.622	25012
819.762	25194
819.903	25118
820.043	24966
820.184	24932
820.324	24894
820.465	24981
820.605	24897
820.746	24863
820.886	24825
821.026	24848
821.167	24977
821.307	24939
821.447	24783
821.588	24753
821.728	24779
821.868	24399
822.008	24399
822.149	24380
822.289	24262
822.429	24022
822.569	24072
822.709	23954
822.849	23851
822.99	23752
823.13	23745
823.27	23687
823.41	23657
823.55	23440
823.69	23482
823.83	23566
823.97	23566
824.11	23421
824.25	23307
824.389	23318
824.529	23337
824.669	23337
824.809	23421
824.949	23341
825.089	23414
825.228	23235
825.368	23185
825.508	22991
825.648	23132
825.787	23121
825.927	23303
826.067	23117
826.206	22999
826.346	23155
826.485	23212
826.625	23178
826.765	23117
826.904	23200
827.044	22968
827.183	22843
827.323	22755
827.462	22824
827.601	22778
827.741	22698
827.88	22904
828.02	22630
828.159	22634
828.298	22790
828.437	22824
828.577	22721
828.716	22885
828.855	22683
828.994	22421
829.134	22436
829.273	22573
829.412	22474
829.551	22390
829.69	22443
829.829	22523
829.968	22527
830.107	22489
830.246	22390
830.385	22360
830.524	22371
830.663	22207
830.802	22082
830.941	22010
831.08	22036
831.219	22162
831.357	22082
831.496	22223
831.635	21983
831.774	21854
831.913	21838
832.051	21831
832.19	21781
832.329	21857
832.467	21835
832.606	21637
832.744	21793
832.883	21701
833.022	21770
833.16	21671
833.299	21652
833.437	21842
833.576	21720
833.714	21842
833.852	21823
833.991	21789
834.129	21808
834.267	21827
834.406	21648
834.544	21743
834.682	21701
834.821	21614
834.959	21888
835.097	21599
835.235	21759
835.373	21675
835.511	21622
835.65	21492
835.788	21462
835.926	21420
836.064	21252
836.202	21443
836.34	21481
836.478	21633
836.615	21367
836.753	21717
836.891	21583
837.029	21633
837.167	21504
837.305	21378
837.443	21462
837.58	21469
837.718	21485
837.856	21386
837.993	21336
838.131	21408
838.269	21260
838.406	21325
838.544	21264
838.681	21131
838.819	21047
838.956	20876
839.094	20891
839.231	20804
839.369	21009
839.506	21119
839.643	21074
839.781	20823
839.918	20667
840.055	20815
840.193	20773
840.33	20693
840.467	20735
840.604	20743
840.742	21036
840.879	20568
841.016	20667
841.153	20514
841.29	20807
841.427	20670
841.564	20785
841.701	20644
841.838	20655
841.975	20541
842.112	20461
842.249	20518
842.385	20415
842.522	20830
842.659	20473
842.796	20434
842.933	20423
843.069	20434
843.206	20412
843.343	20461
843.479	20438
843.616	20511
843.752	20206
843.889	20305
844.025	20294
844.162	20229
844.298	20339
844.435	20244
844.571	20134
844.708	20267
844.844	20404
844.98	20320
845.117	20389
845.253	20240
845.389	20081
845.525	20187
845.661	20077
845.798	19936
845.934	20115
846.07	20016
846.206	20043
846.342	20149
846.478	19955
846.614	19799
846.75	19742
846.886	19712
847.022	19788
847.158	19719
847.294	19540
847.429	19586
847.565	19628
847.701	19917
847.837	19468
847.972	19411
848.108	19510
848.244	19518
848.379	19297
848.515	19350
848.65	19171
848.786	19293
848.921	19365
849.057	19350
849.192	19301
849.328	19164
849.463	19209
849.598	19129
849.734	19164
849.869	19164
850.004	19046
850.14	19046
850.275	19069
850.41	18878
850.545	18886
850.68	18973
850.815	19069
850.95	18909
851.085	19053
851.22	19152
851.355	18928
851.49	18939
851.625	18947
851.76	18958
851.895	18951
852.03	18817
852.165	18897
852.299	19000
852.434	19061
852.569	19095
852.703	18993
852.838	19023
852.973	19004
853.107	19042
853.242	18916
853.376	18867
853.511	18738
853.645	18719
853.78	19015
853.914	18875
854.048	18753
854.183	18654
854.317	18856
854.451	18935
854.585	18779
854.72	18779
854.854	18844
854.988	18882
855.122	18764
855.256	18696
855.39	18745
855.524	18897
855.658	18844
855.792	18840
855.926	18833
856.06	18878
856.194	18977
856.327	18776
856.461	18764
856.595	18753
856.729	18810
856.862	18840
856.996	18776
857.13	18837
857.263	18878
857.397	18856
857.53	18703
857.664	18897
857.797	18757
857.931	18901
858.064	18817
858.197	18890
858.331	18700
858.464	18791
858.597	18703
858.731	18696
858.864	18646
858.997	18684
859.13	18677
859.263	18821
859.396	18829
859.529	18677
859.662	18810
859.795	18669
859.928	18719
860.061	18764
860.194	18916
860.327	18692
860.46	18665
860.592	18760
860.725	18825
860.858	18779
860.99	18791
861.123	18646
861.256	18696
861.388	18627
861.521	19411
861.653	18623
861.786	18555
861.918	18631
862.05	18719
862.183	18700
862.315	18764
862.447	18741
862.58	18665
862.712	18547
862.844	18475
862.976	18623
863.108	18525
863.24	18810
863.372	18418
863.504	18551
863.636	18483
863.768	18475
863.9	18551
864.032	18342
864.164	18323
864.296	18471
864.428	18547
864.559	18445
864.691	18544
864.823	18467
864.954	18429
865.086	18456
865.217	18517
865.349	18315
865.48	18414
865.612	18315
865.743	18506
865.875	18445
866.006	18357
866.137	18281
866.269	18311
866.4	18376
866.531	18361
866.662	18353
866.793	18232
866.924	18346
867.055	18327
867.186	18372
867.317	18342
867.448	18270
867.579	18224
867.71	18186
867.841	18235
867.972	18327
868.103	18361
868.233	18235
868.364	18311
868.495	18399
868.625	18551
868.756	18616
868.886	18445
869.017	18532
869.147	18642
869.278	18673
869.408	18559
869.539	18521
869.669	18528
869.799	18582
869.929	18688
870.06	18734
870.19	18882
870.32	18871
870.45	18886
870.58	18890
870.71	19050
870.84	18947
870.97	19019
871.1	18856
871.23	19156
871.36	19103
871.489	19057
871.619	19034
871.749	19103
871.879	19183
872.008	19244
872.138	19061
872.267	19107
872.397	19023
872.526	18962
872.656	19019
872.785	19038
872.915	19187
873.044	19160
873.173	19148
873.303	19175
873.432	19293
873.561	19308
873.69	19118
873.819	19232
873.948	19175
874.077	19126
874.206	19175
874.335	19213
874.464	19259
874.593	19506
874.722	19346
874.851	19472
874.979	19499
875.108	19476
875.237	19350
875.365	19320
875.494	19407
875.623	19499
875.751	19263
875.88	19445
876.008	19556
876.136	19605
876.265	19947
876.393	20073
876.521	19940
876.65	19852
876.778	19830
876.906	19780
877.034	19906
877.162	19814
877.29	19746
877.418	19845
877.546	19837
877.674	19833
877.802	19822
877.93	19830
878.058	19795
878.185	19647
878.313	19731
878.441	19883
878.568	19818
878.696	19852
878.824	19807
878.951	19765
879.079	20016
879.206	20187
879.333	20111
879.461	19875
879.588	19967
879.715	19993
879.842	20183
879.97	20001
880.097	19780
880.224	19647
880.351	19742
880.478	19742
880.605	19582
880.732	19571
880.859	19967
880.986	19655
881.112	19753
881.239	19567
881.366	19476
881.493	19365
881.619	19415
881.746	19263
881.872	19335
881.999	19285
882.125	19240
882.252	19316
882.378	19293
882.505	19403
882.631	19190
882.757	19019
882.883	19228
883.01	19050
883.136	19023
883.262	18909
883.388	18924
883.514	19129
883.64	19118
883.766	19084
883.892	18928
884.018	18939
884.143	18973
884.269	19076
884.395	18711
884.52	18745
884.646	18688
884.772	18646
884.897	18585
885.023	18757
885.148	18772
885.274	18795
885.399	18848
885.524	18700
885.65	18597
885.775	18875
885.9	18669
886.025	18840
886.15	18764
886.275	18593
886.4	18494
886.525	18658
886.65	18555
886.775	18593
886.9	18745
887.025	18924
887.149	18677
887.274	18582
887.399	18475
887.523	18437
887.648	18388
887.773	18281
887.897	18467
888.021	18452
888.146	18441
888.27	18642
888.395	18525
888.519	18506
888.643	18578
888.767	18528
888.891	18369
889.015	18277
889.139	18266
889.263	18152
889.387	18384
889.511	18399
889.635	18414
889.759	18247
889.883	18228
890.006	18285
890.13	18258
890.254	18254
890.377	18194
890.501	17961
890.624	17996
890.748	18003
890.871	17904
890.995	17866
891.118	17870
891.241	17855
891.364	17809
891.488	17927
891.611	17866
891.734	17901
891.857	18022
891.98	17916
892.103	17920
892.226	17836
892.349	17832
892.471	17653
892.594	17920
892.717	17840
892.839	17916
892.962	17836
893.085	17786
893.207	17870
893.33	17646
893.452	17733
893.575	17874
893.697	17802
893.819	18022
893.941	18007
894.064	17817
894.186	17760
894.308	17741
894.43	17882
894.552	17980
894.674	17908
894.796	17661
894.918	17832
895.04	17897
895.161	17817
895.283	17889
895.405	17805
895.526	17805
895.648	17893
895.769	17878
895.891	17916
896.012	17961
896.134	17885
896.255	17942
896.376	17870
896.498	17840
896.619	17893
896.74	17794
896.861	17965
896.982	18194
897.103	18445
897.224	18289
897.345	18038
897.466	18136
897.587	18038
897.708	18228
897.828	18106
897.949	18007
898.07	18015
898.19	18049
898.311	18197
898.431	18205
898.552	18174
898.672	18144
898.792	18178
898.913	18152
899.033	18064
899.153	17847
899.273	17897
899.393	17893
899.513	17939
899.633	17832
899.753	17897
899.873	17866
899.993	17874
900.113	17790
900.232	17935
900.352	17897
900.472	17756
900.591	17619
900.711	17718
900.83	17604
900.95	17783
901.069	17775
901.189	17668
901.308	17410
901.427	17349
901.546	17455
901.665	17433
901.784	17433
901.904	17277
902.023	17090
902.141	16911
902.26	16984
902.379	16946
902.498	16877
902.617	16911
902.735	16889
902.854	16748
902.973	16672
903.091	16592
903.21	16466
903.328	16428
903.446	16447
903.565	16367
903.683	16375
903.801	16375
903.919	16246
904.038	16284
904.156	16169
904.274	16310
904.392	16124
904.51	16105
904.627	16090
904.745	16169
904.863	16192
904.981	15937
905.098	15854
905.216	15660
905.334	15869
905.451	15865
905.569	15781
905.686	15831
905.803	15755
905.921	15606
906.038	15800
906.155	15603
906.272	15568
906.389	15526
906.506	15382
906.623	15340
906.74	15344
906.857	15272
906.974	15180
907.091	15420
907.208	15454
907.324	15393
907.441	15249
907.557	15138
907.674	15089
907.79	15013
907.907	14994
908.023	15009
908.139	15047
908.256	15047
908.372	15074
908.488	14906
908.604	14815
908.72	14693
908.836	14735
908.952	14815
909.068	14746
909.184	14925
909.3	14765
909.415	14838
909.531	14689
909.647	14545
909.762	14549
909.878	14484
909.993	14499
910.108	14495
910.224	14522
910.339	14461
910.454	14305
910.57	14381
910.685	14282
910.8	14438
910.915	14374
911.03	14259
911.145	14187
911.259	14115
911.374	14065
911.489	14100
911.604	14024
911.718	13860
911.833	13909
911.947	13753
912.062	13723
912.176	13864
912.291	13902
912.405	13860
912.519	13967
912.633	13978
912.748	13868
912.862	13841
912.976	13658
913.09	13712
913.204	13571
913.318	13647
913.431	13761
913.545	13776
913.659	13750
913.772	13651
913.886	13601
914	13529
914.113	13647
914.226	13662
914.34	13613
914.453	13480
914.566	13487
914.68	13407
914.793	13388
914.906	13289
915.019	13240
915.132	13080
915.245	13217
915.358	13190
915.47	13190
915.583	13228
915.696	13247
915.809	13422
915.921	13320
916.034	13110
916.146	13069
916.259	13027
916.371	13255
916.483	13137
916.595	13050
916.708	12977
916.82	13069
916.932	13000
917.044	13076
917.156	13008
917.268	12913
917.38	12913
917.491	12886
917.603	12970
917.715	12890
917.826	12943
917.938	12890
918.049	12772
918.161	12913
918.272	13034
918.384	12985
918.495	12825
918.606	12844
918.717	12646
918.828	12795
918.939	12692
919.05	12631
919.161	12715
919.272	12544
919.383	12525
919.494	12665
919.604	12977
919.715	12684
919.826	12616
919.936	12703
920.047	12700
920.157	12669
920.267	12840
920.378	12650
920.488	12627
920.598	12798
920.708	13042
920.818	12734
920.928	12867
921.038	12935
921.148	12958
921.258	12620
921.368	12555
921.477	12486
921.587	12399
921.697	12296
921.806	12460
921.916	12308
922.025	12133
922.134	12114
922.244	12022
922.353	12083
922.462	12019
922.571	11961
922.68	11813
922.789	11688
922.898	11817
923.007	11695
923.116	11863
923.224	11729
923.333	11802
923.442	11634
923.55	11638
923.659	11615
923.767	11710
923.876	11600
923.984	11634
924.092	11516
924.201	11608
924.309	11562
924.417	11566
924.525	11562
924.633	11543
924.741	12304
924.849	11311
924.956	11505
925.064	11318
925.172	11170
925.279	11280
925.387	11231
925.494	11391
925.602	11440
925.709	11322
925.816	11204
925.924	11223
926.031	11368
926.138	11250
926.245	11307
926.352	11261
926.459	11269
926.566	11296
926.673	11079
926.779	11094
926.886	11033
926.993	10946
927.099	10953
927.206	10786
927.312	10805
927.419	10934
927.525	10908
927.631	10999
927.737	10801
927.843	10767
927.95	10653
928.056	10763
928.162	10687
928.267	10793
928.373	11307
928.479	10828
928.585	10527
928.69	10721
928.796	10687
928.901	10592
929.007	10489
929.112	10660
929.218	10611
929.323	10504
929.428	10535
929.533	10622
929.638	10470
929.743	10500
929.848	10493
929.953	10459
930.058	10382
930.163	10185
930.267	10261
930.372	10367
930.477	10188
930.581	10375
930.685	10227
930.79	10090
930.894	10188
930.998	10063
931.103	10242
931.207	9846
931.311	9808
931.415	9724
931.519	9549
931.623	9519
