Data from test_V78500241_2257.txt Node
Date: Fri Mar 25 14:49:25 CST 2022
User: usil
Spectrometer: V785-0024
Trigger mode: 0
Integration Time (sec): 4.000000E-1
Scans to average: 1
Nonlinearity correction enabled: false
Boxcar width: 0
Storing dark spectrum: false
XAxis mode: Wavelengths
Number of Pixels in Spectrum: 1024
>>>>>Begin Spectral Data<<<<<
801.071	22166
801.214	22105
801.356	21850
801.499	21739
801.641	21568
801.783	21488
801.926	21462
802.068	21412
802.211	21393
802.353	21260
802.496	21154
802.638	21085
802.78	21005
802.923	20830
803.065	20857
803.208	20906
803.35	20823
803.492	20986
803.635	21077
803.777	20887
803.919	20933
804.061	21207
804.204	20899
804.346	20906
804.488	20781
804.63	20842
804.773	20724
804.915	20826
805.057	20853
805.199	20697
805.341	20918
805.483	20914
805.626	20967
805.768	20781
805.91	20792
806.052	20872
806.194	20648
806.336	20891
806.478	20758
806.62	20689
806.762	20914
806.904	21165
807.046	21207
807.188	21237
807.33	21154
807.472	21169
807.614	21119
807.756	21150
807.898	20952
808.04	20777
808.182	20921
808.324	20902
808.465	20948
808.607	21085
808.749	21233
808.891	21340
809.033	21359
809.174	21359
809.316	21047
809.458	21074
809.6	21188
809.741	21218
809.883	21230
810.025	21336
810.166	21424
810.308	21344
810.45	21291
810.591	21313
810.733	21077
810.875	21039
811.016	20861
811.158	20804
811.299	20956
811.441	21096
811.582	21135
811.724	21055
811.865	20804
812.007	20880
812.148	20906
812.29	20990
812.431	21112
812.573	21275
812.714	21329
812.855	21553
812.997	21587
813.138	21759
813.279	21580
813.421	21511
813.562	21401
813.703	21237
813.845	21077
813.986	20921
814.127	20682
814.268	20632
814.41	20469
814.551	20552
814.692	20602
814.833	20434
814.974	20457
815.115	20495
815.256	20400
815.397	20370
815.539	20275
815.68	20298
815.821	20233
815.962	20157
816.103	20324
816.244	20073
816.385	19986
816.526	19997
816.666	19731
816.807	19632
816.948	19715
817.089	19811
817.23	19750
817.371	19609
817.512	19685
817.653	19582
817.793	19552
817.934	19613
818.075	19693
818.216	19696
818.356	19658
818.497	19384
818.638	19320
818.778	19388
818.919	19457
819.06	19301
819.2	19518
819.341	19434
819.481	19453
819.622	19635
819.762	19909
819.903	19799
820.043	19693
820.184	19620
820.324	19495
820.465	19700
820.605	19624
820.746	19632
820.886	19445
821.026	19468
821.167	19518
821.307	19525
821.447	19681
821.588	19468
821.728	19247
821.868	19240
822.008	19046
822.149	19061
822.289	18996
822.429	18753
822.569	18673
822.709	18791
822.849	18582
822.99	18490
823.13	18422
823.27	18311
823.41	18251
823.55	18308
823.69	18388
823.83	18350
823.97	18243
824.11	18083
824.25	18034
824.389	18129
824.529	18152
824.669	18015
824.809	18262
824.949	18167
825.089	18045
825.228	18144
825.368	18019
825.508	17821
825.648	17897
825.787	17821
825.927	17946
826.067	17859
826.206	17847
826.346	17916
826.485	17866
826.625	17729
826.765	17923
826.904	17840
827.044	17562
827.183	17570
827.323	17524
827.462	17623
827.601	17493
827.741	17497
827.88	17573
828.02	17406
828.159	17592
828.298	17497
828.437	17501
828.577	17524
828.716	17623
828.855	17463
828.994	17284
829.134	17318
829.273	17353
829.412	17220
829.551	17223
829.69	17246
829.829	17242
829.968	17345
830.107	17391
830.246	17356
830.385	17185
830.524	17102
830.663	17140
830.802	17151
830.941	16862
831.08	16904
831.219	16991
831.357	16919
831.496	17124
831.635	16831
831.774	16729
831.913	16862
832.051	16679
832.19	16683
832.329	16767
832.467	16656
832.606	16474
832.744	16478
832.883	16660
833.022	16535
833.16	16584
833.299	16713
833.437	16618
833.576	16584
833.714	16615
833.852	16630
833.991	16577
834.129	16683
834.267	16683
834.406	16717
834.544	16634
834.682	16668
834.821	16580
834.959	16778
835.097	16588
835.235	16660
835.373	16611
835.511	16607
835.65	16569
835.788	16531
835.926	16459
836.064	16322
836.202	16413
836.34	16519
836.478	16664
836.615	16565
836.753	16577
836.891	16519
837.029	16577
837.167	16497
837.305	16409
837.443	16337
837.58	16303
837.718	16459
837.856	16432
837.993	16325
838.131	16402
838.269	16333
838.406	16318
838.544	16207
838.681	16143
838.819	16147
838.956	15888
839.094	15915
839.231	15953
839.369	16169
839.506	16337
839.643	16131
839.781	15941
839.918	15892
840.055	15987
840.193	15926
840.33	15941
840.467	15869
840.604	15991
840.742	16128
840.879	15759
841.016	15846
841.153	15774
841.29	16021
841.427	15915
841.564	15956
841.701	16021
841.838	15861
841.975	15819
842.112	15823
842.249	15603
842.385	15778
842.522	15854
842.659	15705
842.796	15652
842.933	15682
843.069	15652
843.206	15709
843.343	15770
843.479	15724
843.616	15743
843.752	15507
843.889	15420
844.025	15641
844.162	15511
844.298	15599
844.435	15462
844.571	15473
844.708	15420
844.844	15743
844.98	15682
845.117	15682
845.253	15420
845.389	15313
845.525	15412
845.661	15313
845.798	15291
845.934	15393
846.07	15340
846.206	15249
846.342	15450
846.478	15207
846.614	15127
846.75	15017
846.886	14998
847.022	15188
847.158	15051
847.294	15127
847.429	15013
847.565	15097
847.701	15222
847.837	14853
847.972	14769
848.108	14918
848.244	14937
848.379	14651
848.515	14651
848.65	14610
848.786	14640
848.921	14682
849.057	14804
849.192	14697
849.328	14663
849.463	14708
849.598	14564
849.734	14617
849.869	14537
850.004	14446
850.14	14503
850.275	14438
850.41	14347
850.545	14339
850.68	14336
850.815	14339
850.95	14377
851.085	14644
851.22	14446
851.355	14438
851.49	14381
851.625	14370
851.76	14396
851.895	14343
852.03	14221
852.165	14419
852.299	14412
852.434	14545
852.569	14476
852.703	14389
852.838	14492
852.973	14663
853.107	14549
853.242	14355
853.376	14351
853.511	14263
853.645	14210
853.78	14339
853.914	14358
854.048	14248
854.183	14191
854.317	14263
854.451	14374
854.585	14263
854.72	14202
854.854	14366
854.988	14271
855.122	14237
855.256	14153
855.39	14336
855.524	14385
855.658	14278
855.792	14320
855.926	14339
856.06	14358
856.194	14389
856.327	14362
856.461	14256
856.595	14275
856.729	14172
856.862	14381
856.996	14278
857.13	14320
857.263	14275
857.397	14412
857.53	14267
857.664	14298
857.797	14377
857.931	14358
858.064	14366
858.197	14385
858.331	14336
858.464	14317
858.597	14180
858.731	14221
858.864	14244
858.997	14278
859.13	14423
859.263	14336
859.396	14412
859.529	14259
859.662	14218
859.795	14237
859.928	14305
860.061	14511
860.194	14377
860.327	14408
860.46	14294
860.592	14374
860.725	14454
860.858	14400
860.99	14240
861.123	14248
861.256	14221
861.388	14385
861.521	14861
861.653	14157
861.786	14088
861.918	14161
862.05	14290
862.183	14248
862.315	14317
862.447	14305
862.58	14252
862.712	14016
862.844	13898
862.976	14145
863.108	14062
863.24	14381
863.372	13928
863.504	14008
863.636	14107
863.768	14012
863.9	14027
864.032	13970
864.164	14046
864.296	14069
864.428	14134
864.559	14138
864.691	14138
864.823	14252
864.954	14031
865.086	14103
865.217	14073
865.349	14031
865.48	13955
865.612	14016
865.743	14172
865.875	14031
866.006	14081
866.137	14103
866.269	14065
866.4	13970
866.531	14020
866.662	13909
866.793	13970
866.924	13947
867.055	14130
867.186	14027
867.317	14062
867.448	14024
867.579	14035
867.71	13841
867.841	13974
867.972	13955
868.103	14096
868.233	14054
868.364	14084
868.495	14123
868.625	14309
868.756	14286
868.886	14214
869.017	14301
869.147	14366
869.278	14495
869.408	14240
869.539	14267
869.669	14431
869.799	14358
869.929	14457
870.06	14313
870.19	14541
870.32	14556
870.45	14587
870.58	14697
870.71	14883
870.84	14826
870.97	14716
871.1	14629
871.23	14876
871.36	14883
871.489	14781
871.619	14960
871.749	14929
871.879	14921
872.008	14986
872.138	14937
872.267	14819
872.397	14796
872.526	14712
872.656	14705
872.785	14758
872.915	14826
873.044	14960
873.173	14891
873.303	15005
873.432	14956
873.561	14944
873.69	14899
873.819	15009
873.948	14982
874.077	14979
874.206	14819
874.335	14948
874.464	15028
874.593	15275
874.722	15203
874.851	15382
874.979	15272
875.108	15275
875.237	15169
875.365	15226
875.494	15150
875.623	15317
875.751	15230
875.88	15351
876.008	15355
876.136	15553
876.265	15747
876.393	15785
876.521	15709
876.65	15637
876.778	15743
876.906	15553
877.034	15584
877.162	15660
877.29	15698
877.418	15641
877.546	15705
877.674	15618
877.802	15751
877.93	15584
878.058	15553
878.185	15545
878.313	15561
878.441	15679
878.568	15435
878.696	15606
878.824	15637
878.951	15633
879.079	15915
879.206	15941
879.333	15945
879.461	15717
879.588	15778
879.715	15857
879.842	16032
879.97	15808
880.097	15454
880.224	15500
880.351	15485
880.478	15545
880.605	15507
880.732	15523
880.859	15819
880.986	15538
881.112	15504
881.239	15439
881.366	15283
881.493	15230
881.619	15184
881.746	15142
881.872	15203
881.999	15154
882.125	15173
882.252	15188
882.378	15180
882.505	15310
882.631	15203
882.757	15017
882.883	14948
883.01	15036
883.136	14887
883.262	14929
883.388	14880
883.514	15062
883.64	15070
883.766	14823
883.892	14769
884.018	14914
884.143	14975
884.269	14990
884.395	14712
884.52	14727
884.646	14648
884.772	14648
884.897	14537
885.023	14727
885.148	14834
885.274	14891
885.399	14800
885.524	14716
885.65	14617
885.775	14777
885.9	14655
886.025	14750
886.15	14796
886.275	14659
886.4	14617
886.525	14625
886.65	14606
886.775	14625
886.9	14830
887.025	14815
887.149	14686
887.274	14579
887.399	14488
887.523	14412
887.648	14492
887.773	14511
887.897	14537
888.021	14579
888.146	14511
888.27	14556
888.395	14667
888.519	14507
888.643	14552
888.767	14583
888.891	14465
889.015	14404
889.139	14427
889.263	14362
889.387	14473
889.511	14518
889.635	14610
889.759	14427
889.883	14374
890.006	14381
890.13	14438
890.254	14278
890.377	14400
890.501	14237
890.624	14111
890.748	14309
890.871	14145
890.995	14054
891.118	13997
891.241	14046
891.364	14145
891.488	14237
891.611	14214
891.734	14134
891.857	14168
891.98	14115
892.103	14134
892.226	14130
892.349	14058
892.471	13959
892.594	14084
892.717	14115
892.839	14008
892.962	14103
893.085	14157
893.207	14092
893.33	13963
893.452	13978
893.575	14138
893.697	14077
893.819	14054
893.941	14153
894.064	14119
894.186	14100
894.308	14035
894.43	14385
894.552	14362
894.674	14267
894.796	14016
894.918	14176
895.04	14145
895.161	14202
895.283	14161
895.405	14054
895.526	14100
895.648	14263
895.769	14183
895.891	14210
896.012	14298
896.134	14290
896.255	14275
896.376	14248
896.498	14252
896.619	14282
896.74	14229
896.861	14355
896.982	14678
897.103	14785
897.224	14438
897.345	14549
897.466	14526
897.587	14495
897.708	14727
897.828	14511
897.949	14530
898.07	14457
898.19	14537
898.311	14739
898.431	14549
898.552	14625
898.672	14720
898.792	14758
898.913	14689
899.033	14583
899.153	14492
899.273	14488
899.393	14434
899.513	14469
899.633	14556
899.753	14499
899.873	14492
899.993	14488
900.113	14427
900.232	14438
900.352	14473
900.472	14450
900.591	14328
900.711	14434
900.83	14339
900.95	14454
901.069	14526
901.189	14263
901.308	14172
901.427	13982
901.546	14115
901.665	14027
901.784	14046
901.904	13875
902.023	13871
902.141	13723
902.26	13590
902.379	13639
902.498	13620
902.617	13514
902.735	13540
902.854	13594
902.973	13563
903.091	13339
903.21	13346
903.328	13381
903.446	13308
903.565	13228
903.683	13194
903.801	13065
903.919	13107
904.038	13118
904.156	12973
904.274	13000
904.392	12890
904.51	12993
904.627	12901
904.745	13027
904.863	12996
904.981	12741
905.098	12673
905.216	12662
905.334	12707
905.451	12692
905.569	12646
905.686	12768
905.803	12650
905.921	12532
906.038	12547
906.155	12479
906.272	12433
906.389	12407
906.506	12300
906.623	12228
906.74	12197
906.857	12220
906.974	12175
907.091	12289
907.208	12365
907.324	12235
907.441	12106
907.557	11992
907.674	11988
907.79	11958
907.907	11958
908.023	11984
908.139	11942
908.256	11942
908.372	11927
908.488	11813
908.604	11828
908.72	11737
908.836	11786
908.952	11760
909.068	11722
909.184	11798
909.3	11741
909.415	11817
909.531	11859
909.647	11615
909.762	11512
909.878	11505
909.993	11596
910.108	11570
910.224	11467
910.339	11493
910.454	11311
910.57	11406
910.685	11307
910.8	11570
910.915	11493
911.03	11368
911.145	11246
911.259	11261
911.374	11223
911.489	11208
911.604	11064
911.718	11025
911.833	10957
911.947	10957
912.062	10862
912.176	11045
912.291	11003
912.405	11003
912.519	11147
912.633	11212
912.748	10976
912.862	10946
912.976	10828
913.09	10714
913.204	10797
913.318	10889
913.431	10946
913.545	10961
913.659	10915
913.772	10889
913.886	10793
914	10721
914.113	10892
914.226	10919
914.34	10889
914.453	10660
914.566	10828
914.68	10679
914.793	10725
914.906	10489
915.019	10409
915.132	10363
915.245	10421
915.358	10500
915.47	10440
915.583	10531
915.696	10508
915.809	10565
915.921	10599
916.034	10489
916.146	10379
916.259	10409
916.371	10554
916.483	10409
916.595	10341
916.708	10386
916.82	10382
916.932	10360
917.044	10375
917.156	10386
917.268	10291
917.38	10390
917.491	10291
917.603	10333
917.715	10447
917.826	10413
917.938	10329
918.049	10158
918.161	10352
918.272	10447
918.384	10462
918.495	10322
918.606	10246
918.717	10158
918.828	10295
918.939	10249
919.05	10090
919.161	10211
919.272	9994
919.383	10025
919.494	10207
919.604	10398
919.715	10211
919.826	10128
919.936	10188
920.047	10348
920.157	10253
920.267	10409
920.378	10272
920.488	10238
920.598	10455
920.708	10618
920.818	10455
920.928	10337
921.038	10618
921.148	10592
921.258	10234
921.368	10147
921.477	9983
921.587	10082
921.697	9876
921.806	10090
921.916	9949
922.025	9907
922.134	9759
922.244	9663
922.353	9808
922.462	9584
922.571	9648
922.68	9488
922.789	9431
922.898	9431
923.007	9450
923.116	9557
923.224	9389
923.333	9515
923.442	9374
923.55	9386
923.659	9428
923.767	9310
923.876	9344
923.984	9443
924.092	9298
924.201	9306
924.309	9348
924.417	9336
924.525	9264
924.633	9310
924.741	10253
924.849	9100
924.956	9279
925.064	9100
925.172	9047
925.279	9077
925.387	9093
925.494	9127
925.602	9272
925.709	9180
925.816	9142
925.924	9127
926.031	9260
926.138	9199
926.245	9165
926.352	9028
926.459	9173
926.566	9253
926.673	9085
926.779	8948
926.886	9009
926.993	8880
927.099	8872
927.206	8804
927.312	8781
927.419	8899
927.525	8872
927.631	8857
927.737	8720
927.843	8682
927.95	8686
928.056	8762
928.162	8716
928.267	8762
928.373	9435
928.479	8815
928.585	8594
928.69	8651
928.796	8701
928.901	8678
929.007	8522
929.112	8667
929.218	8552
929.323	8583
929.428	8568
929.533	8648
929.638	8492
929.743	8526
929.848	8594
929.953	8503
930.058	8473
930.163	8267
930.267	8339
930.372	8480
930.477	8377
930.581	8495
930.685	8446
930.79	8240
930.894	8259
930.998	8263
931.103	8400
931.207	8084
931.311	7940
931.415	7936
931.519	7784
931.623	7727
