Data from test_V78500241_616.txt Node
Date: Fri Mar 25 14:38:00 CST 2022
User: usil
Spectrometer: V785-0024
Trigger mode: 0
Integration Time (sec): 4.000000E-1
Scans to average: 1
Nonlinearity correction enabled: false
Boxcar width: 0
Storing dark spectrum: false
XAxis mode: Wavelengths
Number of Pixels in Spectrum: 1024
>>>>>Begin Spectral Data<<<<<
801.071	27964
801.214	27892
801.356	27690
801.499	27466
801.641	27431
801.783	27233
801.926	27401
802.068	27245
802.211	27047
802.353	27093
802.496	27017
802.638	26952
802.78	26804
802.923	26868
803.065	26823
803.208	26800
803.35	26716
803.492	26990
803.635	27017
803.777	26807
803.919	26948
804.061	27264
804.204	27096
804.346	27001
804.488	26940
804.63	27150
804.773	26975
804.915	27058
805.057	27275
805.199	27131
805.341	27317
805.483	27450
805.626	27481
805.768	27359
805.91	27458
806.052	27606
806.194	27625
806.336	27972
806.478	27964
806.62	28059
806.762	28379
806.904	28546
807.046	29261
807.188	29296
807.33	29474
807.472	30072
807.614	30471
807.756	31148
807.898	31928
808.04	33005
808.182	34554
808.324	36441
808.465	38670
808.607	40999
808.749	43198
808.891	44400
809.033	44556
809.174	43282
809.316	41109
809.458	38606
809.6	36182
809.741	34207
809.883	32613
810.025	31658
810.166	30817
810.308	30194
810.45	29832
810.591	29387
810.733	28972
810.875	28573
811.016	28363
811.158	28200
811.299	28200
811.441	28196
811.582	28109
811.724	27949
811.865	27720
812.007	27644
812.148	27842
812.29	27652
812.431	27641
812.573	27728
812.714	27895
812.855	27968
812.997	27930
813.138	28051
813.279	28025
813.421	27930
813.562	27644
813.703	27538
813.845	27382
813.986	27062
814.127	26910
814.268	26739
814.41	26788
814.551	26724
814.692	26720
814.833	26575
814.974	26568
815.115	26393
815.256	26370
815.397	26423
815.539	26317
815.68	26423
815.821	26176
815.962	26195
816.103	26126
816.244	26046
816.385	25974
816.526	25849
816.666	25750
816.807	25544
816.948	25628
817.089	25662
817.23	25651
817.371	25658
817.512	25449
817.653	25457
817.793	25502
817.934	25392
818.075	25514
818.216	25453
818.356	25438
818.497	25407
818.638	25107
818.778	25225
818.919	25080
819.06	25263
819.2	25228
819.341	25422
819.481	25282
819.622	25556
819.762	25700
819.903	25578
820.043	25445
820.184	25460
820.324	25445
820.465	25441
820.605	25354
820.746	25297
820.886	25285
821.026	25343
821.167	25369
821.307	25343
821.447	25346
821.588	25110
821.728	24939
821.868	24703
822.008	24817
822.149	24612
822.289	24635
822.429	24319
822.569	24247
822.709	24235
822.849	24140
822.99	24140
823.13	24003
823.27	23912
823.41	23779
823.55	23752
823.69	23752
823.83	23920
823.97	23710
824.11	23668
824.25	23486
824.389	23551
824.529	23505
824.669	23524
824.809	23672
824.949	23722
825.089	23672
825.228	23554
825.368	23444
825.508	23433
825.648	23296
825.787	23452
825.927	23372
826.067	23478
826.206	23341
826.346	23417
826.485	23406
826.625	23254
826.765	23512
826.904	23429
827.044	23132
827.183	22999
827.323	23121
827.462	23113
827.601	23090
827.741	23003
827.88	23060
828.02	22915
828.159	22930
828.298	23094
828.437	22999
828.577	22911
828.716	22999
828.855	23033
828.994	22675
829.134	22763
829.273	22831
829.412	22740
829.551	22675
829.69	22710
829.829	22809
829.968	22828
830.107	22748
830.246	22577
830.385	22561
830.524	22637
830.663	22519
830.802	22329
830.941	22363
831.08	22177
831.219	22424
831.357	22443
831.496	22596
831.635	22261
831.774	22242
831.913	22223
832.051	22128
832.19	22074
832.329	22219
832.467	22166
832.606	22074
832.744	22154
832.883	22078
833.022	22162
833.16	22249
833.299	22215
833.437	22333
833.576	22573
833.714	22736
833.852	22778
833.991	22927
834.129	22995
834.267	22866
834.406	22850
834.544	22809
834.682	22744
834.821	22660
834.959	22653
835.097	22409
835.235	22371
835.373	22306
835.511	22166
835.65	22093
835.788	22128
835.926	21876
836.064	21770
836.202	21789
836.34	21812
836.478	21930
836.615	21736
836.753	21888
836.891	21888
837.029	21800
837.167	21880
837.305	21789
837.443	21694
837.58	21701
837.718	21770
837.856	21671
837.993	21625
838.131	21485
838.269	21386
838.406	21481
838.544	21367
838.681	21313
838.819	21233
838.956	21058
839.094	21081
839.231	21127
839.369	21199
839.506	21435
839.643	21329
839.781	20994
839.918	20906
840.055	21024
840.193	20986
840.33	20902
840.467	20899
840.604	20998
840.742	21249
840.879	20792
841.016	20876
841.153	20807
841.29	21058
841.427	21039
841.564	20982
841.701	21036
841.838	20845
841.975	20834
842.112	20807
842.249	20724
842.385	20644
842.522	20880
842.659	20792
842.796	20796
842.933	20796
843.069	20655
843.206	20731
843.343	20838
843.479	20754
843.616	20781
843.752	20701
843.889	20655
844.025	20842
844.162	20727
844.298	20819
844.435	20861
844.571	21074
844.708	21283
844.844	21701
844.98	21956
845.117	22413
845.253	23094
845.389	24384
845.525	26895
845.661	31034
845.798	35965
845.934	39926
846.07	41250
846.206	40637
846.342	37221
846.478	32237
846.614	27751
846.75	24939
846.886	23178
847.022	22101
847.158	21515
847.294	21024
847.429	20857
847.565	20613
847.701	20724
847.837	20130
847.972	20031
848.108	20012
848.244	20027
848.379	19807
848.515	19784
848.65	19594
848.786	19750
848.921	19666
849.057	19753
849.192	19681
849.328	19727
849.463	19487
849.598	19571
849.734	19601
849.869	19415
850.004	19422
850.14	19388
850.275	19312
850.41	19358
850.545	19232
850.68	19236
850.815	19407
850.95	19320
851.085	19487
851.22	19400
851.355	19362
851.49	19270
851.625	19171
851.76	19145
851.895	19209
852.03	19103
852.165	19297
852.299	19419
852.434	19388
852.569	19297
852.703	19225
852.838	19449
852.973	19392
853.107	19449
853.242	19297
853.376	19316
853.511	19221
853.645	19244
853.78	19449
853.914	19266
854.048	19324
854.183	19327
854.317	19388
854.451	19529
854.585	19483
854.72	19289
854.854	19495
854.988	19312
855.122	19350
855.256	19209
855.39	19221
855.524	19358
855.658	19209
855.792	19228
855.926	19225
856.06	19244
856.194	19320
856.327	19133
856.461	19027
856.595	19156
856.729	19065
856.862	19308
856.996	19069
857.13	19168
857.263	19213
857.397	19095
857.53	19057
857.664	19183
857.797	19141
857.931	19209
858.064	19038
858.197	19175
858.331	18996
858.464	19012
858.597	18924
858.731	19099
858.864	18970
858.997	18989
859.13	19057
859.263	18989
859.396	19099
859.529	18859
859.662	18810
859.795	18970
859.928	18875
860.061	19107
860.194	19069
860.327	18981
860.46	18840
860.592	19129
860.725	19179
860.858	19099
860.99	18989
861.123	18848
861.256	18932
861.388	18856
861.521	19624
861.653	18848
861.786	18779
861.918	18779
862.05	18939
862.183	18966
862.315	18973
862.447	18996
862.58	18875
862.712	18684
862.844	18688
862.976	18760
863.108	18730
863.24	19031
863.372	18608
863.504	18635
863.636	18650
863.768	18715
863.9	18623
864.032	18555
864.164	18593
864.296	18563
864.428	18684
864.559	18654
864.691	18616
864.823	18779
864.954	18757
865.086	18608
865.217	18589
865.349	18563
865.48	18566
865.612	18593
865.743	18673
865.875	18566
866.006	18563
866.137	18608
866.269	18486
866.4	18673
866.531	18471
866.662	18460
866.793	18494
866.924	18525
867.055	18589
867.186	18509
867.317	18555
867.448	18407
867.579	18555
867.71	18433
867.841	18403
867.972	18642
868.103	18528
868.233	18475
868.364	18620
868.495	18646
868.625	18779
868.756	18856
868.886	18776
869.017	18825
869.147	18924
869.278	18897
869.408	18844
869.539	18913
869.669	18814
869.799	18894
869.929	18977
870.06	18810
870.19	19080
870.32	19042
870.45	19061
870.58	19171
870.71	19263
870.84	19301
870.97	19198
871.1	19225
871.23	19384
871.36	19472
871.489	19316
871.619	19476
871.749	19441
871.879	19525
872.008	19426
872.138	19480
872.267	19518
872.397	19373
872.526	19297
872.656	19411
872.785	19301
872.915	19597
873.044	19731
873.173	19521
873.303	19674
873.432	19525
873.561	19704
873.69	19738
873.819	19696
873.948	19685
874.077	19655
874.206	19651
874.335	19746
874.464	19833
874.593	20046
874.722	20065
874.851	20096
874.979	20206
875.108	20103
875.237	20069
875.365	20195
875.494	20301
875.623	20358
875.751	20199
875.88	20343
876.008	20522
876.136	20617
876.265	20708
876.393	21024
876.521	20937
876.65	21055
876.778	20845
876.906	21036
877.034	20956
877.162	21230
877.29	21150
877.418	21100
877.546	21237
877.674	21340
877.802	21454
877.93	21564
878.058	21652
878.185	21701
878.313	22010
878.441	22238
878.568	22421
878.696	22923
878.824	23398
878.951	24266
879.079	25514
879.206	27024
879.333	28546
879.461	29813
879.588	30479
879.715	30631
879.842	30038
879.97	28565
880.097	26952
880.224	25658
880.351	24871
880.478	24247
880.605	23843
880.732	23497
880.859	23642
880.986	23105
881.112	23048
881.239	23014
881.366	22801
881.493	22675
881.619	22790
881.746	22759
881.872	22805
881.999	22725
882.125	22866
882.252	22771
882.378	22816
882.505	23044
882.631	22778
882.757	22687
882.883	22767
883.01	22599
883.136	22626
883.262	22512
883.388	22379
883.514	22618
883.64	22706
883.766	22580
883.892	22272
884.018	22348
884.143	22599
884.269	22599
884.395	22398
884.52	22367
884.646	22485
884.772	22303
884.897	22135
885.023	22333
885.148	22363
885.274	22352
885.399	22272
885.524	22158
885.65	22036
885.775	21838
885.9	21736
886.025	21903
886.15	21846
886.275	21450
886.4	21310
886.525	21420
886.65	21222
886.775	21146
886.9	21245
887.025	21348
887.149	20899
887.274	20636
887.399	20545
887.523	20568
887.648	20442
887.773	20358
887.897	20495
888.021	20522
888.146	20221
888.27	20305
888.395	20225
888.519	20290
888.643	20172
888.767	20069
888.891	20016
889.015	19871
889.139	19928
889.263	19750
889.387	19894
889.511	19951
889.635	19860
889.759	19715
889.883	19651
890.006	19715
890.13	19651
890.254	19514
890.377	19544
890.501	19266
890.624	19247
890.748	19407
890.871	19156
890.995	19065
891.118	19034
891.241	19145
891.364	19015
891.488	19122
891.611	19072
891.734	19038
891.857	19046
891.98	18981
892.103	19076
892.226	18909
892.349	18935
892.471	18669
892.594	18817
892.717	18779
892.839	18783
892.962	18764
893.085	18821
893.207	18814
893.33	18597
893.452	18551
893.575	18677
893.697	18506
893.819	18817
893.941	18817
894.064	18654
894.186	18467
894.308	18490
894.43	18566
894.552	18669
894.674	18582
894.796	18456
894.918	18551
895.04	18429
895.161	18361
895.283	18448
895.405	18460
895.526	18464
895.648	18365
895.769	18479
895.891	18471
896.012	18460
896.134	18441
896.255	18445
896.376	18384
896.498	18380
896.619	18479
896.74	18380
896.861	18525
896.982	18776
897.103	18833
897.224	18631
897.345	18692
897.466	18494
897.587	18506
897.708	18768
897.828	18544
897.949	18464
898.07	18296
898.19	18509
898.311	18665
898.431	18441
898.552	18532
898.672	18650
898.792	18521
898.913	18498
899.033	18540
899.153	18369
899.273	18391
899.393	18311
899.513	18388
899.633	18388
899.753	18365
899.873	18353
899.993	18395
900.113	18292
900.232	18353
900.352	18224
900.472	18190
900.591	18144
900.711	18117
900.83	18114
900.95	18174
901.069	18201
901.189	18057
901.308	17855
901.427	17786
901.546	17714
901.665	17748
901.784	17695
901.904	17471
902.023	17471
902.141	17315
902.26	17326
902.379	17265
902.498	17170
902.617	17041
902.735	17315
902.854	17220
902.973	17121
903.091	16873
903.21	16843
903.328	16866
903.446	16694
903.565	16660
903.683	16561
903.801	16478
903.919	16550
904.038	16675
904.156	16443
904.274	16546
904.392	16360
904.51	16310
904.627	16478
904.745	16363
904.863	16386
904.981	16211
905.098	16067
905.216	16109
905.334	16032
905.451	16097
905.569	15991
905.686	16040
905.803	16036
905.921	15918
906.038	15949
906.155	15953
906.272	15781
906.389	15778
906.506	15629
906.623	15603
906.74	15545
906.857	15428
906.974	15416
907.091	15606
907.208	15652
907.324	15652
907.441	15389
907.557	15363
907.674	15272
907.79	15237
907.907	15233
908.023	15272
908.139	15245
908.256	15211
908.372	15154
908.488	15245
908.604	14937
908.72	14910
908.836	14963
908.952	14929
909.068	14971
909.184	14979
909.3	15013
909.415	14941
909.531	14933
909.647	14735
909.762	14659
909.878	14617
909.993	14648
910.108	14636
910.224	14602
910.339	14708
910.454	14606
910.57	14434
910.685	14473
910.8	14705
910.915	14625
911.03	14571
911.145	14317
911.259	14225
911.374	14286
911.489	14145
911.604	14138
911.718	14073
911.833	14111
911.947	13997
912.062	13822
912.176	14024
912.291	14062
912.405	13963
912.519	14195
912.633	14221
912.748	14058
912.862	13959
912.976	13811
913.09	13738
913.204	13830
913.318	13860
913.431	13982
913.545	13951
913.659	13917
913.772	13856
913.886	13700
914	13662
914.113	13864
914.226	13837
914.34	13719
914.453	13636
914.566	13765
914.68	13662
914.793	13628
914.906	13441
915.019	13407
915.132	13354
915.245	13369
915.358	13499
915.47	13381
915.583	13468
915.696	13384
915.809	13510
915.921	13548
916.034	13373
916.146	13327
916.259	13327
916.371	13495
916.483	13384
916.595	13289
916.708	13327
916.82	13339
916.932	13312
917.044	13247
917.156	13244
917.268	13221
917.38	13228
917.491	13137
917.603	13091
917.715	13217
917.826	13126
917.938	13019
918.049	12981
918.161	13080
918.272	13145
918.384	13171
918.495	13091
918.606	12798
918.717	12852
918.828	12840
918.939	12909
919.05	12802
919.161	12905
919.272	12741
919.383	12749
919.494	12875
919.604	12985
919.715	12890
919.826	12707
919.936	12844
920.047	12985
920.157	12848
920.267	13118
920.378	12909
920.488	12791
920.598	13053
920.708	13240
920.818	12958
920.928	12977
921.038	13137
921.148	13149
921.258	12764
921.368	12700
921.477	12650
921.587	12612
921.697	12464
921.806	12551
921.916	12448
922.025	12330
922.134	12228
922.244	12243
922.353	12330
922.462	12121
922.571	12140
922.68	11859
922.789	11942
922.898	11946
923.007	11836
923.116	11942
923.224	11904
923.333	11863
923.442	11863
923.55	11699
923.659	11752
923.767	11863
923.876	11680
923.984	11809
924.092	11615
924.201	11824
924.309	11775
924.417	11619
924.525	11592
924.633	11638
924.741	12384
924.849	11455
924.956	11585
925.064	11452
925.172	11326
925.279	11372
925.387	11440
925.494	11444
925.602	11547
925.709	11558
925.816	11322
925.924	11398
926.031	11474
926.138	11337
926.245	11414
926.352	11254
926.459	11406
926.566	11417
926.673	11372
926.779	11242
926.886	11193
926.993	11147
927.099	11029
927.206	11052
927.312	11041
927.419	11128
927.525	11029
927.631	11071
927.737	10877
927.843	10900
927.95	10831
928.056	10904
928.162	10911
928.267	10949
928.373	11482
928.479	10995
928.585	10774
928.69	10866
928.796	10991
928.901	10774
929.007	10634
929.112	10786
929.218	10736
929.323	10706
929.428	10672
929.533	10869
929.638	10634
929.743	10588
929.848	10725
929.953	10634
930.058	10573
930.163	10382
930.267	10428
930.372	10493
930.477	10306
930.581	10618
930.685	10428
930.79	10284
930.894	10303
930.998	10360
931.103	10443
931.207	10059
931.311	9953
931.415	9880
931.519	9663
931.623	9717
