Data from test_V78500241_3376.txt Node
Date: Fri Mar 25 14:57:13 CST 2022
User: usil
Spectrometer: V785-0024
Trigger mode: 0
Integration Time (sec): 4.000000E-1
Scans to average: 1
Nonlinearity correction enabled: false
Boxcar width: 0
Storing dark spectrum: false
XAxis mode: Wavelengths
Number of Pixels in Spectrum: 1024
>>>>>Begin Spectral Data<<<<<
801.071	21918
801.214	21880
801.356	21564
801.499	21515
801.641	21393
801.783	21370
801.926	21294
802.068	21298
802.211	21180
802.353	21146
802.496	20956
802.638	20788
802.78	20781
802.923	20765
803.065	20632
803.208	20454
803.35	20648
803.492	20640
803.635	20868
803.777	20682
803.919	20579
804.061	21036
804.204	20682
804.346	20454
804.488	20556
804.63	20564
804.773	20514
804.915	20625
805.057	20655
805.199	20507
805.341	20499
805.483	20667
805.626	20507
805.768	20404
805.91	20655
806.052	20568
806.194	20438
806.336	20590
806.478	20503
806.62	20492
806.762	20541
806.904	20765
807.046	20990
807.188	20792
807.33	21028
807.472	20853
807.614	20773
807.756	20739
807.898	20689
808.04	20541
808.182	20686
808.324	20594
808.465	20579
808.607	20815
808.749	20739
808.891	21024
809.033	20963
809.174	20967
809.316	20765
809.458	20834
809.6	20788
809.741	20906
809.883	21017
810.025	21058
810.166	21058
810.308	21039
810.45	20830
810.591	20819
810.733	20792
810.875	20739
811.016	20549
811.158	20552
811.299	20796
811.441	20937
811.582	20720
811.724	20613
811.865	20583
812.007	20629
812.148	20583
812.29	20686
812.431	20811
812.573	20960
812.714	20925
812.855	21123
812.997	21344
813.138	21378
813.279	21195
813.421	21100
813.562	21074
813.703	21001
813.845	20826
813.986	20412
814.127	20358
814.268	20294
814.41	20161
814.551	20191
814.692	20275
814.833	20122
814.974	20164
815.115	20176
815.256	19970
815.397	20039
815.539	19955
815.68	19856
815.821	19906
815.962	19894
816.103	19868
816.244	19708
816.385	19655
816.526	19723
816.666	19537
816.807	19335
816.948	19422
817.089	19407
817.23	19339
817.371	19457
817.512	19312
817.653	19244
817.793	19213
817.934	19430
818.075	19324
818.216	19293
818.356	19301
818.497	19126
818.638	19072
818.778	19031
818.919	19012
819.06	19126
819.2	19145
819.341	19164
819.481	19225
819.622	19285
819.762	19430
819.903	19449
820.043	19373
820.184	19168
820.324	19362
820.465	19304
820.605	19297
820.746	19255
820.886	19148
821.026	19187
821.167	19217
821.307	19377
821.447	19156
821.588	19042
821.728	19053
821.868	18935
822.008	18783
822.149	18779
822.289	18631
822.429	18281
822.569	18464
822.709	18391
822.849	18213
822.99	18178
823.13	18148
823.27	18182
823.41	18038
823.55	17878
823.69	18030
823.83	17950
823.97	17996
824.11	17874
824.25	17752
824.389	17775
824.529	17798
824.669	17859
824.809	17901
824.949	17912
825.089	17901
825.228	17767
825.368	17539
825.508	17703
825.648	17573
825.787	17604
825.927	17687
826.067	17478
826.206	17611
826.346	17551
826.485	17554
826.625	17478
826.765	17699
826.904	17649
827.044	17353
827.183	17311
827.323	17246
827.462	17326
827.601	17250
827.741	17239
827.88	17296
828.02	17132
828.159	17261
828.298	17368
828.437	17326
828.577	17387
828.716	17417
828.855	17155
828.994	16980
829.134	17022
829.273	17033
829.412	16938
829.551	16946
829.69	17041
829.829	17041
829.968	17086
830.107	17060
830.246	17109
830.385	16995
830.524	16858
830.663	16858
830.802	16759
830.941	16660
831.08	16645
831.219	16702
831.357	16774
831.496	16831
831.635	16558
831.774	16637
831.913	16512
832.051	16485
832.19	16424
832.329	16424
832.467	16348
832.606	16363
832.744	16341
832.883	16352
833.022	16276
833.16	16325
833.299	16352
833.437	16390
833.576	16417
833.714	16451
833.852	16443
833.991	16447
834.129	16565
834.267	16428
834.406	16413
834.544	16493
834.682	16375
834.821	16500
834.959	16588
835.097	16337
835.235	16512
835.373	16432
835.511	16512
835.65	16272
835.788	16371
835.926	16173
836.064	16086
836.202	16268
836.34	16303
836.478	16379
836.615	16261
836.753	16287
836.891	16417
837.029	16337
837.167	16211
837.305	16204
837.443	16230
837.58	16226
837.718	16268
837.856	16204
837.993	16124
838.131	16196
838.269	16158
838.406	16166
838.544	16025
838.681	15873
838.819	15865
838.956	15728
839.094	15739
839.231	15797
839.369	15838
839.506	16162
839.643	15987
839.781	15759
839.918	15713
840.055	15652
840.193	15766
840.33	15800
840.467	15701
840.604	15762
840.742	16021
840.879	15591
841.016	15713
841.153	15686
841.29	15922
841.427	15713
841.564	15835
841.701	15812
841.838	15739
841.975	15709
842.112	15667
842.249	15572
842.385	15526
842.522	15743
842.659	15576
842.796	15511
842.933	15428
843.069	15515
843.206	15496
843.343	15625
843.479	15610
843.616	15545
843.752	15313
843.889	15325
844.025	15473
844.162	15298
844.298	15386
844.435	15408
844.571	15233
844.708	15382
844.844	15504
844.98	15488
845.117	15386
845.253	15275
845.389	15195
845.525	15165
845.661	15097
845.798	15104
845.934	15176
846.07	14979
846.206	15188
846.342	15272
846.478	15100
846.614	14933
846.75	14864
846.886	14842
847.022	14963
847.158	14921
847.294	14876
847.429	14891
847.565	14944
847.701	15119
847.837	14598
847.972	14640
848.108	14655
848.244	14678
848.379	14434
848.515	14533
848.65	14560
848.786	14522
848.921	14499
849.057	14495
849.192	14526
849.328	14594
849.463	14522
849.598	14541
849.734	14427
849.869	14396
850.004	14374
850.14	14381
850.275	14278
850.41	14229
850.545	14294
850.68	14275
850.815	14298
850.95	14275
851.085	14400
851.22	14396
851.355	14259
851.49	14244
851.625	14206
851.76	14263
851.895	14084
852.03	14157
852.165	14206
852.299	14138
852.434	14324
852.569	14309
852.703	14271
852.838	14347
852.973	14313
853.107	14385
853.242	14294
853.376	14123
853.511	14012
853.645	14073
853.78	14259
853.914	14073
854.048	14088
854.183	14123
854.317	14100
854.451	14240
854.585	14126
854.72	14077
854.854	14229
854.988	14024
855.122	14058
855.256	14008
855.39	13989
855.524	14248
855.658	14237
855.792	14126
855.926	14210
856.06	14172
856.194	14244
856.327	14187
856.461	14058
856.595	14092
856.729	14005
856.862	14206
856.996	14172
857.13	14145
857.263	14317
857.397	14301
857.53	14092
857.664	14195
857.797	14195
857.931	14290
858.064	14195
858.197	14187
858.331	14103
858.464	14126
858.597	14024
858.731	14069
858.864	14153
858.997	14172
859.13	14161
859.263	14180
859.396	14218
859.529	14195
859.662	14168
859.795	13955
859.928	14103
860.061	14351
860.194	14317
860.327	14115
860.46	14130
860.592	14130
860.725	14218
860.858	14259
860.99	14077
861.123	14096
861.256	13970
861.388	14172
861.521	14918
861.653	14039
861.786	14024
861.918	14001
862.05	14043
862.183	14088
862.315	14157
862.447	14237
862.58	14111
862.712	13947
862.844	13890
862.976	14020
863.108	14039
863.24	14343
863.372	13830
863.504	13879
863.636	13909
863.768	13890
863.9	13982
864.032	13852
864.164	13974
864.296	13928
864.428	13944
864.559	13978
864.691	14039
864.823	13955
864.954	13925
865.086	13913
865.217	13928
865.349	13875
865.48	13864
865.612	13925
865.743	14035
865.875	13951
866.006	13890
866.137	13799
866.269	13917
866.4	13955
866.531	13803
866.662	13845
866.793	13852
866.924	13864
867.055	13860
867.186	13894
867.317	13868
867.448	13746
867.579	13826
867.71	13902
867.841	13830
867.972	13906
868.103	13902
868.233	13803
868.364	13890
868.495	14001
868.625	14077
868.756	14286
868.886	14134
869.017	14153
869.147	14339
869.278	14248
869.408	14084
869.539	14111
869.669	14225
869.799	14180
869.929	14358
870.06	14233
870.19	14499
870.32	14434
870.45	14511
870.58	14613
870.71	14655
870.84	14701
870.97	14613
871.1	14549
871.23	14785
871.36	14750
871.489	14590
871.619	14724
871.749	14823
871.879	14796
872.008	14838
872.138	14819
872.267	14773
872.397	14590
872.526	14579
872.656	14606
872.785	14526
872.915	14781
873.044	14899
873.173	14754
873.303	14857
873.432	14849
873.561	14948
873.69	14838
873.819	14811
873.948	14883
874.077	14720
874.206	14842
874.335	14781
874.464	14906
874.593	15077
874.722	15036
874.851	15207
874.979	15146
875.108	15165
875.237	15097
875.365	15017
875.494	15085
875.623	15237
875.751	15074
875.88	15112
876.008	15268
876.136	15370
876.265	15534
876.393	15743
876.521	15648
876.65	15580
876.778	15523
876.906	15519
877.034	15538
877.162	15526
877.29	15523
877.418	15488
877.546	15553
877.674	15485
877.802	15485
877.93	15473
878.058	15500
878.185	15386
878.313	15515
878.441	15515
878.568	15393
878.696	15393
878.824	15526
878.951	15568
879.079	15633
879.206	15743
879.333	15732
879.461	15553
879.588	15595
879.715	15759
879.842	15884
879.97	15660
880.097	15420
880.224	15370
880.351	15382
880.478	15435
880.605	15340
880.732	15424
880.859	15656
880.986	15481
881.112	15488
881.239	15325
881.366	15256
881.493	15051
881.619	15093
881.746	15013
881.872	15017
881.999	15032
882.125	14967
882.252	15112
882.378	15097
882.505	15226
882.631	15024
882.757	14815
882.883	14963
883.01	14834
883.136	14716
883.262	14644
883.388	14651
883.514	14910
883.64	14819
883.766	14872
883.892	14678
884.018	14670
884.143	14754
884.269	14971
884.395	14716
884.52	14590
884.646	14575
884.772	14404
884.897	14545
885.023	14594
885.148	14712
885.274	14697
885.399	14617
885.524	14530
885.65	14541
885.775	14564
885.9	14678
886.025	14655
886.15	14727
886.275	14568
886.4	14499
886.525	14568
886.65	14461
886.775	14476
886.9	14651
887.025	14826
887.149	14556
887.274	14381
887.399	14393
887.523	14358
887.648	14370
887.773	14332
887.897	14431
888.021	14404
888.146	14332
888.27	14469
888.395	14495
888.519	14419
888.643	14552
888.767	14393
888.891	14275
889.015	14233
889.139	14343
889.263	14256
889.387	14415
889.511	14442
889.635	14328
889.759	14214
889.883	14240
890.006	14336
890.13	14328
890.254	14191
890.377	14282
890.501	14020
890.624	14077
890.748	14092
890.871	14035
890.995	13921
891.118	13928
891.241	14031
891.364	14035
891.488	14134
891.611	13974
891.734	13951
891.857	14111
891.98	14001
892.103	14062
892.226	14020
892.349	13997
892.471	13871
892.594	13982
892.717	13921
892.839	13871
892.962	14005
893.085	13997
893.207	13963
893.33	13849
893.452	13925
893.575	14005
893.697	13993
893.819	14134
893.941	14180
894.064	14145
894.186	13940
894.308	13932
894.43	14111
894.552	14229
894.674	14111
894.796	13970
894.918	13974
895.04	14046
895.161	14172
895.283	14145
895.405	14046
895.526	14115
895.648	14077
895.769	14126
895.891	14187
896.012	14195
896.134	14199
896.255	14107
896.376	14168
896.498	14096
896.619	14225
896.74	14145
896.861	14259
896.982	14454
897.103	14724
897.224	14377
897.345	14389
897.466	14381
897.587	14393
897.708	14594
897.828	14499
897.949	14442
898.07	14328
898.19	14393
898.311	14564
898.431	14415
898.552	14640
898.672	14541
898.792	14651
898.913	14442
899.033	14377
899.153	14415
899.273	14328
899.393	14408
899.513	14442
899.633	14423
899.753	14419
899.873	14381
899.993	14381
900.113	14282
900.232	14438
900.352	14301
900.472	14317
900.591	14282
900.711	14336
900.83	14248
900.95	14229
901.069	14400
901.189	14278
901.308	14012
901.427	13909
901.546	13906
901.665	13925
901.784	13928
901.904	13826
902.023	13765
902.141	13529
902.26	13495
902.379	13502
902.498	13571
902.617	13453
902.735	13651
902.854	13464
902.973	13510
903.091	13266
903.21	13179
903.328	13244
903.446	13251
903.565	13149
903.683	13015
903.801	13110
903.919	13023
904.038	13031
904.156	12909
904.274	13000
904.392	12890
904.51	12897
904.627	12924
904.745	12890
904.863	12920
904.981	12612
905.098	12563
905.216	12555
905.334	12631
905.451	12601
905.569	12601
905.686	12760
905.803	12521
905.921	12395
906.038	12494
906.155	12410
906.272	12277
906.389	12319
906.506	12235
906.623	12190
906.74	12144
906.857	12022
906.974	12076
907.091	12213
907.208	12319
907.324	12182
907.441	11999
907.557	11977
907.674	11961
907.79	11893
907.907	11923
908.023	11980
908.139	11863
908.256	11973
908.372	11897
908.488	11863
908.604	11718
908.72	11646
908.836	11630
908.952	11608
909.068	11668
909.184	11760
909.3	11600
909.415	11707
909.531	11691
909.647	11512
909.762	11493
909.878	11440
909.993	11421
910.108	11452
910.224	11474
910.339	11490
910.454	11349
910.57	11364
910.685	11307
910.8	11554
910.915	11467
911.03	11337
911.145	11201
911.259	11170
911.374	11132
911.489	11090
911.604	11117
911.718	10938
911.833	10938
911.947	10736
912.062	10740
912.176	10900
912.291	10892
912.405	10904
912.519	11102
912.633	11193
912.748	10946
912.862	10942
912.976	10717
913.09	10626
913.204	10710
913.318	10809
913.431	10908
913.545	10877
913.659	10980
913.772	10828
913.886	10721
914	10694
914.113	10831
914.226	10873
914.34	10786
914.453	10626
914.566	10824
914.68	10634
914.793	10672
914.906	10451
915.019	10428
915.132	10405
915.245	10478
915.358	10447
915.47	10379
915.583	10447
915.696	10497
915.809	10653
915.921	10512
916.034	10413
916.146	10322
916.259	10405
916.371	10531
916.483	10451
916.595	10295
916.708	10371
916.82	10356
916.932	10356
917.044	10352
917.156	10382
917.268	10246
917.38	10246
917.491	10329
917.603	10295
917.715	10382
917.826	10363
917.938	10303
918.049	10185
918.161	10246
918.272	10394
918.384	10386
918.495	10272
918.606	10135
918.717	10128
918.828	10204
918.939	10223
919.05	10154
919.161	10162
919.272	9949
919.383	9987
919.494	10169
919.604	10356
919.715	10154
919.826	10010
919.936	10051
920.047	10242
920.157	10162
920.267	10375
920.378	10238
920.488	10219
920.598	10348
920.708	10516
920.818	10447
920.928	10367
921.038	10500
921.148	10470
921.258	10242
921.368	10105
921.477	10013
921.587	9994
921.697	9922
921.806	10040
921.916	9876
922.025	9797
922.134	9705
922.244	9679
922.353	9713
922.462	9625
922.571	9606
922.68	9435
922.789	9386
922.898	9447
923.007	9363
923.116	9507
923.224	9424
923.333	9473
923.442	9348
923.55	9310
923.659	9344
923.767	9405
923.876	9287
923.984	9405
924.092	9272
924.201	9253
924.309	9321
924.417	9275
924.525	9226
924.633	9241
924.741	10162
924.849	9089
924.956	9256
925.064	9017
925.172	9001
925.279	9051
925.387	9097
925.494	9097
925.602	9226
925.709	9093
925.816	9009
925.924	9070
926.031	9199
926.138	9055
926.245	9051
926.352	9005
926.459	9119
926.566	9203
926.673	9009
926.779	8941
926.886	8956
926.993	8769
927.099	8868
927.206	8735
927.312	8720
927.419	8887
927.525	8807
927.631	8834
927.737	8804
927.843	8617
927.95	8579
928.056	8667
928.162	8651
928.267	8731
928.373	9275
928.479	8788
928.585	8590
928.69	8670
928.796	8724
928.901	8568
929.007	8476
929.112	8648
929.218	8556
929.323	8469
929.428	8549
929.533	8648
929.638	8423
929.743	8457
929.848	8575
929.953	8552
930.058	8381
930.163	8195
930.267	8286
930.372	8404
930.477	8225
930.581	8499
930.685	8347
930.79	8183
930.894	8298
930.998	8172
931.103	8358
931.207	7967
931.311	7906
931.415	7917
931.519	7788
931.623	7712
