Data from test_V78500241_266.txt Node
Date: Fri Mar 25 14:35:34 CST 2022
User: usil
Spectrometer: V785-0024
Trigger mode: 0
Integration Time (sec): 4.000000E-1
Scans to average: 1
Nonlinearity correction enabled: false
Boxcar width: 0
Storing dark spectrum: false
XAxis mode: Wavelengths
Number of Pixels in Spectrum: 1024
>>>>>Begin Spectral Data<<<<<
801.071	27340
801.214	27344
801.356	27150
801.499	27001
801.641	26777
801.783	26796
801.926	26678
802.068	26788
802.211	26644
802.353	26621
802.496	26400
802.638	26507
802.78	26370
802.923	26366
803.065	26267
803.208	26286
803.35	26214
803.492	26427
803.635	26415
803.777	26275
803.919	26389
804.061	26682
804.204	26480
804.346	26412
804.488	26149
804.63	26366
804.773	26172
804.915	26298
805.057	26503
805.199	26366
805.341	26412
805.483	26556
805.626	26431
805.768	26343
805.91	26450
806.052	26423
806.194	26339
806.336	26613
806.478	26526
806.62	26320
806.762	26537
806.904	26549
807.046	26762
807.188	26731
807.33	26773
807.472	26861
807.614	26670
807.756	26830
807.898	26552
808.04	26492
808.182	26651
808.324	26651
808.465	26655
808.607	26944
808.749	26933
808.891	27207
809.033	27199
809.174	27066
809.316	27009
809.458	26990
809.6	27032
809.741	26902
809.883	26906
810.025	27127
810.166	27180
810.308	27051
810.45	27051
810.591	27055
810.733	26777
810.875	26899
811.016	26743
811.158	26545
811.299	26781
811.441	26979
811.582	26845
811.724	26659
811.865	26606
812.007	26674
812.148	26708
812.29	26762
812.431	26895
812.573	27123
812.714	27100
812.855	27272
812.997	27306
813.138	27386
813.279	27340
813.421	27283
813.562	27207
813.703	26952
813.845	27001
813.986	26526
814.127	26355
814.268	26396
814.41	26294
814.551	26457
814.692	26343
814.833	26286
814.974	26298
815.115	26278
815.256	26153
815.397	26191
815.539	26103
815.68	25944
815.821	25917
815.962	25989
816.103	26016
816.244	26069
816.385	25738
816.526	25712
816.666	25392
816.807	25441
816.948	25510
817.089	25594
817.23	25415
817.371	25449
817.512	25445
817.653	25438
817.793	25331
817.934	25251
818.075	25400
818.216	25396
818.356	25228
818.497	25308
818.638	25034
818.778	24989
818.919	25110
819.06	25103
819.2	25358
819.341	25251
819.481	25403
819.622	25518
819.762	25613
819.903	25605
820.043	25388
820.184	25369
820.324	25434
820.465	25506
820.605	25365
820.746	25403
820.886	25202
821.026	25396
821.167	25324
821.307	25358
821.447	25255
821.588	25160
821.728	25122
821.868	24814
822.008	24745
822.149	24741
822.289	24738
822.429	24475
822.569	24426
822.709	24330
822.849	24205
822.99	24315
823.13	24178
823.27	24121
823.41	24049
823.55	23977
823.69	24102
823.83	24026
823.97	23950
824.11	23836
824.25	23771
824.389	23703
824.529	23828
824.669	23665
824.809	23843
824.949	23870
825.089	23809
825.228	23767
825.368	23543
825.508	23634
825.648	23520
825.787	23596
825.927	23786
826.067	23528
826.206	23551
826.346	23581
826.485	23707
826.625	23471
826.765	23627
826.904	23589
827.044	23330
827.183	23315
827.323	23235
827.462	23227
827.601	23109
827.741	23155
827.88	23132
828.02	23014
828.159	23181
828.298	23185
828.437	23246
828.577	23136
828.716	23341
828.855	23151
828.994	23056
829.134	23025
829.273	22987
829.412	22927
829.551	22946
829.69	22923
829.829	22946
829.968	23006
830.107	22877
830.246	22858
830.385	22881
830.524	22725
830.663	22637
830.802	22622
830.941	22424
831.08	22504
831.219	22592
831.357	22474
831.496	22713
831.635	22299
831.774	22253
831.913	22375
832.051	22337
832.19	22162
832.329	22234
832.467	22196
832.606	22158
832.744	22090
832.883	22120
833.022	22109
833.16	22166
833.299	22147
833.437	22067
833.576	22074
833.714	22021
833.852	22268
833.991	22051
834.129	22150
834.267	22242
834.406	22112
834.544	22337
834.682	22192
834.821	22109
834.959	22226
835.097	22040
835.235	22196
835.373	22063
835.511	22169
835.65	21941
835.788	21968
835.926	21770
836.064	21755
836.202	21865
836.34	21861
836.478	22036
836.615	21800
836.753	22036
836.891	21934
837.029	21937
837.167	21857
837.305	21926
837.443	21888
837.58	21774
837.718	21880
837.856	21846
837.993	21819
838.131	21747
838.269	21732
838.406	21724
838.544	21686
838.681	21504
838.819	21283
838.956	21154
839.094	21169
839.231	21241
839.369	21386
839.506	21637
839.643	21473
839.781	21222
839.918	21161
840.055	21188
840.193	21180
840.33	21093
840.467	21188
840.604	21264
840.742	21435
840.879	21009
841.016	21150
841.153	21020
841.29	21252
841.427	21123
841.564	21096
841.701	21112
841.838	20990
841.975	20868
842.112	20933
842.249	20883
842.385	20849
842.522	21024
842.659	20925
842.796	20880
842.933	20872
843.069	20838
843.206	20804
843.343	20937
843.479	20834
843.616	20864
843.752	20727
843.889	20579
844.025	20746
844.162	20743
844.298	20781
844.435	20613
844.571	20579
844.708	20602
844.844	20697
844.98	20765
845.117	20743
845.253	20674
845.389	20579
845.525	20484
845.661	20480
845.798	20549
845.934	20724
846.07	20590
846.206	20609
846.342	20648
846.478	20552
846.614	20244
846.75	20103
846.886	20062
847.022	20145
847.158	20069
847.294	20058
847.429	20096
847.565	20050
847.701	20290
847.837	19795
847.972	19818
848.108	19906
848.244	19742
848.379	19670
848.515	19746
848.65	19639
848.786	19628
848.921	19727
849.057	19788
849.192	19795
849.328	19643
849.463	19616
849.598	19594
849.734	19495
849.869	19499
850.004	19411
850.14	19354
850.275	19415
850.41	19263
850.545	19339
850.68	19411
850.815	19312
850.95	19324
851.085	19460
851.22	19434
851.355	19388
851.49	19312
851.625	19407
851.76	19259
851.895	19247
852.03	19206
852.165	19301
852.299	19331
852.434	19331
852.569	19354
852.703	19308
852.838	19472
852.973	19575
853.107	19460
853.242	19293
853.376	19232
853.511	19042
853.645	19190
853.78	19259
853.914	19099
854.048	19133
854.183	19103
854.317	19202
854.451	19308
854.585	19107
854.72	19148
854.854	19122
854.988	19065
855.122	19251
855.256	18890
855.39	19141
855.524	19183
855.658	19164
855.792	19194
855.926	19103
856.06	19183
856.194	19301
856.327	19137
856.461	19004
856.595	18981
856.729	19103
856.862	19236
856.996	19236
857.13	19103
857.263	19297
857.397	19179
857.53	19187
857.664	19110
857.797	19217
857.931	19171
858.064	19160
858.197	19221
858.331	19084
858.464	18981
858.597	18859
858.731	19061
858.864	19057
858.997	19042
859.13	19137
859.263	19175
859.396	19175
859.529	18970
859.662	19126
859.795	19046
859.928	19190
860.061	19187
860.194	19240
860.327	19118
860.46	18996
860.592	19187
860.725	19217
860.858	19126
860.99	18996
861.123	18993
861.256	18943
861.388	19099
861.521	19620
861.653	19057
861.786	18958
861.918	18947
862.05	19023
862.183	19107
862.315	19137
862.447	19168
862.58	19004
862.712	18852
862.844	18848
862.976	18817
863.108	18909
863.24	19175
863.372	18707
863.504	18817
863.636	18722
863.768	18894
863.9	18749
864.032	18650
864.164	18696
864.296	18791
864.428	18825
864.559	18897
864.691	18928
864.823	18798
864.954	18776
865.086	18753
865.217	18741
865.349	18734
865.48	18707
865.612	18700
865.743	18753
865.875	18719
866.006	18726
866.137	18654
866.269	18654
866.4	18787
866.531	18688
866.662	18707
866.793	18669
866.924	18665
867.055	18734
867.186	18681
867.317	18658
867.448	18574
867.579	18616
867.71	18585
867.841	18563
867.972	18715
868.103	18665
868.233	18650
868.364	18696
868.495	18703
868.625	18650
868.756	18947
868.886	18817
869.017	18856
869.147	18901
869.278	18996
869.408	18764
869.539	18814
869.669	18894
869.799	18947
869.929	18943
870.06	18905
870.19	19259
870.32	19221
870.45	19217
870.58	19198
870.71	19377
870.84	19407
870.97	19259
871.1	19236
871.23	19460
871.36	19362
871.489	19240
871.619	19346
871.749	19365
871.879	19453
872.008	19518
872.138	19396
872.267	19438
872.397	19362
872.526	19282
872.656	19320
872.785	19301
872.915	19578
873.044	19677
873.173	19510
873.303	19491
873.432	19537
873.561	19533
873.69	19521
873.819	19548
873.948	19624
874.077	19609
874.206	19422
874.335	19426
874.464	19582
874.593	19833
874.722	19712
874.851	19830
874.979	19822
875.108	19746
875.237	19727
875.365	19696
875.494	19731
875.623	19864
875.751	19742
875.88	19826
876.008	19841
876.136	19970
876.265	20183
876.393	20259
876.521	20221
876.65	20149
876.778	20191
876.906	20096
877.034	20164
877.162	20199
877.29	20012
877.418	20039
877.546	20168
877.674	20199
877.802	20103
877.93	20218
878.058	20046
878.185	20096
878.313	20039
878.441	20126
878.568	19989
878.696	20081
878.824	20107
878.951	20244
879.079	20423
879.206	20495
879.333	20404
879.461	20237
879.588	20362
879.715	20377
879.842	20583
879.97	20263
880.097	20111
880.224	20111
880.351	20111
880.478	19989
880.605	19993
880.732	20027
880.859	20134
880.986	19970
881.112	20039
881.239	19902
881.366	19837
881.493	19670
881.619	19525
881.746	19746
881.872	19559
881.999	19559
882.125	19578
882.252	19651
882.378	19567
882.505	19894
882.631	19559
882.757	19487
882.883	19403
883.01	19312
883.136	19392
883.262	19209
883.388	19373
883.514	19362
883.64	19445
883.766	19301
883.892	19228
884.018	19190
884.143	19373
884.269	19373
884.395	19072
884.52	19061
884.646	19152
884.772	18977
884.897	18924
885.023	19084
885.148	19133
885.274	19190
885.399	19114
885.524	18993
885.65	19034
885.775	18973
885.9	19019
886.025	19129
886.15	19065
886.275	18970
886.4	18939
886.525	19091
886.65	18886
886.775	18817
886.9	19133
887.025	19221
887.149	19027
887.274	18935
887.399	18833
887.523	18817
887.648	18738
887.773	18738
887.897	18886
888.021	18810
888.146	18661
888.27	18954
888.395	18783
888.519	18760
888.643	18814
888.767	18722
888.891	18707
889.015	18593
889.139	18658
889.263	18623
889.387	18631
889.511	18798
889.635	18642
889.759	18563
889.883	18627
890.006	18703
890.13	18696
890.254	18471
890.377	18486
890.501	18296
890.624	18311
890.748	18323
890.871	18334
890.995	17977
891.118	18030
891.241	18220
891.364	18239
891.488	18311
891.611	18190
891.734	18136
891.857	18281
891.98	18216
892.103	18273
892.226	18289
892.349	18087
892.471	17908
892.594	18144
892.717	18254
892.839	18117
892.962	18057
893.085	18182
893.207	18079
893.33	17999
893.452	18095
893.575	18087
893.697	18057
893.819	18235
893.941	18338
894.064	18235
894.186	18045
894.308	18068
894.43	18174
894.552	18338
894.674	18220
894.796	18091
894.918	18019
895.04	18079
895.161	18152
895.283	18152
895.405	18095
895.526	18213
895.648	18114
895.769	18114
895.891	18148
896.012	18152
896.134	18289
896.255	18205
896.376	18213
896.498	18136
896.619	18213
896.74	18292
896.861	18251
896.982	18521
897.103	18684
897.224	18330
897.345	18479
897.466	18285
897.587	18407
897.708	18570
897.828	18475
897.949	18346
898.07	18300
898.19	18369
898.311	18426
898.431	18327
898.552	18486
898.672	18410
898.792	18380
898.913	18517
899.033	18213
899.153	18311
899.273	18076
899.393	18251
899.513	18254
899.633	18216
899.753	18239
899.873	18095
899.993	18114
900.113	18144
900.232	18155
900.352	18129
900.472	18034
900.591	17980
900.711	17927
900.83	17954
900.95	18129
901.069	18117
901.189	17901
901.308	17794
901.427	17627
901.546	17695
901.665	17657
901.784	17638
901.904	17547
902.023	17478
902.141	17216
902.26	17162
902.379	17315
902.498	17147
902.617	17090
902.735	17098
902.854	17147
902.973	17086
903.091	16801
903.21	16793
903.328	16858
903.446	16736
903.565	16565
903.683	16649
903.801	16481
903.919	16565
904.038	16542
904.156	16367
904.274	16504
904.392	16390
904.51	16440
904.627	16337
904.745	16512
904.863	16398
904.981	16204
905.098	16116
905.216	16147
905.334	16120
905.451	15937
905.569	16082
905.686	16078
905.803	16109
905.921	15892
906.038	15968
906.155	15865
906.272	15804
906.389	15785
906.506	15576
906.623	15663
906.74	15591
906.857	15496
906.974	15557
907.091	15705
907.208	15751
907.324	15614
907.441	15424
907.557	15477
907.674	15439
907.79	15264
907.907	15233
908.023	15317
908.139	15351
908.256	15207
908.372	15100
908.488	15074
908.604	15142
908.72	14963
908.836	15055
908.952	14998
909.068	15055
909.184	15089
909.3	14925
909.415	15089
909.531	14963
909.647	14739
909.762	14746
909.878	14667
909.993	14754
910.108	14674
910.224	14670
910.339	14716
910.454	14640
910.57	14552
910.685	14431
910.8	14724
910.915	14693
911.03	14549
911.145	14381
911.259	14332
911.374	14290
911.489	14317
911.604	14237
911.718	14103
911.833	14077
911.947	14005
912.062	13944
912.176	14050
912.291	14149
912.405	14172
912.519	14278
912.633	14263
912.748	14107
912.862	14050
912.976	13993
913.09	13818
913.204	13807
913.318	13906
913.431	13947
913.545	13978
913.659	13982
913.772	13993
913.886	13769
914	13818
914.113	13833
914.226	13883
914.34	13864
914.453	13670
914.566	13727
914.68	13681
914.793	13666
914.906	13457
915.019	13441
915.132	13354
915.245	13449
915.358	13419
915.47	13483
915.583	13460
915.696	13487
915.809	13480
915.921	13571
916.034	13426
916.146	13263
916.259	13331
916.371	13369
916.483	13365
916.595	13187
916.708	13327
916.82	13301
916.932	13327
917.044	13217
917.156	13194
917.268	13133
917.38	13152
917.491	13061
917.603	13122
917.715	13206
917.826	13255
917.938	13095
918.049	12989
918.161	13061
918.272	13171
918.384	13202
918.495	13091
918.606	12973
918.717	12795
918.828	12863
918.939	12935
919.05	12795
919.161	12859
919.272	12654
919.383	12719
919.494	12867
919.604	12996
919.715	12935
919.826	12795
919.936	12802
920.047	12993
920.157	12825
920.267	13091
920.378	12856
920.488	12886
920.598	12996
920.708	13126
920.818	12989
920.928	12985
921.038	13190
921.148	13050
921.258	12821
921.368	12738
921.477	12623
921.587	12566
921.697	12536
921.806	12585
921.916	12620
922.025	12319
922.134	12308
922.244	12232
922.353	12338
922.462	12178
922.571	12030
922.68	12057
922.789	11977
922.898	11973
923.007	11950
923.116	11999
923.224	11855
923.333	11908
923.442	11771
923.55	11726
923.659	11794
923.767	11882
923.876	11737
923.984	11863
924.092	11676
924.201	11764
924.309	11836
924.417	11691
924.525	11649
924.633	11627
924.741	12623
924.849	11501
924.956	11604
925.064	11482
925.172	11395
925.279	11478
925.387	11467
925.494	11444
925.602	11528
925.709	11524
925.816	11379
925.924	11414
926.031	11528
926.138	11471
926.245	11482
926.352	11391
926.459	11444
926.566	11425
926.673	11383
926.779	11170
926.886	11345
926.993	11143
927.099	11132
927.206	11014
927.312	11022
927.419	11136
927.525	11014
927.631	11037
927.737	10942
927.843	10930
927.95	10786
928.056	10873
928.162	10858
928.267	10896
928.373	11543
928.479	10987
928.585	10809
928.69	10915
928.796	10805
928.901	10774
929.007	10641
929.112	10771
929.218	10755
929.323	10691
929.428	10569
929.533	10839
929.638	10634
929.743	10584
929.848	10660
929.953	10615
930.058	10542
930.163	10474
930.267	10424
930.372	10561
930.477	10432
930.581	10535
930.685	10470
930.79	10306
930.894	10284
930.998	10268
931.103	10379
931.207	9975
931.311	10013
931.415	9911
931.519	9701
931.623	9660
