Data from test_V78500241_1282.txt Node
Date: Fri Mar 25 14:42:38 CST 2022
User: usil
Spectrometer: V785-0024
Trigger mode: 0
Integration Time (sec): 4.000000E-1
Scans to average: 1
Nonlinearity correction enabled: false
Boxcar width: 0
Storing dark spectrum: false
XAxis mode: Wavelengths
Number of Pixels in Spectrum: 1024
>>>>>Begin Spectral Data<<<<<
801.071	22523
801.214	22181
801.356	22109
801.499	21884
801.641	21728
801.783	21778
801.926	21739
802.068	21641
802.211	21637
802.353	21568
802.496	21344
802.638	21211
802.78	21222
802.923	21226
803.065	21146
803.208	21100
803.35	21017
803.492	21096
803.635	21351
803.777	21116
803.919	21104
804.061	21477
804.204	21116
804.346	20979
804.488	21024
804.63	21036
804.773	21032
804.915	21066
805.057	21161
805.199	21047
805.341	21184
805.483	21165
805.626	21127
805.768	20990
805.91	20979
806.052	21001
806.194	20868
806.336	21100
806.478	20956
806.62	21062
806.762	21100
806.904	21161
807.046	21420
807.188	21370
807.33	21363
807.472	21511
807.614	21363
807.756	21401
807.898	21230
808.04	21017
808.182	21154
808.324	21123
808.465	21268
808.607	21428
808.749	21663
808.891	21690
809.033	21732
809.174	21682
809.316	21538
809.458	21466
809.6	21378
809.741	21443
809.883	21405
810.025	21595
810.166	21610
810.308	21625
810.45	21553
810.591	21321
810.733	21397
810.875	21370
811.016	21180
811.158	21142
811.299	21264
811.441	21378
811.582	21359
811.724	21180
811.865	21218
812.007	21173
812.148	21081
812.29	21264
812.431	21428
812.573	21458
812.714	21496
812.855	21660
812.997	21686
813.138	21785
813.279	21819
813.421	21838
813.562	21644
813.703	21450
813.845	21363
813.986	21081
814.127	20868
814.268	20815
814.41	20705
814.551	20701
814.692	20842
814.833	20648
814.974	20686
815.115	20762
815.256	20552
815.397	20533
815.539	20629
815.68	20484
815.821	20389
815.962	20541
816.103	20393
816.244	20385
816.385	20183
816.526	20336
816.666	20012
816.807	19868
816.948	20027
817.089	19993
817.23	19997
817.371	19894
817.512	19951
817.653	19913
817.793	19917
817.934	19875
818.075	19909
818.216	19784
818.356	19780
818.497	19871
818.638	19480
818.778	19521
818.919	19601
819.06	19613
819.2	19712
819.341	19826
819.481	19723
819.622	19936
819.762	20157
819.903	20107
820.043	19917
820.184	19982
820.324	19940
820.465	19822
820.605	19807
820.746	19887
820.886	19681
821.026	19799
821.167	19727
821.307	19909
821.447	19746
821.588	19658
821.728	19586
821.868	19419
822.008	19270
822.149	19320
822.289	19190
822.429	18977
822.569	18970
822.709	18875
822.849	18707
822.99	18783
823.13	18821
823.27	18711
823.41	18551
823.55	18612
823.69	18536
823.83	18563
823.97	18509
824.11	18380
824.25	18292
824.389	18365
824.529	18437
824.669	18502
824.809	18585
824.949	18388
825.089	18509
825.228	18380
825.368	18140
825.508	18095
825.648	18270
825.787	18163
825.927	18251
826.067	18133
826.206	18114
826.346	18178
826.485	18121
826.625	18079
826.765	18148
826.904	18205
827.044	17878
827.183	17859
827.323	17745
827.462	17771
827.601	17863
827.741	17824
827.88	17783
828.02	17726
828.159	17809
828.298	17836
828.437	17786
828.577	17748
828.716	17961
828.855	17809
828.994	17615
829.134	17558
829.273	17516
829.412	17535
829.551	17440
829.69	17562
829.829	17638
829.968	17627
830.107	17653
830.246	17646
830.385	17493
830.524	17592
830.663	17372
830.802	17345
830.941	17151
831.08	17223
831.219	17223
831.357	17349
831.496	17421
831.635	17227
831.774	17242
831.913	16946
832.051	16911
832.19	17033
832.329	16991
832.467	16839
832.606	16972
832.744	16877
832.883	16930
833.022	16892
833.16	17010
833.299	16961
833.437	16968
833.576	16987
833.714	16934
833.852	17056
833.991	16987
834.129	17090
834.267	16942
834.406	16927
834.544	17014
834.682	16999
834.821	16991
834.959	17132
835.097	16957
835.235	17006
835.373	16995
835.511	16889
835.65	16904
835.788	16869
835.926	16706
836.064	16740
836.202	16660
836.34	16816
836.478	16908
836.615	16858
836.753	16862
836.891	16984
837.029	16908
837.167	16938
837.305	16854
837.443	16778
837.58	16664
837.718	16740
837.856	16801
837.993	16763
838.131	16733
838.269	16725
838.406	16672
838.544	16558
838.681	16485
838.819	16432
838.956	16200
839.094	16310
839.231	16329
839.369	16485
839.506	16691
839.643	16485
839.781	16246
839.918	16249
840.055	16363
840.193	16295
840.33	16306
840.467	16318
840.604	16276
840.742	16611
840.879	16207
841.016	16185
841.153	16192
841.29	16398
841.427	16276
841.564	16337
841.701	16276
841.838	16261
841.975	16226
842.112	16207
842.249	16135
842.385	16051
842.522	16230
842.659	16177
842.796	16032
842.933	16071
843.069	15930
843.206	16055
843.343	16116
843.479	15998
843.616	16059
843.752	15953
843.889	15804
844.025	16029
844.162	15884
844.298	15869
844.435	15793
844.571	15819
844.708	15884
844.844	16017
844.98	16036
845.117	16013
845.253	15865
845.389	15865
845.525	15808
845.661	15846
845.798	15736
845.934	15899
846.07	15785
846.206	15892
846.342	15899
846.478	15785
846.614	15519
846.75	15530
846.886	15393
847.022	15447
847.158	15424
847.294	15401
847.429	15507
847.565	15370
847.701	15625
847.837	15211
847.972	15055
848.108	15203
848.244	15211
848.379	15047
848.515	15070
848.65	14937
848.786	14963
848.921	15081
849.057	15116
849.192	15146
849.328	15055
849.463	15020
849.598	14994
849.734	14864
849.869	14842
850.004	14838
850.14	14815
850.275	14746
850.41	14663
850.545	14765
850.68	14746
850.815	14842
850.95	14857
851.085	14998
851.22	14906
851.355	14785
851.49	14754
851.625	14731
851.76	14792
851.895	14610
852.03	14640
852.165	14765
852.299	14769
852.434	14811
852.569	14933
852.703	14804
852.838	14785
852.973	14990
853.107	14944
853.242	14682
853.376	14530
853.511	14537
853.645	14617
853.78	14819
853.914	14644
854.048	14701
854.183	14552
854.317	14594
854.451	14777
854.585	14594
854.72	14575
854.854	14640
854.988	14579
855.122	14708
855.256	14438
855.39	14552
855.524	14750
855.658	14670
855.792	14716
855.926	14629
856.06	14697
856.194	14720
856.327	14678
856.461	14583
856.595	14655
856.729	14640
856.862	14739
856.996	14731
857.13	14648
857.263	14792
857.397	14807
857.53	14701
857.664	14625
857.797	14731
857.931	14701
858.064	14674
858.197	14746
858.331	14644
858.464	14663
858.597	14568
858.731	14629
858.864	14617
858.997	14617
859.13	14655
859.263	14785
859.396	14792
859.529	14598
859.662	14606
859.795	14644
859.928	14640
860.061	14796
860.194	14819
860.327	14663
860.46	14686
860.592	14781
860.725	14769
860.858	14708
860.99	14606
861.123	14568
861.256	14610
861.388	14625
861.521	15359
861.653	14492
861.786	14385
861.918	14415
862.05	14552
862.183	14617
862.315	14644
862.447	14712
862.58	14613
862.712	14412
862.844	14404
862.976	14488
863.108	14480
863.24	14720
863.372	14332
863.504	14415
863.636	14434
863.768	14328
863.9	14328
864.032	14332
864.164	14278
864.296	14537
864.428	14503
864.559	14454
864.691	14492
864.823	14461
864.954	14473
865.086	14434
865.217	14351
865.349	14431
865.48	14450
865.612	14351
865.743	14587
865.875	14454
866.006	14442
866.137	14442
866.269	14415
866.4	14450
866.531	14301
866.662	14286
866.793	14358
866.924	14336
867.055	14511
867.186	14476
867.317	14298
867.448	14328
867.579	14309
867.71	14278
867.841	14199
867.972	14423
868.103	14389
868.233	14488
868.364	14404
868.495	14556
868.625	14659
868.756	14682
868.886	14560
869.017	14587
869.147	14663
869.278	14735
869.408	14663
869.539	14636
869.669	14750
869.799	14727
869.929	14830
870.06	14727
870.19	14921
870.32	14986
870.45	14986
870.58	14979
870.71	15165
870.84	15207
870.97	15055
871.1	15017
871.23	15176
871.36	15230
871.489	15112
871.619	15169
871.749	15218
871.879	15294
872.008	15264
872.138	15283
872.267	15150
872.397	15081
872.526	15047
872.656	15039
872.785	15123
872.915	15233
873.044	15310
873.173	15222
873.303	15336
873.432	15306
873.561	15302
873.69	15317
873.819	15207
873.948	15283
874.077	15313
874.206	15389
874.335	15272
874.464	15408
874.593	15526
874.722	15538
874.851	15580
874.979	15629
875.108	15606
875.237	15599
875.365	15469
875.494	15526
875.623	15660
875.751	15538
875.88	15599
876.008	15831
876.136	15865
876.265	16071
876.393	16147
876.521	16048
876.65	16101
876.778	16120
876.906	16002
877.034	15899
877.162	16090
877.29	15945
877.418	16116
877.546	15895
877.674	16078
877.802	15968
877.93	16135
878.058	15960
878.185	15850
878.313	15968
878.441	16048
878.568	15899
878.696	16063
878.824	15991
878.951	16101
879.079	16242
879.206	16459
879.333	16196
879.461	16204
879.588	16196
879.715	16265
879.842	16398
879.97	16238
880.097	15899
880.224	16002
880.351	15895
880.478	15838
880.605	15831
880.732	15884
880.859	16010
880.986	15892
881.112	15968
881.239	15835
881.366	15591
881.493	15644
881.619	15458
881.746	15424
881.872	15587
881.999	15507
882.125	15450
882.252	15599
882.378	15526
882.505	15641
882.631	15576
882.757	15408
882.883	15389
883.01	15287
883.136	15336
883.262	15245
883.388	15287
883.514	15378
883.64	15477
883.766	15298
883.892	15268
884.018	15260
884.143	15340
884.269	15401
884.395	15108
884.52	15020
884.646	14998
884.772	14986
884.897	14895
885.023	15077
885.148	15245
885.274	15104
885.399	15146
885.524	15127
885.65	15047
885.775	15135
885.9	15024
886.025	15161
886.15	15062
886.275	15013
886.4	14933
886.525	15001
886.65	14952
886.775	15032
886.9	15203
887.025	15325
887.149	14975
887.274	14918
887.399	14773
887.523	14727
887.648	14792
887.773	14788
887.897	14891
888.021	15017
888.146	14834
888.27	15020
888.395	14982
888.519	14910
888.643	14914
888.767	14925
888.891	14861
889.015	14735
889.139	14811
889.263	14651
889.387	14830
889.511	14906
889.635	14807
889.759	14583
889.883	14762
890.006	14678
890.13	14857
890.254	14598
890.377	14754
890.501	14579
890.624	14492
890.748	14621
890.871	14473
890.995	14389
891.118	14339
891.241	14389
891.364	14427
891.488	14507
891.611	14404
891.734	14499
891.857	14541
891.98	14476
892.103	14454
892.226	14442
892.349	14336
892.471	14248
892.594	14374
892.717	14461
892.839	14408
892.962	14469
893.085	14488
893.207	14374
893.33	14252
893.452	14301
893.575	14438
893.697	14355
893.819	14541
893.941	14606
894.064	14495
894.186	14324
894.308	14393
894.43	14507
894.552	14598
894.674	14461
894.796	14415
894.918	14423
895.04	14396
895.161	14629
895.283	14438
895.405	14495
895.526	14602
895.648	14400
895.769	14560
895.891	14598
896.012	14754
896.134	14590
896.255	14663
896.376	14511
896.498	14434
896.619	14648
896.74	14556
896.861	14682
896.982	14899
897.103	15013
897.224	14941
897.345	14777
897.466	14716
897.587	14925
897.708	14929
897.828	14887
897.949	14724
898.07	14648
898.19	14769
898.311	14952
898.431	14864
898.552	14906
898.672	14902
898.792	15001
898.913	14914
899.033	14929
899.153	14693
899.273	14636
899.393	14804
899.513	14788
899.633	14746
899.753	14705
899.873	14746
899.993	14788
900.113	14758
900.232	14735
900.352	14826
900.472	14636
900.591	14396
900.711	14716
900.83	14606
900.95	14705
901.069	14731
901.189	14613
901.308	14480
901.427	14328
901.546	14290
901.665	14309
901.784	14317
901.904	14237
902.023	14157
902.141	13925
902.26	13837
902.379	13921
902.498	13875
902.617	13750
902.735	13898
902.854	13742
902.973	13780
903.091	13559
903.21	13643
903.328	13567
903.446	13502
903.565	13510
903.683	13457
903.801	13335
903.919	13403
904.038	13453
904.156	13209
904.274	13266
904.392	13244
904.51	13244
904.627	13183
904.745	13225
904.863	13228
904.981	13031
905.098	12962
905.216	12814
905.334	13027
905.451	12993
905.569	12958
905.686	12958
905.803	12935
905.921	12734
906.038	12749
906.155	12760
906.272	12635
906.389	12650
906.506	12544
906.623	12551
906.74	12509
906.857	12361
906.974	12422
907.091	12658
907.208	12688
907.324	12608
907.441	12407
907.557	12205
907.674	12213
907.79	12167
907.907	12167
908.023	12254
908.139	12319
908.256	12182
908.372	12148
908.488	12182
908.604	11969
908.72	11954
908.836	12030
908.952	11935
909.068	12038
909.184	12167
909.3	12076
909.415	12144
909.531	11923
909.647	11786
909.762	11748
909.878	11722
909.993	11676
910.108	11809
910.224	11786
910.339	11741
910.454	11649
910.57	11585
910.685	11562
910.8	11897
910.915	11824
911.03	11718
911.145	11417
911.259	11532
911.374	11391
911.489	11444
911.604	11402
911.718	11273
911.833	11166
911.947	11098
912.062	11086
912.176	11204
912.291	11151
912.405	11280
912.519	11486
912.633	11368
912.748	11296
912.862	11265
912.976	11037
913.09	11029
913.204	11109
913.318	11143
913.431	11109
913.545	11189
913.659	11181
913.772	11071
913.886	11025
914	10953
914.113	11022
914.226	11094
914.34	11064
914.453	10892
914.566	11052
914.68	10900
914.793	10896
914.906	10698
915.019	10774
915.132	10615
915.245	10634
915.358	10683
915.47	10717
915.583	10759
915.696	10809
915.809	10858
915.921	10873
916.034	10691
916.146	10630
916.259	10664
916.371	10797
916.483	10778
916.595	10603
916.708	10645
916.82	10668
916.932	10584
917.044	10607
917.156	10592
917.268	10500
917.38	10569
917.491	10554
917.603	10550
917.715	10573
917.826	10577
917.938	10558
918.049	10428
918.161	10588
918.272	10634
918.384	10637
918.495	10653
918.606	10386
918.717	10367
918.828	10443
918.939	10440
919.05	10272
919.161	10390
919.272	10150
919.383	10318
919.494	10523
919.604	10580
919.715	10382
919.826	10375
919.936	10341
920.047	10512
920.157	10440
920.267	10691
920.378	10447
920.488	10470
920.598	10558
920.708	10748
920.818	10573
920.928	10618
921.038	10752
921.148	10805
921.258	10421
921.368	10356
921.477	10280
921.587	10261
921.697	10169
921.806	10303
921.916	10169
922.025	10032
922.134	10010
922.244	9903
922.353	9956
922.462	9865
922.571	9751
922.68	9614
922.789	9641
922.898	9660
923.007	9644
923.116	9686
923.224	9698
923.333	9584
923.442	9561
923.55	9447
923.659	9507
923.767	9629
923.876	9507
923.984	9572
924.092	9538
924.201	9576
924.309	9469
924.417	9523
924.525	9500
924.633	9507
924.741	10337
924.849	9310
924.956	9477
925.064	9317
925.172	9279
925.279	9332
925.387	9370
925.494	9317
925.602	9424
925.709	9397
925.816	9332
925.924	9283
926.031	9458
926.138	9370
926.245	9431
926.352	9199
926.459	9336
926.566	9389
926.673	9279
926.779	9294
926.886	9222
926.993	9146
927.099	9089
927.206	9024
927.312	8994
927.419	9108
927.525	9009
927.631	9150
927.737	8979
927.843	8868
927.95	8948
928.056	8921
928.162	8967
928.267	9009
928.373	9709
928.479	8986
928.585	8857
928.69	8910
928.796	8944
928.901	8811
929.007	8746
929.112	8849
929.218	8811
929.323	8785
929.428	8716
929.533	8872
929.638	8750
929.743	8689
929.848	8823
929.953	8746
930.058	8705
930.163	8545
930.267	8621
930.372	8663
930.477	8518
930.581	8670
930.685	8590
930.79	8427
930.894	8423
930.998	8457
931.103	8575
931.207	8267
931.311	8229
931.415	8161
931.519	7982
931.623	7894
