Data from test_V78500241_2349.txt Node
Date: Fri Mar 25 14:50:04 CST 2022
User: usil
Spectrometer: V785-0024
Trigger mode: 0
Integration Time (sec): 4.000000E-1
Scans to average: 1
Nonlinearity correction enabled: false
Boxcar width: 0
Storing dark spectrum: false
XAxis mode: Wavelengths
Number of Pixels in Spectrum: 1024
>>>>>Begin Spectral Data<<<<<
801.071	22211
801.214	22010
801.356	21675
801.499	21622
801.641	21538
801.783	21641
801.926	21606
802.068	21507
802.211	21329
802.353	21351
802.496	21055
802.638	20952
802.78	20998
802.923	20960
803.065	20815
803.208	20746
803.35	20929
803.492	20937
803.635	20902
803.777	20830
803.919	20902
804.061	21218
804.204	20880
804.346	20804
804.488	20712
804.63	20864
804.773	20750
804.915	20743
805.057	20807
805.199	20849
805.341	20902
805.483	20830
805.626	20754
805.768	20743
805.91	20735
806.052	20792
806.194	20701
806.336	21013
806.478	20716
806.62	20648
806.762	20891
806.904	21096
807.046	21100
807.188	21150
807.33	21127
807.472	21237
807.614	21081
807.756	21112
807.898	20864
808.04	20781
808.182	20826
808.324	20849
808.465	20868
808.607	21058
808.749	21085
808.891	21173
809.033	21214
809.174	21310
809.316	21222
809.458	21180
809.6	21119
809.741	21195
809.883	21252
810.025	21260
810.166	21344
810.308	21302
810.45	21291
810.591	21173
810.733	21009
810.875	20880
811.016	20758
811.158	20891
811.299	20975
811.441	20994
811.582	21039
811.724	20910
811.865	20781
812.007	20868
812.148	20910
812.29	20902
812.431	21176
812.573	21165
812.714	21252
812.855	21469
812.997	21447
813.138	21705
813.279	21583
813.421	21507
813.562	21268
813.703	21233
813.845	21127
813.986	20651
814.127	20549
814.268	20518
814.41	20564
814.551	20305
814.692	20651
814.833	20374
814.974	20374
815.115	20454
815.256	20256
815.397	20301
815.539	20199
815.68	20172
815.821	20126
815.962	20233
816.103	20077
816.244	19970
816.385	20001
816.526	19955
816.666	19765
816.807	19586
816.948	19742
817.089	19731
817.23	19704
817.371	19647
817.512	19674
817.653	19590
817.793	19693
817.934	19590
818.075	19624
818.216	19624
818.356	19575
818.497	19381
818.638	19274
818.778	19247
818.919	19316
819.06	19381
819.2	19308
819.341	19514
819.481	19460
819.622	19578
819.762	19845
819.903	19712
820.043	19677
820.184	19624
820.324	19578
820.465	19677
820.605	19594
820.746	19552
820.886	19396
821.026	19460
821.167	19533
821.307	19537
821.447	19460
821.588	19354
821.728	19316
821.868	19129
822.008	19000
822.149	18852
822.289	18973
822.429	18798
822.569	18677
822.709	18726
822.849	18582
822.99	18369
823.13	18471
823.27	18395
823.41	18292
823.55	18311
823.69	18369
823.83	18197
823.97	18197
824.11	18049
824.25	18003
824.389	18030
824.529	18095
824.669	18095
824.809	18045
824.949	18087
825.089	18114
825.228	17992
825.368	17828
825.508	17824
825.648	17752
825.787	17954
825.927	17882
826.067	17771
826.206	17805
826.346	17847
826.485	17767
826.625	17813
826.765	17863
826.904	17805
827.044	17615
827.183	17653
827.323	17501
827.462	17585
827.601	17501
827.741	17387
827.88	17448
828.02	17307
828.159	17471
828.298	17532
828.437	17611
828.577	17452
828.716	17562
828.855	17463
828.994	17212
829.134	17345
829.273	17387
829.412	17136
829.551	17109
829.69	17315
829.829	17258
829.968	17280
830.107	17391
830.246	17254
830.385	17193
830.524	17223
830.663	17067
830.802	17037
830.941	16854
831.08	16847
831.219	16984
831.357	16991
831.496	17102
831.635	16847
831.774	16771
831.913	16774
832.051	16687
832.19	16736
832.329	16637
832.467	16584
832.606	16588
832.744	16512
832.883	16500
833.022	16500
833.16	16618
833.299	16615
833.437	16668
833.576	16584
833.714	16611
833.852	16687
833.991	16656
834.129	16645
834.267	16622
834.406	16637
834.544	16687
834.682	16561
834.821	16500
834.959	16831
835.097	16478
835.235	16622
835.373	16634
835.511	16626
835.65	16500
835.788	16535
835.926	16421
836.064	16424
836.202	16272
836.34	16599
836.478	16641
836.615	16542
836.753	16535
836.891	16649
837.029	16577
837.167	16440
837.305	16379
837.443	16405
837.58	16344
837.718	16405
837.856	16428
837.993	16211
838.131	16341
838.269	16219
838.406	16242
838.544	16200
838.681	16021
838.819	16078
838.956	15892
839.094	15838
839.231	15918
839.369	16021
839.506	16238
839.643	16112
839.781	15842
839.918	15869
840.055	15922
840.193	15953
840.33	15812
840.467	15869
840.604	15922
840.742	16177
840.879	15854
841.016	15854
841.153	15793
841.29	16036
841.427	15937
841.564	15876
841.701	15926
841.838	15812
841.975	15747
842.112	15850
842.249	15663
842.385	15633
842.522	15888
842.659	15663
842.796	15625
842.933	15800
843.069	15637
843.206	15671
843.343	15717
843.479	15831
843.616	15709
843.752	15454
843.889	15496
844.025	15534
844.162	15431
844.298	15564
844.435	15386
844.571	15447
844.708	15462
844.844	15671
844.98	15622
845.117	15530
845.253	15336
845.389	15405
845.525	15428
845.661	15340
845.798	15180
845.934	15291
846.07	15135
846.206	15294
846.342	15363
846.478	15203
846.614	15157
846.75	15051
846.886	15017
847.022	15077
847.158	15039
847.294	15138
847.429	15017
847.565	14994
847.701	15317
847.837	14800
847.972	14739
848.108	14762
848.244	14826
848.379	14712
848.515	14594
848.65	14689
848.786	14701
848.921	14587
849.057	14674
849.192	14773
849.328	14750
849.463	14625
849.598	14678
849.734	14511
849.869	14404
850.004	14488
850.14	14518
850.275	14366
850.41	14374
850.545	14427
850.68	14305
850.815	14461
850.95	14355
851.085	14579
851.22	14613
851.355	14454
851.49	14298
851.625	14370
851.76	14362
851.895	14252
852.03	14244
852.165	14469
852.299	14446
852.434	14522
852.569	14454
852.703	14450
852.838	14518
852.973	14461
853.107	14480
853.242	14324
853.376	14240
853.511	14092
853.645	14244
853.78	14427
853.914	14229
854.048	14328
854.183	14164
854.317	14358
854.451	14381
854.585	14126
854.72	14275
854.854	14267
854.988	14092
855.122	14210
855.256	14088
855.39	14278
855.524	14332
855.658	14202
855.792	14305
855.926	14161
856.06	14317
856.194	14465
856.327	14248
856.461	14233
856.595	14237
856.729	14252
856.862	14450
856.996	14275
857.13	14278
857.263	14393
857.397	14412
857.53	14252
857.664	14320
857.797	14320
857.931	14362
858.064	14343
858.197	14366
858.331	14282
858.464	14225
858.597	14153
858.731	14305
858.864	14298
858.997	14225
859.13	14339
859.263	14324
859.396	14400
859.529	14229
859.662	14252
859.795	14218
859.928	14202
860.061	14385
860.194	14499
860.327	14305
860.46	14343
860.592	14358
860.725	14476
860.858	14328
860.99	14317
861.123	14210
861.256	14256
861.388	14328
861.521	14804
861.653	14180
861.786	14046
861.918	14183
862.05	14248
862.183	14202
862.315	14290
862.447	14244
862.58	14157
862.712	14016
862.844	13967
862.976	14046
863.108	14168
863.24	14347
863.372	13955
863.504	13982
863.636	14027
863.768	14016
863.9	14035
864.032	14027
864.164	14016
864.296	14115
864.428	14221
864.559	14119
864.691	14134
864.823	14065
864.954	13963
865.086	14183
865.217	14001
865.349	13974
865.48	14001
865.612	14077
865.743	14092
865.875	14046
866.006	13940
866.137	14062
866.269	14035
866.4	13963
866.531	14035
866.662	13871
866.793	13871
866.924	13989
867.055	14062
867.186	13997
867.317	13997
867.448	13856
867.579	13932
867.71	13890
867.841	13963
867.972	14035
868.103	14020
868.233	14054
868.364	14024
868.495	14126
868.625	14183
868.756	14419
868.886	14218
869.017	14320
869.147	14377
869.278	14434
869.408	14225
869.539	14290
869.669	14442
869.799	14389
869.929	14374
870.06	14389
870.19	14651
870.32	14442
870.45	14682
870.58	14693
870.71	14758
870.84	14743
870.97	14693
871.1	14689
871.23	14773
871.36	14956
871.489	14777
871.619	14792
871.749	14868
871.879	14845
872.008	15017
872.138	14948
872.267	14887
872.397	14781
872.526	14682
872.656	14739
872.785	14705
872.915	14910
873.044	14960
873.173	14918
873.303	14868
873.432	14929
873.561	15066
873.69	14895
873.819	14899
873.948	15017
874.077	14948
874.206	14811
874.335	14941
874.464	15112
874.593	15291
874.722	15138
874.851	15348
874.979	15275
875.108	15298
875.237	15138
875.365	15146
875.494	15184
875.623	15264
875.751	15150
875.88	15287
876.008	15321
876.136	15435
876.265	15675
876.393	15831
876.521	15724
876.65	15614
876.778	15705
876.906	15587
877.034	15648
877.162	15538
877.29	15488
877.418	15660
877.546	15625
877.674	15625
877.802	15595
877.93	15682
878.058	15667
878.185	15591
878.313	15739
878.441	15709
878.568	15519
878.696	15660
878.824	15625
878.951	15606
879.079	15876
879.206	16017
879.333	15759
879.461	15686
879.588	15633
879.715	15823
879.842	15956
879.97	15656
880.097	15545
880.224	15462
880.351	15568
880.478	15488
880.605	15500
880.732	15473
880.859	15679
880.986	15530
881.112	15572
881.239	15306
881.366	15302
881.493	15165
881.619	15097
881.746	15195
881.872	15161
881.999	15123
882.125	15024
882.252	15275
882.378	15093
882.505	15412
882.631	15135
882.757	15070
882.883	15131
883.01	15009
883.136	14883
883.262	14811
883.388	14815
883.514	15013
883.64	15074
883.766	14963
883.892	14838
884.018	14853
884.143	14941
884.269	15070
884.395	14750
884.52	14674
884.646	14720
884.772	14632
884.897	14583
885.023	14663
885.148	14708
885.274	14819
885.399	14823
885.524	14712
885.65	14606
885.775	14689
885.9	14556
886.025	14838
886.15	14686
886.275	14682
886.4	14606
886.525	14762
886.65	14602
886.775	14667
886.9	14857
887.025	14883
887.149	14785
887.274	14522
887.399	14457
887.523	14396
887.648	14454
887.773	14377
887.897	14644
888.021	14594
888.146	14488
888.27	14598
888.395	14750
888.519	14511
888.643	14587
888.767	14590
888.891	14427
889.015	14381
889.139	14423
889.263	14412
889.387	14495
889.511	14560
889.635	14549
889.759	14332
889.883	14317
890.006	14412
890.13	14469
890.254	14263
890.377	14355
890.501	14187
890.624	14237
890.748	14267
890.871	14126
890.995	13978
891.118	14020
891.241	14020
891.364	14031
891.488	14256
891.611	14024
891.734	14058
891.857	14149
891.98	14142
892.103	14168
892.226	14073
892.349	14069
892.471	13974
892.594	14084
892.717	14134
892.839	14016
892.962	14077
893.085	14157
893.207	14077
893.33	13970
893.452	13986
893.575	14138
893.697	14145
893.819	14252
893.941	14259
894.064	14256
894.186	14081
894.308	14031
894.43	14263
894.552	14298
894.674	14191
894.796	14134
894.918	14103
895.04	14054
895.161	14218
895.283	14138
895.405	14172
895.526	14142
895.648	14199
895.769	14210
895.891	14290
896.012	14324
896.134	14256
896.255	14252
896.376	14195
896.498	14267
896.619	14229
896.74	14286
896.861	14191
896.982	14571
897.103	14785
897.224	14522
897.345	14450
897.466	14484
897.587	14473
897.708	14708
897.828	14575
897.949	14442
898.07	14454
898.19	14408
898.311	14674
898.431	14495
898.552	14644
898.672	14735
898.792	14804
898.913	14560
899.033	14530
899.153	14492
899.273	14396
899.393	14492
899.513	14518
899.633	14370
899.753	14431
899.873	14488
899.993	14492
900.113	14526
900.232	14511
900.352	14400
900.472	14366
900.591	14138
900.711	14343
900.83	14309
900.95	14465
901.069	14400
901.189	14229
901.308	13894
901.427	14062
901.546	13944
901.665	14073
901.784	13944
901.904	13883
902.023	13811
902.141	13655
902.26	13693
902.379	13651
902.498	13647
902.617	13381
902.735	13643
902.854	13514
902.973	13525
903.091	13316
903.21	13327
903.328	13350
903.446	13274
903.565	13225
903.683	13149
903.801	13000
903.919	13152
904.038	13034
904.156	12935
904.274	13061
904.392	12871
904.51	12859
904.627	12935
904.745	13061
904.863	13091
904.981	12817
905.098	12700
905.216	12623
905.334	12700
905.451	12688
905.569	12616
905.686	12566
905.803	12589
905.921	12448
906.038	12566
906.155	12395
906.272	12407
906.389	12376
906.506	12239
906.623	12247
906.74	12239
906.857	12053
906.974	12163
907.091	12273
907.208	12407
907.324	12270
907.441	12133
907.557	11885
907.674	11958
907.79	11984
907.907	11931
908.023	12057
908.139	11992
908.256	11863
908.372	11939
908.488	11939
908.604	11798
908.72	11737
908.836	11783
908.952	11752
909.068	11752
909.184	11908
909.3	11684
909.415	11790
909.531	11783
909.647	11497
909.762	11505
909.878	11543
909.993	11524
910.108	11539
910.224	11486
910.339	11467
910.454	11421
910.57	11315
910.685	11326
910.8	11619
910.915	11493
911.03	11356
911.145	11242
911.259	11162
911.374	11269
911.489	11128
911.604	11117
911.718	10984
911.833	10984
911.947	10824
912.062	10729
912.176	10976
912.291	10938
912.405	10942
912.519	11132
912.633	11128
912.748	11014
912.862	10968
912.976	10877
913.09	10767
913.204	10862
913.318	10889
913.431	10873
913.545	10919
913.659	10987
913.772	10896
913.886	10729
914	10706
914.113	10782
914.226	10812
914.34	10805
914.453	10683
914.566	10873
914.68	10675
914.793	10645
914.906	10481
915.019	10462
915.132	10360
915.245	10474
915.358	10538
915.47	10485
915.583	10424
915.696	10577
915.809	10664
915.921	10702
916.034	10519
916.146	10398
916.259	10440
916.371	10558
916.483	10462
916.595	10360
916.708	10440
916.82	10421
916.932	10382
917.044	10409
917.156	10421
917.268	10276
917.38	10299
917.491	10306
917.603	10280
917.715	10329
917.826	10402
917.938	10261
918.049	10128
918.161	10280
918.272	10417
918.384	10413
918.495	10413
918.606	10154
918.717	10086
918.828	10181
918.939	10211
919.05	10071
919.161	10219
919.272	9983
919.383	9998
919.494	10230
919.604	10413
919.715	10158
919.826	10097
919.936	10200
920.047	10276
920.157	10188
920.267	10405
920.378	10227
920.488	10242
920.598	10462
920.708	10497
920.818	10337
920.928	10379
921.038	10573
921.148	10523
921.258	10249
921.368	10147
921.477	10078
921.587	10067
921.697	9918
921.806	10120
921.916	9922
922.025	9846
922.134	9781
922.244	9800
922.353	9827
922.462	9682
922.571	9587
922.68	9542
922.789	9420
922.898	9469
923.007	9321
923.116	9386
923.224	9405
923.333	9416
923.442	9340
923.55	9237
923.659	9351
923.767	9397
923.876	9218
923.984	9420
924.092	9294
924.201	9336
924.309	9374
924.417	9351
924.525	9279
924.633	9264
924.741	10067
924.849	9108
924.956	9233
925.064	9119
925.172	9020
925.279	9028
925.387	9097
925.494	9150
925.602	9294
925.709	9150
925.816	9032
925.924	9104
926.031	9154
926.138	9043
926.245	9161
926.352	9055
926.459	9138
926.566	9211
926.673	9074
926.779	9017
926.886	8921
926.993	8838
927.099	8838
927.206	8766
927.312	8845
927.419	8872
927.525	8880
927.631	8910
927.737	8777
927.843	8735
927.95	8663
928.056	8701
928.162	8769
928.267	8788
928.373	9389
928.479	8731
928.585	8583
928.69	8724
928.796	8781
928.901	8587
929.007	8526
929.112	8693
929.218	8644
929.323	8537
929.428	8511
929.533	8678
929.638	8530
929.743	8526
929.848	8594
929.953	8499
930.058	8423
930.163	8263
930.267	8385
930.372	8473
930.477	8259
930.581	8537
930.685	8366
930.79	8286
930.894	8347
930.998	8244
931.103	8377
931.207	8107
931.311	7963
931.415	8001
931.519	7719
931.623	7795
