Data from test_V78500241_2744.txt Node
Date: Fri Mar 25 14:52:49 CST 2022
User: usil
Spectrometer: V785-0024
Trigger mode: 0
Integration Time (sec): 4.000000E-1
Scans to average: 1
Nonlinearity correction enabled: false
Boxcar width: 0
Storing dark spectrum: false
XAxis mode: Wavelengths
Number of Pixels in Spectrum: 1024
>>>>>Begin Spectral Data<<<<<
801.071	22006
801.214	21892
801.356	21622
801.499	21599
801.641	21405
801.783	21485
801.926	21378
802.068	21367
802.211	21184
802.353	21214
802.496	20998
802.638	20963
802.78	20785
802.923	20845
803.065	20708
803.208	20575
803.35	20663
803.492	20929
803.635	20868
803.777	20712
803.919	20743
804.061	20971
804.204	20720
804.346	20659
804.488	20552
804.63	20667
804.773	20617
804.915	20682
805.057	20727
805.199	20644
805.341	20769
805.483	20891
805.626	20762
805.768	20552
805.91	20674
806.052	20594
806.194	20571
806.336	20849
806.478	20632
806.62	20587
806.762	20785
806.904	20701
807.046	20990
807.188	20998
807.33	21100
807.472	20982
807.614	20815
807.756	20948
807.898	20731
808.04	20636
808.182	20602
808.324	20762
808.465	20758
808.607	20864
808.749	21051
808.891	21119
809.033	21230
809.174	20994
809.316	20986
809.458	20925
809.6	21005
809.741	21085
809.883	21104
810.025	21074
810.166	21138
810.308	21211
810.45	21077
810.591	21055
810.733	20925
810.875	20845
811.016	20823
811.158	20594
811.299	20891
811.441	20861
811.582	20941
811.724	20594
811.865	20727
812.007	20689
812.148	20796
812.29	20838
812.431	20948
812.573	21154
812.714	21036
812.855	21317
812.997	21424
813.138	21462
813.279	21359
813.421	21294
813.562	21214
813.703	21005
813.845	20921
813.986	20613
814.127	20514
814.268	20408
814.41	20412
814.551	20286
814.692	20423
814.833	20282
814.974	20267
815.115	20267
815.256	20145
815.397	20271
815.539	20149
815.68	20084
815.821	20001
815.962	20046
816.103	19967
816.244	19841
816.385	19875
816.526	19655
816.666	19540
816.807	19575
816.948	19643
817.089	19731
817.23	19403
817.371	19384
817.512	19460
817.653	19415
817.793	19365
817.934	19407
818.075	19426
818.216	19495
818.356	19407
818.497	19217
818.638	19031
818.778	19168
818.919	19137
819.06	19168
819.2	19266
819.341	19335
819.481	19369
819.622	19403
819.762	19723
819.903	19578
820.043	19487
820.184	19468
820.324	19449
820.465	19480
820.605	19529
820.746	19346
820.886	19270
821.026	19403
821.167	19369
821.307	19472
821.447	19324
821.588	19251
821.728	18993
821.868	19019
822.008	19004
822.149	18962
822.289	18810
822.429	18616
822.569	18528
822.709	18467
822.849	18395
822.99	18384
823.13	18273
823.27	18353
823.41	18171
823.55	18102
823.69	18129
823.83	18129
823.97	18068
824.11	17931
824.25	17969
824.389	17927
824.529	18060
824.669	17920
824.809	18102
824.949	18068
825.089	17996
825.228	17992
825.368	17741
825.508	17828
825.648	17767
825.787	17775
825.927	17817
826.067	17703
826.206	17672
826.346	17695
826.485	17687
826.625	17813
826.765	17847
826.904	17805
827.044	17497
827.183	17452
827.323	17414
827.462	17459
827.601	17334
827.741	17406
827.88	17459
828.02	17315
828.159	17379
828.298	17376
828.437	17474
828.577	17296
828.716	17528
828.855	17337
828.994	17239
829.134	17155
829.273	17265
829.412	17208
829.551	17086
829.69	17083
829.829	17254
829.968	17334
830.107	17178
830.246	17193
830.385	17102
830.524	17052
830.663	16995
830.802	16911
830.941	16953
831.08	16782
831.219	16866
831.357	16911
831.496	17064
831.635	16702
831.774	16710
831.913	16626
832.051	16588
832.19	16599
832.329	16618
832.467	16611
832.606	16375
832.744	16489
832.883	16523
833.022	16398
833.16	16500
833.299	16656
833.437	16462
833.576	16561
833.714	16542
833.852	16508
833.991	16592
834.129	16645
834.267	16584
834.406	16550
834.544	16466
834.682	16470
834.821	16523
834.959	16664
835.097	16554
835.235	16641
835.373	16588
835.511	16580
835.65	16398
835.788	16470
835.926	16276
836.064	16242
836.202	16284
836.34	16436
836.478	16485
836.615	16485
836.753	16474
836.891	16481
837.029	16478
837.167	16322
837.305	16322
837.443	16371
837.58	16219
837.718	16474
837.856	16310
837.993	16291
838.131	16261
838.269	16242
838.406	16344
838.544	16207
838.681	16029
838.819	16048
838.956	15926
839.094	15899
839.231	15994
839.369	16025
839.506	16200
839.643	16120
839.781	15926
839.918	15865
840.055	15804
840.193	15911
840.33	15846
840.467	15915
840.604	15884
840.742	16139
840.879	15850
841.016	15743
841.153	15732
841.29	16025
841.427	15945
841.564	15854
841.701	15869
841.838	15918
841.975	15808
842.112	15747
842.249	15709
842.385	15603
842.522	15861
842.659	15698
842.796	15717
842.933	15599
843.069	15564
843.206	15561
843.343	15831
843.479	15739
843.616	15595
843.752	15458
843.889	15435
844.025	15511
844.162	15412
844.298	15553
844.435	15393
844.571	15401
844.708	15542
844.844	15618
844.98	15545
845.117	15530
845.253	15351
845.389	15313
845.525	15393
845.661	15378
845.798	15192
845.934	15291
846.07	15214
846.206	15336
846.342	15367
846.478	15211
846.614	15138
846.75	14979
846.886	15085
847.022	15085
847.158	15036
847.294	15017
847.429	15028
847.565	14937
847.701	15344
847.837	14735
847.972	14674
848.108	14785
848.244	14807
848.379	14693
848.515	14587
848.65	14522
848.786	14583
848.921	14545
849.057	14644
849.192	14693
849.328	14712
849.463	14686
849.598	14629
849.734	14488
849.869	14499
850.004	14385
850.14	14412
850.275	14423
850.41	14271
850.545	14339
850.68	14351
850.815	14431
850.95	14423
851.085	14526
851.22	14454
851.355	14309
851.49	14370
851.625	14385
851.76	14362
851.895	14199
852.03	14275
852.165	14358
852.299	14484
852.434	14446
852.569	14457
852.703	14408
852.838	14396
852.973	14613
853.107	14511
853.242	14396
853.376	14240
853.511	14077
853.645	14161
853.78	14332
853.914	14267
854.048	14202
854.183	14263
854.317	14267
854.451	14442
854.585	14202
854.72	14180
854.854	14278
854.988	14119
855.122	14256
855.256	14138
855.39	14218
855.524	14195
855.658	14256
855.792	14180
855.926	14275
856.06	14259
856.194	14263
856.327	14309
856.461	14210
856.595	14153
856.729	14240
856.862	14328
856.996	14358
857.13	14358
857.263	14450
857.397	14442
857.53	14229
857.664	14385
857.797	14313
857.931	14366
858.064	14358
858.197	14377
858.331	14172
858.464	14259
858.597	14119
858.731	14202
858.864	14233
858.997	14218
859.13	14233
859.263	14313
859.396	14259
859.529	14248
859.662	14115
859.795	14168
859.928	14248
860.061	14431
860.194	14469
860.327	14248
860.46	14252
860.592	14301
860.725	14351
860.858	14343
860.99	14214
861.123	14176
861.256	14168
861.388	14263
861.521	14948
861.653	14206
861.786	14035
861.918	14115
862.05	14157
862.183	14123
862.315	14172
862.447	14317
862.58	14145
862.712	13951
862.844	14088
862.976	14062
863.108	14043
863.24	14495
863.372	13849
863.504	14100
863.636	14069
863.768	14157
863.9	14020
864.032	14008
864.164	14039
864.296	14081
864.428	14176
864.559	14157
864.691	14183
864.823	14100
864.954	14054
865.086	14020
865.217	14035
865.349	13959
865.48	14043
865.612	14024
865.743	14107
865.875	14062
866.006	14092
866.137	14107
866.269	13989
866.4	13986
866.531	14008
866.662	13890
866.793	13906
866.924	13860
867.055	14084
867.186	14031
867.317	13879
867.448	13879
867.579	13951
867.71	13852
867.841	13879
867.972	14035
868.103	14020
868.233	14027
868.364	13989
868.495	14046
868.625	14210
868.756	14347
868.886	14130
869.017	14263
869.147	14393
869.278	14282
869.408	14294
869.539	14271
869.669	14332
869.799	14305
869.929	14393
870.06	14347
870.19	14705
870.32	14568
870.45	14499
870.58	14663
870.71	14754
870.84	14777
870.97	14629
871.1	14610
871.23	14823
871.36	14830
871.489	14743
871.619	14918
871.749	14842
871.879	14933
872.008	14861
872.138	14845
872.267	14838
872.397	14716
872.526	14773
872.656	14651
872.785	14849
872.915	14807
873.044	14990
873.173	14887
873.303	14990
873.432	14899
873.561	14952
873.69	14990
873.819	14937
873.948	14944
874.077	14944
874.206	14925
874.335	14800
874.464	15169
874.593	15188
874.722	15165
874.851	15279
874.979	15157
875.108	15230
875.237	15108
875.365	15138
875.494	15169
875.623	15302
875.751	15112
875.88	15294
876.008	15424
876.136	15431
876.265	15652
876.393	15728
876.521	15663
876.65	15713
876.778	15603
876.906	15523
877.034	15572
877.162	15549
877.29	15507
877.418	15595
877.546	15614
877.674	15660
877.802	15553
877.93	15675
878.058	15504
878.185	15500
878.313	15610
878.441	15652
878.568	15511
878.696	15564
878.824	15568
878.951	15698
879.079	15789
879.206	15953
879.333	15705
879.461	15622
879.588	15774
879.715	15838
879.842	16010
879.97	15656
880.097	15447
880.224	15405
880.351	15553
880.478	15466
880.605	15542
880.732	15473
880.859	15644
880.986	15492
881.112	15500
881.239	15367
881.366	15195
881.493	15252
881.619	15127
881.746	15100
881.872	15226
881.999	15112
882.125	15116
882.252	15180
882.378	15112
882.505	15306
882.631	15116
882.757	15001
882.883	15013
883.01	15032
883.136	14971
883.262	14849
883.388	14830
883.514	14899
883.64	14921
883.766	14853
883.892	14811
884.018	14811
884.143	14982
884.269	15058
884.395	14807
884.52	14625
884.646	14670
884.772	14632
884.897	14556
885.023	14686
885.148	14765
885.274	14842
885.399	14739
885.524	14758
885.65	14678
885.775	14697
885.9	14663
886.025	14754
886.15	14811
886.275	14640
886.4	14606
886.525	14621
886.65	14587
886.775	14552
886.9	14796
887.025	14868
887.149	14610
887.274	14560
887.399	14503
887.523	14537
887.648	14412
887.773	14423
887.897	14598
888.021	14518
888.146	14511
888.27	14461
888.395	14590
888.519	14503
888.643	14606
888.767	14575
888.891	14423
889.015	14294
889.139	14374
889.263	14336
889.387	14434
889.511	14473
889.635	14419
889.759	14244
889.883	14336
890.006	14423
890.13	14484
890.254	14317
890.377	14355
890.501	14153
890.624	14164
890.748	14229
890.871	14088
890.995	14058
891.118	14012
891.241	14073
891.364	13993
891.488	14191
891.611	13989
891.734	14092
891.857	14130
891.98	14096
892.103	14180
892.226	14123
892.349	14103
892.471	13989
892.594	14001
892.717	14103
892.839	13993
892.962	14096
893.085	14123
893.207	14024
893.33	13967
893.452	13997
893.575	14161
893.697	13986
893.819	14187
893.941	14233
894.064	14199
894.186	14001
894.308	14149
894.43	14233
894.552	14317
894.674	14202
894.796	13955
894.918	14138
895.04	14130
895.161	14233
895.283	14180
895.405	14043
895.526	14195
895.648	14210
895.769	14195
895.891	14305
896.012	14263
896.134	14301
896.255	14294
896.376	14180
896.498	14164
896.619	14252
896.74	14233
896.861	14328
896.982	14556
897.103	14739
897.224	14476
897.345	14530
897.466	14442
897.587	14446
897.708	14568
897.828	14549
897.949	14526
898.07	14347
898.19	14415
898.311	14602
898.431	14522
898.552	14594
898.672	14651
898.792	14678
898.913	14667
899.033	14518
899.153	14355
899.273	14298
899.393	14412
899.513	14465
899.633	14484
899.753	14415
899.873	14484
899.993	14530
900.113	14438
900.232	14457
900.352	14423
900.472	14355
900.591	14278
900.711	14282
900.83	14282
900.95	14412
901.069	14366
901.189	14267
901.308	13978
901.427	13974
901.546	13951
901.665	13982
901.784	13814
901.904	13807
902.023	13822
902.141	13563
902.26	13620
902.379	13620
902.498	13529
902.617	13483
902.735	13567
902.854	13521
902.973	13396
903.091	13244
903.21	13339
903.328	13225
903.446	13202
903.565	13095
903.683	13187
903.801	12985
903.919	13156
904.038	13088
904.156	12981
904.274	12951
904.392	13000
904.51	12863
904.627	12932
904.745	13012
904.863	12989
904.981	12665
905.098	12570
905.216	12681
905.334	12627
905.451	12646
905.569	12597
905.686	12654
905.803	12623
905.921	12464
906.038	12658
906.155	12441
906.272	12323
906.389	12399
906.506	12304
906.623	12213
906.74	12209
906.857	12106
906.974	12175
907.091	12266
907.208	12361
907.324	12251
907.441	12041
907.557	11992
907.674	11984
907.79	11889
907.907	11923
908.023	12026
908.139	11988
908.256	11973
908.372	11961
908.488	11824
908.604	11821
908.72	11817
908.836	11745
908.952	11710
909.068	11718
909.184	11843
909.3	11661
909.415	11790
909.531	11672
909.647	11539
909.762	11467
909.878	11436
909.993	11440
910.108	11505
910.224	11505
910.339	11417
910.454	11402
910.57	11280
910.685	11315
910.8	11562
910.915	11444
911.03	11280
911.145	11223
911.259	11220
911.374	11147
911.489	11064
911.604	11121
911.718	10942
911.833	11018
911.947	10881
912.062	10721
912.176	10968
912.291	10949
912.405	10961
912.519	11143
912.633	11128
912.748	10957
912.862	10953
912.976	10889
913.09	10733
913.204	10786
913.318	10858
913.431	10911
913.545	10885
913.659	10938
913.772	10748
913.886	10717
914	10733
914.113	10866
914.226	10873
914.34	10786
914.453	10599
914.566	10755
914.68	10721
914.793	10679
914.906	10470
915.019	10462
915.132	10371
915.245	10436
915.358	10413
915.47	10455
915.583	10485
915.696	10538
915.809	10630
915.921	10569
916.034	10428
916.146	10428
916.259	10386
916.371	10481
916.483	10485
916.595	10367
916.708	10356
916.82	10459
916.932	10360
917.044	10379
917.156	10360
917.268	10291
917.38	10306
917.491	10261
917.603	10341
917.715	10375
917.826	10379
917.938	10268
918.049	10181
918.161	10299
918.272	10409
918.384	10409
918.495	10287
918.606	10177
918.717	10055
918.828	10249
918.939	10162
919.05	10109
919.161	10223
919.272	9953
919.383	10112
919.494	10173
919.604	10402
919.715	10230
919.826	10090
919.936	10116
920.047	10257
920.157	10166
920.267	10421
920.378	10196
920.488	10196
920.598	10348
920.708	10535
920.818	10379
920.928	10405
921.038	10580
921.148	10512
921.258	10268
921.368	10211
921.477	9983
921.587	10021
921.697	9911
921.806	10135
921.916	10025
922.025	9732
922.134	9827
922.244	9663
922.353	9762
922.462	9625
922.571	9511
922.68	9412
922.789	9367
922.898	9473
923.007	9458
923.116	9466
923.224	9431
923.333	9458
923.442	9279
923.55	9317
923.659	9332
923.767	9416
923.876	9241
923.984	9420
924.092	9332
924.201	9370
924.309	9203
924.417	9382
924.525	9310
924.633	9325
924.741	10093
924.849	9131
924.956	9245
925.064	9051
925.172	9001
925.279	8986
925.387	9066
925.494	9119
925.602	9253
925.709	9150
925.816	9055
925.924	9074
926.031	9127
926.138	9138
926.245	9142
926.352	9047
926.459	9173
926.566	9138
926.673	9093
926.779	8952
926.886	8960
926.993	8815
927.099	8754
927.206	8766
927.312	8826
927.419	8815
927.525	8769
927.631	8914
927.737	8781
927.843	8750
927.95	8632
928.056	8720
928.162	8735
928.267	8720
928.373	9447
928.479	8857
928.585	8598
928.69	8705
928.796	8701
928.901	8587
929.007	8457
929.112	8587
929.218	8610
929.323	8583
929.428	8480
929.533	8689
929.638	8511
929.743	8484
929.848	8560
929.953	8564
930.058	8434
930.163	8282
930.267	8332
930.372	8408
930.477	8279
930.581	8530
930.685	8442
930.79	8248
930.894	8301
930.998	8195
931.103	8377
931.207	8111
931.311	7959
931.415	7894
931.519	7712
931.623	7788
