Data from test_V78500241_1489.txt Node
Date: Fri Mar 25 14:44:04 CST 2022
User: usil
Spectrometer: V785-0024
Trigger mode: 0
Integration Time (sec): 4.000000E-1
Scans to average: 1
Nonlinearity correction enabled: false
Boxcar width: 0
Storing dark spectrum: false
XAxis mode: Wavelengths
Number of Pixels in Spectrum: 1024
>>>>>Begin Spectral Data<<<<<
801.071	22485
801.214	22325
801.356	22021
801.499	21926
801.641	21789
801.783	21785
801.926	21778
802.068	21622
802.211	21686
802.353	21610
802.496	21348
802.638	21317
802.78	21294
802.923	21165
803.065	21043
803.208	21119
803.35	21211
803.492	21230
803.635	21268
803.777	21135
803.919	21169
804.061	21447
804.204	21260
804.346	20963
804.488	20906
804.63	21058
804.773	20960
804.915	20948
805.057	21176
805.199	20971
805.341	21108
805.483	21020
805.626	21222
805.768	21062
805.91	20979
806.052	21135
806.194	20941
806.336	21100
806.478	21176
806.62	21112
806.762	21062
806.904	21283
807.046	21477
807.188	21408
807.33	21370
807.472	21526
807.614	21306
807.756	21367
807.898	21405
808.04	21237
808.182	21317
808.324	21218
808.465	21336
808.607	21507
808.749	21633
808.891	21827
809.033	21823
809.174	21819
809.316	21515
809.458	21671
809.6	21435
809.741	21603
809.883	21614
810.025	21808
810.166	21690
810.308	21648
810.45	21637
810.591	21454
810.733	21431
810.875	21272
811.016	21188
811.158	21150
811.299	21279
811.441	21443
811.582	21435
811.724	21291
811.865	21173
812.007	21176
812.148	21355
812.29	21287
812.431	21420
812.573	21538
812.714	21637
812.855	21785
812.997	21800
813.138	21895
813.279	21797
813.421	21793
813.562	21751
813.703	21572
813.845	21462
813.986	21157
814.127	20902
814.268	20918
814.41	20758
814.551	20731
814.692	20868
814.833	20765
814.974	20785
815.115	20754
815.256	20636
815.397	20739
815.539	20587
815.68	20442
815.821	20549
815.962	20545
816.103	20495
816.244	20385
816.385	20263
816.526	20195
816.666	20039
816.807	19928
816.948	19959
817.089	20058
817.23	19959
817.371	19925
817.512	20005
817.653	19947
817.793	19887
817.934	20020
818.075	19974
818.216	19974
818.356	19833
818.497	19875
818.638	19575
818.778	19594
818.919	19594
819.06	19719
819.2	19742
819.341	19765
819.481	19769
819.622	19909
819.762	20138
819.903	20012
820.043	19845
820.184	19906
820.324	19849
820.465	19932
820.605	19830
820.746	19913
820.886	19662
821.026	19833
821.167	19864
821.307	19940
821.447	19841
821.588	19738
821.728	19670
821.868	19419
822.008	19266
822.149	19324
822.289	19240
822.429	19046
822.569	18985
822.709	18958
822.849	18802
822.99	18802
823.13	18772
823.27	18791
823.41	18658
823.55	18604
823.69	18726
823.83	18650
823.97	18452
824.11	18410
824.25	18308
824.389	18315
824.529	18338
824.669	18350
824.809	18498
824.949	18483
825.089	18426
825.228	18391
825.368	18220
825.508	18072
825.648	18121
825.787	18270
825.927	18232
826.067	18159
826.206	18155
826.346	18167
826.485	18152
826.625	18205
826.765	18201
826.904	18121
827.044	17954
827.183	17863
827.323	17764
827.462	17843
827.601	17859
827.741	17756
827.88	17824
828.02	17767
828.159	17870
828.298	17912
828.437	17790
828.577	17729
828.716	17931
828.855	17832
828.994	17608
829.134	17558
829.273	17707
829.412	17512
829.551	17532
829.69	17509
829.829	17585
829.968	17573
830.107	17653
830.246	17600
830.385	17490
830.524	17512
830.663	17322
830.802	17318
830.941	17193
831.08	17185
831.219	17280
831.357	17311
831.496	17486
831.635	17212
831.774	17041
831.913	17132
832.051	16995
832.19	16953
832.329	17022
832.467	16938
832.606	16835
832.744	16809
832.883	16892
833.022	16877
833.16	16961
833.299	16949
833.437	16961
833.576	17010
833.714	16991
833.852	16923
833.991	16885
834.129	16949
834.267	17003
834.406	16976
834.544	16995
834.682	16930
834.821	16927
834.959	17132
835.097	16915
835.235	16869
835.373	16984
835.511	16869
835.65	16801
835.788	16885
835.926	16755
836.064	16596
836.202	16771
836.34	16896
836.478	16866
836.615	16733
836.753	16934
836.891	16957
837.029	16946
837.167	16733
837.305	16793
837.443	16736
837.58	16729
837.718	16713
837.856	16706
837.993	16519
838.131	16717
838.269	16569
838.406	16630
838.544	16519
838.681	16508
838.819	16310
838.956	16272
839.094	16173
839.231	16242
839.369	16367
839.506	16641
839.643	16554
839.781	16276
839.918	16143
840.055	16306
840.193	16147
840.33	16234
840.467	16268
840.604	16238
840.742	16527
840.879	16200
841.016	16143
841.153	16097
841.29	16424
841.427	16242
841.564	16226
841.701	16226
841.838	16192
841.975	16105
842.112	16124
842.249	15998
842.385	15941
842.522	16166
842.659	16067
842.796	15945
842.933	16063
843.069	15945
843.206	15926
843.343	16093
843.479	16021
843.616	16055
843.752	15827
843.889	15751
844.025	15983
844.162	15823
844.298	15857
844.435	15755
844.571	15694
844.708	15854
844.844	15983
844.98	16013
845.117	15899
845.253	15781
845.389	15789
845.525	15876
845.661	15743
845.798	15766
845.934	15926
846.07	15816
846.206	15918
846.342	15903
846.478	15728
846.614	15492
846.75	15302
846.886	15466
847.022	15504
847.158	15344
847.294	15355
847.429	15412
847.565	15363
847.701	15561
847.837	15135
847.972	15001
848.108	15176
848.244	15256
848.379	15051
848.515	14899
848.65	14899
848.786	14857
848.921	14925
849.057	14944
849.192	15032
849.328	15036
849.463	14944
849.598	15028
849.734	14804
849.869	14796
850.004	14686
850.14	14773
850.275	14655
850.41	14712
850.545	14655
850.68	14720
850.815	14750
850.95	14708
851.085	14902
851.22	14849
851.355	14663
851.49	14777
851.625	14613
851.76	14667
851.895	14625
852.03	14594
852.165	14716
852.299	14670
852.434	14861
852.569	14731
852.703	14670
852.838	14815
852.973	14906
853.107	14880
853.242	14773
853.376	14518
853.511	14518
853.645	14465
853.78	14781
853.914	14533
854.048	14518
854.183	14617
854.317	14571
854.451	14693
854.585	14606
854.72	14522
854.854	14644
854.988	14473
855.122	14590
855.256	14465
855.39	14594
855.524	14678
855.658	14648
855.792	14537
855.926	14613
856.06	14617
856.194	14788
856.327	14507
856.461	14450
856.595	14568
856.729	14590
856.862	14648
856.996	14621
857.13	14674
857.263	14651
857.397	14674
857.53	14560
857.664	14678
857.797	14693
857.931	14777
858.064	14670
858.197	14667
858.331	14640
858.464	14533
858.597	14450
858.731	14636
858.864	14541
858.997	14613
859.13	14590
859.263	14602
859.396	14667
859.529	14545
859.662	14488
859.795	14545
859.928	14598
860.061	14758
860.194	14773
860.327	14644
860.46	14514
860.592	14743
860.725	14834
860.858	14781
860.99	14571
861.123	14587
861.256	14533
861.388	14537
861.521	15173
861.653	14480
861.786	14343
861.918	14450
862.05	14583
862.183	14583
862.315	14625
862.447	14648
862.58	14545
862.712	14347
862.844	14366
862.976	14438
863.108	14339
863.24	14762
863.372	14256
863.504	14370
863.636	14176
863.768	14343
863.9	14396
864.032	14305
864.164	14195
864.296	14336
864.428	14495
864.559	14499
864.691	14415
864.823	14427
864.954	14385
865.086	14370
865.217	14320
865.349	14278
865.48	14267
865.612	14362
865.743	14446
865.875	14313
866.006	14199
866.137	14366
866.269	14385
866.4	14393
866.531	14324
866.662	14294
866.793	14240
866.924	14290
867.055	14271
867.186	14347
867.317	14317
867.448	14210
867.579	14290
867.71	14195
867.841	14176
867.972	14320
868.103	14355
868.233	14339
868.364	14389
868.495	14393
868.625	14602
868.756	14590
868.886	14590
869.017	14495
869.147	14788
869.278	14830
869.408	14590
869.539	14598
869.669	14746
869.799	14613
869.929	14674
870.06	14720
870.19	14826
870.32	14963
870.45	14887
870.58	14994
870.71	15093
870.84	15123
870.97	14891
871.1	14971
871.23	15138
871.36	15176
871.489	15116
871.619	15157
871.749	15233
871.879	15218
872.008	15279
872.138	15146
872.267	15169
872.397	15032
872.526	15104
872.656	14956
872.785	15032
872.915	15310
873.044	15241
873.173	15226
873.303	15230
873.432	15256
873.561	15287
873.69	15161
873.819	15214
873.948	15252
874.077	15260
874.206	15256
874.335	15184
874.464	15386
874.593	15500
874.722	15473
874.851	15526
874.979	15603
875.108	15515
875.237	15542
875.365	15439
875.494	15504
875.623	15663
875.751	15584
875.88	15595
876.008	15652
876.136	15747
876.265	15979
876.393	16150
876.521	16029
876.65	15983
876.778	15991
876.906	15869
877.034	15873
877.162	15945
877.29	15850
877.418	15918
877.546	16010
877.674	15979
877.802	15934
877.93	16048
878.058	15857
878.185	15876
878.313	16002
878.441	15930
878.568	15838
878.696	15934
878.824	16006
878.951	16010
879.079	16169
879.206	16287
879.333	16219
879.461	16044
879.588	16173
879.715	16337
879.842	16329
879.97	16154
880.097	15937
880.224	15857
880.351	15892
880.478	15873
880.605	15816
880.732	15827
880.859	15994
880.986	15857
881.112	15808
881.239	15663
881.366	15587
881.493	15538
881.619	15477
881.746	15481
881.872	15473
881.999	15428
882.125	15488
882.252	15519
882.378	15557
882.505	15694
882.631	15477
882.757	15245
882.883	15351
883.01	15291
883.136	15188
883.262	15237
883.388	15161
883.514	15272
883.64	15344
883.766	15264
883.892	15093
884.018	15165
884.143	15321
884.269	15325
884.395	15100
884.52	15070
884.646	15028
884.772	14982
884.897	14876
885.023	15055
885.148	15093
885.274	15142
885.399	15150
885.524	15005
885.65	15051
885.775	15017
885.9	15017
886.025	15024
886.15	15047
886.275	14906
886.4	14952
886.525	14921
886.65	14891
886.775	15017
886.9	15195
887.025	15192
887.149	14906
887.274	14902
887.399	14834
887.523	14762
887.648	14739
887.773	14758
887.897	14880
888.021	14891
888.146	14819
888.27	14876
888.395	14960
888.519	14769
888.643	14914
888.767	14887
888.891	14769
889.015	14629
889.139	14659
889.263	14705
889.387	14758
889.511	14830
889.635	14746
889.759	14678
889.883	14587
890.006	14731
890.13	14754
890.254	14579
890.377	14598
890.501	14450
890.624	14412
890.748	14545
890.871	14408
890.995	14347
891.118	14218
891.241	14336
891.364	14362
891.488	14461
891.611	14374
891.734	14381
891.857	14381
891.98	14355
892.103	14522
892.226	14362
892.349	14400
892.471	14237
892.594	14374
892.717	14366
892.839	14305
892.962	14377
893.085	14400
893.207	14374
893.33	14286
893.452	14275
893.575	14408
893.697	14347
893.819	14545
893.941	14610
894.064	14503
894.186	14305
894.308	14355
894.43	14450
894.552	14545
894.674	14537
894.796	14339
894.918	14404
895.04	14400
895.161	14514
895.283	14488
895.405	14389
895.526	14412
895.648	14511
895.769	14476
895.891	14541
896.012	14613
896.134	14556
896.255	14564
896.376	14438
896.498	14480
896.619	14648
896.74	14526
896.861	14560
896.982	14796
897.103	14937
897.224	14746
897.345	14815
897.466	14720
897.587	14746
897.708	14971
897.828	14868
897.949	14754
898.07	14758
898.19	14724
898.311	14861
898.431	14716
898.552	14845
898.672	14937
898.792	14921
898.913	14891
899.033	14788
899.153	14777
899.273	14629
899.393	14716
899.513	14724
899.633	14754
899.753	14758
899.873	14686
899.993	14788
900.113	14594
900.232	14712
900.352	14644
900.472	14602
900.591	14537
900.711	14689
900.83	14583
900.95	14648
901.069	14712
901.189	14644
901.308	14313
901.427	14229
901.546	14229
901.665	14233
901.784	14267
901.904	14161
902.023	14069
902.141	13921
902.26	13822
902.379	13879
902.498	13883
902.617	13784
902.735	13849
902.854	13784
902.973	13719
903.091	13559
903.21	13548
903.328	13575
903.446	13449
903.565	13369
903.683	13476
903.801	13282
903.919	13251
904.038	13365
904.156	13149
904.274	13308
904.392	13225
904.51	13183
904.627	13190
904.745	13278
904.863	13190
904.981	12954
905.098	12909
905.216	12916
905.334	12920
905.451	12981
905.569	12821
905.686	12905
905.803	12897
905.921	12730
906.038	12757
906.155	12658
906.272	12658
906.389	12608
906.506	12509
906.623	12483
906.74	12334
906.857	12388
906.974	12369
907.091	12525
907.208	12623
907.324	12467
907.441	12399
907.557	12266
907.674	12186
907.79	12235
907.907	12224
908.023	12232
908.139	12201
908.256	12186
908.372	12133
908.488	12091
908.604	11999
908.72	11950
908.836	11965
908.952	11996
909.068	12045
909.184	12053
909.3	11984
909.415	12045
909.531	11969
909.647	11752
909.762	11668
909.878	11699
909.993	11760
910.108	11760
910.224	11668
910.339	11688
910.454	11619
910.57	11623
910.685	11634
910.8	11707
910.915	11707
911.03	11665
911.145	11501
911.259	11356
911.374	11436
911.489	11364
911.604	11318
911.718	11102
911.833	11143
911.947	11094
912.062	11003
912.176	11166
912.291	11223
912.405	11265
912.519	11368
912.633	11440
912.748	11345
912.862	11227
912.976	11033
913.09	11010
913.204	10957
913.318	11109
913.431	11067
913.545	11147
913.659	11273
913.772	11064
913.886	10923
914	10889
914.113	11090
914.226	11083
914.34	10938
914.453	10896
914.566	11029
914.68	10911
914.793	10847
914.906	10694
915.019	10622
915.132	10584
915.245	10588
915.358	10763
915.47	10664
915.583	10710
915.696	10736
915.809	10740
915.921	10805
916.034	10653
916.146	10683
916.259	10615
916.371	10725
916.483	10675
916.595	10584
916.708	10607
916.82	10481
916.932	10580
917.044	10546
917.156	10573
917.268	10443
917.38	10504
917.491	10493
917.603	10451
917.715	10573
917.826	10626
917.938	10519
918.049	10421
918.161	10493
918.272	10672
918.384	10679
918.495	10607
918.606	10402
918.717	10337
918.828	10489
918.939	10375
919.05	10371
919.161	10363
919.272	10135
919.383	10238
919.494	10413
919.604	10474
919.715	10447
919.826	10341
919.936	10447
920.047	10470
920.157	10402
920.267	10485
920.378	10474
920.488	10325
920.598	10660
920.708	10698
920.818	10531
920.928	10573
921.038	10759
921.148	10634
921.258	10413
921.368	10306
921.477	10333
921.587	10303
921.697	10158
921.806	10207
921.916	10074
922.025	10002
922.134	9987
922.244	9895
922.353	9930
922.462	9918
922.571	9823
922.68	9656
922.789	9568
922.898	9610
923.007	9610
923.116	9675
923.224	9717
923.333	9587
923.442	9564
923.55	9447
923.659	9523
923.767	9610
923.876	9416
923.984	9557
924.092	9397
924.201	9553
924.309	9534
924.417	9469
924.525	9401
924.633	9408
924.741	10485
924.849	9222
924.956	9466
925.064	9237
925.172	9226
925.279	9283
925.387	9245
925.494	9233
925.602	9443
925.709	9374
925.816	9192
925.924	9275
926.031	9344
926.138	9298
926.245	9294
926.352	9184
926.459	9386
926.566	9363
926.673	9298
926.779	9116
926.886	9093
926.993	8982
927.099	8948
927.206	8925
927.312	8914
927.419	8986
927.525	8982
927.631	9020
927.737	8864
927.843	8876
927.95	8796
928.056	8849
928.162	8906
928.267	8899
928.373	9584
928.479	8986
928.585	8701
928.69	8811
928.796	8929
928.901	8788
929.007	8689
929.112	8788
929.218	8815
929.323	8670
929.428	8674
929.533	8906
929.638	8621
929.743	8659
929.848	8750
929.953	8644
930.058	8648
930.163	8537
930.267	8469
930.372	8594
930.477	8431
930.581	8640
930.685	8560
930.79	8434
930.894	8454
930.998	8415
931.103	8606
931.207	8248
931.311	8126
931.415	8092
931.519	8005
931.623	7936
