Data from test_V78500241_1726.txt Node
Date: Fri Mar 25 14:45:43 CST 2022
User: usil
Spectrometer: V785-0024
Trigger mode: 0
Integration Time (sec): 4.000000E-1
Scans to average: 1
Nonlinearity correction enabled: false
Boxcar width: 0
Storing dark spectrum: false
XAxis mode: Wavelengths
Number of Pixels in Spectrum: 1024
>>>>>Begin Spectral Data<<<<<
801.071	22215
801.214	22051
801.356	21918
801.499	21690
801.641	21603
801.783	21519
801.926	21530
802.068	21466
802.211	21393
802.353	21359
802.496	21192
802.638	21127
802.78	21013
802.923	21085
803.065	20880
803.208	20982
803.35	20883
803.492	20994
803.635	20979
803.777	20830
803.919	21058
804.061	21233
804.204	20876
804.346	20838
804.488	20906
804.63	20967
804.773	20857
804.915	20937
805.057	20971
805.199	20861
805.341	20902
805.483	21047
805.626	20975
805.768	20826
805.91	20823
806.052	20861
806.194	20720
806.336	20899
806.478	20762
806.62	20785
806.762	20743
806.904	21062
807.046	21306
807.188	21199
807.33	21195
807.472	21131
807.614	21074
807.756	21104
807.898	20975
808.04	20937
808.182	20758
808.324	21005
808.465	20918
808.607	21230
808.749	21264
808.891	21378
809.033	21416
809.174	21420
809.316	21272
809.458	21199
809.6	21161
809.741	21310
809.883	21370
810.025	21435
810.166	21530
810.308	21507
810.45	21332
810.591	21291
810.733	21123
810.875	21104
811.016	20944
811.158	20834
811.299	21028
811.441	21138
811.582	21104
811.724	21104
811.865	21005
812.007	20998
812.148	21013
812.29	21104
812.431	21184
812.573	21329
812.714	21397
812.855	21450
812.997	21625
813.138	21732
813.279	21587
813.421	21492
813.562	21443
813.703	21275
813.845	21081
813.986	20872
814.127	20880
814.268	20731
814.41	20705
814.551	20632
814.692	20636
814.833	20575
814.974	20552
815.115	20564
815.256	20434
815.397	20499
815.539	20366
815.68	20244
815.821	20206
815.962	20355
816.103	20377
816.244	20039
816.385	20050
816.526	20035
816.666	19849
816.807	19761
816.948	19906
817.089	19860
817.23	19727
817.371	19734
817.512	19807
817.653	19632
817.793	19738
817.934	19704
818.075	19704
818.216	19746
818.356	19753
818.497	19525
818.638	19362
818.778	19293
818.919	19384
819.06	19289
819.2	19518
819.341	19556
819.481	19525
819.622	19731
819.762	19887
819.903	19814
820.043	19712
820.184	19784
820.324	19613
820.465	19913
820.605	19597
820.746	19624
820.886	19578
821.026	19635
821.167	19620
821.307	19559
821.447	19616
821.588	19487
821.728	19293
821.868	19228
822.008	19107
822.149	18989
822.289	19000
822.429	19023
822.569	18783
822.709	18814
822.849	18593
822.99	18616
823.13	18494
823.27	18525
823.41	18311
823.55	18448
823.69	18376
823.83	18376
823.97	18315
824.11	18072
824.25	18155
824.389	18152
824.529	18224
824.669	18232
824.809	18315
824.949	18258
825.089	18205
825.228	18140
825.368	17999
825.508	18015
825.648	17999
825.787	18030
825.927	17977
826.067	17813
826.206	17847
826.346	17939
826.485	17904
826.625	17916
826.765	18095
826.904	17904
827.044	17790
827.183	17710
827.323	17699
827.462	17840
827.601	17646
827.741	17695
827.88	17672
828.02	17501
828.159	17707
828.298	17653
828.437	17707
828.577	17611
828.716	17817
828.855	17577
828.994	17414
829.134	17303
829.273	17383
829.412	17258
829.551	17265
829.69	17398
829.829	17410
829.968	17455
830.107	17364
830.246	17356
830.385	17284
830.524	17246
830.663	17105
830.802	17132
830.941	17045
831.08	16930
831.219	17064
831.357	17071
831.496	17322
831.635	17003
831.774	16866
831.913	16919
832.051	16869
832.19	16801
832.329	16900
832.467	16850
832.606	16668
832.744	16660
832.883	16675
833.022	16649
833.16	16698
833.299	16721
833.437	16687
833.576	16793
833.714	16721
833.852	16774
833.991	16706
834.129	16900
834.267	16805
834.406	16664
834.544	16839
834.682	16805
834.821	16679
834.959	16930
835.097	16740
835.235	16972
835.373	16755
835.511	16755
835.65	16580
835.788	16603
835.926	16481
836.064	16462
836.202	16500
836.34	16668
836.478	16710
836.615	16500
836.753	16752
836.891	16710
837.029	16706
837.167	16729
837.305	16558
837.443	16531
837.58	16561
837.718	16542
837.856	16588
837.993	16504
838.131	16451
838.269	16481
838.406	16440
838.544	16382
838.681	16139
838.819	16207
838.956	16006
839.094	16032
839.231	16112
839.369	16143
839.506	16546
839.643	16481
839.781	16147
839.918	15998
840.055	16143
840.193	16090
840.33	16097
840.467	16051
840.604	16173
840.742	16219
840.879	15846
841.016	15983
841.153	16063
841.29	16211
841.427	16078
841.564	16044
841.701	16105
841.838	16021
841.975	15968
842.112	15926
842.249	15838
842.385	15827
842.522	15972
842.659	15808
842.796	15857
842.933	15884
843.069	15724
843.206	15751
843.343	15876
843.479	15884
843.616	15819
843.752	15663
843.889	15686
844.025	15713
844.162	15652
844.298	15751
844.435	15667
844.571	15526
844.708	15610
844.844	15747
844.98	15800
845.117	15724
845.253	15545
845.389	15473
845.525	15622
845.661	15549
845.798	15462
845.934	15454
846.07	15332
846.206	15496
846.342	15580
846.478	15473
846.614	15340
846.75	15165
846.886	15142
847.022	15283
847.158	15188
847.294	15165
847.429	15245
847.565	15184
847.701	15397
847.837	14960
847.972	14979
848.108	15142
848.244	14941
848.379	14811
848.515	14731
848.65	14796
848.786	14800
848.921	14724
849.057	14918
849.192	14941
849.328	14845
849.463	14830
849.598	14746
849.734	14716
849.869	14716
850.004	14590
850.14	14632
850.275	14640
850.41	14526
850.545	14590
850.68	14537
850.815	14571
850.95	14507
851.085	14674
851.22	14507
851.355	14522
851.49	14476
851.625	14522
851.76	14537
851.895	14488
852.03	14457
852.165	14541
852.299	14594
852.434	14701
852.569	14636
852.703	14583
852.838	14556
852.973	14678
853.107	14682
853.242	14571
853.376	14438
853.511	14381
853.645	14336
853.78	14537
853.914	14404
854.048	14351
854.183	14408
854.317	14454
854.451	14545
854.585	14442
854.72	14298
854.854	14492
854.988	14298
855.122	14400
855.256	14195
855.39	14396
855.524	14530
855.658	14446
855.792	14412
855.926	14476
856.06	14431
856.194	14625
856.327	14415
856.461	14355
856.595	14263
856.729	14355
856.862	14598
856.996	14495
857.13	14552
857.263	14514
857.397	14587
857.53	14389
857.664	14507
857.797	14587
857.931	14530
858.064	14427
858.197	14461
858.331	14385
858.464	14324
858.597	14282
858.731	14389
858.864	14393
858.997	14427
859.13	14473
859.263	14370
859.396	14461
859.529	14423
859.662	14355
859.795	14438
859.928	14404
860.061	14560
860.194	14431
860.327	14454
860.46	14457
860.592	14533
860.725	14598
860.858	14533
860.99	14480
861.123	14366
861.256	14324
861.388	14457
861.521	15142
861.653	14351
861.786	14301
861.918	14305
862.05	14317
862.183	14320
862.315	14431
862.447	14476
862.58	14317
862.712	14221
862.844	14123
862.976	14267
863.108	14347
863.24	14590
863.372	14046
863.504	14149
863.636	14202
863.768	14240
863.9	14206
864.032	14092
864.164	14119
864.296	14195
864.428	14343
864.559	14202
864.691	14294
864.823	14263
864.954	14221
865.086	14275
865.217	14210
865.349	14221
865.48	14221
865.612	14161
865.743	14328
865.875	14164
866.006	14183
866.137	14199
866.269	14271
866.4	14237
866.531	14100
866.662	14142
866.793	14138
866.924	14320
867.055	14187
867.186	14256
867.317	14172
867.448	14138
867.579	14157
867.71	14035
867.841	14126
867.972	14214
868.103	14145
868.233	14237
868.364	14195
868.495	14187
868.625	14450
868.756	14552
868.886	14339
869.017	14343
869.147	14598
869.278	14499
869.408	14438
869.539	14442
869.669	14362
869.799	14503
869.929	14571
870.06	14533
870.19	14697
870.32	14758
870.45	14731
870.58	14842
870.71	14887
870.84	14960
870.97	14815
871.1	14796
871.23	14960
871.36	15085
871.489	14967
871.619	15074
871.749	15100
871.879	15077
872.008	15207
872.138	15066
872.267	15058
872.397	14807
872.526	14864
872.656	14834
872.785	14845
872.915	15032
873.044	15173
873.173	14937
873.303	15085
873.432	15150
873.561	15104
873.69	15047
873.819	15013
873.948	15203
874.077	15142
874.206	15100
874.335	15119
874.464	15157
874.593	15450
874.722	15351
874.851	15431
874.979	15408
875.108	15447
875.237	15283
875.365	15336
875.494	15359
875.623	15439
875.751	15428
875.88	15408
876.008	15553
876.136	15599
876.265	15759
876.393	16032
876.521	15865
876.65	15861
876.778	15915
876.906	15728
877.034	15656
877.162	15717
877.29	15774
877.418	15850
877.546	15709
877.674	15808
877.802	15819
877.93	15819
878.058	15770
878.185	15686
878.313	15865
878.441	15846
878.568	15576
878.696	15686
878.824	15785
878.951	15770
879.079	15994
879.206	16169
879.333	16040
879.461	15804
879.588	15918
879.715	15945
879.842	16067
879.97	16006
880.097	15717
880.224	15648
880.351	15739
880.478	15667
880.605	15675
880.732	15663
880.859	15827
880.986	15781
881.112	15603
881.239	15568
881.366	15454
881.493	15291
881.619	15272
881.746	15313
881.872	15344
881.999	15321
882.125	15306
882.252	15363
882.378	15249
882.505	15359
882.631	15154
882.757	15180
882.883	15226
883.01	15157
883.136	15108
883.262	14979
883.388	14963
883.514	15192
883.64	15275
883.766	15112
883.892	14986
884.018	14967
884.143	15131
884.269	15291
884.395	14906
884.52	14765
884.646	14864
884.772	14804
884.897	14708
885.023	14883
885.148	14830
885.274	14967
885.399	14876
885.524	14811
885.65	14853
885.775	14883
885.9	14830
886.025	14929
886.15	14937
886.275	14815
886.4	14689
886.525	14800
886.65	14750
886.775	14785
886.9	14929
887.025	15093
887.149	14746
887.274	14651
887.399	14693
887.523	14549
887.648	14610
887.773	14545
887.897	14686
888.021	14735
888.146	14613
888.27	14727
888.395	14826
888.519	14792
888.643	14701
888.767	14625
888.891	14629
889.015	14537
889.139	14602
889.263	14465
889.387	14625
889.511	14750
889.635	14674
889.759	14476
889.883	14415
890.006	14610
890.13	14727
890.254	14511
890.377	14408
890.501	14415
890.624	14294
890.748	14294
890.871	14191
890.995	14107
891.118	14119
891.241	14142
891.364	14248
891.488	14275
891.611	14202
891.734	14259
891.857	14351
891.98	14248
892.103	14214
892.226	14259
892.349	14229
892.471	14077
892.594	14195
892.717	14187
892.839	14191
892.962	14149
893.085	14305
893.207	14339
893.33	14180
893.452	14096
893.575	14130
893.697	14202
893.819	14339
893.941	14396
894.064	14317
894.186	14145
894.308	14218
894.43	14393
894.552	14457
894.674	14233
894.796	14153
894.918	14271
895.04	14290
895.161	14347
895.283	14419
895.405	14355
895.526	14309
895.648	14408
895.769	14309
895.891	14370
896.012	14434
896.134	14488
896.255	14355
896.376	14324
896.498	14301
896.619	14393
896.74	14332
896.861	14480
896.982	14659
897.103	14910
897.224	14716
897.345	14590
897.466	14526
897.587	14617
897.708	14720
897.828	14712
897.949	14705
898.07	14412
898.19	14473
898.311	14815
898.431	14682
898.552	14746
898.672	14842
898.792	14754
898.913	14731
899.033	14648
899.153	14663
899.273	14488
899.393	14568
899.513	14552
899.633	14533
899.753	14667
899.873	14518
899.993	14610
900.113	14598
900.232	14648
900.352	14461
900.472	14431
900.591	14408
900.711	14358
900.83	14400
900.95	14564
901.069	14541
901.189	14370
901.308	14069
901.427	14065
901.546	14221
901.665	14103
901.784	14100
901.904	14100
902.023	13925
902.141	13685
902.26	13742
902.379	13719
902.498	13639
902.617	13674
902.735	13704
902.854	13655
902.973	13594
903.091	13514
903.21	13392
903.328	13384
903.446	13400
903.565	13251
903.683	13240
903.801	13072
903.919	13327
904.038	13259
904.156	13080
904.274	13080
904.392	13107
904.51	13015
904.627	13000
904.745	13019
904.863	13110
904.981	12935
905.098	12776
905.216	12669
905.334	12856
905.451	12848
905.569	12688
905.686	12783
905.803	12768
905.921	12547
906.038	12604
906.155	12589
906.272	12429
906.389	12589
906.506	12384
906.623	12289
906.74	12365
906.857	12270
906.974	12285
907.091	12380
907.208	12464
907.324	12452
907.441	12311
907.557	12163
907.674	12121
907.79	11984
907.907	12026
908.023	12072
908.139	12064
908.256	11939
908.372	12007
908.488	12015
908.604	11809
908.72	11771
908.836	11863
908.952	11828
909.068	11927
909.184	11893
909.3	11863
909.415	11954
909.531	11832
909.647	11661
909.762	11649
909.878	11615
909.993	11653
910.108	11558
910.224	11554
910.339	11532
910.454	11425
910.57	11509
910.685	11444
910.8	11707
910.915	11566
911.03	11482
911.145	11299
911.259	11250
911.374	11387
911.489	11246
911.604	11242
911.718	11102
911.833	11105
911.947	11079
912.062	10946
912.176	11018
912.291	11010
912.405	11105
912.519	11288
912.633	11315
912.748	11159
912.862	11094
912.976	10976
913.09	10820
913.204	10873
913.318	10995
913.431	11022
913.545	11075
913.659	11086
913.772	10885
913.886	10793
914	10828
914.113	10908
914.226	11003
914.34	10904
914.453	10622
914.566	10927
914.68	10786
914.793	10786
914.906	10660
915.019	10558
915.132	10481
915.245	10531
915.358	10634
915.47	10592
915.583	10691
915.696	10641
915.809	10668
915.921	10733
916.034	10542
916.146	10542
916.259	10550
916.371	10702
916.483	10508
916.595	10535
916.708	10538
916.82	10493
916.932	10478
917.044	10447
917.156	10516
917.268	10375
917.38	10333
917.491	10421
917.603	10440
917.715	10512
917.826	10542
917.938	10363
918.049	10272
918.161	10337
918.272	10466
918.384	10459
918.495	10409
918.606	10360
918.717	10143
918.828	10284
918.939	10337
919.05	10188
919.161	10249
919.272	10109
919.383	10188
919.494	10356
919.604	10531
919.715	10249
919.826	10299
919.936	10306
920.047	10424
920.157	10272
920.267	10500
920.378	10379
920.488	10344
920.598	10474
920.708	10660
920.818	10607
920.928	10554
921.038	10668
921.148	10596
921.258	10341
921.368	10219
921.477	10158
921.587	10219
921.697	10078
921.806	10246
921.916	10025
922.025	9774
922.134	9922
922.244	9804
922.353	9930
922.462	9701
922.571	9591
922.68	9523
922.789	9530
922.898	9561
923.007	9488
923.116	9625
923.224	9530
923.333	9568
923.442	9481
923.55	9447
923.659	9431
923.767	9477
923.876	9401
923.984	9485
924.092	9355
924.201	9462
924.309	9397
924.417	9405
924.525	9310
924.633	9363
924.741	10413
924.849	9218
924.956	9310
925.064	9161
925.172	9089
925.279	9173
925.387	9211
925.494	9169
925.602	9283
925.709	9306
925.816	9089
925.924	9195
926.031	9291
926.138	9218
926.245	9245
926.352	9112
926.459	9317
926.566	9298
926.673	9097
926.779	9066
926.886	9077
926.993	8902
927.099	8914
927.206	8849
927.312	8925
927.419	9017
927.525	8902
927.631	8982
927.737	8800
927.843	8781
927.95	8686
928.056	8758
928.162	8853
928.267	8842
928.373	9424
928.479	8918
928.585	8708
928.69	8769
928.796	8769
928.901	8720
929.007	8594
929.112	8731
929.218	8697
929.323	8606
929.428	8648
929.533	8720
929.638	8522
929.743	8617
929.848	8602
929.953	8651
930.058	8549
930.163	8385
930.267	8404
930.372	8511
930.477	8271
930.581	8602
930.685	8461
930.79	8263
930.894	8339
930.998	8290
931.103	8507
931.207	8107
931.311	8058
931.415	7959
931.519	7868
931.623	7818
