Data from test_V78500241_3137.txt Node
Date: Fri Mar 25 14:55:33 CST 2022
User: usil
Spectrometer: V785-0024
Trigger mode: 0
Integration Time (sec): 4.000000E-1
Scans to average: 1
Nonlinearity correction enabled: false
Boxcar width: 0
Storing dark spectrum: false
XAxis mode: Wavelengths
Number of Pixels in Spectrum: 1024
>>>>>Begin Spectral Data<<<<<
801.071	22044
801.214	21998
801.356	21667
801.499	21698
801.641	21466
801.783	21386
801.926	21473
802.068	21412
802.211	21389
802.353	21283
802.496	21081
802.638	21062
802.78	20887
802.923	20838
803.065	20651
803.208	20689
803.35	20792
803.492	20807
803.635	20963
803.777	20708
803.919	20880
804.061	21138
804.204	20815
804.346	20667
804.488	20583
804.63	20716
804.773	20705
804.915	20667
805.057	20830
805.199	20746
805.341	20636
805.483	20792
805.626	20819
805.768	20602
805.91	20800
806.052	20758
806.194	20655
806.336	20724
806.478	20659
806.62	20701
806.762	20823
806.904	20807
807.046	21169
807.188	21070
807.33	21028
807.472	21142
807.614	21024
807.756	21001
807.898	20823
808.04	20746
808.182	20811
808.324	20762
808.465	20823
808.607	21028
808.749	21066
808.891	21085
809.033	21249
809.174	21123
809.316	20986
809.458	21074
809.6	20967
809.741	21112
809.883	21135
810.025	21222
810.166	21211
810.308	21066
810.45	21081
810.591	21024
810.733	20956
810.875	20906
811.016	20667
811.158	20648
811.299	20952
811.441	20948
811.582	20902
811.724	20773
811.865	20830
812.007	20712
812.148	20758
812.29	20811
812.431	21032
812.573	21116
812.714	21203
812.855	21294
812.997	21355
813.138	21568
813.279	21443
813.421	21488
813.562	21313
813.703	21089
813.845	21058
813.986	20735
814.127	20461
814.268	20522
814.41	20423
814.551	20419
814.692	20362
814.833	20286
814.974	20366
815.115	20393
815.256	20142
815.397	20221
815.539	20248
815.68	20046
815.821	20168
815.962	20191
816.103	20138
816.244	19879
816.385	19795
816.526	19780
816.666	19715
816.807	19540
816.948	19605
817.089	19533
817.23	19559
817.371	19460
817.512	19506
817.653	19464
817.793	19537
817.934	19483
818.075	19616
818.216	19335
818.356	19358
818.497	19320
818.638	19065
818.778	19148
818.919	19168
819.06	19187
819.2	19358
819.341	19510
819.481	19346
819.622	19445
819.762	19719
819.903	19605
820.043	19476
820.184	19483
820.324	19510
820.465	19502
820.605	19411
820.746	19324
820.886	19221
821.026	19483
821.167	19396
821.307	19521
821.447	19430
821.588	19320
821.728	19122
821.868	19031
822.008	18939
822.149	18760
822.289	18833
822.429	18608
822.569	18578
822.709	18464
822.849	18315
822.99	18296
823.13	18334
823.27	18213
823.41	18205
823.55	18091
823.69	18091
823.83	18121
823.97	18140
824.11	17878
824.25	17904
824.389	17965
824.529	18011
824.669	17870
824.809	17927
824.949	18060
825.089	18038
825.228	17965
825.368	17726
825.508	17627
825.648	17741
825.787	17821
825.927	17817
826.067	17661
826.206	17676
826.346	17836
826.485	17847
826.625	17657
826.765	17729
826.904	17695
827.044	17581
827.183	17486
827.323	17227
827.462	17482
827.601	17345
827.741	17349
827.88	17459
828.02	17299
828.159	17406
828.298	17376
828.437	17467
828.577	17307
828.716	17512
828.855	17277
828.994	17204
829.134	17170
829.273	17147
829.412	17132
829.551	17083
829.69	17033
829.829	17239
829.968	17250
830.107	17208
830.246	17200
830.385	17052
830.524	17025
830.663	17045
830.802	16980
830.941	16736
831.08	16725
831.219	16831
831.357	16748
831.496	16889
831.635	16733
831.774	16713
831.913	16592
832.051	16508
832.19	16504
832.329	16546
832.467	16390
832.606	16352
832.744	16451
832.883	16409
833.022	16413
833.16	16531
833.299	16417
833.437	16447
833.576	16561
833.714	16451
833.852	16443
833.991	16565
834.129	16683
834.267	16493
834.406	16485
834.544	16493
834.682	16523
834.821	16554
834.959	16675
835.097	16588
835.235	16668
835.373	16546
835.511	16588
835.65	16402
835.788	16402
835.926	16306
836.064	16181
836.202	16246
836.34	16421
836.478	16504
836.615	16428
836.753	16211
836.891	16523
837.029	16516
837.167	16337
837.305	16223
837.443	16219
837.58	16295
837.718	16318
837.856	16257
837.993	16223
838.131	16272
838.269	16215
838.406	16109
838.544	16226
838.681	16078
838.819	15884
838.956	15800
839.094	15842
839.231	15884
839.369	15979
839.506	16291
839.643	16021
839.781	15819
839.918	15755
840.055	15850
840.193	15823
840.33	15778
840.467	15770
840.604	15781
840.742	16051
840.879	15667
841.016	15762
841.153	15717
841.29	15911
841.427	15930
841.564	15743
841.701	15823
841.838	15736
841.975	15732
842.112	15720
842.249	15618
842.385	15538
842.522	15831
842.659	15667
842.796	15606
842.933	15584
843.069	15580
843.206	15641
843.343	15595
843.479	15507
843.616	15675
843.752	15420
843.889	15408
844.025	15553
844.162	15325
844.298	15477
844.435	15370
844.571	15325
844.708	15431
844.844	15561
844.98	15519
845.117	15485
845.253	15321
845.389	15260
845.525	15275
845.661	15321
845.798	15184
845.934	15176
846.07	15218
846.206	15260
846.342	15313
846.478	15154
846.614	14956
846.75	14876
846.886	14933
847.022	15028
847.158	14998
847.294	14941
847.429	14891
847.565	15028
847.701	15192
847.837	14663
847.972	14636
848.108	14834
848.244	14689
848.379	14571
848.515	14564
848.65	14442
848.786	14674
848.921	14594
849.057	14594
849.192	14674
849.328	14621
849.463	14617
849.598	14469
849.734	14476
849.869	14324
850.004	14370
850.14	14381
850.275	14286
850.41	14282
850.545	14290
850.68	14415
850.815	14343
850.95	14244
851.085	14511
851.22	14450
851.355	14317
851.49	14305
851.625	14237
851.76	14263
851.895	14286
852.03	14259
852.165	14252
852.299	14336
852.434	14389
852.569	14442
852.703	14320
852.838	14454
852.973	14408
853.107	14415
853.242	14324
853.376	14210
853.511	14073
853.645	14237
853.78	14244
853.914	14225
854.048	14161
854.183	14069
854.317	14259
854.451	14362
854.585	14107
854.72	14126
854.854	14244
854.988	14142
855.122	14225
855.256	14115
855.39	14103
855.524	14252
855.658	14123
855.792	14157
855.926	14214
856.06	14206
856.194	14267
856.327	14183
856.461	14062
856.595	14145
856.729	14202
856.862	14176
856.996	14240
857.13	14202
857.263	14282
857.397	14259
857.53	14183
857.664	14183
857.797	14233
857.931	14377
858.064	14229
858.197	14229
858.331	14168
858.464	14103
858.597	14130
858.731	14172
858.864	14225
858.997	14100
859.13	14183
859.263	14161
859.396	14263
859.529	14164
859.662	14195
859.795	14210
859.928	14107
860.061	14328
860.194	14343
860.327	14229
860.46	14180
860.592	14267
860.725	14210
860.858	14362
860.99	14153
861.123	14130
861.256	14073
861.388	14263
861.521	14845
861.653	14084
861.786	14081
861.918	14069
862.05	14050
862.183	14107
862.315	14267
862.447	14195
862.58	14161
862.712	14020
862.844	13879
862.976	14050
863.108	13963
863.24	14180
863.372	13826
863.504	13921
863.636	13963
863.768	14012
863.9	13928
864.032	13970
864.164	13944
864.296	14092
864.428	13993
864.559	14077
864.691	14168
864.823	14107
864.954	13989
865.086	13993
865.217	13940
865.349	13917
865.48	13917
865.612	13963
865.743	14043
865.875	13902
866.006	13814
866.137	13982
866.269	13913
866.4	13940
866.531	13890
866.662	13856
866.793	13875
866.924	13852
867.055	14005
867.186	13898
867.317	13932
867.448	13826
867.579	13913
867.71	13879
867.841	13807
867.972	14012
868.103	13951
868.233	13967
868.364	13928
868.495	14027
868.625	14168
868.756	14259
868.886	14161
869.017	14157
869.147	14317
869.278	14339
869.408	14233
869.539	14149
869.669	14206
869.799	14248
869.929	14317
870.06	14275
870.19	14549
870.32	14480
870.45	14507
870.58	14530
870.71	14735
870.84	14727
870.97	14583
871.1	14598
871.23	14807
871.36	14804
871.489	14712
871.619	14712
871.749	14754
871.879	14769
872.008	14857
872.138	14880
872.267	14724
872.397	14708
872.526	14590
872.656	14598
872.785	14621
872.915	14842
873.044	14906
873.173	14815
873.303	14895
873.432	14918
873.561	14838
873.69	14887
873.819	14872
873.948	14845
874.077	14853
874.206	14807
874.335	14754
874.464	14971
874.593	15214
874.722	15089
874.851	15104
874.979	15260
875.108	15188
875.237	15020
875.365	15062
875.494	15055
875.623	15173
875.751	15154
875.88	15222
876.008	15310
876.136	15431
876.265	15507
876.393	15709
876.521	15671
876.65	15671
876.778	15618
876.906	15568
877.034	15500
877.162	15580
877.29	15568
877.418	15580
877.546	15584
877.674	15629
877.802	15587
877.93	15713
878.058	15458
878.185	15469
878.313	15553
878.441	15481
878.568	15428
878.696	15500
878.824	15511
878.951	15614
879.079	15686
879.206	15812
879.333	15698
879.461	15610
879.588	15656
879.715	15797
879.842	15865
879.97	15637
880.097	15393
880.224	15408
880.351	15428
880.478	15477
880.605	15386
880.732	15492
880.859	15675
880.986	15443
881.112	15526
881.239	15447
881.366	15169
881.493	15165
881.619	15058
881.746	15127
881.872	15119
881.999	15055
882.125	15032
882.252	15131
882.378	15211
882.505	15176
882.631	15104
882.757	14960
882.883	14937
883.01	14918
883.136	14853
883.262	14792
883.388	14811
883.514	14960
883.64	14929
883.766	14819
883.892	14788
884.018	14739
884.143	14914
884.269	14952
884.395	14640
884.52	14659
884.646	14530
884.772	14590
884.897	14556
885.023	14545
885.148	14743
885.274	14769
885.399	14720
885.524	14712
885.65	14655
885.775	14625
885.9	14526
886.025	14746
886.15	14674
886.275	14579
886.4	14606
886.525	14579
886.65	14579
886.775	14552
886.9	14655
887.025	14838
887.149	14697
887.274	14522
887.399	14415
887.523	14442
887.648	14377
887.773	14374
887.897	14484
888.021	14545
888.146	14358
888.27	14575
888.395	14625
888.519	14461
888.643	14537
888.767	14518
888.891	14450
889.015	14240
889.139	14317
889.263	14233
889.387	14423
889.511	14545
889.635	14442
889.759	14237
889.883	14206
890.006	14290
890.13	14377
890.254	14351
890.377	14263
890.501	14153
890.624	14084
890.748	14161
890.871	13997
890.995	13928
891.118	13967
891.241	13951
891.364	13986
891.488	14050
891.611	14054
891.734	14035
891.857	14046
891.98	14043
892.103	14012
892.226	13963
892.349	13951
892.471	13852
892.594	14001
892.717	14024
892.839	13917
892.962	14111
893.085	14157
893.207	14073
893.33	13913
893.452	13841
893.575	13955
893.697	13978
893.819	14199
893.941	14225
894.064	14259
894.186	13970
894.308	13951
894.43	14168
894.552	14237
894.674	14161
894.796	13963
894.918	14126
895.04	13997
895.161	14183
895.283	14168
895.405	14077
895.526	14138
895.648	14024
895.769	14145
895.891	14267
896.012	14187
896.134	14172
896.255	14191
896.376	14123
896.498	14161
896.619	14103
896.74	14123
896.861	14195
896.982	14495
897.103	14632
897.224	14537
897.345	14415
897.466	14438
897.587	14396
897.708	14545
897.828	14537
897.949	14358
898.07	14374
898.19	14347
898.311	14594
898.431	14446
898.552	14530
898.672	14629
898.792	14686
898.913	14533
899.033	14438
899.153	14431
899.273	14324
899.393	14343
899.513	14408
899.633	14404
899.753	14404
899.873	14389
899.993	14408
900.113	14355
900.232	14503
900.352	14408
900.472	14377
900.591	14237
900.711	14324
900.83	14142
900.95	14332
901.069	14446
901.189	14233
901.308	14001
901.427	13928
901.546	13902
901.665	13928
901.784	13913
901.904	13852
902.023	13658
902.141	13518
902.26	13563
902.379	13594
902.498	13586
902.617	13495
902.735	13548
902.854	13460
902.973	13381
903.091	13259
903.21	13152
903.328	13240
903.446	13095
903.565	13076
903.683	13034
903.801	12920
903.919	13099
904.038	12970
904.156	13015
904.274	12856
904.392	12829
904.51	12932
904.627	12905
904.745	13023
904.863	12996
904.981	12650
905.098	12551
905.216	12551
905.334	12604
905.451	12604
905.569	12589
905.686	12589
905.803	12688
905.921	12414
906.038	12551
906.155	12467
906.272	12357
906.389	12266
906.506	12190
906.623	12186
906.74	12216
906.857	12030
906.974	12053
907.091	12106
907.208	12300
907.324	12167
907.441	12133
907.557	11950
907.674	11897
907.79	11920
907.907	11908
908.023	11988
908.139	11897
908.256	11794
908.372	11912
908.488	11843
908.604	11752
908.72	11661
908.836	11634
908.952	11646
909.068	11722
909.184	11847
909.3	11630
909.415	11653
909.531	11703
909.647	11520
909.762	11410
909.878	11410
909.993	11509
910.108	11372
910.224	11509
910.339	11398
910.454	11372
910.57	11250
910.685	11193
910.8	11589
910.915	11448
911.03	11311
911.145	11220
911.259	11204
911.374	11147
911.489	11079
911.604	10984
911.718	10873
911.833	10889
911.947	10869
912.062	10790
912.176	10889
912.291	10957
912.405	10900
912.519	11124
912.633	11159
912.748	10965
912.862	10904
912.976	10812
913.09	10649
913.204	10733
913.318	10854
913.431	10805
913.545	10892
913.659	10847
913.772	10721
913.886	10714
914	10675
914.113	10763
914.226	10801
914.34	10812
914.453	10527
914.566	10797
914.68	10626
914.793	10599
914.906	10447
915.019	10371
915.132	10295
915.245	10440
915.358	10428
915.47	10409
915.583	10360
915.696	10462
915.809	10603
915.921	10588
916.034	10455
916.146	10398
916.259	10375
916.371	10440
916.483	10489
916.595	10272
916.708	10379
916.82	10356
916.932	10333
917.044	10287
917.156	10348
917.268	10246
917.38	10227
917.491	10211
917.603	10284
917.715	10303
917.826	10398
917.938	10272
918.049	10116
918.161	10177
918.272	10371
918.384	10424
918.495	10219
918.606	10253
918.717	10048
918.828	10112
918.939	10124
919.05	10078
919.161	10082
919.272	9899
919.383	9945
919.494	10215
919.604	10402
919.715	10166
919.826	10025
919.936	10109
920.047	10177
920.157	10185
920.267	10352
920.378	10219
920.488	10116
920.598	10333
920.708	10489
920.818	10394
920.928	10341
921.038	10512
921.148	10409
921.258	10211
921.368	10124
921.477	10071
921.587	9934
921.697	9930
921.806	10010
921.916	9953
922.025	9698
922.134	9736
922.244	9762
922.353	9701
922.462	9584
922.571	9507
922.68	9420
922.789	9424
922.898	9450
923.007	9355
923.116	9500
923.224	9397
923.333	9397
923.442	9298
923.55	9321
923.659	9344
923.767	9389
923.876	9287
923.984	9363
924.092	9203
924.201	9260
924.309	9256
924.417	9241
924.525	9222
924.633	9272
924.741	10177
924.849	8975
924.956	9249
925.064	9039
925.172	8967
925.279	8941
925.387	9032
925.494	9100
925.602	9249
925.709	9192
925.816	8967
925.924	9032
926.031	9058
926.138	9112
926.245	9138
926.352	8956
926.459	9093
926.566	9207
926.673	9009
926.779	8960
926.886	8937
926.993	8826
927.099	8785
927.206	8739
927.312	8697
927.419	8826
927.525	8727
927.631	8796
927.737	8716
927.843	8644
927.95	8594
928.056	8708
928.162	8708
928.267	8682
928.373	9237
928.479	8796
928.585	8556
928.69	8644
928.796	8731
928.901	8556
929.007	8476
929.112	8533
929.218	8579
929.323	8507
929.428	8533
929.533	8644
929.638	8431
929.743	8431
929.848	8533
929.953	8507
930.058	8389
930.163	8252
930.267	8279
930.372	8396
930.477	8248
930.581	8454
930.685	8294
930.79	8206
930.894	8286
930.998	8164
931.103	8328
931.207	8073
931.311	7932
931.415	7883
931.519	7731
931.623	7792
