Data from test_V78500241_2977.txt Node
Date: Fri Mar 25 14:54:26 CST 2022
User: usil
Spectrometer: V785-0024
Trigger mode: 0
Integration Time (sec): 4.000000E-1
Scans to average: 1
Nonlinearity correction enabled: false
Boxcar width: 0
Storing dark spectrum: false
XAxis mode: Wavelengths
Number of Pixels in Spectrum: 1024
>>>>>Begin Spectral Data<<<<<
801.071	21979
801.214	21998
801.356	21572
801.499	21610
801.641	21473
801.783	21374
801.926	21435
802.068	21469
802.211	21329
802.353	21317
802.496	21020
802.638	20834
802.78	20910
802.923	20815
803.065	20644
803.208	20750
803.35	20788
803.492	20971
803.635	20948
803.777	20785
803.919	20925
804.061	21173
804.204	20765
804.346	20705
804.488	20598
804.63	20754
804.773	20743
804.915	20845
805.057	20845
805.199	20602
805.341	20720
805.483	20724
805.626	20910
805.768	20720
805.91	20777
806.052	20716
806.194	20663
806.336	20925
806.478	20621
806.62	20526
806.762	20823
806.904	20857
807.046	21146
807.188	20998
807.33	20921
807.472	21039
807.614	20910
807.756	21070
807.898	20849
808.04	20701
808.182	20796
808.324	20815
808.465	20845
808.607	20914
808.749	20994
808.891	21165
809.033	21199
809.174	21119
809.316	21024
809.458	21176
809.6	21051
809.741	21100
809.883	21150
810.025	21135
810.166	21249
810.308	21241
810.45	21241
810.591	21131
810.733	20960
810.875	20933
811.016	20792
811.158	20781
811.299	20887
811.441	20990
811.582	20971
811.724	20788
811.865	20887
812.007	20788
812.148	20864
812.29	20838
812.431	21001
812.573	21116
812.714	21268
812.855	21237
812.997	21416
813.138	21568
813.279	21420
813.421	21313
813.562	21325
813.703	21127
813.845	20895
813.986	20678
814.127	20545
814.268	20476
814.41	20446
814.551	20355
814.692	20442
814.833	20324
814.974	20309
815.115	20442
815.256	20176
815.397	20237
815.539	20225
815.68	20256
815.821	20027
815.962	20138
816.103	20058
816.244	20027
816.385	19826
816.526	19883
816.666	19643
816.807	19540
816.948	19624
817.089	19670
817.23	19502
817.371	19594
817.512	19480
817.653	19601
817.793	19491
817.934	19540
818.075	19472
818.216	19544
818.356	19487
818.497	19289
818.638	19244
818.778	19293
818.919	19160
819.06	19225
819.2	19209
819.341	19316
819.481	19403
819.622	19559
819.762	19670
819.903	19708
820.043	19365
820.184	19407
820.324	19552
820.465	19480
820.605	19457
820.746	19521
820.886	19407
821.026	19544
821.167	19419
821.307	19495
821.447	19415
821.588	19274
821.728	19190
821.868	19156
822.008	18935
822.149	18867
822.289	18928
822.429	18734
822.569	18555
822.709	18563
822.849	18433
822.99	18323
823.13	18376
823.27	18391
823.41	18174
823.55	18148
823.69	18262
823.83	18277
823.97	18072
824.11	17984
824.25	17996
824.389	17882
824.529	18102
824.669	17912
824.809	17946
824.949	18015
825.089	17908
825.228	17901
825.368	17748
825.508	17794
825.648	17790
825.787	17741
825.927	17802
826.067	17668
826.206	17752
826.346	17745
826.485	17665
826.625	17623
826.765	17809
826.904	17802
827.044	17391
827.183	17547
827.323	17425
827.462	17417
827.601	17520
827.741	17356
827.88	17429
828.02	17280
828.159	17356
828.298	17402
828.437	17482
828.577	17379
828.716	17505
828.855	17353
828.994	17105
829.134	17174
829.273	17109
829.412	17185
829.551	17052
829.69	17102
829.829	17204
829.968	17261
830.107	17155
830.246	17239
830.385	17086
830.524	16995
830.663	16961
830.802	16820
830.941	16850
831.08	16828
831.219	16881
831.357	16862
831.496	17022
831.635	16717
831.774	16641
831.913	16672
832.051	16504
832.19	16584
832.329	16436
832.467	16447
832.606	16485
832.744	16421
832.883	16459
833.022	16413
833.16	16462
833.299	16497
833.437	16481
833.576	16607
833.714	16527
833.852	16402
833.991	16447
834.129	16500
834.267	16462
834.406	16485
834.544	16527
834.682	16516
834.821	16440
834.959	16702
835.097	16344
835.235	16622
835.373	16474
835.511	16481
835.65	16424
835.788	16443
835.926	16295
836.064	16253
836.202	16211
836.34	16375
836.478	16428
836.615	16272
836.753	16398
836.891	16440
837.029	16455
837.167	16280
837.305	16234
837.443	16257
837.58	16181
837.718	16272
837.856	16333
837.993	16223
838.131	16287
838.269	16226
838.406	16246
838.544	16226
838.681	15979
838.819	15972
838.956	15648
839.094	15789
839.231	15869
839.369	15964
839.506	16181
839.643	16036
839.781	15888
839.918	15774
840.055	15835
840.193	15850
840.33	15781
840.467	15819
840.604	15827
840.742	16093
840.879	15747
841.016	15618
841.153	15747
841.29	15953
841.427	15816
841.564	15724
841.701	15850
841.838	15728
841.975	15732
842.112	15808
842.249	15610
842.385	15644
842.522	15762
842.659	15576
842.796	15458
842.933	15496
843.069	15591
843.206	15515
843.343	15656
843.479	15591
843.616	15618
843.752	15389
843.889	15386
844.025	15606
844.162	15313
844.298	15572
844.435	15344
844.571	15344
844.708	15416
844.844	15523
844.98	15488
845.117	15477
845.253	15260
845.389	15256
845.525	15249
845.661	15245
845.798	15173
845.934	15272
846.07	15051
846.206	15195
846.342	15321
846.478	15131
846.614	14994
846.75	15028
846.886	14929
847.022	15093
847.158	14910
847.294	14956
847.429	15032
847.565	14849
847.701	15287
847.837	14648
847.972	14629
848.108	14834
848.244	14708
848.379	14587
848.515	14549
848.65	14549
848.786	14640
848.921	14636
849.057	14518
849.192	14663
849.328	14655
849.463	14617
849.598	14530
849.734	14457
849.869	14366
850.004	14366
850.14	14393
850.275	14374
850.41	14195
850.545	14278
850.68	14298
850.815	14298
850.95	14290
851.085	14446
851.22	14415
851.355	14301
851.49	14309
851.625	14244
851.76	14263
851.895	14168
852.03	14214
852.165	14309
852.299	14248
852.434	14290
852.569	14282
852.703	14339
852.838	14305
852.973	14434
853.107	14427
853.242	14248
853.376	14172
853.511	13997
853.645	14172
853.78	14278
853.914	14233
854.048	14180
854.183	14191
854.317	14229
854.451	14317
854.585	14126
854.72	14119
854.854	14282
854.988	14069
855.122	14168
855.256	14084
855.39	14126
855.524	14225
855.658	14271
855.792	14142
855.926	14301
856.06	14229
856.194	14263
856.327	14195
856.461	14103
856.595	14107
856.729	14073
856.862	14256
856.996	14172
857.13	14275
857.263	14267
857.397	14290
857.53	14145
857.664	14225
857.797	14278
857.931	14317
858.064	14168
858.197	14282
858.331	14259
858.464	14024
858.597	14054
858.731	14187
858.864	14164
858.997	14138
859.13	14301
859.263	14305
859.396	14206
859.529	14202
859.662	14138
859.795	14134
859.928	14263
860.061	14370
860.194	14275
860.327	14298
860.46	14168
860.592	14214
860.725	14351
860.858	14267
860.99	14077
861.123	14069
861.256	14100
861.388	14267
861.521	14895
861.653	14039
861.786	14062
861.918	14024
862.05	14168
862.183	14153
862.315	14191
862.447	14210
862.58	14157
862.712	13940
862.844	13906
862.976	13982
863.108	13936
863.24	14454
863.372	13860
863.504	14062
863.636	13936
863.768	14020
863.9	13940
864.032	13868
864.164	13936
864.296	13989
864.428	14046
864.559	14020
864.691	13989
864.823	13970
864.954	13928
865.086	13944
865.217	13932
865.349	13860
865.48	13913
865.612	14054
865.743	14092
865.875	13909
866.006	13822
866.137	13902
866.269	13925
866.4	13890
866.531	13860
866.662	13940
866.793	13852
866.924	13879
867.055	13917
867.186	13963
867.317	13811
867.448	13868
867.579	13822
867.71	13894
867.841	13830
867.972	13970
868.103	13932
868.233	13887
868.364	14012
868.495	13974
868.625	14256
868.756	14267
868.886	14062
869.017	14145
869.147	14286
869.278	14237
869.408	14195
869.539	14164
869.669	14301
869.799	14252
869.929	14309
870.06	14324
870.19	14480
870.32	14419
870.45	14514
870.58	14594
870.71	14613
870.84	14636
870.97	14537
871.1	14625
871.23	14720
871.36	14819
871.489	14678
871.619	14682
871.749	14792
871.879	14701
872.008	14883
872.138	14842
872.267	14705
872.397	14625
872.526	14602
872.656	14678
872.785	14640
872.915	14796
873.044	14925
873.173	14815
873.303	14948
873.432	14796
873.561	14899
873.69	14792
873.819	14739
873.948	14967
874.077	14868
874.206	14807
874.335	14868
874.464	14994
874.593	15085
874.722	15089
874.851	15203
874.979	15119
875.108	15104
875.237	15066
875.365	15020
875.494	15241
875.623	15230
875.751	15142
875.88	15089
876.008	15283
876.136	15329
876.265	15637
876.393	15812
876.521	15739
876.65	15644
876.778	15603
876.906	15504
877.034	15473
877.162	15553
877.29	15515
877.418	15534
877.546	15549
877.674	15584
877.802	15504
877.93	15584
878.058	15519
878.185	15378
878.313	15637
878.441	15530
878.568	15378
878.696	15496
878.824	15595
878.951	15542
879.079	15766
879.206	15884
879.333	15648
879.461	15720
879.588	15675
879.715	15804
879.842	15930
879.97	15663
880.097	15355
880.224	15378
880.351	15393
880.478	15420
880.605	15332
880.732	15428
880.859	15599
880.986	15386
881.112	15439
881.239	15378
881.366	15135
881.493	15138
881.619	15032
881.746	15176
881.872	14998
881.999	15001
882.125	15066
882.252	15100
882.378	15028
882.505	15268
882.631	14918
882.757	14918
882.883	14906
883.01	14864
883.136	14887
883.262	14720
883.388	14769
883.514	15017
883.64	14975
883.766	14891
883.892	14659
884.018	14762
884.143	14895
884.269	15058
884.395	14731
884.52	14560
884.646	14693
884.772	14549
884.897	14530
885.023	14651
885.148	14682
885.274	14731
885.399	14708
885.524	14575
885.65	14473
885.775	14541
885.9	14549
886.025	14670
886.15	14640
886.275	14648
886.4	14404
886.525	14678
886.65	14537
886.775	14571
886.9	14682
887.025	14906
887.149	14583
887.274	14457
887.399	14412
887.523	14347
887.648	14366
887.773	14244
887.897	14412
888.021	14461
888.146	14419
888.27	14560
888.395	14621
888.519	14499
888.643	14476
888.767	14393
888.891	14328
889.015	14263
889.139	14271
889.263	14309
889.387	14469
889.511	14450
889.635	14400
889.759	14309
889.883	14206
890.006	14298
890.13	14339
890.254	14221
890.377	14267
890.501	14142
890.624	14100
890.748	14149
890.871	14046
890.995	13932
891.118	14027
891.241	13997
891.364	13951
891.488	14107
891.611	13997
891.734	14012
891.857	13993
891.98	14012
892.103	14088
892.226	14134
892.349	13955
892.471	13951
892.594	13959
892.717	14008
892.839	13959
892.962	13944
893.085	14043
893.207	13967
893.33	13852
893.452	13970
893.575	14088
893.697	14077
893.819	14157
893.941	14168
894.064	14081
894.186	14012
894.308	14016
894.43	14206
894.552	14161
894.674	14142
894.796	13978
894.918	13982
895.04	14103
895.161	14286
895.283	14065
895.405	14073
895.526	14107
895.648	14084
895.769	14161
895.891	14145
896.012	14187
896.134	14237
896.255	14237
896.376	14119
896.498	14092
896.619	14172
896.74	14229
896.861	14176
896.982	14434
897.103	14708
897.224	14511
897.345	14507
897.466	14438
897.587	14431
897.708	14549
897.828	14549
897.949	14476
898.07	14374
898.19	14358
898.311	14556
898.431	14396
898.552	14530
898.672	14617
898.792	14716
898.913	14473
899.033	14465
899.153	14355
899.273	14358
899.393	14450
899.513	14355
899.633	14366
899.753	14400
899.873	14336
899.993	14454
900.113	14389
900.232	14473
900.352	14408
900.472	14317
900.591	14149
900.711	14366
900.83	14256
900.95	14358
901.069	14358
901.189	14202
901.308	14012
901.427	13909
901.546	13932
901.665	13982
901.784	13932
901.904	13871
902.023	13734
902.141	13605
902.26	13552
902.379	13552
902.498	13445
902.617	13506
902.735	13552
902.854	13506
902.973	13422
903.091	13274
903.21	13274
903.328	13228
903.446	13114
903.565	13175
903.683	13080
903.801	13046
903.919	13088
904.038	13008
904.156	12878
904.274	12886
904.392	12886
904.51	12856
904.627	12890
904.745	12932
904.863	12985
904.981	12616
905.098	12517
905.216	12673
905.334	12730
905.451	12582
905.569	12566
905.686	12631
905.803	12650
905.921	12384
906.038	12509
906.155	12414
906.272	12323
906.389	12292
906.506	12190
906.623	12190
906.74	12155
906.857	12098
906.974	12121
907.091	12194
907.208	12285
907.324	12159
907.441	12106
907.557	11965
907.674	11935
907.79	11798
907.907	11836
908.023	11977
908.139	11923
908.256	11851
908.372	11866
908.488	11866
908.604	11737
908.72	11596
908.836	11703
908.952	11672
909.068	11733
909.184	11714
909.3	11592
909.415	11661
909.531	11661
909.647	11463
909.762	11406
909.878	11398
909.993	11421
910.108	11402
910.224	11410
910.339	11425
910.454	11421
910.57	11349
910.685	11273
910.8	11478
910.915	11421
911.03	11315
911.145	11109
911.259	11170
911.374	11132
911.489	11010
911.604	11045
911.718	10877
911.833	10957
911.947	10755
912.062	10748
912.176	10873
912.291	10896
912.405	10930
912.519	11071
912.633	11079
912.748	11033
912.862	10976
912.976	10744
913.09	10653
913.204	10717
913.318	10824
913.431	10877
913.545	10889
913.659	10949
913.772	10816
913.886	10691
914	10675
914.113	10809
914.226	10858
914.34	10786
914.453	10603
914.566	10801
914.68	10607
914.793	10573
914.906	10535
915.019	10436
915.132	10352
915.245	10436
915.358	10398
915.47	10462
915.583	10417
915.696	10432
915.809	10531
915.921	10596
916.034	10394
916.146	10371
916.259	10333
916.371	10436
916.483	10344
916.595	10348
916.708	10322
916.82	10394
916.932	10333
917.044	10314
917.156	10287
917.268	10249
917.38	10196
917.491	10219
917.603	10268
917.715	10367
917.826	10352
917.938	10261
918.049	10177
918.161	10306
918.272	10455
918.384	10363
918.495	10257
918.606	10196
918.717	10101
918.828	10162
918.939	10238
919.05	10128
919.161	10120
919.272	9926
919.383	10086
919.494	10173
919.604	10367
919.715	10169
919.826	10063
919.936	10093
920.047	10276
920.157	10219
920.267	10367
920.378	10188
920.488	10093
920.598	10333
920.708	10527
920.818	10413
920.928	10390
921.038	10519
921.148	10462
921.258	10230
921.368	10143
921.477	10067
921.587	10025
921.697	9865
921.806	10040
921.916	9838
922.025	9854
922.134	9686
922.244	9660
922.353	9759
922.462	9599
922.571	9561
922.68	9401
922.789	9374
922.898	9382
923.007	9378
923.116	9412
923.224	9473
923.333	9363
923.442	9298
923.55	9199
923.659	9340
923.767	9313
923.876	9237
923.984	9348
924.092	9211
924.201	9272
924.309	9211
924.417	9306
924.525	9253
924.633	9195
924.741	10158
924.849	9070
924.956	9253
925.064	9112
925.172	8960
925.279	9020
925.387	9123
925.494	9081
925.602	9226
925.709	9146
925.816	9013
925.924	9138
926.031	9093
926.138	9074
926.245	9089
926.352	9024
926.459	9154
926.566	9150
926.673	9093
926.779	8910
926.886	8971
926.993	8800
927.099	8743
927.206	8739
927.312	8788
927.419	8845
927.525	8823
927.631	8815
927.737	8746
927.843	8621
927.95	8499
928.056	8617
928.162	8682
928.267	8758
928.373	9393
928.479	8769
928.585	8552
928.69	8674
928.796	8693
928.901	8590
929.007	8507
929.112	8617
929.218	8560
929.323	8457
929.428	8522
929.533	8621
929.638	8454
929.743	8492
929.848	8552
929.953	8518
930.058	8374
930.163	8279
930.267	8267
930.372	8374
930.477	8256
930.581	8511
930.685	8358
930.79	8172
930.894	8214
930.998	8172
931.103	8423
931.207	7967
931.311	8005
931.415	7871
931.519	7715
931.623	7696
