Data from test_V78500241_3379.txt Node
Date: Fri Mar 25 14:57:14 CST 2022
User: usil
Spectrometer: V785-0024
Trigger mode: 0
Integration Time (sec): 4.000000E-1
Scans to average: 1
Nonlinearity correction enabled: false
Boxcar width: 0
Storing dark spectrum: false
XAxis mode: Wavelengths
Number of Pixels in Spectrum: 1024
>>>>>Begin Spectral Data<<<<<
801.071	21857
801.214	21880
801.356	21564
801.499	21488
801.641	21291
801.783	21389
801.926	21329
802.068	21306
802.211	21009
802.353	21055
802.496	20883
802.638	20876
802.78	20682
802.923	20716
803.065	20526
803.208	20488
803.35	20697
803.492	20781
803.635	20716
803.777	20686
803.919	20693
804.061	21093
804.204	20636
804.346	20503
804.488	20533
804.63	20568
804.773	20594
804.915	20343
805.057	20670
805.199	20541
805.341	20640
805.483	20625
805.626	20571
805.768	20465
805.91	20480
806.052	20488
806.194	20480
806.336	20720
806.478	20571
806.62	20442
806.762	20522
806.904	20826
807.046	21024
807.188	20842
807.33	20807
807.472	20925
807.614	20731
807.756	20830
807.898	20575
808.04	20625
808.182	20587
808.324	20537
808.465	20587
808.607	20785
808.749	20773
808.891	21043
809.033	20986
809.174	20963
809.316	20819
809.458	20834
809.6	20800
809.741	20872
809.883	20921
810.025	21009
810.166	21093
810.308	20956
810.45	20845
810.591	20895
810.733	20792
810.875	20781
811.016	20480
811.158	20602
811.299	20644
811.441	20826
811.582	20678
811.724	20507
811.865	20609
812.007	20602
812.148	20606
812.29	20750
812.431	20758
812.573	21039
812.714	21032
812.855	21264
812.997	21230
813.138	21287
813.279	21112
813.421	21138
813.562	21119
813.703	20887
813.845	20807
813.986	20568
814.127	20476
814.268	20256
814.41	20301
814.551	20161
814.692	20263
814.833	20187
814.974	20157
815.115	20191
815.256	20126
815.397	20027
815.539	19951
815.68	19871
815.821	19776
815.962	19871
816.103	19898
816.244	19780
816.385	19632
816.526	19635
816.666	19681
816.807	19331
816.948	19514
817.089	19407
817.23	19396
817.371	19362
817.512	19324
817.653	19221
817.793	19293
817.934	19225
818.075	19255
818.216	19453
818.356	19304
818.497	19152
818.638	18928
818.778	18939
818.919	18977
819.06	19065
819.2	19095
819.341	19259
819.481	19194
819.622	19297
819.762	19491
819.903	19373
820.043	19301
820.184	19263
820.324	19247
820.465	19403
820.605	19274
820.746	19324
820.886	19107
821.026	19312
821.167	19225
821.307	19282
821.447	19259
821.588	19187
821.728	18996
821.868	18901
822.008	18688
822.149	18715
822.289	18726
822.429	18391
822.569	18437
822.709	18433
822.849	18258
822.99	18057
823.13	18163
823.27	18133
823.41	18144
823.55	18011
823.69	18045
823.83	17904
823.97	18022
824.11	17832
824.25	17687
824.389	17809
824.529	17840
824.669	17737
824.809	17984
824.949	17836
825.089	17893
825.228	17745
825.368	17566
825.508	17592
825.648	17638
825.787	17634
825.927	17551
826.067	17455
826.206	17452
826.346	17646
826.485	17532
826.625	17558
826.765	17680
826.904	17611
827.044	17315
827.183	17258
827.323	17349
827.462	17353
827.601	17166
827.741	17242
827.88	17284
828.02	17098
828.159	17288
828.298	17322
828.437	17387
828.577	17200
828.716	17326
828.855	17197
828.994	17060
829.134	17102
829.273	17086
829.412	17083
829.551	16885
829.69	17056
829.829	17041
829.968	17151
830.107	17166
830.246	16980
830.385	16980
830.524	17010
830.663	16938
830.802	16843
830.941	16573
831.08	16580
831.219	16656
831.357	16698
831.496	16733
831.635	16599
831.774	16512
831.913	16462
832.051	16451
832.19	16360
832.329	16451
832.467	16341
832.606	16337
832.744	16226
832.883	16390
833.022	16295
833.16	16314
833.299	16352
833.437	16276
833.576	16367
833.714	16504
833.852	16398
833.991	16367
834.129	16432
834.267	16481
834.406	16329
834.544	16375
834.682	16459
834.821	16405
834.959	16466
835.097	16348
835.235	16481
835.373	16443
835.511	16367
835.65	16341
835.788	16375
835.926	16147
836.064	15998
836.202	16185
836.34	16352
836.478	16413
836.615	16306
836.753	16440
836.891	16310
837.029	16363
837.167	16276
837.305	16188
837.443	16192
837.58	16181
837.718	16166
837.856	16272
837.993	16120
838.131	16158
838.269	16105
838.406	16265
838.544	16078
838.681	15785
838.819	15823
838.956	15618
839.094	15812
839.231	15808
839.369	15865
839.506	16082
839.643	15865
839.781	15819
839.918	15671
840.055	15812
840.193	15774
840.33	15698
840.467	15724
840.604	15812
840.742	15998
840.879	15603
841.016	15603
841.153	15667
841.29	15831
841.427	15762
841.564	15831
841.701	15850
841.838	15671
841.975	15606
842.112	15709
842.249	15538
842.385	15405
842.522	15816
842.659	15500
842.796	15507
842.933	15538
843.069	15439
843.206	15557
843.343	15652
843.479	15462
843.616	15549
843.752	15370
843.889	15252
844.025	15485
844.162	15291
844.298	15458
844.435	15283
844.571	15249
844.708	15397
844.844	15488
844.98	15534
845.117	15439
845.253	15329
845.389	15077
845.525	15272
845.661	15184
845.798	15009
845.934	15165
846.07	15020
846.206	15150
846.342	15214
846.478	15165
846.614	14921
846.75	14880
846.886	14849
847.022	15005
847.158	14906
847.294	14910
847.429	14819
847.565	14929
847.701	15097
847.837	14636
847.972	14579
848.108	14727
848.244	14693
848.379	14473
848.515	14484
848.65	14393
848.786	14419
848.921	14507
849.057	14632
849.192	14632
849.328	14514
849.463	14587
849.598	14446
849.734	14408
849.869	14370
850.004	14187
850.14	14263
850.275	14259
850.41	14214
850.545	14252
850.68	14199
850.815	14275
850.95	14271
851.085	14431
851.22	14423
851.355	14233
851.49	14248
851.625	14210
851.76	14161
851.895	14172
852.03	14149
852.165	14172
852.299	14256
852.434	14374
852.569	14275
852.703	14332
852.838	14366
852.973	14465
853.107	14336
853.242	14286
853.376	14183
853.511	13989
853.645	14073
853.78	14214
853.914	14145
854.048	14088
854.183	14027
854.317	14145
854.451	14240
854.585	14119
854.72	14130
854.854	14202
854.988	14084
855.122	14031
855.256	13978
855.39	14157
855.524	14263
855.658	14183
855.792	14229
855.926	14168
856.06	14233
856.194	14142
856.327	14115
856.461	14100
856.595	14058
856.729	14157
856.862	14172
856.996	14206
857.13	14176
857.263	14259
857.397	14153
857.53	14069
857.664	14210
857.797	14138
857.931	14214
858.064	14206
858.197	14271
858.331	14069
858.464	14092
858.597	14005
858.731	14119
858.864	14103
858.997	14054
859.13	14267
859.263	14187
859.396	14115
859.529	14096
859.662	14043
859.795	14073
859.928	14138
860.061	14313
860.194	14267
860.327	14103
860.46	14065
860.592	14290
860.725	14244
860.858	14275
860.99	14096
861.123	14031
861.256	13959
861.388	14126
861.521	14868
861.653	13940
861.786	13947
861.918	13871
862.05	14046
862.183	14134
862.315	14088
862.447	14081
862.58	14187
862.712	13928
862.844	13852
862.976	14054
863.108	13906
863.24	14301
863.372	13772
863.504	13906
863.636	13822
863.768	13947
863.9	13928
864.032	13875
864.164	13894
864.296	13993
864.428	13955
864.559	14039
864.691	14020
864.823	14008
864.954	13993
865.086	13947
865.217	13909
865.349	13875
865.48	13856
865.612	13879
865.743	14153
865.875	13940
866.006	13883
866.137	14012
866.269	13875
866.4	13856
866.531	13883
866.662	13887
866.793	13921
866.924	13947
867.055	13906
867.186	13936
867.317	13875
867.448	13769
867.579	13856
867.71	13864
867.841	13746
867.972	14001
868.103	13921
868.233	13906
868.364	13925
868.495	13989
868.625	14138
868.756	14256
868.886	13997
869.017	14123
869.147	14248
869.278	14290
869.408	14115
869.539	14153
869.669	14244
869.799	14256
869.929	14328
870.06	14248
870.19	14442
870.32	14446
870.45	14579
870.58	14533
870.71	14750
870.84	14708
870.97	14571
871.1	14636
871.23	14807
871.36	14716
871.489	14648
871.619	14762
871.749	14743
871.879	14857
872.008	14910
872.138	14868
872.267	14792
872.397	14686
872.526	14629
872.656	14579
872.785	14708
872.915	14830
873.044	14925
873.173	14864
873.303	14971
873.432	14819
873.561	14963
873.69	14826
873.819	14853
873.948	14902
874.077	14788
874.206	14758
874.335	14910
874.464	14956
874.593	15214
874.722	15104
874.851	15241
874.979	15211
875.108	15226
875.237	15150
875.365	15070
875.494	15070
875.623	15321
875.751	15150
875.88	15252
876.008	15336
876.136	15469
876.265	15625
876.393	15660
876.521	15603
876.65	15671
876.778	15530
876.906	15576
877.034	15545
877.162	15637
877.29	15549
877.418	15633
877.546	15557
877.674	15584
877.802	15629
877.93	15473
878.058	15534
878.185	15382
878.313	15458
878.441	15580
878.568	15515
878.696	15477
878.824	15587
878.951	15675
879.079	15816
879.206	15842
879.333	15816
879.461	15561
879.588	15682
879.715	15793
879.842	15876
879.97	15572
880.097	15367
880.224	15439
880.351	15523
880.478	15481
880.605	15439
880.732	15526
880.859	15629
880.986	15401
881.112	15580
881.239	15401
881.366	15237
881.493	15146
881.619	15062
881.746	15127
881.872	15085
881.999	15074
882.125	14986
882.252	15123
882.378	15157
882.505	15169
882.631	15043
882.757	14918
882.883	14921
883.01	14967
883.136	14872
883.262	14765
883.388	14708
883.514	14834
883.64	14891
883.766	14811
883.892	14686
884.018	14800
884.143	14842
884.269	14944
884.395	14689
884.52	14556
884.646	14629
884.772	14560
884.897	14514
885.023	14610
885.148	14750
885.274	14819
885.399	14739
885.524	14606
885.65	14648
885.775	14598
885.9	14667
886.025	14644
886.15	14613
886.275	14602
886.4	14431
886.525	14545
886.65	14499
886.775	14503
886.9	14727
887.025	14823
887.149	14564
887.274	14507
887.399	14427
887.523	14412
887.648	14400
887.773	14309
887.897	14473
888.021	14476
888.146	14389
888.27	14552
888.395	14571
888.519	14473
888.643	14427
888.767	14503
888.891	14362
889.015	14206
889.139	14294
889.263	14256
889.387	14427
889.511	14495
889.635	14358
889.759	14259
889.883	14229
890.006	14278
890.13	14377
890.254	14111
890.377	14320
890.501	14183
890.624	14088
890.748	14214
890.871	14153
890.995	13951
891.118	13959
891.241	13951
891.364	14065
891.488	14252
891.611	14020
891.734	14005
891.857	13986
891.98	14100
892.103	14107
892.226	14043
892.349	13986
892.471	13803
892.594	13978
892.717	14012
892.839	14001
892.962	13913
893.085	14039
893.207	14005
893.33	13856
893.452	13970
893.575	14077
893.697	13993
893.819	14225
893.941	14221
894.064	14225
894.186	13963
894.308	13989
894.43	14195
894.552	14202
894.674	14176
894.796	13928
894.918	14153
895.04	13967
895.161	14138
895.283	14103
895.405	14065
895.526	14164
895.648	14081
895.769	14176
895.891	14187
896.012	14263
896.134	14157
896.255	14221
896.376	14199
896.498	14123
896.619	14229
896.74	14172
896.861	14233
896.982	14514
897.103	14701
897.224	14412
897.345	14389
897.466	14370
897.587	14480
897.708	14625
897.828	14495
897.949	14423
898.07	14286
898.19	14400
898.311	14579
898.431	14434
898.552	14598
898.672	14549
898.792	14606
898.913	14640
899.033	14473
899.153	14423
899.273	14282
899.393	14412
899.513	14286
899.633	14358
899.753	14438
899.873	14355
899.993	14389
900.113	14320
900.232	14446
900.352	14358
900.472	14271
900.591	14168
900.711	14278
900.83	14157
900.95	14332
901.069	14332
901.189	14172
901.308	14001
901.427	13944
901.546	13925
901.665	13909
901.784	14039
901.904	13788
902.023	13742
902.141	13552
902.26	13537
902.379	13590
902.498	13411
902.617	13453
902.735	13483
902.854	13460
902.973	13518
903.091	13320
903.21	13251
903.328	13251
903.446	13137
903.565	13038
903.683	13023
903.801	13038
903.919	12996
904.038	13057
904.156	12859
904.274	12928
904.392	12863
904.51	12852
904.627	12916
904.745	12954
904.863	12993
904.981	12681
905.098	12597
905.216	12574
905.334	12654
905.451	12593
905.569	12528
905.686	12639
905.803	12608
905.921	12376
906.038	12528
906.155	12471
906.272	12285
906.389	12319
906.506	12167
906.623	12213
906.74	12095
906.857	12064
906.974	12106
907.091	12205
907.208	12353
907.324	12144
907.441	12068
907.557	11897
907.674	11992
907.79	11836
907.907	11935
908.023	11939
908.139	11965
908.256	11828
908.372	11805
908.488	11783
908.604	11737
908.72	11767
908.836	11707
908.952	11623
909.068	11691
909.184	11756
909.3	11634
909.415	11710
909.531	11668
909.647	11516
909.762	11414
909.878	11482
909.993	11368
910.108	11383
910.224	11482
910.339	11417
910.454	11318
910.57	11250
910.685	11223
910.8	11532
910.915	11436
911.03	11425
911.145	11113
911.259	11121
911.374	11094
911.489	11022
911.604	11037
911.718	10877
911.833	10919
911.947	10828
912.062	10626
912.176	10896
912.291	10896
912.405	10923
912.519	11117
912.633	11113
912.748	10976
912.862	10843
912.976	10710
913.09	10660
913.204	10736
913.318	10805
913.431	10877
913.545	10828
913.659	10949
913.772	10771
913.886	10710
914	10607
914.113	10831
914.226	10736
914.34	10744
914.453	10550
914.566	10740
914.68	10622
914.793	10584
914.906	10474
915.019	10402
915.132	10379
915.245	10409
915.358	10470
915.47	10432
915.583	10497
915.696	10390
915.809	10592
915.921	10546
916.034	10440
916.146	10382
916.259	10413
916.371	10485
916.483	10379
916.595	10333
916.708	10291
916.82	10333
916.932	10344
917.044	10360
917.156	10295
917.268	10261
917.38	10322
917.491	10227
917.603	10268
917.715	10367
917.826	10322
917.938	10192
918.049	10147
918.161	10230
918.272	10470
918.384	10440
918.495	10303
918.606	10063
918.717	10078
918.828	10211
918.939	10181
919.05	10082
919.161	10112
919.272	9876
919.383	10021
919.494	10154
919.604	10291
919.715	10196
919.826	10055
919.936	10067
920.047	10223
920.157	10124
920.267	10409
920.378	10223
920.488	10124
920.598	10394
920.708	10500
920.818	10348
920.928	10284
921.038	10535
921.148	10470
921.258	10169
921.368	10097
921.477	10040
921.587	9915
921.697	9915
921.806	10051
921.916	9930
922.025	9770
922.134	9740
922.244	9652
922.353	9709
922.462	9625
922.571	9584
922.68	9420
922.789	9336
922.898	9389
923.007	9370
923.116	9469
923.224	9420
923.333	9378
923.442	9340
923.55	9245
923.659	9313
923.767	9412
923.876	9291
923.984	9363
924.092	9150
924.201	9291
924.309	9272
924.417	9351
924.525	9161
924.633	9218
924.741	10143
924.849	9051
924.956	9180
925.064	9047
925.172	8933
925.279	9047
925.387	9051
925.494	8998
925.602	9195
925.709	9116
925.816	8994
925.924	9036
926.031	9207
926.138	9020
926.245	9169
926.352	9001
926.459	9104
926.566	9173
926.673	9039
926.779	8960
926.886	8921
926.993	8785
927.099	8777
927.206	8682
927.312	8720
927.419	8921
927.525	8815
927.631	8788
927.737	8724
927.843	8697
927.95	8549
928.056	8583
928.162	8705
928.267	8712
928.373	9298
928.479	8769
928.585	8476
928.69	8716
928.796	8727
928.901	8560
929.007	8404
929.112	8629
929.218	8617
929.323	8514
929.428	8514
929.533	8648
929.638	8393
929.743	8499
929.848	8537
929.953	8473
930.058	8408
930.163	8237
930.267	8309
930.372	8408
930.477	8195
930.581	8484
930.685	8279
930.79	8199
930.894	8210
930.998	8214
931.103	8351
931.207	7959
931.311	7932
931.415	7887
931.519	7727
931.623	7628
