Data from test_V78500241_1473.txt Node
Date: Fri Mar 25 14:43:58 CST 2022
User: usil
Spectrometer: V785-0024
Trigger mode: 0
Integration Time (sec): 4.000000E-1
Scans to average: 1
Nonlinearity correction enabled: false
Boxcar width: 0
Storing dark spectrum: false
XAxis mode: Wavelengths
Number of Pixels in Spectrum: 1024
>>>>>Begin Spectral Data<<<<<
801.071	22470
801.214	22325
801.356	22120
801.499	22013
801.641	21778
801.783	21816
801.926	21698
802.068	21804
802.211	21759
802.353	21618
802.496	21450
802.638	21291
802.78	21256
802.923	21222
803.065	21169
803.208	21180
803.35	21116
803.492	21203
803.635	21214
803.777	21043
803.919	21302
804.061	21389
804.204	21275
804.346	21096
804.488	20937
804.63	21055
804.773	20937
804.915	21051
805.057	21165
805.199	21081
805.341	21100
805.483	21195
805.626	21123
805.768	20906
805.91	21138
806.052	21089
806.194	20982
806.336	21241
806.478	21005
806.62	20944
806.762	21230
806.904	21249
807.046	21561
807.188	21492
807.33	21458
807.472	21477
807.614	21462
807.756	21351
807.898	21416
808.04	21203
808.182	21344
808.324	21256
808.465	21325
808.607	21542
808.749	21724
808.891	21743
809.033	21869
809.174	21656
809.316	21720
809.458	21618
809.6	21500
809.741	21568
809.883	21591
810.025	21732
810.166	21675
810.308	21583
810.45	21576
810.591	21542
810.733	21298
810.875	21332
811.016	21188
811.158	21203
811.299	21233
811.441	21401
811.582	21443
811.724	21249
811.865	21161
812.007	21264
812.148	21218
812.29	21291
812.431	21576
812.573	21694
812.714	21583
812.855	21709
812.997	21922
813.138	22021
813.279	21732
813.421	21701
813.562	21717
813.703	21591
813.845	21454
813.986	21138
814.127	21005
814.268	20845
814.41	20815
814.551	20720
814.692	20804
814.833	20701
814.974	20720
815.115	20800
815.256	20602
815.397	20781
815.539	20583
815.68	20503
815.821	20476
815.962	20560
816.103	20609
816.244	20290
816.385	20374
816.526	20183
816.666	20092
816.807	19967
816.948	20130
817.089	20130
817.23	19963
817.371	19753
817.512	19902
817.653	19955
817.793	19944
817.934	19868
818.075	19959
818.216	19936
818.356	19970
818.497	19791
818.638	19575
818.778	19647
818.919	19674
819.06	19776
819.2	19734
819.341	19719
819.481	19909
819.622	19864
819.762	20149
819.903	20024
820.043	19925
820.184	19951
820.324	19921
820.465	19955
820.605	19917
820.746	19917
820.886	19769
821.026	19875
821.167	19757
821.307	19959
821.447	19784
821.588	19750
821.728	19597
821.868	19445
822.008	19259
822.149	19285
822.289	19236
822.429	19034
822.569	19008
822.709	18928
822.849	18658
822.99	18757
823.13	18844
823.27	18817
823.41	18540
823.55	18601
823.69	18521
823.83	18589
823.97	18582
824.11	18422
824.25	18327
824.389	18490
824.529	18528
824.669	18456
824.809	18502
824.949	18369
825.089	18525
825.228	18429
825.368	18178
825.508	18220
825.648	18220
825.787	18053
825.927	18167
826.067	18144
826.206	18049
826.346	18251
826.485	18201
826.625	18129
826.765	18258
826.904	18319
827.044	18026
827.183	17935
827.323	17802
827.462	17878
827.601	17798
827.741	17760
827.88	17882
828.02	17779
828.159	17779
828.298	17821
828.437	17836
828.577	17798
828.716	17916
828.855	17794
828.994	17604
829.134	17589
829.273	17695
829.412	17726
829.551	17478
829.69	17623
829.829	17638
829.968	17748
830.107	17718
830.246	17642
830.385	17570
830.524	17486
830.663	17364
830.802	17429
830.941	17250
831.08	17197
831.219	17231
831.357	17204
831.496	17440
831.635	17140
831.774	17136
831.913	17140
832.051	17147
832.19	17037
832.329	17098
832.467	16965
832.606	16896
832.744	16927
832.883	16942
833.022	16877
833.16	16908
833.299	16984
833.437	16999
833.576	17079
833.714	17033
833.852	17014
833.991	16984
834.129	17083
834.267	16949
834.406	16843
834.544	17041
834.682	16980
834.821	16942
834.959	17014
835.097	16991
835.235	17003
835.373	16946
835.511	16892
835.65	16881
835.788	16889
835.926	16683
836.064	16656
836.202	16748
836.34	16763
836.478	16930
836.615	16752
836.753	16843
836.891	16930
837.029	16771
837.167	16858
837.305	16801
837.443	16797
837.58	16752
837.718	16896
837.856	16774
837.993	16615
838.131	16706
838.269	16607
838.406	16573
838.544	16641
838.681	16402
838.819	16261
838.956	16226
839.094	16261
839.231	16280
839.369	16459
839.506	16752
839.643	16440
839.781	16234
839.918	16158
840.055	16268
840.193	16211
840.33	16219
840.467	16280
840.604	16207
840.742	16561
840.879	16181
841.016	16120
841.153	16234
841.29	16310
841.427	16268
841.564	16390
841.701	16147
841.838	16147
841.975	16139
842.112	16158
842.249	16055
842.385	15979
842.522	16192
842.659	16044
842.796	16025
842.933	16055
843.069	15979
843.206	15876
843.343	16128
843.479	16013
843.616	16097
843.752	15785
843.889	15686
844.025	15861
844.162	15816
844.298	15918
844.435	15911
844.571	15774
844.708	15846
844.844	15926
844.98	15991
845.117	15953
845.253	15743
845.389	15785
845.525	15888
845.661	15842
845.798	15819
845.934	15876
846.07	15766
846.206	15865
846.342	15922
846.478	15732
846.614	15625
846.75	15447
846.886	15386
847.022	15492
847.158	15367
847.294	15412
847.429	15435
847.565	15370
847.701	15652
847.837	15123
847.972	15066
848.108	15180
848.244	15184
848.379	14975
848.515	14960
848.65	14937
848.786	15066
848.921	15032
849.057	14994
849.192	15039
849.328	14956
849.463	14998
849.598	14925
849.734	14902
849.869	14857
850.004	14716
850.14	14735
850.275	14739
850.41	14781
850.545	14705
850.68	14727
850.815	14750
850.95	14682
851.085	14830
851.22	14743
851.355	14670
851.49	14716
851.625	14788
851.76	14743
851.895	14636
852.03	14587
852.165	14648
852.299	14811
852.434	14853
852.569	14758
852.703	14712
852.838	14857
852.973	14864
853.107	14857
853.242	14674
853.376	14625
853.511	14476
853.645	14575
853.78	14708
853.914	14613
854.048	14552
854.183	14648
854.317	14587
854.451	14769
854.585	14564
854.72	14511
854.854	14651
854.988	14492
855.122	14571
855.256	14450
855.39	14488
855.524	14708
855.658	14621
855.792	14659
855.926	14629
856.06	14682
856.194	14735
856.327	14613
856.461	14598
856.595	14495
856.729	14686
856.862	14632
856.996	14678
857.13	14655
857.263	14644
857.397	14743
857.53	14610
857.664	14629
857.797	14663
857.931	14663
858.064	14602
858.197	14708
858.331	14632
858.464	14663
858.597	14412
858.731	14556
858.864	14659
858.997	14564
859.13	14655
859.263	14613
859.396	14724
859.529	14545
859.662	14518
859.795	14583
859.928	14689
860.061	14788
860.194	14868
860.327	14693
860.46	14537
860.592	14648
860.725	14667
860.858	14750
860.99	14617
861.123	14541
861.256	14442
861.388	14617
861.521	15287
861.653	14434
861.786	14362
861.918	14427
862.05	14514
862.183	14473
862.315	14552
862.447	14579
862.58	14556
862.712	14347
862.844	14374
862.976	14419
863.108	14495
863.24	14754
863.372	14275
863.504	14278
863.636	14301
863.768	14377
863.9	14358
864.032	14282
864.164	14275
864.296	14347
864.428	14457
864.559	14476
864.691	14434
864.823	14412
864.954	14415
865.086	14358
865.217	14408
865.349	14347
865.48	14404
865.612	14351
865.743	14537
865.875	14298
866.006	14343
866.137	14366
866.269	14366
866.4	14286
866.531	14298
866.662	14145
866.793	14351
866.924	14320
867.055	14393
867.186	14328
867.317	14343
867.448	14263
867.579	14282
867.71	14202
867.841	14126
867.972	14214
868.103	14370
868.233	14332
868.364	14362
868.495	14298
868.625	14621
868.756	14644
868.886	14507
869.017	14522
869.147	14712
869.278	14708
869.408	14686
869.539	14522
869.669	14575
869.799	14617
869.929	14697
870.06	14686
870.19	14921
870.32	14891
870.45	14887
870.58	15032
870.71	15169
870.84	15074
870.97	15028
871.1	14963
871.23	15062
871.36	15291
871.489	15081
871.619	15112
871.749	15127
871.879	15188
872.008	15249
872.138	15157
872.267	15142
872.397	14971
872.526	15077
872.656	14918
872.785	15074
872.915	15131
873.044	15203
873.173	15264
873.303	15233
873.432	15241
873.561	15302
873.69	15317
873.819	15173
873.948	15283
874.077	15348
874.206	15222
874.335	15291
874.464	15359
874.593	15553
874.722	15488
874.851	15549
874.979	15542
875.108	15633
875.237	15496
875.365	15401
875.494	15462
875.623	15641
875.751	15564
875.88	15614
876.008	15713
876.136	15850
876.265	15979
876.393	16105
876.521	16112
876.65	16036
876.778	15956
876.906	15975
877.034	15926
877.162	15918
877.29	15835
877.418	15926
877.546	15884
877.674	15892
877.802	16032
877.93	15998
878.058	15918
878.185	15903
878.313	15983
878.441	15964
878.568	15907
878.696	15949
878.824	16055
878.951	16059
879.079	16291
879.206	16428
879.333	16196
879.461	16139
879.588	16188
879.715	16276
879.842	16367
879.97	16207
880.097	15892
880.224	15956
880.351	15850
880.478	15842
880.605	15816
880.732	15808
880.859	16093
880.986	15903
881.112	15854
881.239	15682
881.366	15641
881.493	15580
881.619	15443
881.746	15530
881.872	15405
881.999	15496
882.125	15542
882.252	15504
882.378	15519
882.505	15622
882.631	15428
882.757	15329
882.883	15401
883.01	15245
883.136	15264
883.262	15119
883.388	15165
883.514	15321
883.64	15351
883.766	15294
883.892	15169
884.018	15070
884.143	15310
884.269	15492
884.395	15169
884.52	15074
884.646	15020
884.772	15020
884.897	14944
885.023	15028
885.148	15066
885.274	15119
885.399	15070
885.524	15039
885.65	14895
885.775	15028
885.9	14948
886.025	15131
886.15	15039
886.275	14906
886.4	14807
886.525	15009
886.65	14990
886.775	14891
886.9	15081
887.025	15230
887.149	15009
887.274	14910
887.399	14769
887.523	14796
887.648	14785
887.773	14743
887.897	14868
888.021	14910
888.146	14788
888.27	14906
888.395	14941
888.519	14929
888.643	14807
888.767	14910
888.891	14720
889.015	14697
889.139	14712
889.263	14727
889.387	14754
889.511	14842
889.635	14648
889.759	14701
889.883	14598
890.006	14735
890.13	14788
890.254	14689
890.377	14552
890.501	14446
890.624	14396
890.748	14575
890.871	14385
890.995	14336
891.118	14351
891.241	14381
891.364	14415
891.488	14594
891.611	14278
891.734	14339
891.857	14366
891.98	14324
892.103	14419
892.226	14404
892.349	14343
892.471	14221
892.594	14351
892.717	14400
892.839	14324
892.962	14237
893.085	14442
893.207	14374
893.33	14176
893.452	14267
893.575	14469
893.697	14370
893.819	14530
893.941	14511
894.064	14522
894.186	14404
894.308	14294
894.43	14336
894.552	14590
894.674	14556
894.796	14301
894.918	14457
895.04	14377
895.161	14389
895.283	14465
895.405	14381
895.526	14396
895.648	14476
895.769	14457
895.891	14552
896.012	14484
896.134	14648
896.255	14476
896.376	14454
896.498	14640
896.619	14564
896.74	14587
896.861	14598
896.982	14769
897.103	14857
897.224	14754
897.345	14819
897.466	14617
897.587	14785
897.708	14960
897.828	14842
897.949	14727
898.07	14568
898.19	14754
898.311	14845
898.431	14823
898.552	14883
898.672	14921
898.792	14979
898.913	14895
899.033	14796
899.153	14659
899.273	14545
899.393	14636
899.513	14693
899.633	14773
899.753	14739
899.873	14697
899.993	14735
900.113	14769
900.232	14735
900.352	14686
900.472	14621
900.591	14625
900.711	14598
900.83	14629
900.95	14682
901.069	14765
901.189	14484
901.308	14267
901.427	14176
901.546	14229
901.665	14278
901.784	14252
901.904	14096
902.023	14058
902.141	13746
902.26	13784
902.379	13788
902.498	13826
902.617	13784
902.735	13883
902.854	13765
902.973	13734
903.091	13655
903.21	13426
903.328	13578
903.446	13426
903.565	13457
903.683	13411
903.801	13297
903.919	13464
904.038	13346
904.156	13236
904.274	13251
904.392	13263
904.51	13236
904.627	13183
904.745	13251
904.863	13274
904.981	13023
905.098	12886
905.216	12840
905.334	12943
905.451	12829
905.569	12939
905.686	12856
905.803	12909
905.921	12719
906.038	12741
906.155	12829
906.272	12673
906.389	12722
906.506	12502
906.623	12490
906.74	12494
906.857	12410
906.974	12433
907.091	12509
907.208	12593
907.324	12551
907.441	12448
907.557	12194
907.674	12209
907.79	12129
907.907	12209
908.023	12216
908.139	12235
908.256	12205
908.372	12136
908.488	12140
908.604	12011
908.72	12022
908.836	12045
908.952	11942
909.068	11999
909.184	12098
909.3	11946
909.415	12011
909.531	11942
909.647	11752
909.762	11733
909.878	11665
909.993	11805
910.108	11680
910.224	11703
910.339	11680
910.454	11680
910.57	11623
910.685	11448
910.8	11870
910.915	11726
911.03	11615
911.145	11463
911.259	11349
911.374	11535
911.489	11376
911.604	11246
911.718	11174
911.833	11265
911.947	11155
912.062	10980
912.176	11185
912.291	11204
912.405	11159
912.519	11414
912.633	11353
912.748	11280
912.862	11170
912.976	11033
913.09	10919
913.204	11033
913.318	11117
913.431	11121
913.545	11136
913.659	11227
913.772	11109
913.886	10987
914	10957
914.113	10949
914.226	11121
914.34	10938
914.453	10828
914.566	11029
914.68	10858
914.793	10816
914.906	10706
915.019	10664
915.132	10626
915.245	10679
915.358	10721
915.47	10698
915.583	10668
915.696	10774
915.809	10790
915.921	10839
916.034	10721
916.146	10664
916.259	10645
916.371	10778
916.483	10786
916.595	10580
916.708	10645
916.82	10630
916.932	10618
917.044	10653
917.156	10565
917.268	10455
917.38	10375
917.491	10474
917.603	10535
917.715	10630
917.826	10599
917.938	10466
918.049	10379
918.161	10512
918.272	10626
918.384	10618
918.495	10489
918.606	10447
918.717	10386
918.828	10367
918.939	10375
919.05	10348
919.161	10344
919.272	10086
919.383	10249
919.494	10402
919.604	10577
919.715	10329
919.826	10303
919.936	10402
920.047	10554
920.157	10394
920.267	10645
920.378	10382
920.488	10314
920.598	10569
920.708	10755
920.818	10550
920.928	10596
921.038	10828
921.148	10694
921.258	10428
921.368	10337
921.477	10227
921.587	10318
921.697	10131
921.806	10242
921.916	10139
922.025	10010
922.134	9918
922.244	9876
922.353	9884
922.462	9899
922.571	9816
922.68	9720
922.789	9648
922.898	9587
923.007	9591
923.116	9675
923.224	9633
923.333	9610
923.442	9500
923.55	9473
923.659	9526
923.767	9587
923.876	9462
923.984	9606
924.092	9424
924.201	9408
924.309	9469
924.417	9447
924.525	9458
924.633	9507
924.741	10436
924.849	9325
924.956	9431
925.064	9203
925.172	9192
925.279	9199
925.387	9298
925.494	9306
925.602	9431
925.709	9340
925.816	9199
925.924	9378
926.031	9386
926.138	9272
926.245	9363
926.352	9222
926.459	9321
926.566	9374
926.673	9272
926.779	9150
926.886	9138
926.993	9024
927.099	8948
927.206	8963
927.312	8967
927.419	9062
927.525	9039
927.631	9074
927.737	8944
927.843	8838
927.95	8766
928.056	8883
928.162	8891
928.267	8918
928.373	9530
928.479	8948
928.585	8743
928.69	8906
928.796	8982
928.901	8773
929.007	8712
929.112	8697
929.218	8792
929.323	8758
929.428	8678
929.533	8853
929.638	8686
929.743	8689
929.848	8750
929.953	8712
930.058	8621
930.163	8503
930.267	8545
930.372	8632
930.477	8431
930.581	8667
930.685	8484
930.79	8393
930.894	8404
930.998	8358
931.103	8549
931.207	8218
931.311	8172
931.415	8088
931.519	7921
931.623	7902
