Data from test_V78500241_3087.txt Node
Date: Fri Mar 25 14:55:12 CST 2022
User: usil
Spectrometer: V785-0024
Trigger mode: 0
Integration Time (sec): 4.000000E-1
Scans to average: 1
Nonlinearity correction enabled: false
Boxcar width: 0
Storing dark spectrum: false
XAxis mode: Wavelengths
Number of Pixels in Spectrum: 1024
>>>>>Begin Spectral Data<<<<<
801.071	22006
801.214	21831
801.356	21633
801.499	21614
801.641	21298
801.783	21310
801.926	21466
802.068	21283
802.211	21260
802.353	21176
802.496	21081
802.638	20986
802.78	20986
802.923	20861
803.065	20667
803.208	20659
803.35	20796
803.492	20857
803.635	20937
803.777	20819
803.919	20838
804.061	21096
804.204	20769
804.346	20629
804.488	20716
804.63	20708
804.773	20613
804.915	20773
805.057	20834
805.199	20682
805.341	20644
805.483	20754
805.626	20739
805.768	20625
805.91	20617
806.052	20800
806.194	20571
806.336	20864
806.478	20727
806.62	20640
806.762	20765
806.904	20899
807.046	21173
807.188	20971
807.33	20986
807.472	20990
807.614	20872
807.756	20952
807.898	20857
808.04	20754
808.182	20712
808.324	20792
808.465	20838
808.607	20971
808.749	21089
808.891	21104
809.033	21237
809.174	21116
809.316	20971
809.458	20971
809.6	21058
809.741	21207
809.883	21207
810.025	21298
810.166	21173
810.308	21237
810.45	21298
810.591	21093
810.733	20921
810.875	20838
811.016	20743
811.158	20701
811.299	20849
811.441	20937
811.582	20990
811.724	20769
811.865	20842
812.007	20617
812.148	20872
812.29	20933
812.431	21039
812.573	21127
812.714	21264
812.855	21416
812.997	21405
813.138	21599
813.279	21397
813.421	21348
813.562	21203
813.703	21062
813.845	21017
813.986	20750
814.127	20518
814.268	20389
814.41	20385
814.551	20282
814.692	20438
814.833	20324
814.974	20336
815.115	20377
815.256	20259
815.397	20271
815.539	20122
815.68	20126
815.821	20058
815.962	20122
816.103	20035
816.244	20039
816.385	19849
816.526	19849
816.666	19670
816.807	19487
816.948	19529
817.089	19647
817.23	19578
817.371	19460
817.512	19544
817.653	19441
817.793	19362
817.934	19327
818.075	19540
818.216	19518
818.356	19392
818.497	19308
818.638	19080
818.778	19209
818.919	19080
819.06	19164
819.2	19331
819.341	19381
819.481	19472
819.622	19415
819.762	19693
819.903	19655
820.043	19548
820.184	19426
820.324	19343
820.465	19613
820.605	19449
820.746	19510
820.886	19278
821.026	19480
821.167	19460
821.307	19639
821.447	19403
821.588	19304
821.728	19194
821.868	18947
822.008	18977
822.149	18901
822.289	18901
822.429	18711
822.569	18601
822.709	18540
822.849	18403
822.99	18403
823.13	18311
823.27	18353
823.41	18155
823.55	18060
823.69	18163
823.83	18106
823.97	18190
824.11	17927
824.25	17923
824.389	17954
824.529	17999
824.669	17939
824.809	18034
824.949	18026
825.089	17969
825.228	17950
825.368	17665
825.508	17714
825.648	17691
825.787	17851
825.927	17756
826.067	17672
826.206	17718
826.346	17745
826.485	17676
826.625	17558
826.765	17855
826.904	17676
827.044	17558
827.183	17452
827.323	17284
827.462	17398
827.601	17471
827.741	17258
827.88	17360
828.02	17269
828.159	17410
828.298	17486
828.437	17558
828.577	17337
828.716	17433
828.855	17311
828.994	17166
829.134	17166
829.273	17124
829.412	17105
829.551	17014
829.69	17079
829.829	17242
829.968	17288
830.107	17239
830.246	17208
830.385	17102
830.524	16995
830.663	16987
830.802	17006
830.941	16744
831.08	16755
831.219	16843
831.357	16763
831.496	16953
831.635	16656
831.774	16687
831.913	16698
832.051	16512
832.19	16565
832.329	16535
832.467	16535
832.606	16371
832.744	16478
832.883	16421
833.022	16379
833.16	16554
833.299	16558
833.437	16451
833.576	16390
833.714	16527
833.852	16542
833.991	16592
834.129	16645
834.267	16592
834.406	16523
834.544	16409
834.682	16584
834.821	16474
834.959	16637
835.097	16424
835.235	16645
835.373	16489
835.511	16470
835.65	16421
835.788	16428
835.926	16329
836.064	16067
836.202	16215
836.34	16413
836.478	16474
836.615	16390
836.753	16265
836.891	16592
837.029	16417
837.167	16379
837.305	16344
837.443	16268
837.58	16192
837.718	16363
837.856	16253
837.993	16246
838.131	16238
838.269	16192
838.406	16303
838.544	16124
838.681	15960
838.819	15968
838.956	15759
839.094	15770
839.231	15835
839.369	15987
839.506	16299
839.643	16029
839.781	15835
839.918	15739
840.055	15865
840.193	15774
840.33	15743
840.467	15759
840.604	15854
840.742	16010
840.879	15652
841.016	15675
841.153	15652
841.29	15911
841.427	15884
841.564	15857
841.701	15800
841.838	15747
841.975	15694
842.112	15793
842.249	15568
842.385	15492
842.522	15713
842.659	15587
842.796	15561
842.933	15492
843.069	15538
843.206	15488
843.343	15663
843.479	15698
843.616	15686
843.752	15378
843.889	15412
844.025	15500
844.162	15275
844.298	15443
844.435	15378
844.571	15298
844.708	15450
844.844	15519
844.98	15507
845.117	15363
845.253	15272
845.389	15252
845.525	15294
845.661	15340
845.798	15146
845.934	15218
846.07	15161
846.206	15249
846.342	15325
846.478	15142
846.614	15051
846.75	14899
846.886	14834
847.022	14994
847.158	14941
847.294	15013
847.429	14944
847.565	14956
847.701	15150
847.837	14606
847.972	14545
848.108	14815
848.244	14800
848.379	14670
848.515	14602
848.65	14419
848.786	14537
848.921	14484
849.057	14473
849.192	14613
849.328	14594
849.463	14556
849.598	14404
849.734	14374
849.869	14431
850.004	14389
850.14	14396
850.275	14347
850.41	14202
850.545	14202
850.68	14278
850.815	14259
850.95	14278
851.085	14484
851.22	14431
851.355	14377
851.49	14267
851.625	14225
851.76	14366
851.895	14176
852.03	14123
852.165	14229
852.299	14355
852.434	14328
852.569	14336
852.703	14332
852.838	14290
852.973	14408
853.107	14446
853.242	14248
853.376	14138
853.511	14088
853.645	14092
853.78	14290
853.914	14172
854.048	14138
854.183	14157
854.317	14240
854.451	14317
854.585	14149
854.72	14149
854.854	14244
854.988	14069
855.122	14035
855.256	14020
855.39	14221
855.524	14240
855.658	14161
855.792	14252
855.926	14157
856.06	14214
856.194	14225
856.327	14286
856.461	14123
856.595	14161
856.729	14073
856.862	14225
856.996	14199
857.13	14301
857.263	14229
857.397	14301
857.53	14218
857.664	14252
857.797	14225
857.931	14271
858.064	14225
858.197	14358
858.331	14142
858.464	14191
858.597	14081
858.731	14138
858.864	14065
858.997	14119
859.13	14134
859.263	14123
859.396	14221
859.529	14286
859.662	14092
859.795	14077
859.928	14172
860.061	14328
860.194	14381
860.327	14111
860.46	14225
860.592	14248
860.725	14301
860.858	14263
860.99	14183
861.123	14092
861.256	14134
861.388	14278
861.521	14800
861.653	14119
861.786	13982
861.918	13974
862.05	14031
862.183	14046
862.315	14206
862.447	14119
862.58	14180
862.712	13959
862.844	13837
862.976	14084
863.108	13860
863.24	14301
863.372	13898
863.504	13845
863.636	13974
863.768	14046
863.9	13974
864.032	13902
864.164	13887
864.296	13921
864.428	13997
864.559	14008
864.691	14024
864.823	13989
864.954	13940
865.086	13989
865.217	13947
865.349	13837
865.48	13830
865.612	13989
865.743	14088
865.875	13997
866.006	13921
866.137	13928
866.269	13947
866.4	13993
866.531	13925
866.662	13879
866.793	13902
866.924	13890
867.055	13883
867.186	13852
867.317	13868
867.448	13814
867.579	13807
867.71	13871
867.841	13849
867.972	13921
868.103	13913
868.233	13822
868.364	14001
868.495	14035
868.625	14145
868.756	14286
868.886	14214
869.017	14187
869.147	14294
869.278	14332
869.408	14237
869.539	14214
869.669	14229
869.799	14096
869.929	14252
870.06	14317
870.19	14568
870.32	14495
870.45	14571
870.58	14610
870.71	14682
870.84	14678
870.97	14514
871.1	14446
871.23	14796
871.36	14811
871.489	14739
871.619	14739
871.749	14720
871.879	14910
872.008	14876
872.138	14697
872.267	14765
872.397	14667
872.526	14659
872.656	14648
872.785	14667
872.915	14895
873.044	14845
873.173	14826
873.303	14929
873.432	14758
873.561	14883
873.69	14857
873.819	14792
873.948	14956
874.077	14895
874.206	14838
874.335	14727
874.464	15001
874.593	15188
874.722	15009
874.851	15127
874.979	15112
875.108	15264
875.237	15135
875.365	15104
875.494	15062
875.623	15199
875.751	15138
875.88	15233
876.008	15336
876.136	15420
876.265	15485
876.393	15736
876.521	15667
876.65	15622
876.778	15622
876.906	15526
877.034	15450
877.162	15496
877.29	15523
877.418	15526
877.546	15545
877.674	15511
877.802	15625
877.93	15485
878.058	15515
878.185	15424
878.313	15553
878.441	15610
878.568	15283
878.696	15485
878.824	15507
878.951	15663
879.079	15755
879.206	15812
879.333	15747
879.461	15663
879.588	15618
879.715	15724
879.842	15819
879.97	15663
880.097	15340
880.224	15348
880.351	15469
880.478	15504
880.605	15431
880.732	15374
880.859	15644
880.986	15488
881.112	15386
881.239	15245
881.366	15173
881.493	15066
881.619	15112
881.746	15081
881.872	14971
881.999	15039
882.125	15032
882.252	15146
882.378	15138
882.505	15275
882.631	15047
882.757	14887
882.883	14979
883.01	14925
883.136	14864
883.262	14807
883.388	14727
883.514	14887
883.64	14845
883.766	14899
883.892	14689
884.018	14739
884.143	14830
884.269	14937
884.395	14727
884.52	14484
884.646	14575
884.772	14549
884.897	14568
885.023	14632
885.148	14686
885.274	14727
885.399	14613
885.524	14602
885.65	14682
885.775	14594
885.9	14587
886.025	14708
886.15	14636
886.275	14560
886.4	14488
886.525	14511
886.65	14522
886.775	14480
886.9	14705
887.025	14811
887.149	14629
887.274	14480
887.399	14412
887.523	14301
887.648	14332
887.773	14324
887.897	14514
888.021	14473
888.146	14336
888.27	14503
888.395	14511
888.519	14537
888.643	14465
888.767	14511
888.891	14427
889.015	14195
889.139	14282
889.263	14347
889.387	14454
889.511	14587
889.635	14457
889.759	14309
889.883	14309
890.006	14267
890.13	14419
890.254	14221
890.377	14324
890.501	14119
890.624	14077
890.748	14161
890.871	14058
890.995	13909
891.118	13875
891.241	13936
891.364	14043
891.488	14073
891.611	13940
891.734	13898
891.857	13974
891.98	14012
892.103	13982
892.226	14088
892.349	14039
892.471	13833
892.594	13936
892.717	14062
892.839	13986
892.962	13928
893.085	14119
893.207	13974
893.33	13997
893.452	13887
893.575	13989
893.697	13978
893.819	14126
893.941	14153
894.064	14149
894.186	14016
894.308	13963
894.43	14142
894.552	14092
894.674	14073
894.796	13982
894.918	14031
895.04	14001
895.161	14206
895.283	14069
895.405	14043
895.526	14096
895.648	14153
895.769	14164
895.891	14202
896.012	14191
896.134	14221
896.255	14164
896.376	14168
896.498	14138
896.619	14221
896.74	14225
896.861	14248
896.982	14602
897.103	14693
897.224	14488
897.345	14446
897.466	14385
897.587	14324
897.708	14473
897.828	14552
897.949	14438
898.07	14282
898.19	14370
898.311	14682
898.431	14495
898.552	14587
898.672	14564
898.792	14590
898.913	14537
899.033	14461
899.153	14358
899.273	14313
899.393	14419
899.513	14480
899.633	14434
899.753	14404
899.873	14408
899.993	14461
900.113	14442
900.232	14377
900.352	14358
900.472	14252
900.591	14415
900.711	14328
900.83	14237
900.95	14339
901.069	14415
901.189	14202
901.308	13909
901.427	13890
901.546	13936
901.665	14012
901.784	13982
901.904	13772
902.023	13746
902.141	13552
902.26	13540
902.379	13677
902.498	13495
902.617	13525
902.735	13525
902.854	13468
902.973	13502
903.091	13209
903.21	13202
903.328	13255
903.446	13080
903.565	13012
903.683	13206
903.801	13000
903.919	13099
904.038	13061
904.156	12947
904.274	13008
904.392	12810
904.51	12856
904.627	12958
904.745	12939
904.863	12821
904.981	12650
905.098	12525
905.216	12544
905.334	12471
905.451	12525
905.569	12574
905.686	12616
905.803	12582
905.921	12346
906.038	12441
906.155	12403
906.272	12247
906.389	12308
906.506	12216
906.623	12197
906.74	12159
906.857	12102
906.974	12175
907.091	12235
907.208	12327
907.324	12209
907.441	12148
907.557	11901
907.674	11897
907.79	11889
907.907	11817
908.023	11973
908.139	11889
908.256	11904
908.372	11828
908.488	11821
908.604	11703
908.72	11600
908.836	11665
908.952	11676
909.068	11733
909.184	11840
909.3	11653
909.415	11699
909.531	11676
909.647	11425
909.762	11459
909.878	11444
909.993	11436
910.108	11459
910.224	11372
910.339	11474
910.454	11395
910.57	11303
910.685	11189
910.8	11532
910.915	11486
911.03	11334
911.145	11155
911.259	11185
911.374	11147
911.489	10991
911.604	11029
911.718	10927
911.833	10949
911.947	10767
912.062	10733
912.176	10915
912.291	10953
912.405	10858
912.519	11090
912.633	11162
912.748	10980
912.862	10828
912.976	10828
913.09	10687
913.204	10752
913.318	10763
913.431	10820
913.545	10869
913.659	10911
913.772	10778
913.886	10679
914	10637
914.113	10634
914.226	10816
914.34	10763
914.453	10577
914.566	10809
914.68	10554
914.793	10622
914.906	10542
915.019	10466
915.132	10432
915.245	10375
915.358	10402
915.47	10455
915.583	10424
915.696	10489
915.809	10577
915.921	10599
916.034	10379
916.146	10379
916.259	10325
916.371	10462
916.483	10398
916.595	10356
916.708	10394
916.82	10390
916.932	10284
917.044	10272
917.156	10371
917.268	10249
917.38	10215
917.491	10238
917.603	10185
917.715	10325
917.826	10352
917.938	10215
918.049	10109
918.161	10268
918.272	10394
918.384	10440
918.495	10322
918.606	10109
918.717	10128
918.828	10207
918.939	10223
919.05	10055
919.161	10078
919.272	9949
919.383	10021
919.494	10257
919.604	10386
919.715	10181
919.826	10120
919.936	10105
920.047	10158
920.157	10238
920.267	10329
920.378	10230
920.488	10181
920.598	10390
920.708	10413
920.818	10356
920.928	10253
921.038	10519
921.148	10462
921.258	10261
921.368	10078
921.477	10017
921.587	10013
921.697	9892
921.806	9964
921.916	9968
922.025	9774
922.134	9652
922.244	9641
922.353	9759
922.462	9595
922.571	9614
922.68	9439
922.789	9408
922.898	9389
923.007	9321
923.116	9500
923.224	9428
923.333	9363
923.442	9313
923.55	9291
923.659	9283
923.767	9351
923.876	9241
923.984	9321
924.092	9268
924.201	9272
924.309	9287
924.417	9313
924.525	9199
924.633	9268
924.741	10177
924.849	9036
924.956	9173
925.064	9051
925.172	8853
925.279	9028
925.387	9138
925.494	9161
925.602	9195
925.709	9150
925.816	8979
925.924	9047
926.031	9108
926.138	9036
926.245	9138
926.352	9020
926.459	9138
926.566	9169
926.673	9024
926.779	8941
926.886	8941
926.993	8895
927.099	8724
927.206	8712
927.312	8773
927.419	8929
927.525	8788
927.631	8921
927.737	8731
927.843	8659
927.95	8571
928.056	8686
928.162	8663
928.267	8667
928.373	9351
928.479	8678
928.585	8606
928.69	8678
928.796	8701
928.901	8579
929.007	8480
929.112	8587
929.218	8579
929.323	8473
929.428	8434
929.533	8617
929.638	8454
929.743	8457
929.848	8552
929.953	8476
930.058	8362
930.163	8317
930.267	8343
930.372	8366
930.477	8214
930.581	8492
930.685	8305
930.79	8187
930.894	8221
930.998	8233
931.103	8332
931.207	8031
931.311	8046
931.415	7841
931.519	7708
931.623	7708
