Data from test_V78500241_1721.txt Node
Date: Fri Mar 25 14:45:41 CST 2022
User: usil
Spectrometer: V785-0024
Trigger mode: 0
Integration Time (sec): 4.000000E-1
Scans to average: 1
Nonlinearity correction enabled: false
Boxcar width: 0
Storing dark spectrum: false
XAxis mode: Wavelengths
Number of Pixels in Spectrum: 1024
>>>>>Begin Spectral Data<<<<<
801.071	22265
801.214	22093
801.356	21888
801.499	21812
801.641	21724
801.783	21629
801.926	21595
802.068	21416
802.211	21549
802.353	21260
802.496	21214
802.638	21055
802.78	21138
802.923	21070
803.065	20883
803.208	20975
803.35	20895
803.492	21062
803.635	21077
803.777	20842
803.919	20990
804.061	21306
804.204	21104
804.346	20948
804.488	20826
804.63	20891
804.773	20906
804.915	20914
805.057	20963
805.199	20777
805.341	21017
805.483	21020
805.626	20960
805.768	20807
805.91	20975
806.052	20941
806.194	20758
806.336	20956
806.478	20819
806.62	20796
806.762	20895
806.904	21036
807.046	21363
807.188	21279
807.33	21283
807.472	21329
807.614	21116
807.756	21096
807.898	21036
808.04	20937
808.182	21001
808.324	21009
808.465	20998
808.607	21222
808.749	21252
808.891	21458
809.033	21412
809.174	21367
809.316	21135
809.458	21321
809.6	21230
809.741	21336
809.883	21340
810.025	21511
810.166	21431
810.308	21530
810.45	21367
810.591	21397
810.733	21131
810.875	21142
811.016	21074
811.158	20849
811.299	21123
811.441	21207
811.582	21157
811.724	21047
811.865	21039
812.007	21108
812.148	21074
812.29	21005
812.431	21180
812.573	21401
812.714	21466
812.855	21450
812.997	21682
813.138	21789
813.279	21675
813.421	21545
813.562	21481
813.703	21306
813.845	21283
813.986	20941
814.127	20678
814.268	20674
814.41	20556
814.551	20617
814.692	20796
814.833	20495
814.974	20564
815.115	20568
815.256	20488
815.397	20560
815.539	20415
815.68	20389
815.821	20111
815.962	20412
816.103	20282
816.244	20233
816.385	20027
816.526	20115
816.666	19959
816.807	19731
816.948	19791
817.089	19837
817.23	19841
817.371	19689
817.512	19632
817.653	19795
817.793	19727
817.934	19693
818.075	19750
818.216	19830
818.356	19727
818.497	19548
818.638	19308
818.778	19403
818.919	19434
819.06	19476
819.2	19559
819.341	19499
819.481	19670
819.622	19662
819.762	19974
819.903	19951
820.043	19666
820.184	19712
820.324	19757
820.465	19723
820.605	19704
820.746	19776
820.886	19514
821.026	19605
821.167	19742
821.307	19731
821.447	19632
821.588	19575
821.728	19358
821.868	19244
822.008	19217
822.149	19072
822.289	19099
822.429	18856
822.569	18791
822.709	18703
822.849	18661
822.99	18574
823.13	18566
823.27	18433
823.41	18372
823.55	18365
823.69	18395
823.83	18365
823.97	18273
824.11	18262
824.25	18121
824.389	18243
824.529	18391
824.669	18167
824.809	18300
824.949	18194
825.089	18239
825.228	18281
825.368	17920
825.508	18041
825.648	18064
825.787	17996
825.927	18022
826.067	17950
826.206	17847
826.346	18091
826.485	18030
826.625	18011
826.765	18064
826.904	17999
827.044	17680
827.183	17752
827.323	17684
827.462	17684
827.601	17627
827.741	17695
827.88	17718
828.02	17520
828.159	17543
828.298	17760
828.437	17714
828.577	17623
828.716	17897
828.855	17585
828.994	17356
829.134	17474
829.273	17444
829.412	17376
829.551	17269
829.69	17391
829.829	17478
829.968	17459
830.107	17459
830.246	17463
830.385	17417
830.524	17315
830.663	17162
830.802	17113
830.941	16984
831.08	16930
831.219	17113
831.357	17132
831.496	17227
831.635	16972
831.774	16923
831.913	16820
832.051	16744
832.19	16877
832.329	16839
832.467	16687
832.606	16725
832.744	16611
832.883	16664
833.022	16717
833.16	16694
833.299	16759
833.437	16752
833.576	16793
833.714	16843
833.852	16717
833.991	16809
834.129	16839
834.267	16755
834.406	16793
834.544	16877
834.682	16816
834.821	16653
834.959	16877
835.097	16618
835.235	16930
835.373	16725
835.511	16778
835.65	16653
835.788	16630
835.926	16596
836.064	16398
836.202	16421
836.34	16660
836.478	16767
836.615	16599
836.753	16634
836.891	16740
837.029	16725
837.167	16565
837.305	16584
837.443	16675
837.58	16402
837.718	16519
837.856	16573
837.993	16489
838.131	16630
838.269	16417
838.406	16375
838.544	16386
838.681	16272
838.819	16204
838.956	16044
839.094	16147
839.231	16215
839.369	16177
839.506	16409
839.643	16268
839.781	16029
839.918	15972
840.055	16067
840.193	16071
840.33	16143
840.467	16063
840.604	16067
840.742	16329
840.879	16006
841.016	15983
841.153	15895
841.29	16147
841.427	16116
841.564	16044
841.701	15953
841.838	15987
841.975	15918
842.112	15903
842.249	15819
842.385	15842
842.522	16101
842.659	15770
842.796	15926
842.933	15804
843.069	15819
843.206	15823
843.343	15911
843.479	15873
843.616	15846
843.752	15751
843.889	15720
844.025	15701
844.162	15667
844.298	15778
844.435	15694
844.571	15572
844.708	15755
844.844	15778
844.98	15819
845.117	15747
845.253	15652
845.389	15580
845.525	15530
845.661	15606
845.798	15553
845.934	15557
846.07	15530
846.206	15538
846.342	15576
846.478	15367
846.614	15264
846.75	15119
846.886	15169
847.022	15260
847.158	15180
847.294	15211
847.429	15233
847.565	15142
847.701	15439
847.837	14956
847.972	14975
848.108	15108
848.244	14975
848.379	14826
848.515	14872
848.65	14727
848.786	14743
848.921	14823
849.057	14906
849.192	14918
849.328	14800
849.463	14705
849.598	14773
849.734	14724
849.869	14674
850.004	14495
850.14	14579
850.275	14571
850.41	14492
850.545	14549
850.68	14587
850.815	14545
850.95	14564
851.085	14720
851.22	14708
851.355	14617
851.49	14568
851.625	14564
851.76	14518
851.895	14415
852.03	14400
852.165	14587
852.299	14594
852.434	14686
852.569	14617
852.703	14583
852.838	14636
852.973	14670
853.107	14697
853.242	14511
853.376	14454
853.511	14298
853.645	14389
853.78	14526
853.914	14560
854.048	14332
854.183	14366
854.317	14427
854.451	14610
854.585	14431
854.72	14374
854.854	14457
854.988	14347
855.122	14408
855.256	14309
855.39	14495
855.524	14526
855.658	14522
855.792	14419
855.926	14499
856.06	14484
856.194	14473
856.327	14446
856.461	14355
856.595	14347
856.729	14419
856.862	14511
856.996	14473
857.13	14552
857.263	14545
857.397	14549
857.53	14370
857.664	14518
857.797	14541
857.931	14564
858.064	14473
858.197	14549
858.331	14446
858.464	14385
858.597	14298
858.731	14324
858.864	14362
858.997	14465
859.13	14564
859.263	14461
859.396	14465
859.529	14446
859.662	14484
859.795	14377
859.928	14590
860.061	14488
860.194	14644
860.327	14339
860.46	14438
860.592	14617
860.725	14473
860.858	14503
860.99	14370
861.123	14396
861.256	14374
861.388	14442
861.521	15135
861.653	14298
861.786	14206
861.918	14355
862.05	14366
862.183	14404
862.315	14427
862.447	14450
862.58	14412
862.712	14199
862.844	14123
862.976	14298
863.108	14252
863.24	14693
863.372	14107
863.504	14199
863.636	14153
863.768	14252
863.9	14286
864.032	14233
864.164	14130
864.296	14164
864.428	14301
864.559	14286
864.691	14233
864.823	14275
864.954	14252
865.086	14248
865.217	14259
865.349	14172
865.48	14244
865.612	14183
865.743	14256
865.875	14172
866.006	14183
866.137	14138
866.269	14210
866.4	14229
866.531	14161
866.662	14115
866.793	14145
866.924	14069
867.055	14187
867.186	14252
867.317	14126
867.448	14134
867.579	14161
867.71	14149
867.841	14149
867.972	14206
868.103	14126
868.233	14164
868.364	14244
868.495	14263
868.625	14339
868.756	14549
868.886	14427
869.017	14400
869.147	14549
869.278	14537
869.408	14423
869.539	14457
869.669	14537
869.799	14412
869.929	14594
870.06	14590
870.19	14754
870.32	14720
870.45	14861
870.58	14796
870.71	14948
870.84	14952
870.97	14880
871.1	14807
871.23	15001
871.36	15005
871.489	14906
871.619	15116
871.749	15017
871.879	15089
872.008	15104
872.138	15047
872.267	14967
872.397	14899
872.526	14731
872.656	14838
872.785	14929
872.915	14994
873.044	15142
873.173	15051
873.303	15062
873.432	15062
873.561	15135
873.69	15005
873.819	15085
873.948	15161
874.077	15135
874.206	15043
874.335	15028
874.464	15264
874.593	15405
874.722	15317
874.851	15370
874.979	15428
875.108	15435
875.237	15435
875.365	15321
875.494	15272
875.623	15500
875.751	15374
875.88	15367
876.008	15485
876.136	15679
876.265	15850
876.393	15892
876.521	15911
876.65	15953
876.778	15869
876.906	15850
877.034	15774
877.162	15755
877.29	15838
877.418	15865
877.546	15732
877.674	15861
877.802	15899
877.93	15797
878.058	15797
878.185	15644
878.313	15907
878.441	15747
878.568	15603
878.696	15728
878.824	15846
878.951	15915
879.079	15930
879.206	16036
879.333	15911
879.461	15854
879.588	15945
879.715	16021
879.842	16162
879.97	15903
880.097	15595
880.224	15667
880.351	15774
880.478	15606
880.605	15656
880.732	15641
880.859	15892
880.986	15629
881.112	15709
881.239	15473
881.366	15485
881.493	15386
881.619	15355
881.746	15348
881.872	15294
881.999	15313
882.125	15260
882.252	15351
882.378	15344
882.505	15500
882.631	15237
882.757	15146
882.883	15157
883.01	15146
883.136	15024
883.262	15013
883.388	14944
883.514	15165
883.64	15249
883.766	14963
883.892	14902
884.018	14895
884.143	15116
884.269	15104
884.395	14895
884.52	14788
884.646	14830
884.772	14868
884.897	14686
885.023	14777
885.148	14925
885.274	15017
885.399	14941
885.524	14796
885.65	14765
885.775	14876
885.9	14743
886.025	15013
886.15	14880
886.275	14746
886.4	14720
886.525	14830
886.65	14785
886.775	14739
886.9	14971
887.025	14982
887.149	14819
887.274	14560
887.399	14655
887.523	14629
887.648	14571
887.773	14594
887.897	14800
888.021	14739
888.146	14648
888.27	14746
888.395	14800
888.519	14689
888.643	14746
888.767	14731
888.891	14606
889.015	14442
889.139	14530
889.263	14473
889.387	14625
889.511	14716
889.635	14670
889.759	14400
889.883	14492
890.006	14560
890.13	14598
890.254	14419
890.377	14480
890.501	14343
890.624	14351
890.748	14400
890.871	14237
890.995	14119
891.118	14065
891.241	14145
891.364	14271
891.488	14317
891.611	14214
891.734	14191
891.857	14229
891.98	14206
892.103	14377
892.226	14153
892.349	14138
892.471	14016
892.594	14191
892.717	14164
892.839	14237
892.962	14157
893.085	14324
893.207	14206
893.33	14142
893.452	14237
893.575	14229
893.697	14149
893.819	14366
893.941	14476
894.064	14317
894.186	14263
894.308	14233
894.43	14366
894.552	14492
894.674	14343
894.796	14149
894.918	14252
895.04	14275
895.161	14423
895.283	14324
895.405	14282
895.526	14320
895.648	14259
895.769	14328
895.891	14442
896.012	14511
896.134	14328
896.255	14358
896.376	14324
896.498	14415
896.619	14358
896.74	14450
896.861	14442
896.982	14689
897.103	14872
897.224	14762
897.345	14575
897.466	14571
897.587	14689
897.708	14796
897.828	14705
897.949	14648
898.07	14556
898.19	14613
898.311	14705
898.431	14720
898.552	14842
898.672	14815
898.792	14746
898.913	14762
899.033	14705
899.153	14625
899.273	14533
899.393	14579
899.513	14610
899.633	14560
899.753	14610
899.873	14606
899.993	14659
900.113	14625
900.232	14560
900.352	14686
900.472	14648
900.591	14457
900.711	14473
900.83	14339
900.95	14590
901.069	14583
901.189	14374
901.308	14214
901.427	14107
901.546	14069
901.665	14286
901.784	14176
901.904	14020
902.023	13959
902.141	13708
902.26	13765
902.379	13791
902.498	13658
902.617	13613
902.735	13700
902.854	13765
902.973	13723
903.091	13483
903.21	13403
903.328	13457
903.446	13358
903.565	13293
903.683	13282
903.801	13183
903.919	13320
904.038	13225
904.156	13126
904.274	13084
904.392	13084
904.51	13053
904.627	13076
904.745	13110
904.863	13149
904.981	12844
905.098	12764
905.216	12779
905.334	12772
905.451	12783
905.569	12753
905.686	12802
905.803	12783
905.921	12669
906.038	12635
906.155	12566
906.272	12437
906.389	12494
906.506	12559
906.623	12369
906.74	12319
906.857	12197
906.974	12289
907.091	12380
907.208	12448
907.324	12547
907.441	12247
907.557	12129
907.674	12136
907.79	12076
907.907	12038
908.023	12129
908.139	12117
908.256	12095
908.372	11988
908.488	12003
908.604	11843
908.72	11821
908.836	11847
908.952	11809
909.068	11954
909.184	11942
909.3	11882
909.415	11870
909.531	11851
909.647	11642
909.762	11676
909.878	11592
909.993	11562
910.108	11646
910.224	11672
910.339	11672
910.454	11543
910.57	11490
910.685	11391
910.8	11680
910.915	11688
911.03	11406
911.145	11284
911.259	11330
911.374	11322
911.489	11201
911.604	11239
911.718	11060
911.833	11124
911.947	10991
912.062	10946
912.176	11071
912.291	11060
912.405	11155
912.519	11246
912.633	11246
912.748	11124
912.862	11102
912.976	10965
913.09	10801
913.204	10908
913.318	10934
913.431	10991
913.545	11006
913.659	11025
913.772	10980
913.886	10805
914	10824
914.113	10908
914.226	10934
914.34	10957
914.453	10748
914.566	10946
914.68	10850
914.793	10801
914.906	10599
915.019	10538
915.132	10512
915.245	10569
915.358	10550
915.47	10554
915.583	10554
915.696	10599
915.809	10698
915.921	10778
916.034	10527
916.146	10527
916.259	10531
916.371	10554
916.483	10607
916.595	10474
916.708	10550
916.82	10436
916.932	10481
917.044	10459
917.156	10500
917.268	10451
917.38	10428
917.491	10295
917.603	10428
917.715	10489
917.826	10497
917.938	10428
918.049	10280
918.161	10451
918.272	10542
918.384	10550
918.495	10409
918.606	10333
918.717	10227
918.828	10325
918.939	10310
919.05	10192
919.161	10272
919.272	10040
919.383	10143
919.494	10227
919.604	10516
919.715	10375
919.826	10200
919.936	10257
920.047	10333
920.157	10181
920.267	10508
920.378	10333
920.488	10310
920.598	10443
920.708	10725
920.818	10554
920.928	10474
921.038	10649
921.148	10653
921.258	10341
921.368	10303
921.477	10204
921.587	10166
921.697	10101
921.806	10242
921.916	9991
922.025	9888
922.134	9789
922.244	9861
922.353	9854
922.462	9637
922.571	9705
922.68	9618
922.789	9538
922.898	9568
923.007	9549
923.116	9572
923.224	9477
923.333	9553
923.442	9397
923.55	9367
923.659	9435
923.767	9526
923.876	9412
923.984	9481
924.092	9336
924.201	9401
924.309	9405
924.417	9443
924.525	9279
924.633	9412
924.741	10265
924.849	9161
924.956	9344
925.064	9112
925.172	9089
925.279	9218
925.387	9218
925.494	9211
925.602	9351
925.709	9245
925.816	9108
925.924	9249
926.031	9245
926.138	9214
926.245	9161
926.352	9154
926.459	9203
926.566	9287
926.673	9173
926.779	9116
926.886	9047
926.993	8902
927.099	8982
927.206	8861
927.312	8800
927.419	9017
927.525	8895
927.631	8918
927.737	8861
927.843	8834
927.95	8663
928.056	8834
928.162	8845
928.267	8872
928.373	9485
928.479	8982
928.585	8644
928.69	8819
928.796	8819
928.901	8739
929.007	8697
929.112	8716
929.218	8678
929.323	8579
929.428	8560
929.533	8686
929.638	8522
929.743	8602
929.848	8708
929.953	8610
930.058	8541
930.163	8396
930.267	8412
930.372	8556
930.477	8324
930.581	8636
930.685	8461
930.79	8229
930.894	8400
930.998	8339
931.103	8473
931.207	8088
931.311	8123
931.415	8069
931.519	7875
931.623	7788
