Data from test_V78500241_452.txt Node
Date: Fri Mar 25 14:36:52 CST 2022
User: usil
Spectrometer: V785-0024
Trigger mode: 0
Integration Time (sec): 4.000000E-1
Scans to average: 1
Nonlinearity correction enabled: false
Boxcar width: 0
Storing dark spectrum: false
XAxis mode: Wavelengths
Number of Pixels in Spectrum: 1024
>>>>>Begin Spectral Data<<<<<
801.071	26571
801.214	26381
801.356	26256
801.499	26168
801.641	26073
801.783	25940
801.926	26039
802.068	25970
802.211	25772
802.353	25727
802.496	25639
802.638	25628
802.78	25575
802.923	25308
803.065	25304
803.208	25415
803.35	25476
803.492	25537
803.635	25578
803.777	25662
803.919	25616
804.061	25902
804.204	25445
804.346	25628
804.488	25434
804.63	25388
804.773	25278
804.915	25476
805.057	25670
805.199	25529
805.341	25514
805.483	25624
805.626	25597
805.768	25479
805.91	25529
806.052	25537
806.194	25422
806.336	25662
806.478	25529
806.62	25597
806.762	25571
806.904	25746
807.046	25955
807.188	25871
807.33	25890
807.472	25947
807.614	25871
807.756	25864
807.898	25830
808.04	25662
808.182	25639
808.324	25559
808.465	25666
808.607	25765
808.749	25940
808.891	26024
809.033	26138
809.174	25970
809.316	25776
809.458	25898
809.6	25955
809.741	26130
809.883	26020
810.025	26134
810.166	26153
810.308	26122
810.45	26119
810.591	26214
810.733	25966
810.875	25852
811.016	25742
811.158	25662
811.299	25780
811.441	25982
811.582	25963
811.724	25780
811.865	25814
812.007	25807
812.148	25909
812.29	25799
812.431	25917
812.573	26081
812.714	26111
812.855	26199
812.997	26507
813.138	26526
813.279	26393
813.421	26328
813.562	26183
813.703	26138
813.845	25997
813.986	25586
814.127	25544
814.268	25472
814.41	25415
814.551	25331
814.692	25575
814.833	25506
814.974	25343
815.115	25335
815.256	25225
815.397	25217
815.539	25206
815.68	24973
815.821	25027
815.962	25031
816.103	25107
816.244	25061
816.385	24890
816.526	24821
816.666	24703
816.807	24559
816.948	24570
817.089	24635
817.23	24585
817.371	24540
817.512	24388
817.653	24525
817.793	24422
817.934	24342
818.075	24429
818.216	24494
818.356	24353
818.497	24311
818.638	24182
818.778	24213
818.919	24285
819.06	24060
819.2	24437
819.341	24350
819.481	24418
819.622	24528
819.762	24665
819.903	24642
820.043	24528
820.184	24513
820.324	24429
820.465	24620
820.605	24540
820.746	24517
820.886	24353
821.026	24407
821.167	24540
821.307	24498
821.447	24315
821.588	24308
821.728	24064
821.868	23973
822.008	23901
822.149	23794
822.289	23893
822.429	23520
822.569	23531
822.709	23505
822.849	23280
822.99	23334
823.13	23242
823.27	23212
823.41	23037
823.55	22904
823.69	23086
823.83	23037
823.97	23037
824.11	22828
824.25	22790
824.389	22908
824.529	22854
824.669	22881
824.809	22961
824.949	22942
825.089	23033
825.228	22854
825.368	22653
825.508	22755
825.648	22759
825.787	22645
825.927	22702
826.067	22634
826.206	22622
826.346	22683
826.485	22500
826.625	22683
826.765	22831
826.904	22653
827.044	22386
827.183	22337
827.323	22246
827.462	22367
827.601	22329
827.741	22295
827.88	22291
828.02	22173
828.159	22242
828.298	22402
828.437	22436
828.577	22246
828.716	22398
828.855	22242
828.994	22090
829.134	22090
829.273	21998
829.412	22002
829.551	21850
829.69	22021
829.829	21987
829.968	22173
830.107	22006
830.246	22048
830.385	21903
830.524	21911
830.663	21747
830.802	21656
830.941	21591
831.08	21599
831.219	21709
831.357	21694
831.496	21804
831.635	21622
831.774	21507
831.913	21435
832.051	21405
832.19	21382
832.329	21435
832.467	21340
832.606	21169
832.744	21226
832.883	21313
833.022	21226
833.16	21214
833.299	21207
833.437	21241
833.576	21260
833.714	21249
833.852	21302
833.991	21260
834.129	21340
834.267	21233
834.406	21188
834.544	21249
834.682	21237
834.821	21279
834.959	21450
835.097	21180
835.235	21192
835.373	21195
835.511	21173
835.65	21142
835.788	21203
835.926	20921
836.064	20807
836.202	20838
836.34	21123
836.478	21077
836.615	21028
836.753	21119
836.891	21237
837.029	21173
837.167	21165
837.305	21047
837.443	20979
837.58	20952
837.718	20982
837.856	20937
837.993	20948
838.131	20883
838.269	20777
838.406	20735
838.544	20834
838.681	20697
838.819	20602
838.956	20343
839.094	20518
839.231	20526
839.369	20454
839.506	20807
839.643	20617
839.781	20351
839.918	20206
840.055	20301
840.193	20374
840.33	20355
840.467	20362
840.604	20339
840.742	20602
840.879	20138
841.016	20202
841.153	20210
841.29	20533
841.427	20336
841.564	20351
841.701	20370
841.838	20294
841.975	20191
842.112	20157
842.249	20065
842.385	19845
842.522	20305
842.659	20138
842.796	20031
842.933	19982
843.069	20016
843.206	19947
843.343	20161
843.479	20069
843.616	20016
843.752	19875
843.889	19803
844.025	20020
844.162	19807
844.298	19890
844.435	19902
844.571	19750
844.708	19807
844.844	19887
844.98	19947
845.117	19868
845.253	19788
845.389	19620
845.525	19696
845.661	19609
845.798	19525
845.934	19666
846.07	19628
846.206	19632
846.342	19712
846.478	19521
846.614	19407
846.75	19255
846.886	19289
847.022	19301
847.158	19335
847.294	19327
847.429	19270
847.565	19297
847.701	19529
847.837	18981
847.972	18848
848.108	18989
848.244	19050
848.379	18806
848.515	18840
848.65	18894
848.786	18859
848.921	18779
849.057	18760
849.192	18897
849.328	18844
849.463	18776
849.598	18798
849.734	18665
849.869	18719
850.004	18631
850.14	18574
850.275	18616
850.41	18509
850.545	18547
850.68	18578
850.815	18578
850.95	18719
851.085	18734
851.22	18677
851.355	18585
851.49	18525
851.625	18486
851.76	18620
851.895	18471
852.03	18426
852.165	18593
852.299	18551
852.434	18574
852.569	18525
852.703	18547
852.838	18597
852.973	18616
853.107	18509
853.242	18490
853.376	18384
853.511	18262
853.645	18330
853.78	18547
853.914	18384
854.048	18285
854.183	18311
854.317	18407
854.451	18570
854.585	18361
854.72	18395
854.854	18357
854.988	18319
855.122	18289
855.256	18239
855.39	18342
855.524	18414
855.658	18456
855.792	18445
855.926	18365
856.06	18448
856.194	18475
856.327	18342
856.461	18388
856.595	18251
856.729	18201
856.862	18350
856.996	18384
857.13	18388
857.263	18441
857.397	18376
857.53	18266
857.664	18399
857.797	18384
857.931	18346
858.064	18251
858.197	18448
858.331	18311
858.464	18353
858.597	18273
858.731	18190
858.864	18342
858.997	18201
859.13	18281
859.263	18407
859.396	18319
859.529	18323
859.662	18239
859.795	18304
859.928	18300
860.061	18395
860.194	18433
860.327	18346
860.46	18334
860.592	18376
860.725	18490
860.858	18403
860.99	18304
861.123	18334
861.256	18365
861.388	18273
861.521	18932
861.653	18251
861.786	18102
861.918	18251
862.05	18350
862.183	18292
862.315	18391
862.447	18460
862.58	18346
862.712	18209
862.844	18022
862.976	18224
863.108	18114
863.24	18452
863.372	18015
863.504	18007
863.636	17984
863.768	18152
863.9	18022
864.032	17965
864.164	18144
864.296	18083
864.428	18133
864.559	18110
864.691	18034
864.823	17980
864.954	17996
865.086	17996
865.217	18030
865.349	17912
865.48	18041
865.612	18068
865.743	18053
865.875	17874
866.006	17973
866.137	18068
866.269	17904
866.4	17950
866.531	17980
866.662	17912
866.793	17790
866.924	17855
867.055	17958
867.186	18011
867.317	17973
867.448	17821
867.579	17958
867.71	17786
867.841	17931
867.972	17882
868.103	17920
868.233	17874
868.364	17946
868.495	18011
868.625	18163
868.756	18213
868.886	18129
869.017	18197
869.147	18171
869.278	18292
869.408	18076
869.539	18060
869.669	18129
869.799	18201
869.929	18258
870.06	18251
870.19	18418
870.32	18479
870.45	18441
870.58	18456
870.71	18604
870.84	18616
870.97	18566
871.1	18604
871.23	18703
871.36	18650
871.489	18627
871.619	18711
871.749	18730
871.879	18726
872.008	18829
872.138	18745
872.267	18661
872.397	18654
872.526	18540
872.656	18597
872.785	18536
872.915	18700
873.044	18901
873.173	18783
873.303	18806
873.432	18920
873.561	18829
873.69	18749
873.819	18715
873.948	18939
874.077	18760
874.206	18673
874.335	18635
874.464	18875
874.593	19000
874.722	18996
874.851	19095
874.979	19091
875.108	19168
875.237	18947
875.365	18935
875.494	18951
875.623	19110
875.751	19076
875.88	19072
876.008	19255
876.136	19244
876.265	19506
876.393	19556
876.521	19476
876.65	19518
876.778	19449
876.906	19499
877.034	19263
877.162	19422
877.29	19293
877.418	19403
877.546	19468
877.674	19525
877.802	19460
877.93	19388
878.058	19476
878.185	19403
878.313	19343
878.441	19480
878.568	19255
878.696	19434
878.824	19438
878.951	19460
879.079	19586
879.206	19776
879.333	19594
879.461	19502
879.588	19639
879.715	19658
879.842	19738
879.97	19518
880.097	19263
880.224	19190
880.351	19327
880.478	19282
880.605	19179
880.732	19304
880.859	19521
880.986	19358
881.112	19285
881.239	19232
881.366	18993
881.493	18989
881.619	18962
881.746	18935
881.872	18901
881.999	18856
882.125	18791
882.252	18943
882.378	18939
882.505	19031
882.631	18768
882.757	18681
882.883	18734
883.01	18650
883.136	18506
883.262	18566
883.388	18540
883.514	18715
883.64	18700
883.766	18570
883.892	18517
884.018	18452
884.143	18703
884.269	18730
884.395	18422
884.52	18270
884.646	18315
884.772	18292
884.897	18216
885.023	18380
885.148	18414
885.274	18433
885.399	18456
885.524	18357
885.65	18353
885.775	18232
885.9	18323
886.025	18388
886.15	18296
886.275	18338
886.4	18213
886.525	18304
886.65	18319
886.775	18292
886.9	18380
887.025	18536
887.149	18239
887.274	18152
887.399	18083
887.523	17984
887.648	18068
887.773	18079
887.897	18190
888.021	18041
888.146	18015
888.27	18182
888.395	18098
888.519	18087
888.643	18110
888.767	18041
888.891	17996
889.015	17988
889.139	17908
889.263	17851
889.387	17992
889.511	18026
889.635	18007
889.759	17840
889.883	17813
890.006	17878
890.13	17954
890.254	17832
890.377	17821
890.501	17684
890.624	17649
890.748	17802
890.871	17547
890.995	17532
891.118	17467
891.241	17482
891.364	17634
891.488	17604
891.611	17543
891.734	17566
891.857	17581
891.98	17482
892.103	17611
892.226	17532
892.349	17391
892.471	17410
892.594	17482
892.717	17539
892.839	17478
892.962	17497
893.085	17516
893.207	17558
893.33	17383
893.452	17334
893.575	17512
893.697	17387
893.819	17619
893.941	17691
894.064	17623
894.186	17444
894.308	17421
894.43	17627
894.552	17585
894.674	17611
894.796	17459
894.918	17554
895.04	17429
895.161	17634
895.283	17493
895.405	17429
895.526	17543
895.648	17505
895.769	17554
895.891	17596
896.012	17596
896.134	17653
896.255	17642
896.376	17524
896.498	17638
896.619	17539
896.74	17581
896.861	17630
896.982	17866
897.103	18129
897.224	17908
897.345	17904
897.466	17687
897.587	17821
897.708	17954
897.828	17726
897.949	17847
898.07	17638
898.19	17687
898.311	17923
898.431	17802
898.552	17817
898.672	17916
898.792	17927
898.913	17710
899.033	17691
899.153	17684
899.273	17471
899.393	17516
899.513	17634
899.633	17566
899.753	17665
899.873	17528
899.993	17577
900.113	17528
900.232	17619
900.352	17551
900.472	17452
900.591	17307
900.711	17433
900.83	17368
900.95	17573
901.069	17474
901.189	17242
901.308	17117
901.427	17045
901.546	17075
901.665	17006
901.784	17094
901.904	16900
902.023	16873
902.141	16656
902.26	16546
902.379	16618
902.498	16497
902.617	16588
902.735	16577
902.854	16504
902.973	16417
903.091	16299
903.21	16295
903.328	16295
903.446	16234
903.565	16226
903.683	16074
903.801	16006
903.919	16063
904.038	16109
904.156	15876
904.274	15949
904.392	15907
904.51	15766
904.627	15762
904.745	15857
904.863	15850
904.981	15652
905.098	15507
905.216	15519
905.334	15568
905.451	15530
905.569	15496
905.686	15526
905.803	15511
905.921	15283
906.038	15351
906.155	15359
906.272	15180
906.389	15310
906.506	15104
906.623	15081
906.74	15195
906.857	14952
906.974	15009
907.091	15135
907.208	15127
907.324	15058
907.441	15017
907.557	14853
907.674	14807
907.79	14796
907.907	14773
908.023	14815
908.139	14800
908.256	14777
908.372	14579
908.488	14731
908.604	14495
908.72	14480
908.836	14503
908.952	14393
909.068	14465
909.184	14632
909.3	14522
909.415	14495
909.531	14484
909.647	14263
909.762	14191
909.878	14210
909.993	14240
910.108	14244
910.224	14176
910.339	14191
910.454	14096
910.57	14145
910.685	14012
910.8	14187
910.915	14115
911.03	14058
911.145	13898
911.259	13898
911.374	13814
911.489	13807
911.604	13715
911.718	13464
911.833	13556
911.947	13472
912.062	13419
912.176	13624
912.291	13636
912.405	13575
912.519	13655
912.633	13731
912.748	13712
912.862	13480
912.976	13464
913.09	13354
913.204	13369
913.318	13422
913.431	13563
913.545	13544
913.659	13556
913.772	13411
913.886	13247
914	13202
914.113	13343
914.226	13373
914.34	13301
914.453	13236
914.566	13316
914.68	13221
914.793	13183
914.906	12954
915.019	13057
915.132	12932
915.245	12909
915.358	12920
915.47	12962
915.583	12924
915.696	12958
915.809	13057
915.921	13004
916.034	12897
916.146	12844
916.259	12856
916.371	12909
916.483	12958
916.595	12825
916.708	12859
916.82	12760
916.932	12863
917.044	12681
917.156	12810
917.268	12597
917.38	12639
917.491	12658
917.603	12642
917.715	12764
917.826	12711
917.938	12669
918.049	12570
918.161	12711
918.272	12753
918.384	12753
918.495	12700
918.606	12521
918.717	12441
918.828	12525
918.939	12471
919.05	12384
919.161	12479
919.272	12220
919.383	12357
919.494	12506
919.604	12578
919.715	12551
919.826	12372
919.936	12323
920.047	12486
920.157	12494
920.267	12654
920.378	12448
920.488	12410
920.598	12604
920.708	12719
920.818	12597
920.928	12517
921.038	12764
921.148	12707
921.258	12357
921.368	12384
921.477	12251
921.587	12281
921.697	12079
921.806	12308
921.916	12022
922.025	11988
922.134	11935
922.244	11889
922.353	11878
922.462	11764
922.571	11691
922.68	11554
922.789	11566
922.898	11619
923.007	11444
923.116	11615
923.224	11558
923.333	11547
923.442	11391
923.55	11360
923.659	11410
923.767	11501
923.876	11395
923.984	11459
924.092	11341
924.201	11322
924.309	11311
924.417	11223
924.525	11280
924.633	11242
924.741	12190
924.849	11048
924.956	11258
925.064	11140
925.172	10965
925.279	10991
925.387	11140
925.494	11037
925.602	11277
925.709	11094
925.816	10934
925.924	11113
926.031	11140
926.138	11003
926.245	11124
926.352	10942
926.459	11143
926.566	11147
926.673	10923
926.779	10949
926.886	10908
926.993	10702
927.099	10736
927.206	10668
927.312	10584
927.419	10805
927.525	10729
927.631	10679
927.737	10641
927.843	10584
927.95	10478
928.056	10596
928.162	10592
928.267	10558
928.373	11208
928.479	10641
928.585	10405
928.69	10607
928.796	10645
928.901	10500
929.007	10337
929.112	10451
929.218	10436
929.323	10318
929.428	10333
929.533	10466
929.638	10337
929.743	10238
929.848	10329
929.953	10280
930.058	10246
930.163	10044
930.267	10078
930.372	10188
930.477	10013
930.581	10284
930.685	10059
930.79	9926
930.894	9941
930.998	9949
931.103	10025
931.207	9759
931.311	9720
931.415	9599
931.519	9397
931.623	9313
