Data from test_V78500241_895.txt Node
Date: Fri Mar 25 14:39:57 CST 2022
User: usil
Spectrometer: V785-0024
Trigger mode: 0
Integration Time (sec): 4.000000E-1
Scans to average: 1
Nonlinearity correction enabled: false
Boxcar width: 0
Storing dark spectrum: false
XAxis mode: Wavelengths
Number of Pixels in Spectrum: 1024
>>>>>Begin Spectral Data<<<<<
801.071	25213
801.214	25046
801.356	24852
801.499	24768
801.641	24601
801.783	24601
801.926	24448
802.068	24490
802.211	24395
802.353	24281
802.496	24129
802.638	24003
802.78	23961
802.923	23855
803.065	23958
803.208	23885
803.35	23916
803.492	23904
803.635	23954
803.777	24007
803.919	24011
804.061	24433
804.204	24034
804.346	23878
804.488	23851
804.63	23923
804.773	23821
804.915	23954
805.057	24178
805.199	23866
805.341	24110
805.483	24140
805.626	24083
805.768	24034
805.91	24057
806.052	23984
806.194	24155
806.336	24372
806.478	24133
806.62	24251
806.762	24395
806.904	24635
807.046	24848
807.188	24916
807.33	25050
807.472	25251
807.614	25297
807.756	25575
807.898	25753
808.04	26077
808.182	26389
808.324	27173
808.465	27869
808.607	28885
808.749	29360
808.891	29969
809.033	30034
809.174	29478
809.316	28668
809.458	27930
809.6	27161
809.741	26587
809.883	26115
810.025	25860
810.166	25689
810.308	25358
810.45	25217
810.591	25126
810.733	24783
810.875	24642
811.016	24525
811.158	24323
811.299	24574
811.441	24570
811.582	24540
811.724	24357
811.865	24277
812.007	24292
812.148	24251
812.29	24262
812.431	24353
812.573	24505
812.714	24551
812.855	24688
812.997	24749
813.138	24878
813.279	25034
813.421	24760
813.562	24650
813.703	24479
813.845	24494
813.986	24064
814.127	23870
814.268	23786
814.41	23672
814.551	23729
814.692	23741
814.833	23642
814.974	23566
815.115	23699
815.256	23448
815.397	23531
815.539	23501
815.68	23330
815.821	23414
815.962	23410
816.103	23311
816.244	23174
816.385	23098
816.526	23121
816.666	22919
816.807	22786
816.948	22748
817.089	22877
817.23	22805
817.371	22748
817.512	22702
817.653	22687
817.793	22702
817.934	22881
818.075	22675
818.216	22683
818.356	22683
818.497	22527
818.638	22447
818.778	22356
818.919	22424
819.06	22386
819.2	22531
819.341	22592
819.481	22637
819.622	22668
819.762	22843
819.903	22820
820.043	22740
820.184	22622
820.324	22683
820.465	22774
820.605	22618
820.746	22550
820.886	22478
821.026	22535
821.167	22523
821.307	22596
821.447	22493
821.588	22314
821.728	22344
821.868	22128
822.008	21972
822.149	22017
822.289	21934
822.429	21698
822.569	21770
822.709	21595
822.849	21473
822.99	21507
823.13	21408
823.27	21355
823.41	21062
823.55	21161
823.69	21188
823.83	21340
823.97	21051
824.11	21062
824.25	20921
824.389	21009
824.529	21108
824.669	21066
824.809	21138
824.949	21192
825.089	21142
825.228	20941
825.368	20750
825.508	20853
825.648	20883
825.787	20929
825.927	20853
826.067	20758
826.206	20777
826.346	20853
826.485	20857
826.625	20853
826.765	20762
826.904	20739
827.044	20446
827.183	20530
827.323	20454
827.462	20461
827.601	20484
827.741	20442
827.88	20518
828.02	20294
828.159	20503
828.298	20434
828.437	20499
828.577	20248
828.716	20518
828.855	20423
828.994	20187
829.134	20195
829.273	20111
829.412	20199
829.551	20126
829.69	20161
829.829	20153
829.968	20164
830.107	20149
830.246	20233
830.385	20119
830.524	20031
830.663	19955
830.802	19750
830.941	19757
831.08	19708
831.219	19913
831.357	19822
831.496	19894
831.635	19704
831.774	19719
831.913	19632
832.051	19601
832.19	19594
832.329	19506
832.467	19483
832.606	19365
832.744	19369
832.883	19518
833.022	19483
833.16	19575
833.299	19491
833.437	19510
833.576	19643
833.714	19639
833.852	19712
833.991	19772
834.129	19761
834.267	19807
834.406	19719
834.544	19780
834.682	19655
834.821	19571
834.959	19788
835.097	19655
835.235	19609
835.373	19575
835.511	19472
835.65	19411
835.788	19293
835.926	19107
836.064	19164
836.202	19160
836.34	19274
836.478	19308
836.615	19285
836.753	19213
836.891	19263
837.029	19327
837.167	19228
837.305	19217
837.443	19198
837.58	19228
837.718	19141
837.856	19114
837.993	19027
838.131	19053
838.269	18932
838.406	19095
838.544	19000
838.681	18696
838.819	18738
838.956	18635
839.094	18585
839.231	18669
839.369	18734
839.506	18993
839.643	18806
839.781	18486
839.918	18521
840.055	18559
840.193	18513
840.33	18410
840.467	18494
840.604	18536
840.742	18848
840.879	18483
841.016	18521
841.153	18475
841.29	18623
841.427	18536
841.564	18559
841.701	18532
841.838	18410
841.975	18407
842.112	18422
842.249	18327
842.385	18315
842.522	18509
842.659	18342
842.796	18232
842.933	18407
843.069	18372
843.206	18239
843.343	18456
843.479	18308
843.616	18376
843.752	18232
843.889	18144
844.025	18300
844.162	18167
844.298	18448
844.435	18216
844.571	18353
844.708	18342
844.844	18540
844.98	18627
845.117	18798
845.253	18882
845.389	19114
845.525	19875
845.661	21211
845.798	22748
845.934	24133
846.07	24631
846.206	24475
846.342	23581
846.478	21842
846.614	20237
846.75	19232
846.886	18566
847.022	18277
847.158	18057
847.294	17851
847.429	17813
847.565	17695
847.701	17832
847.837	17448
847.972	17326
848.108	17444
848.244	17493
848.379	17246
848.515	17277
848.65	17155
848.786	17220
848.921	17151
849.057	17330
849.192	17349
849.328	17147
849.463	17212
849.598	17045
849.734	17071
849.869	16987
850.004	16919
850.14	16904
850.275	16892
850.41	16896
850.545	16889
850.68	16915
850.815	16892
850.95	16847
851.085	17045
851.22	17033
851.355	16957
851.49	16930
851.625	16820
851.76	16858
851.895	16828
852.03	16839
852.165	16885
852.299	16961
852.434	16957
852.569	16991
852.703	16889
852.838	17033
852.973	17132
853.107	17045
853.242	16923
853.376	16828
853.511	16710
853.645	16752
853.78	16957
853.914	16862
854.048	16862
854.183	16900
854.317	16843
854.451	16946
854.585	16839
854.72	16843
854.854	16938
854.988	16759
855.122	16911
855.256	16702
855.39	16805
855.524	16858
855.658	16809
855.792	16774
855.926	16854
856.06	16805
856.194	16889
856.327	16854
856.461	16656
856.595	16691
856.729	16778
856.862	16965
856.996	16797
857.13	16881
857.263	16919
857.397	16942
857.53	16740
857.664	16790
857.797	16793
857.931	16862
858.064	16812
858.197	16809
858.331	16736
858.464	16786
858.597	16630
858.731	16771
858.864	16641
858.997	16622
859.13	16752
859.263	16725
859.396	16771
859.529	16733
859.662	16736
859.795	16649
859.928	16812
860.061	16831
860.194	16946
860.327	16626
860.46	16713
860.592	16778
860.725	16797
860.858	16862
860.99	16786
861.123	16641
861.256	16672
861.388	16706
861.521	17402
861.653	16603
861.786	16417
861.918	16615
862.05	16607
862.183	16668
862.315	16828
862.447	16729
862.58	16679
862.712	16523
862.844	16386
862.976	16481
863.108	16478
863.24	16961
863.372	16470
863.504	16413
863.636	16436
863.768	16531
863.9	16508
864.032	16344
864.164	16413
864.296	16443
864.428	16516
864.559	16512
864.691	16504
864.823	16466
864.954	16421
865.086	16436
865.217	16306
865.349	16371
865.48	16280
865.612	16459
865.743	16550
865.875	16443
866.006	16360
866.137	16409
866.269	16303
866.4	16360
866.531	16386
866.662	16306
866.793	16356
866.924	16367
867.055	16337
867.186	16382
867.317	16363
867.448	16303
867.579	16306
867.71	16314
867.841	16272
867.972	16344
868.103	16451
868.233	16344
868.364	16268
868.495	16508
868.625	16523
868.756	16668
868.886	16577
869.017	16672
869.147	16634
869.278	16664
869.408	16592
869.539	16561
869.669	16626
869.799	16668
869.929	16675
870.06	16668
870.19	16896
870.32	16812
870.45	17025
870.58	17018
870.71	17056
870.84	17045
870.97	16968
871.1	16968
871.23	17143
871.36	17239
871.489	17132
871.619	17121
871.749	17212
871.879	17269
872.008	17303
872.138	17216
872.267	17128
872.397	17056
872.526	17075
872.656	17140
872.785	17090
872.915	17212
873.044	17311
873.173	17269
873.303	17303
873.432	17379
873.561	17353
873.69	17402
873.819	17288
873.948	17364
874.077	17353
874.206	17277
874.335	17364
874.464	17547
874.593	17604
874.722	17558
874.851	17634
874.979	17630
875.108	17760
875.237	17551
875.365	17573
875.494	17653
875.623	17672
875.751	17745
875.88	17802
876.008	17840
876.136	17931
876.265	18197
876.393	18365
876.521	18289
876.65	18300
876.778	18186
876.906	18129
877.034	18270
877.162	18197
877.29	18121
877.418	18205
877.546	18247
877.674	18467
877.802	18266
877.93	18315
878.058	18414
878.185	18414
878.313	18528
878.441	18536
878.568	18551
878.696	18856
878.824	18996
878.951	19384
879.079	19700
879.206	20366
879.333	20902
879.461	21070
879.588	21378
879.715	21458
879.842	21275
879.97	20807
880.097	20039
880.224	19643
880.351	19350
880.478	19126
880.605	19000
880.732	18844
880.859	19000
880.986	18848
881.112	18825
881.239	18684
881.366	18506
881.493	18422
881.619	18311
881.746	18346
881.872	18346
881.999	18308
882.125	18490
882.252	18593
882.378	18350
882.505	18604
882.631	18384
882.757	18296
882.883	18251
883.01	18376
883.136	18270
883.262	17980
883.388	18144
883.514	18372
883.64	18292
883.766	18167
883.892	17958
884.018	18106
884.143	18190
884.269	18361
884.395	17992
884.52	17882
884.646	17992
884.772	17904
884.897	17828
885.023	17958
885.148	17889
885.274	18060
885.399	18068
885.524	17828
885.65	17859
885.775	17882
885.9	17859
886.025	17805
886.15	17775
886.275	17638
886.4	17623
886.525	17589
886.65	17398
886.775	17459
886.9	17691
887.025	17771
887.149	17471
887.274	17326
887.399	17303
887.523	17212
887.648	17178
887.773	17140
887.897	17277
888.021	17178
888.146	17128
888.27	17208
888.395	17318
888.519	17326
888.643	17216
888.767	17136
888.891	17048
889.015	16839
889.139	16904
889.263	16938
889.387	16930
889.511	17140
889.635	17064
889.759	16869
889.883	16900
890.006	16953
890.13	16866
890.254	16801
890.377	16793
890.501	16645
890.624	16500
890.748	16641
890.871	16466
890.995	16367
891.118	16356
891.241	16500
891.364	16432
891.488	16531
891.611	16329
891.734	16360
891.857	16451
891.98	16379
892.103	16519
892.226	16470
892.349	16261
892.471	16169
892.594	16337
892.717	16352
892.839	16295
892.962	16360
893.085	16390
893.207	16344
893.33	16147
893.452	16196
893.575	16333
893.697	16188
893.819	16447
893.941	16607
894.064	16360
894.186	16257
894.308	16188
894.43	16447
894.552	16546
894.674	16424
894.796	16143
894.918	16242
895.04	16337
895.161	16398
895.283	16360
895.405	16303
895.526	16295
895.648	16371
895.769	16246
895.891	16337
896.012	16375
896.134	16432
896.255	16379
896.376	16253
896.498	16295
896.619	16394
896.74	16360
896.861	16379
896.982	16763
897.103	16873
897.224	16611
897.345	16618
897.466	16512
897.587	16615
897.708	16767
897.828	16519
897.949	16588
898.07	16500
898.19	16500
898.311	16752
898.431	16622
898.552	16649
898.672	16778
898.792	16698
898.913	16634
899.033	16588
899.153	16565
899.273	16466
899.393	16508
899.513	16443
899.633	16493
899.753	16497
899.873	16436
899.993	16550
900.113	16508
900.232	16550
900.352	16474
900.472	16356
900.591	16284
900.711	16466
900.83	16280
900.95	16375
901.069	16413
901.189	16333
901.308	16109
901.427	15922
901.546	16093
901.665	15934
901.784	16013
901.904	15838
902.023	15850
902.141	15561
902.26	15500
902.379	15667
902.498	15454
902.617	15496
902.735	15511
902.854	15424
902.973	15443
903.091	15275
903.21	15169
903.328	15135
903.446	15116
903.565	14986
903.683	15032
903.801	14914
903.919	14960
904.038	14918
904.156	14720
904.274	14811
904.392	14762
904.51	14826
904.627	14769
904.745	14762
904.863	14853
904.981	14507
905.098	14381
905.216	14488
905.334	14549
905.451	14469
905.569	14393
905.686	14454
905.803	14324
905.921	14233
906.038	14290
906.155	14176
906.272	14123
906.389	14088
906.506	13947
906.623	13982
906.74	13860
906.857	13780
906.974	13860
907.091	13970
907.208	14157
907.324	14039
907.441	13776
907.557	13632
907.674	13727
907.79	13636
907.907	13597
908.023	13753
908.139	13651
908.256	13567
908.372	13586
908.488	13529
908.604	13419
908.72	13434
908.836	13468
908.952	13297
909.068	13396
909.184	13556
909.3	13419
909.415	13384
909.531	13369
909.647	13175
909.762	13110
909.878	13175
909.993	13091
910.108	13099
910.224	13076
910.339	13118
910.454	13057
910.57	12962
910.685	12916
910.8	13190
910.915	13034
911.03	13019
911.145	12730
911.259	12848
911.374	12798
911.489	12726
911.604	12734
911.718	12551
911.833	12574
911.947	12418
912.062	12353
912.176	12471
912.291	12521
912.405	12441
912.519	12696
912.633	12722
912.748	12547
912.862	12525
912.976	12445
913.09	12327
913.204	12285
913.318	12376
913.431	12494
913.545	12490
913.659	12517
913.772	12346
913.886	12281
914	12171
914.113	12304
914.226	12334
914.34	12311
914.453	12201
914.566	12239
914.68	12235
914.793	12125
914.906	12011
915.019	11965
915.132	11912
915.245	11946
915.358	11901
915.47	12011
915.583	11882
915.696	12022
915.809	12083
915.921	12148
916.034	11859
916.146	11866
916.259	11927
916.371	12019
916.483	11939
916.595	11824
916.708	11866
916.82	11882
916.932	11843
917.044	11855
917.156	11836
917.268	11748
917.38	11695
917.491	11653
917.603	11798
917.715	11840
917.826	11817
917.938	11733
918.049	11566
918.161	11726
918.272	11851
918.384	11889
918.495	11813
918.606	11566
918.717	11547
918.828	11604
918.939	11573
919.05	11414
919.161	11520
919.272	11315
919.383	11402
919.494	11570
919.604	11798
919.715	11676
919.826	11478
919.936	11459
920.047	11630
920.157	11478
920.267	11726
920.378	11592
920.488	11497
920.598	11649
920.708	11824
920.818	11741
920.928	11623
921.038	11786
921.148	11760
921.258	11611
921.368	11379
921.477	11417
921.587	11353
921.697	11288
921.806	11318
921.916	11128
922.025	11041
922.134	11064
922.244	10984
922.353	10949
922.462	10949
922.571	10930
922.68	10672
922.789	10733
922.898	10725
923.007	10714
923.116	10714
923.224	10714
923.333	10675
923.442	10519
923.55	10569
923.659	10679
923.767	10653
923.876	10558
923.984	10596
924.092	10474
924.201	10527
924.309	10504
924.417	10523
924.525	10485
924.633	10538
924.741	11193
924.849	10375
924.956	10443
925.064	10299
925.172	10280
925.279	10284
925.387	10276
925.494	10280
925.602	10337
925.709	10382
925.816	10177
925.924	10329
926.031	10402
926.138	10272
926.245	10322
926.352	10196
926.459	10291
926.566	10348
926.673	10105
926.779	10074
926.886	10105
926.993	9975
927.099	9964
927.206	9899
927.312	9975
927.419	10032
927.525	10051
927.631	9934
927.737	9812
927.843	9835
927.95	9682
928.056	9842
928.162	9838
928.267	9895
928.373	10516
928.479	9960
928.585	9633
928.69	9831
928.796	9869
928.901	9724
929.007	9614
929.112	9690
929.218	9694
929.323	9694
929.428	9667
929.533	9770
929.638	9545
929.743	9625
929.848	9671
929.953	9603
930.058	9481
930.163	9222
930.267	9435
930.372	9549
930.477	9317
930.581	9557
930.685	9458
930.79	9287
930.894	9329
930.998	9260
931.103	9416
931.207	9150
931.311	9017
931.415	8948
931.519	8754
931.623	8785
