Data from test_V78500241_2730.txt Node
Date: Fri Mar 25 14:52:43 CST 2022
User: usil
Spectrometer: V785-0024
Trigger mode: 0
Integration Time (sec): 4.000000E-1
Scans to average: 1
Nonlinearity correction enabled: false
Boxcar width: 0
Storing dark spectrum: false
XAxis mode: Wavelengths
Number of Pixels in Spectrum: 1024
>>>>>Begin Spectral Data<<<<<
801.071	22002
801.214	21979
801.356	21713
801.499	21580
801.641	21412
801.783	21439
801.926	21416
802.068	21420
802.211	21275
802.353	21272
802.496	21062
802.638	20887
802.78	20849
802.923	20701
803.065	20735
803.208	20693
803.35	20754
803.492	20826
803.635	20872
803.777	20811
803.919	20819
804.061	21077
804.204	20883
804.346	20781
804.488	20670
804.63	20629
804.773	20602
804.915	20629
805.057	20815
805.199	20644
805.341	20724
805.483	20727
805.626	20640
805.768	20636
805.91	20693
806.052	20587
806.194	20571
806.336	20716
806.478	20659
806.62	20526
806.762	20853
806.904	20845
807.046	20952
807.188	20971
807.33	20971
807.472	21062
807.614	20807
807.756	20933
807.898	20686
808.04	20727
808.182	20678
808.324	20617
808.465	20613
808.607	20986
808.749	20876
808.891	21066
809.033	21127
809.174	20986
809.316	20880
809.458	20910
809.6	20952
809.741	21051
809.883	21036
810.025	21169
810.166	21051
810.308	20986
810.45	21112
810.591	21013
810.733	20944
810.875	20861
811.016	20670
811.158	20526
811.299	20815
811.441	20754
811.582	20891
811.724	20792
811.865	20651
812.007	20701
812.148	20762
812.29	20773
812.431	20906
812.573	21051
812.714	21039
812.855	21188
812.997	21382
813.138	21504
813.279	21378
813.421	21176
813.562	21241
813.703	21051
813.845	20952
813.986	20682
814.127	20461
814.268	20431
814.41	20328
814.551	20256
814.692	20381
814.833	20229
814.974	20301
815.115	20271
815.256	20126
815.397	20142
815.539	20130
815.68	20005
815.821	19940
815.962	20119
816.103	19997
816.244	19734
816.385	19856
816.526	19822
816.666	19514
816.807	19415
816.948	19495
817.089	19548
817.23	19483
817.371	19407
817.512	19400
817.653	19483
817.793	19327
817.934	19373
818.075	19453
818.216	19419
818.356	19502
818.497	19209
818.638	19084
818.778	19183
818.919	19137
819.06	19072
819.2	19285
819.341	19304
819.481	19232
819.622	19525
819.762	19559
819.903	19495
820.043	19449
820.184	19377
820.324	19480
820.465	19502
820.605	19457
820.746	19430
820.886	19255
821.026	19460
821.167	19358
821.307	19502
821.447	19270
821.588	19289
821.728	19206
821.868	18954
822.008	18935
822.149	18821
822.289	18783
822.429	18593
822.569	18452
822.709	18471
822.849	18323
822.99	18315
823.13	18308
823.27	18350
823.41	18114
823.55	18155
823.69	18095
823.83	18121
823.97	18095
824.11	17931
824.25	17863
824.389	17874
824.529	18064
824.669	17904
824.809	17977
824.949	17828
825.089	18015
825.228	17927
825.368	17790
825.508	17657
825.648	17665
825.787	17707
825.927	17733
826.067	17611
826.206	17592
826.346	17687
826.485	17710
826.625	17657
826.765	17851
826.904	17699
827.044	17459
827.183	17379
827.323	17303
827.462	17482
827.601	17436
827.741	17353
827.88	17341
828.02	17155
828.159	17269
828.298	17376
828.437	17425
828.577	17376
828.716	17433
828.855	17296
828.994	17159
829.134	17197
829.273	17242
829.412	17102
829.551	17052
829.69	17079
829.829	17299
829.968	17220
830.107	17246
830.246	17185
830.385	17071
830.524	16999
830.663	16908
830.802	16744
830.941	16771
831.08	16786
831.219	16805
831.357	16797
831.496	16930
831.635	16664
831.774	16637
831.913	16546
832.051	16645
832.19	16584
832.329	16588
832.467	16344
832.606	16519
832.744	16447
832.883	16519
833.022	16379
833.16	16432
833.299	16504
833.437	16428
833.576	16459
833.714	16516
833.852	16436
833.991	16443
834.129	16675
834.267	16580
834.406	16421
834.544	16577
834.682	16466
834.821	16565
834.959	16611
835.097	16459
835.235	16626
835.373	16523
835.511	16596
835.65	16360
835.788	16409
835.926	16246
836.064	16226
836.202	16162
836.34	16360
836.478	16459
836.615	16447
836.753	16497
836.891	16508
837.029	16451
837.167	16379
837.305	16447
837.443	16344
837.58	16200
837.718	16337
837.856	16306
837.993	16204
838.131	16329
838.269	16158
838.406	16211
838.544	16120
838.681	15945
838.819	15956
838.956	15797
839.094	15892
839.231	15915
839.369	16002
839.506	16291
839.643	16150
839.781	15857
839.918	15717
840.055	15827
840.193	15838
840.33	15785
840.467	15816
840.604	15880
840.742	16048
840.879	15713
841.016	15797
841.153	15743
841.29	15895
841.427	15751
841.564	15880
841.701	15899
841.838	15778
841.975	15781
842.112	15667
842.249	15637
842.385	15538
842.522	15785
842.659	15728
842.796	15641
842.933	15618
843.069	15519
843.206	15606
843.343	15705
843.479	15637
843.616	15671
843.752	15351
843.889	15435
844.025	15610
844.162	15401
844.298	15488
844.435	15450
844.571	15336
844.708	15435
844.844	15462
844.98	15553
845.117	15481
845.253	15363
845.389	15310
845.525	15329
845.661	15374
845.798	15203
845.934	15203
846.07	15195
846.206	15264
846.342	15405
846.478	15142
846.614	14956
846.75	14979
846.886	15024
847.022	15024
847.158	15058
847.294	15028
847.429	15070
847.565	14937
847.701	15214
847.837	14686
847.972	14667
848.108	14796
848.244	14811
848.379	14644
848.515	14621
848.65	14659
848.786	14560
848.921	14613
849.057	14686
849.192	14648
849.328	14602
849.463	14560
849.598	14507
849.734	14552
849.869	14442
850.004	14434
850.14	14427
850.275	14469
850.41	14301
850.545	14339
850.68	14343
850.815	14404
850.95	14286
851.085	14549
851.22	14431
851.355	14263
851.49	14370
851.625	14294
851.76	14271
851.895	14240
852.03	14202
852.165	14271
852.299	14446
852.434	14412
852.569	14415
852.703	14408
852.838	14339
852.973	14530
853.107	14377
853.242	14282
853.376	14248
853.511	14043
853.645	14221
853.78	14278
853.914	14103
854.048	14187
854.183	14145
854.317	14210
854.451	14313
854.585	14263
854.72	14130
854.854	14244
854.988	14149
855.122	14218
855.256	14046
855.39	14126
855.524	14313
855.658	14229
855.792	14218
855.926	14130
856.06	14290
856.194	14332
856.327	14202
856.461	14180
856.595	14225
856.729	14153
856.862	14233
856.996	14256
857.13	14183
857.263	14252
857.397	14313
857.53	14244
857.664	14339
857.797	14355
857.931	14301
858.064	14229
858.197	14351
858.331	14199
858.464	14168
858.597	14164
858.731	14278
858.864	14187
858.997	14240
859.13	14275
859.263	14229
859.396	14343
859.529	14210
859.662	14164
859.795	14195
859.928	14164
860.061	14305
860.194	14362
860.327	14202
860.46	14187
860.592	14381
860.725	14339
860.858	14374
860.99	14301
861.123	14168
861.256	14191
861.388	14244
861.521	14868
861.653	14138
861.786	14111
861.918	14058
862.05	14065
862.183	14199
862.315	14278
862.447	14263
862.58	14134
862.712	14046
862.844	13940
862.976	14039
863.108	14077
863.24	14370
863.372	13883
863.504	13925
863.636	13986
863.768	14031
863.9	13989
864.032	13921
864.164	14005
864.296	13986
864.428	14153
864.559	14008
864.691	14130
864.823	13982
864.954	14046
865.086	13963
865.217	14050
865.349	13913
865.48	14027
865.612	13974
865.743	14043
865.875	13982
866.006	13951
866.137	13936
866.269	13921
866.4	13967
866.531	13967
866.662	13947
866.793	13928
866.924	13940
867.055	14031
867.186	13909
867.317	13887
867.448	13833
867.579	13989
867.71	13913
867.841	13799
867.972	13947
868.103	14016
868.233	13993
868.364	13978
868.495	14031
868.625	14267
868.756	14358
868.886	14244
869.017	14161
869.147	14275
869.278	14381
869.408	14233
869.539	14191
869.669	14301
869.799	14218
869.929	14393
870.06	14370
870.19	14454
870.32	14636
870.45	14598
870.58	14659
870.71	14758
870.84	14739
870.97	14610
871.1	14598
871.23	14826
871.36	14830
871.489	14739
871.619	14868
871.749	14838
871.879	14876
872.008	14914
872.138	14872
872.267	14891
872.397	14674
872.526	14644
872.656	14686
872.785	14648
872.915	14872
873.044	14842
873.173	14883
873.303	14906
873.432	14941
873.561	14979
873.69	14845
873.819	14826
873.948	14887
874.077	14986
874.206	14914
874.335	14948
874.464	15039
874.593	15081
874.722	15146
874.851	15203
874.979	15199
875.108	15260
875.237	15176
875.365	15097
875.494	15108
875.623	15329
875.751	15123
875.88	15298
876.008	15310
876.136	15401
876.265	15686
876.393	15797
876.521	15679
876.65	15663
876.778	15690
876.906	15534
877.034	15576
877.162	15595
877.29	15568
877.418	15614
877.546	15637
877.674	15572
877.802	15591
877.93	15591
878.058	15671
878.185	15526
878.313	15564
878.441	15641
878.568	15481
878.696	15587
878.824	15709
878.951	15739
879.079	15808
879.206	15911
879.333	15736
879.461	15641
879.588	15698
879.715	15770
879.842	15899
879.97	15648
880.097	15424
880.224	15439
880.351	15439
880.478	15454
880.605	15416
880.732	15336
880.859	15717
880.986	15488
881.112	15481
881.239	15405
881.366	15214
881.493	15279
881.619	15093
881.746	15176
881.872	15081
881.999	14952
882.125	15013
882.252	15138
882.378	15218
882.505	15313
882.631	15047
882.757	14952
882.883	15047
883.01	14925
883.136	14868
883.262	14807
883.388	14849
883.514	14986
883.64	14971
883.766	14902
883.892	14705
884.018	14762
884.143	14975
884.269	14963
884.395	14731
884.52	14765
884.646	14602
884.772	14594
884.897	14507
885.023	14735
885.148	14750
885.274	14762
885.399	14750
885.524	14579
885.65	14731
885.775	14659
885.9	14632
886.025	14777
886.15	14655
886.275	14522
886.4	14606
886.525	14545
886.65	14492
886.775	14613
886.9	14800
887.025	14891
887.149	14552
887.274	14530
887.399	14339
887.523	14431
887.648	14385
887.773	14473
887.897	14590
888.021	14632
888.146	14419
888.27	14522
888.395	14598
888.519	14617
888.643	14431
888.767	14526
888.891	14362
889.015	14244
889.139	14286
889.263	14286
889.387	14457
889.511	14514
889.635	14476
889.759	14328
889.883	14355
890.006	14476
890.13	14473
890.254	14275
890.377	14298
890.501	14176
890.624	14119
890.748	14221
890.871	14088
890.995	14005
891.118	13974
891.241	14058
891.364	14024
891.488	14103
891.611	14092
891.734	13963
891.857	14077
891.98	14107
892.103	14138
892.226	14069
892.349	13982
892.471	13936
892.594	14001
892.717	14024
892.839	14050
892.962	14039
893.085	14043
893.207	14069
893.33	13898
893.452	14012
893.575	14176
893.697	13944
893.819	14256
893.941	14313
894.064	14134
894.186	14081
894.308	14035
894.43	14119
894.552	14214
894.674	14039
894.796	13997
894.918	14054
895.04	14046
895.161	14183
895.283	14282
895.405	14111
895.526	14123
895.648	14183
895.769	14252
895.891	14221
896.012	14233
896.134	14263
896.255	14267
896.376	14248
896.498	14240
896.619	14313
896.74	14248
896.861	14259
896.982	14568
897.103	14777
897.224	14526
897.345	14492
897.466	14400
897.587	14480
897.708	14712
897.828	14545
897.949	14499
898.07	14473
898.19	14484
898.311	14537
898.431	14507
898.552	14541
898.672	14663
898.792	14701
898.913	14701
899.033	14541
899.153	14393
899.273	14282
899.393	14324
899.513	14408
899.633	14393
899.753	14404
899.873	14320
899.993	14465
900.113	14412
900.232	14465
900.352	14339
900.472	14218
900.591	14218
900.711	14309
900.83	14282
900.95	14275
901.069	14454
901.189	14332
901.308	14073
901.427	13909
901.546	14027
901.665	14001
901.784	14024
901.904	13887
902.023	13765
902.141	13582
902.26	13518
902.379	13582
902.498	13548
902.617	13491
902.735	13457
902.854	13537
902.973	13441
903.091	13251
903.21	13392
903.328	13228
903.446	13213
903.565	13069
903.683	13240
903.801	13069
903.919	13107
904.038	13065
904.156	12947
904.274	12954
904.392	12859
904.51	12821
904.627	12989
904.745	12973
904.863	13034
904.981	12875
905.098	12578
905.216	12722
905.334	12673
905.451	12616
905.569	12551
905.686	12563
905.803	12566
905.921	12422
906.038	12517
906.155	12464
906.272	12296
906.389	12391
906.506	12235
906.623	12216
906.74	12205
906.857	12098
906.974	12083
907.091	12369
907.208	12369
907.324	12205
907.441	12140
907.557	12049
907.674	12034
907.79	11923
907.907	11840
908.023	12019
908.139	11965
908.256	11859
908.372	11885
908.488	11901
908.604	11775
908.72	11691
908.836	11745
908.952	11745
909.068	11707
909.184	11863
909.3	11665
909.415	11817
909.531	11760
909.647	11539
909.762	11455
909.878	11398
909.993	11566
910.108	11410
910.224	11440
910.339	11467
910.454	11387
910.57	11364
910.685	11227
910.8	11604
910.915	11459
911.03	11372
911.145	11277
911.259	11117
911.374	11201
911.489	11162
911.604	11075
911.718	10892
911.833	11003
911.947	10805
912.062	10797
912.176	10961
912.291	10976
912.405	10957
912.519	11124
912.633	11162
912.748	11041
912.862	10972
912.976	10908
913.09	10744
913.204	10755
913.318	10793
913.431	10908
913.545	10881
913.659	10900
913.772	10812
913.886	10752
914	10679
914.113	10752
914.226	10843
914.34	10835
914.453	10516
914.566	10774
914.68	10691
914.793	10527
914.906	10466
915.019	10424
915.132	10409
915.245	10455
915.358	10493
915.47	10497
915.583	10466
915.696	10459
915.809	10668
915.921	10558
916.034	10440
916.146	10352
916.259	10390
916.371	10462
916.483	10409
916.595	10333
916.708	10352
916.82	10344
916.932	10451
917.044	10356
917.156	10371
917.268	10295
917.38	10325
917.491	10276
917.603	10329
917.715	10402
917.826	10405
917.938	10249
918.049	10135
918.161	10261
918.272	10443
918.384	10451
918.495	10295
918.606	10147
918.717	10025
918.828	10086
918.939	10185
919.05	10071
919.161	10090
919.272	9941
919.383	9998
919.494	10249
919.604	10432
919.715	10154
919.826	10097
919.936	10185
920.047	10166
920.157	10128
920.267	10394
920.378	10185
920.488	10242
920.598	10363
920.708	10550
920.818	10398
920.928	10493
921.038	10577
921.148	10569
921.258	10234
921.368	10177
921.477	10059
921.587	10048
921.697	9876
921.806	10101
921.916	9991
922.025	9770
922.134	9789
922.244	9709
922.353	9770
922.462	9648
922.571	9557
922.68	9496
922.789	9405
922.898	9435
923.007	9367
923.116	9447
923.224	9363
923.333	9431
923.442	9393
923.55	9275
923.659	9302
923.767	9321
923.876	9302
923.984	9405
924.092	9321
924.201	9279
924.309	9264
924.417	9310
924.525	9256
924.633	9355
924.741	10017
924.849	9032
924.956	9237
925.064	9032
925.172	8944
925.279	9051
925.387	9131
925.494	9104
925.602	9226
925.709	9131
925.816	9009
925.924	9081
926.031	9226
926.138	9176
926.245	9119
926.352	9017
926.459	9146
926.566	9104
926.673	9112
926.779	8967
926.886	8963
926.993	8800
927.099	8864
927.206	8693
927.312	8727
927.419	8849
927.525	8815
927.631	8792
927.737	8727
927.843	8735
927.95	8621
928.056	8667
928.162	8720
928.267	8735
928.373	9355
928.479	8838
928.585	8651
928.69	8648
928.796	8743
928.901	8587
929.007	8495
929.112	8701
929.218	8564
929.323	8545
929.428	8507
929.533	8613
929.638	8476
929.743	8530
929.848	8606
929.953	8503
930.058	8419
930.163	8244
930.267	8355
930.372	8419
930.477	8233
930.581	8522
930.685	8385
930.79	8256
930.894	8279
930.998	8210
931.103	8396
931.207	8062
931.311	7963
931.415	7963
931.519	7727
931.623	7700
