Data from test_V78500241_1722.txt Node
Date: Fri Mar 25 14:45:42 CST 2022
User: usil
Spectrometer: V785-0024
Trigger mode: 0
Integration Time (sec): 4.000000E-1
Scans to average: 1
Nonlinearity correction enabled: false
Boxcar width: 0
Storing dark spectrum: false
XAxis mode: Wavelengths
Number of Pixels in Spectrum: 1024
>>>>>Begin Spectral Data<<<<<
801.071	22310
801.214	22086
801.356	21922
801.499	21781
801.641	21542
801.783	21557
801.926	21603
802.068	21488
802.211	21447
802.353	21374
802.496	21146
802.638	21180
802.78	21047
802.923	21017
803.065	20864
803.208	20826
803.35	20868
803.492	21116
803.635	21104
803.777	20895
803.919	21013
804.061	21291
804.204	20971
804.346	21020
804.488	20853
804.63	20842
804.773	20769
804.915	20921
805.057	21001
805.199	20834
805.341	20990
805.483	21062
805.626	20967
805.768	20716
805.91	20906
806.052	20963
806.194	20785
806.336	20982
806.478	20853
806.62	20902
806.762	20811
806.904	21138
807.046	21264
807.188	21218
807.33	21218
807.472	21313
807.614	21096
807.756	21127
807.898	20963
808.04	20914
808.182	20982
808.324	20990
808.465	21005
808.607	21154
808.749	21245
808.891	21378
809.033	21473
809.174	21431
809.316	21287
809.458	21207
809.6	21180
809.741	21264
809.883	21321
810.025	21431
810.166	21405
810.308	21408
810.45	21405
810.591	21431
810.733	21150
810.875	20971
811.016	20921
811.158	20804
811.299	21001
811.441	21173
811.582	21169
811.724	20902
811.865	21020
812.007	21100
812.148	21032
812.29	21138
812.431	21207
812.573	21298
812.714	21408
812.855	21511
812.997	21629
813.138	21743
813.279	21587
813.421	21515
813.562	21447
813.703	21359
813.845	21192
813.986	20845
814.127	20773
814.268	20609
814.41	20648
814.551	20625
814.692	20697
814.833	20427
814.974	20495
815.115	20511
815.256	20492
815.397	20469
815.539	20492
815.68	20309
815.821	20275
815.962	20408
816.103	20267
816.244	20180
816.385	20050
816.526	19993
816.666	19841
816.807	19818
816.948	19811
817.089	19833
817.23	19883
817.371	19670
817.512	19727
817.653	19849
817.793	19803
817.934	19776
818.075	19761
818.216	19761
818.356	19662
818.497	19476
818.638	19487
818.778	19316
818.919	19350
819.06	19369
819.2	19563
819.341	19559
819.481	19658
819.622	19738
819.762	19917
819.903	19826
820.043	19860
820.184	19750
820.324	19662
820.465	19693
820.605	19666
820.746	19734
820.886	19590
821.026	19799
821.167	19647
821.307	19791
821.447	19693
821.588	19430
821.728	19346
821.868	19278
822.008	18935
822.149	19110
822.289	18993
822.429	18913
822.569	18730
822.709	18821
822.849	18601
822.99	18551
823.13	18601
823.27	18506
823.41	18498
823.55	18353
823.69	18365
823.83	18498
823.97	18323
824.11	18129
824.25	18125
824.389	18167
824.529	18315
824.669	18079
824.809	18182
824.949	18209
825.089	18201
825.228	18186
825.368	17984
825.508	17969
825.648	18003
825.787	18015
825.927	17939
826.067	17977
826.206	17950
826.346	17923
826.485	17984
826.625	17958
826.765	17946
826.904	17984
827.044	17726
827.183	17710
827.323	17600
827.462	17676
827.601	17649
827.741	17589
827.88	17661
828.02	17589
828.159	17729
828.298	17630
828.437	17718
828.577	17558
828.716	17840
828.855	17657
828.994	17417
829.134	17395
829.273	17444
829.412	17299
829.551	17326
829.69	17311
829.829	17436
829.968	17512
830.107	17474
830.246	17376
830.385	17181
830.524	17398
830.663	17185
830.802	17003
830.941	17041
831.08	17022
831.219	17140
831.357	17045
831.496	17254
831.635	16949
831.774	16984
831.913	16911
832.051	16847
832.19	16809
832.329	16835
832.467	16748
832.606	16546
832.744	16717
832.883	16752
833.022	16710
833.16	16786
833.299	16691
833.437	16763
833.576	16733
833.714	16702
833.852	16706
833.991	16729
834.129	16831
834.267	16771
834.406	16786
834.544	16736
834.682	16759
834.821	16691
834.959	16835
835.097	16691
835.235	16809
835.373	16702
835.511	16733
835.65	16691
835.788	16641
835.926	16493
836.064	16462
836.202	16538
836.34	16653
836.478	16706
836.615	16721
836.753	16607
836.891	16706
837.029	16687
837.167	16596
837.305	16519
837.443	16577
837.58	16455
837.718	16634
837.856	16538
837.993	16470
838.131	16481
838.269	16443
838.406	16432
838.544	16413
838.681	16166
838.819	16109
838.956	16090
839.094	16036
839.231	16158
839.369	16242
839.506	16440
839.643	16268
839.781	16071
839.918	16040
840.055	16082
840.193	16078
840.33	16036
840.467	16048
840.604	16063
840.742	16306
840.879	16044
841.016	15953
841.153	15964
841.29	16166
841.427	16105
841.564	16150
841.701	16048
841.838	16063
841.975	15979
842.112	16025
842.249	15865
842.385	15838
842.522	16017
842.659	15827
842.796	15816
842.933	15751
843.069	15835
843.206	15842
843.343	15857
843.479	15892
843.616	15865
843.752	15618
843.889	15663
844.025	15732
844.162	15530
844.298	15679
844.435	15690
844.571	15561
844.708	15698
844.844	15838
844.98	15736
845.117	15736
845.253	15580
845.389	15580
845.525	15519
845.661	15496
845.798	15412
845.934	15534
846.07	15545
846.206	15431
846.342	15542
846.478	15462
846.614	15252
846.75	15089
846.886	15081
847.022	15256
847.158	15180
847.294	15123
847.429	15214
847.565	15108
847.701	15382
847.837	14902
847.972	14838
848.108	15024
848.244	15039
848.379	14902
848.515	14750
848.65	14727
848.786	14823
848.921	14834
849.057	14887
849.192	14895
849.328	14811
849.463	14937
849.598	14758
849.734	14655
849.869	14708
850.004	14575
850.14	14659
850.275	14507
850.41	14488
850.545	14514
850.68	14465
850.815	14568
850.95	14484
851.085	14708
851.22	14644
851.355	14629
851.49	14484
851.625	14568
851.76	14526
851.895	14511
852.03	14358
852.165	14560
852.299	14533
852.434	14644
852.569	14674
852.703	14480
852.838	14632
852.973	14701
853.107	14701
853.242	14556
853.376	14446
853.511	14275
853.645	14431
853.78	14530
853.914	14465
854.048	14396
854.183	14408
854.317	14514
854.451	14579
854.585	14476
854.72	14412
854.854	14583
854.988	14328
855.122	14358
855.256	14286
855.39	14480
855.524	14518
855.658	14545
855.792	14488
855.926	14457
856.06	14488
856.194	14571
856.327	14450
856.461	14415
856.595	14347
856.729	14377
856.862	14438
856.996	14442
857.13	14450
857.263	14495
857.397	14514
857.53	14511
857.664	14484
857.797	14579
857.931	14617
858.064	14442
858.197	14583
858.331	14446
858.464	14362
858.597	14305
858.731	14389
858.864	14423
858.997	14381
859.13	14457
859.263	14396
859.396	14503
859.529	14370
859.662	14404
859.795	14347
859.928	14412
860.061	14590
860.194	14644
860.327	14355
860.46	14404
860.592	14629
860.725	14587
860.858	14564
860.99	14469
861.123	14343
861.256	14507
861.388	14400
861.521	15074
861.653	14351
861.786	14210
861.918	14400
862.05	14377
862.183	14339
862.315	14419
862.447	14495
862.58	14374
862.712	14252
862.844	14252
862.976	14317
863.108	14320
863.24	14625
863.372	14176
863.504	14313
863.636	14161
863.768	14252
863.9	14176
864.032	14081
864.164	14145
864.296	14301
864.428	14347
864.559	14237
864.691	14278
864.823	14259
864.954	14259
865.086	14248
865.217	14149
865.349	14096
865.48	14259
865.612	14271
865.743	14317
865.875	14225
866.006	14142
866.137	14206
866.269	14123
866.4	14180
866.531	14164
866.662	14088
866.793	14058
866.924	14172
867.055	14123
867.186	14176
867.317	14214
867.448	14096
867.579	14062
867.71	14134
867.841	14081
867.972	14142
868.103	14233
868.233	14187
868.364	14153
868.495	14339
868.625	14412
868.756	14469
868.886	14313
869.017	14381
869.147	14549
869.278	14606
869.408	14438
869.539	14381
869.669	14450
869.799	14374
869.929	14549
870.06	14533
870.19	14659
870.32	14598
870.45	14842
870.58	14872
870.71	14944
870.84	14963
870.97	14823
871.1	14796
871.23	14952
871.36	15001
871.489	14982
871.619	14941
871.749	15055
871.879	15081
872.008	15176
872.138	15009
872.267	15009
872.397	14906
872.526	14910
872.656	14864
872.785	14861
872.915	15081
873.044	15154
873.173	15123
873.303	15135
873.432	15085
873.561	15142
873.69	15032
873.819	15119
873.948	15188
874.077	15051
874.206	15043
874.335	15116
874.464	15272
874.593	15340
874.722	15272
874.851	15397
874.979	15408
875.108	15469
875.237	15428
875.365	15298
875.494	15389
875.623	15447
875.751	15488
875.88	15564
876.008	15488
876.136	15713
876.265	15766
876.393	15911
876.521	15937
876.65	15907
876.778	15816
876.906	15686
877.034	15762
877.162	15842
877.29	15751
877.418	15819
877.546	15835
877.674	15819
877.802	15800
877.93	15785
878.058	15876
878.185	15648
878.313	15739
878.441	15800
878.568	15660
878.696	15762
878.824	15793
878.951	15922
879.079	16010
879.206	16090
879.333	15926
879.461	15857
879.588	15972
879.715	15922
879.842	16139
879.97	15816
880.097	15663
880.224	15599
880.351	15660
880.478	15675
880.605	15564
880.732	15614
880.859	15846
880.986	15660
881.112	15713
881.239	15603
881.366	15363
881.493	15344
881.619	15260
881.746	15340
881.872	15340
881.999	15287
882.125	15344
882.252	15424
882.378	15363
882.505	15378
882.631	15249
882.757	15192
882.883	15169
883.01	15116
883.136	15127
883.262	14990
883.388	14921
883.514	15123
883.64	15173
883.766	15051
883.892	15074
884.018	14887
884.143	15051
884.269	15195
884.395	14857
884.52	14781
884.646	14804
884.772	14735
884.897	14754
885.023	14933
885.148	14918
885.274	14933
885.399	14929
885.524	14845
885.65	14838
885.775	14807
885.9	14849
886.025	14902
886.15	14948
886.275	14773
886.4	14735
886.525	14758
886.65	14804
886.775	14735
886.9	14960
887.025	15112
887.149	14876
887.274	14731
887.399	14682
887.523	14606
887.648	14571
887.773	14579
887.897	14663
888.021	14701
888.146	14511
888.27	14792
888.395	14849
888.519	14674
888.643	14708
888.767	14724
888.891	14682
889.015	14457
889.139	14537
889.263	14488
889.387	14648
889.511	14750
889.635	14712
889.759	14438
889.883	14415
890.006	14511
890.13	14678
890.254	14393
890.377	14507
890.501	14423
890.624	14320
890.748	14381
890.871	14320
890.995	14248
891.118	14221
891.241	14248
891.364	14221
891.488	14267
891.611	14225
891.734	14218
891.857	14168
891.98	14180
892.103	14271
892.226	14278
892.349	14301
892.471	14111
892.594	14240
892.717	14218
892.839	14180
892.962	14229
893.085	14317
893.207	14180
893.33	14103
893.452	14183
893.575	14259
893.697	14199
893.819	14389
893.941	14419
894.064	14313
894.186	14153
894.308	14172
894.43	14415
894.552	14389
894.674	14324
894.796	14149
894.918	14233
895.04	14210
895.161	14408
895.283	14339
895.405	14172
895.526	14252
895.648	14419
895.769	14377
895.891	14362
896.012	14408
896.134	14454
896.255	14286
896.376	14298
896.498	14427
896.619	14385
896.74	14446
896.861	14533
896.982	14785
897.103	14906
897.224	14693
897.345	14640
897.466	14446
897.587	14632
897.708	14842
897.828	14640
897.949	14579
898.07	14457
898.19	14655
898.311	14727
898.431	14682
898.552	14598
898.672	14743
898.792	14815
898.913	14701
899.033	14682
899.153	14571
899.273	14480
899.393	14670
899.513	14613
899.633	14632
899.753	14571
899.873	14533
899.993	14674
900.113	14568
900.232	14629
900.352	14598
900.472	14457
900.591	14374
900.711	14511
900.83	14400
900.95	14461
901.069	14537
901.189	14393
901.308	14092
901.427	14119
901.546	14031
901.665	14069
901.784	14065
901.904	14020
902.023	13868
902.141	13776
902.26	13639
902.379	13769
902.498	13712
902.617	13643
902.735	13685
902.854	13643
902.973	13628
903.091	13400
903.21	13362
903.328	13358
903.446	13331
903.565	13274
903.683	13274
903.801	13129
903.919	13152
904.038	13206
904.156	13091
904.274	13129
904.392	13156
904.51	12993
904.627	13095
904.745	13091
904.863	13221
904.981	12905
905.098	12798
905.216	12779
905.334	12833
905.451	12757
905.569	12825
905.686	12867
905.803	12837
905.921	12669
906.038	12604
906.155	12703
906.272	12467
906.389	12517
906.506	12361
906.623	12395
906.74	12304
906.857	12209
906.974	12220
907.091	12441
907.208	12502
907.324	12384
907.441	12327
907.557	12133
907.674	12057
907.79	12045
907.907	12015
908.023	12182
908.139	12159
908.256	12022
908.372	11958
908.488	11996
908.604	11870
908.72	11828
908.836	11828
908.952	11798
909.068	11912
909.184	11965
909.3	11889
909.415	11920
909.531	11901
909.647	11684
909.762	11581
909.878	11646
909.993	11554
910.108	11581
910.224	11619
910.339	11699
910.454	11509
910.57	11474
910.685	11395
910.8	11653
910.915	11623
911.03	11421
911.145	11326
911.259	11250
911.374	11311
911.489	11231
911.604	11155
911.718	11056
911.833	11079
911.947	11003
912.062	10930
912.176	11083
912.291	11071
912.405	11159
912.519	11311
912.633	11292
912.748	11159
912.862	11124
912.976	10949
913.09	10835
913.204	10961
913.318	10946
913.431	10980
913.545	10972
913.659	11056
913.772	10919
913.886	10889
914	10843
914.113	10961
914.226	11003
914.34	10934
914.453	10748
914.566	10946
914.68	10767
914.793	10793
914.906	10611
915.019	10580
915.132	10508
915.245	10599
915.358	10577
915.47	10580
915.583	10561
915.696	10710
915.809	10862
915.921	10786
916.034	10641
916.146	10592
916.259	10489
916.371	10630
916.483	10561
916.595	10531
916.708	10588
916.82	10470
916.932	10508
917.044	10542
917.156	10512
917.268	10443
917.38	10413
917.491	10402
917.603	10409
917.715	10542
917.826	10531
917.938	10508
918.049	10295
918.161	10481
918.272	10577
918.384	10561
918.495	10424
918.606	10337
918.717	10310
918.828	10394
918.939	10371
919.05	10177
919.161	10257
919.272	10063
919.383	10143
919.494	10493
919.604	10489
919.715	10295
919.826	10234
919.936	10284
920.047	10382
920.157	10367
920.267	10565
920.378	10352
920.488	10318
920.598	10478
920.708	10672
920.818	10504
920.928	10497
921.038	10752
921.148	10660
921.258	10466
921.368	10306
921.477	10166
921.587	10143
921.697	10093
921.806	10204
921.916	10051
922.025	9892
922.134	9937
922.244	9838
922.353	9949
922.462	9785
922.571	9797
922.68	9614
922.789	9534
922.898	9622
923.007	9526
923.116	9648
923.224	9610
923.333	9526
923.442	9542
923.55	9405
923.659	9496
923.767	9553
923.876	9401
923.984	9447
924.092	9408
924.201	9424
924.309	9420
924.417	9504
924.525	9389
924.633	9443
924.741	10352
924.849	9230
924.956	9332
925.064	9218
925.172	9093
925.279	9214
925.387	9249
925.494	9256
925.602	9348
925.709	9298
925.816	9237
925.924	9245
926.031	9329
926.138	9256
926.245	9306
926.352	9135
926.459	9374
926.566	9348
926.673	9131
926.779	9081
926.886	9024
926.993	9009
927.099	8902
927.206	8792
927.312	8857
927.419	8994
927.525	8906
927.631	9055
927.737	8857
927.843	8845
927.95	8735
928.056	8834
928.162	8834
928.267	8895
928.373	9416
928.479	8967
928.585	8651
928.69	8826
928.796	8853
928.901	8705
929.007	8522
929.112	8788
929.218	8758
929.323	8617
929.428	8621
929.533	8724
929.638	8613
929.743	8579
929.848	8701
929.953	8720
930.058	8575
930.163	8381
930.267	8457
930.372	8518
930.477	8427
930.581	8606
930.685	8476
930.79	8419
930.894	8423
930.998	8434
931.103	8454
931.207	8202
931.311	8096
931.415	8096
931.519	7902
931.623	7898
