Data from test_V78500241_768.txt Node
Date: Fri Mar 25 14:39:04 CST 2022
User: usil
Spectrometer: V785-0024
Trigger mode: 0
Integration Time (sec): 4.000000E-1
Scans to average: 1
Nonlinearity correction enabled: false
Boxcar width: 0
Storing dark spectrum: false
XAxis mode: Wavelengths
Number of Pixels in Spectrum: 1024
>>>>>Begin Spectral Data<<<<<
801.071	26975
801.214	26773
801.356	26469
801.499	26492
801.641	26309
801.783	26339
801.926	26347
802.068	26248
802.211	26069
802.353	26073
802.496	25921
802.638	25837
802.78	25791
802.923	25696
803.065	25666
803.208	25616
803.35	25723
803.492	25913
803.635	25890
803.777	25685
803.919	25765
804.061	26229
804.204	25955
804.346	25830
804.488	25906
804.63	26050
804.773	25955
804.915	25944
805.057	26206
805.199	26100
805.341	26320
805.483	26556
805.626	26461
805.768	26511
805.91	26575
806.052	26720
806.194	26701
806.336	27173
806.478	27260
806.62	27279
806.762	27576
806.904	28010
807.046	28417
807.188	28812
807.33	29261
807.472	29790
807.614	30357
807.756	31343
807.898	32366
808.04	33819
808.182	35805
808.324	38484
808.465	41181
808.607	44530
808.749	47288
808.891	48863
809.033	49118
809.174	47672
809.316	44788
809.458	41490
809.6	37982
809.741	35440
809.883	33241
810.025	31940
810.166	30715
810.308	30057
810.45	29246
810.591	28961
810.733	28299
810.875	28032
811.016	27576
811.158	27325
811.299	27355
811.441	27427
811.582	27119
811.724	26864
811.865	26762
812.007	26678
812.148	26564
812.29	26621
812.431	26674
812.573	26674
812.714	26765
812.855	26712
812.997	26883
813.138	26952
813.279	26864
813.421	26746
813.562	26484
813.703	26343
813.845	26237
813.986	25978
814.127	25628
814.268	25613
814.41	25518
814.551	25362
814.692	25590
814.833	25396
814.974	25339
815.115	25263
815.256	25080
815.397	25091
815.539	25114
815.68	25076
815.821	25015
815.962	25069
816.103	24981
816.244	24738
816.385	24817
816.526	24585
816.666	24437
816.807	24388
816.948	24418
817.089	24464
817.23	24308
817.371	24239
817.512	24266
817.653	24167
817.793	24079
817.934	24182
818.075	24205
818.216	24144
818.356	24163
818.497	24064
818.638	23786
818.778	23901
818.919	23779
819.06	23866
819.2	24102
819.341	24034
819.481	24053
819.622	24220
819.762	24235
819.903	24174
820.043	24117
820.184	24098
820.324	24026
820.465	24022
820.605	24079
820.746	24007
820.886	23783
821.026	23980
821.167	23832
821.307	24011
821.447	23802
821.588	23695
821.728	23707
821.868	23379
822.008	23349
822.149	23421
822.289	23147
822.429	23044
822.569	22946
822.709	22889
822.849	22847
822.99	22694
823.13	22698
823.27	22634
823.41	22664
823.55	22462
823.69	22523
823.83	22516
823.97	22417
824.11	22219
824.25	22295
824.389	22234
824.529	22284
824.669	22265
824.809	22455
824.949	22386
825.089	22314
825.228	22325
825.368	22150
825.508	22097
825.648	22291
825.787	22112
825.927	22112
826.067	21994
826.206	22044
826.346	22067
826.485	22090
826.625	21937
826.765	22051
826.904	22067
827.044	21823
827.183	21854
827.323	21610
827.462	21720
827.601	21755
827.741	21793
827.88	21732
828.02	21599
828.159	21519
828.298	21603
828.437	21793
828.577	21652
828.716	21850
828.855	21682
828.994	21447
829.134	21405
829.273	21363
829.412	21298
829.551	21416
829.69	21447
829.829	21313
829.968	21321
830.107	21443
830.246	21287
830.385	21237
830.524	21317
830.663	21195
830.802	21070
830.941	20864
831.08	20910
831.219	21051
831.357	20914
831.496	21123
831.635	21005
831.774	21013
831.913	20838
832.051	20944
832.19	20750
832.329	20868
832.467	20880
832.606	20838
832.744	20838
832.883	20880
833.022	20937
833.16	21032
833.299	21291
833.437	21332
833.576	21389
833.714	21534
833.852	21705
833.991	21850
834.129	21865
834.267	21903
834.406	21831
834.544	21800
834.682	21743
834.821	21526
834.959	21675
835.097	21317
835.235	21348
835.373	21165
835.511	21005
835.65	20880
835.788	20724
835.926	20724
836.064	20568
836.202	20583
836.34	20602
836.478	20670
836.615	20571
836.753	20636
836.891	20549
837.029	20560
837.167	20415
837.305	20393
837.443	20423
837.58	20313
837.718	20343
837.856	20396
837.993	20362
838.131	20347
838.269	20210
838.406	20263
838.544	20180
838.681	19940
838.819	19890
838.956	19788
839.094	19822
839.231	19803
839.369	19864
839.506	20214
839.643	20008
839.781	19677
839.918	19689
840.055	19738
840.193	19738
840.33	19883
840.467	19807
840.604	19700
840.742	19947
840.879	19594
841.016	19605
841.153	19704
841.29	19746
841.427	19780
841.564	19712
841.701	19795
841.838	19700
841.975	19613
842.112	19738
842.249	19643
842.385	19571
842.522	19784
842.659	19643
842.796	19594
842.933	19605
843.069	19559
843.206	19586
843.343	19757
843.479	19685
843.616	19723
843.752	19521
843.889	19514
844.025	19700
844.162	19662
844.298	20035
844.435	19814
844.571	20149
844.708	20533
844.844	20811
844.98	21287
845.117	21907
845.253	22782
845.389	24574
845.525	28211
845.661	33793
845.798	40341
845.934	45481
846.07	47299
846.206	45960
846.342	41250
846.478	34603
846.614	28980
846.75	25133
846.886	22858
847.022	21789
847.158	20815
847.294	20210
847.429	19989
847.565	19613
847.701	19776
847.837	19141
847.972	18916
848.108	19145
848.244	18909
848.379	18616
848.515	18616
848.65	18593
848.786	18669
848.921	18642
849.057	18700
849.192	18669
849.328	18532
849.463	18460
849.598	18350
849.734	18311
849.869	18342
850.004	18216
850.14	18311
850.275	18254
850.41	18205
850.545	18098
850.68	18129
850.815	18209
850.95	18254
851.085	18296
851.22	18277
851.355	18251
851.49	18194
851.625	18125
851.76	18102
851.895	18133
852.03	18144
852.165	18201
852.299	18178
852.434	18319
852.569	18304
852.703	18304
852.838	18338
852.973	18471
853.107	18471
853.242	18235
853.376	18209
853.511	18068
853.645	18228
853.78	18361
853.914	18247
854.048	18376
854.183	18380
854.317	18506
854.451	18642
854.585	18418
854.72	18376
854.854	18475
854.988	18380
855.122	18350
855.256	18178
855.39	18194
855.524	18232
855.658	18224
855.792	18201
855.926	18186
856.06	18087
856.194	18258
856.327	18038
856.461	18034
856.595	18026
856.729	17889
856.862	18171
856.996	17965
857.13	18117
857.263	18148
857.397	18152
857.53	18064
857.664	17920
857.797	17969
857.931	17992
858.064	17851
858.197	18030
858.331	17882
858.464	17847
858.597	17783
858.731	17832
858.864	17805
858.997	17824
859.13	17901
859.263	17954
859.396	17996
859.529	17931
859.662	17817
859.795	17745
859.928	17878
860.061	18007
860.194	18041
860.327	17916
860.46	17802
860.592	17999
860.725	17984
860.858	17897
860.99	17764
861.123	17729
861.256	17729
861.388	17965
861.521	18582
861.653	17726
861.786	17691
861.918	17661
862.05	17699
862.183	17832
862.315	17821
862.447	17760
862.58	17824
862.712	17562
862.844	17592
862.976	17611
863.108	17585
863.24	17996
863.372	17414
863.504	17581
863.636	17623
863.768	17619
863.9	17535
864.032	17543
864.164	17452
864.296	17497
864.428	17665
864.559	17535
864.691	17577
864.823	17493
864.954	17490
865.086	17600
865.217	17471
865.349	17459
865.48	17478
865.612	17459
865.743	17562
865.875	17349
866.006	17368
866.137	17414
866.269	17376
866.4	17452
866.531	17383
866.662	17417
866.793	17242
866.924	17376
867.055	17402
867.186	17425
867.317	17452
867.448	17379
867.579	17368
867.71	17349
867.841	17307
867.972	17402
868.103	17280
868.233	17277
868.364	17402
868.495	17474
868.625	17634
868.756	17745
868.886	17566
869.017	17657
869.147	17760
869.278	17805
869.408	17707
869.539	17707
869.669	17684
869.799	17726
869.929	17809
870.06	17836
870.19	18034
870.32	17954
870.45	18060
870.58	18194
870.71	18304
870.84	18224
870.97	18106
871.1	18011
871.23	18330
871.36	18391
871.489	18296
871.619	18258
871.749	18304
871.879	18342
872.008	18521
872.138	18601
872.267	18429
872.397	18300
872.526	18357
872.656	18422
872.785	18380
872.915	18642
873.044	18688
873.173	18604
873.303	18658
873.432	18650
873.561	18779
873.69	18635
873.819	18722
873.948	18779
874.077	18760
874.206	18631
874.335	18688
874.464	18916
874.593	19042
874.722	18935
874.851	19148
874.979	19129
875.108	19266
875.237	19160
875.365	19263
875.494	19190
875.623	19518
875.751	19297
875.88	19506
876.008	19635
876.136	19784
876.265	19932
876.393	19959
876.521	20119
876.65	20168
876.778	20225
876.906	20183
877.034	20248
877.162	20343
877.29	20450
877.418	20613
877.546	20476
877.674	20609
877.802	20670
877.93	20914
878.058	21047
878.185	21203
878.313	21511
878.441	21831
878.568	22143
878.696	22923
878.824	23577
878.951	24730
879.079	26134
879.206	28166
879.333	30285
879.461	31784
879.588	32914
879.715	32940
879.842	32065
879.97	30315
880.097	28078
880.224	26457
880.351	25327
880.478	24521
880.605	23836
880.732	23592
880.859	23596
880.986	23322
881.112	23102
881.239	22991
881.366	22881
881.493	22675
881.619	22565
881.746	22641
881.872	22759
881.999	22831
882.125	22797
882.252	22919
882.378	22900
882.505	22995
882.631	22847
882.757	22698
882.883	22771
883.01	22755
883.136	22637
883.262	22569
883.388	22630
883.514	22668
883.64	22824
883.766	22577
883.892	22462
884.018	22607
884.143	22637
884.269	22630
884.395	22474
884.52	22394
884.646	22409
884.772	22466
884.897	22337
885.023	22424
885.148	22489
885.274	22493
885.399	22299
885.524	22204
885.65	22082
885.775	21987
885.9	21892
886.025	21774
886.15	21515
886.275	21397
886.4	21089
886.525	21192
886.65	21039
886.775	20807
886.9	20967
887.025	20933
887.149	20617
887.274	20336
887.399	20191
887.523	20157
887.648	20096
887.773	19890
887.897	19959
888.021	19974
888.146	19742
888.27	19685
888.395	19807
888.519	19712
888.643	19525
888.767	19609
888.891	19472
889.015	19312
889.139	19221
889.263	19289
889.387	19297
889.511	19476
889.635	19312
889.759	19118
889.883	19012
890.006	18920
890.13	19069
890.254	18791
890.377	18901
890.501	18707
890.624	18551
890.748	18711
890.871	18471
890.995	18395
891.118	18361
891.241	18270
891.364	18380
891.488	18517
891.611	18346
891.734	18304
891.857	18327
891.98	18220
892.103	18235
892.226	18186
892.349	18163
892.471	17965
892.594	17999
892.717	18076
892.839	17996
892.962	18030
893.085	17980
893.207	17840
893.33	17767
893.452	17824
893.575	17828
893.697	17687
893.819	17984
893.941	18022
894.064	17897
894.186	17661
894.308	17562
894.43	17824
894.552	17836
894.674	17722
894.796	17649
894.918	17619
895.04	17535
895.161	17760
895.283	17566
895.405	17524
895.526	17562
895.648	17562
895.769	17528
895.891	17551
896.012	17653
896.134	17425
896.255	17463
896.376	17448
896.498	17505
896.619	17573
896.74	17585
896.861	17604
896.982	17745
897.103	17935
897.224	17707
897.345	17581
897.466	17661
897.587	17665
897.708	17794
897.828	17604
897.949	17630
898.07	17535
898.19	17638
898.311	17779
898.431	17668
898.552	17581
898.672	17710
898.792	17866
898.913	17634
899.033	17573
899.153	17524
899.273	17459
899.393	17524
899.513	17505
899.633	17436
899.753	17493
899.873	17455
899.993	17505
900.113	17421
900.232	17490
900.352	17448
900.472	17387
900.591	17273
900.711	17315
900.83	17296
900.95	17356
901.069	17429
901.189	17193
901.308	16984
901.427	16866
901.546	16873
901.665	16930
901.784	16915
901.904	16771
902.023	16599
902.141	16523
902.26	16379
902.379	16356
902.498	16322
902.617	16325
902.735	16329
902.854	16306
902.973	16238
903.091	15972
903.21	15960
903.328	16120
903.446	15915
903.565	15800
903.683	15808
903.801	15755
903.919	15690
904.038	15808
904.156	15595
904.274	15564
904.392	15507
904.51	15431
904.627	15485
904.745	15584
904.863	15622
904.981	15249
905.098	15165
905.216	15192
905.334	15275
905.451	15173
905.569	15154
905.686	15131
905.803	15116
905.921	14975
906.038	14963
906.155	14979
906.272	14842
906.389	14838
906.506	14682
906.623	14678
906.74	14712
906.857	14579
906.974	14545
907.091	14670
907.208	14834
907.324	14746
907.441	14492
907.557	14339
907.674	14442
907.79	14298
907.907	14415
908.023	14419
908.139	14362
908.256	14332
908.372	14332
908.488	14256
908.604	14218
908.72	14115
908.836	14092
908.952	14111
909.068	14119
909.184	14134
909.3	14065
909.415	14229
909.531	14126
909.647	13898
909.762	13951
909.878	13750
909.993	13913
910.108	13826
910.224	13849
910.339	13852
910.454	13753
910.57	13715
910.685	13616
910.8	13894
910.915	13784
911.03	13761
911.145	13518
911.259	13495
911.374	13514
911.489	13460
911.604	13335
911.718	13263
911.833	13259
911.947	13149
912.062	13088
912.176	13308
912.291	13202
912.405	13160
912.519	13445
912.633	13365
912.748	13312
912.862	13221
912.976	13076
913.09	13019
913.204	13050
913.318	13053
913.431	13095
913.545	13145
913.659	13228
913.772	13042
913.886	12935
914	12909
914.113	13053
914.226	13053
914.34	13015
914.453	12833
914.566	13019
914.68	12962
914.793	12833
914.906	12783
915.019	12642
915.132	12620
915.245	12639
915.358	12639
915.47	12707
915.583	12741
915.696	12707
915.809	12776
915.921	12730
916.034	12688
916.146	12650
916.259	12574
916.371	12681
916.483	12677
916.595	12715
916.708	12620
916.82	12620
916.932	12623
917.044	12601
917.156	12555
917.268	12441
917.38	12494
917.491	12475
917.603	12422
917.715	12498
917.826	12464
917.938	12410
918.049	12254
918.161	12319
918.272	12467
918.384	12475
918.495	12391
918.606	12247
918.717	12133
918.828	12330
918.939	12266
919.05	12053
919.161	12197
919.272	11946
919.383	12079
919.494	12311
919.604	12418
919.715	12178
919.826	12110
919.936	12194
920.047	12251
920.157	12159
920.267	12258
920.378	12186
920.488	12197
920.598	12216
920.708	12479
920.818	12266
920.928	12346
921.038	12464
921.148	12426
921.258	12110
921.368	12076
921.477	11980
921.587	11965
921.697	11786
921.806	11980
921.916	11786
922.025	11585
922.134	11589
922.244	11520
922.353	11665
922.462	11528
922.571	11455
922.68	11277
922.789	11170
922.898	11288
923.007	11193
923.116	11303
923.224	11334
923.333	11277
923.442	11075
923.55	11124
923.659	11075
923.767	11189
923.876	11151
923.984	11143
924.092	11056
924.201	10999
924.309	11086
924.417	11041
924.525	11048
924.633	11045
924.741	11657
924.849	10877
924.956	10942
925.064	10881
925.172	10797
925.279	10740
925.387	10885
925.494	10835
925.602	10957
925.709	10885
925.816	10660
925.924	10805
926.031	10915
926.138	10767
926.245	10786
926.352	10717
926.459	10862
926.566	10873
926.673	10767
926.779	10580
926.886	10656
926.993	10504
927.099	10519
927.206	10375
927.312	10402
927.419	10493
927.525	10462
927.631	10538
927.737	10402
927.843	10333
927.95	10265
928.056	10295
928.162	10280
928.267	10322
928.373	11018
928.479	10409
928.585	10116
928.69	10295
928.796	10394
928.901	10215
929.007	10055
929.112	10261
929.218	10261
929.323	10147
929.428	10093
929.533	10284
929.638	10097
929.743	10143
929.848	10124
929.953	10036
930.058	9956
930.163	9903
930.267	9766
930.372	10025
930.477	9759
930.581	10044
930.685	9911
930.79	9793
930.894	9789
930.998	9709
931.103	10002
931.207	9542
931.311	9504
931.415	9370
931.519	9214
931.623	9207
