Data from test_V78500241_1140.txt Node
Date: Fri Mar 25 14:41:39 CST 2022
User: usil
Spectrometer: V785-0024
Trigger mode: 0
Integration Time (sec): 4.000000E-1
Scans to average: 1
Nonlinearity correction enabled: false
Boxcar width: 0
Storing dark spectrum: false
XAxis mode: Wavelengths
Number of Pixels in Spectrum: 1024
>>>>>Begin Spectral Data<<<<<
801.071	22645
801.214	22440
801.356	22177
801.499	22150
801.641	22070
801.783	21922
801.926	21968
802.068	21899
802.211	21876
802.353	21720
802.496	21473
802.638	21367
802.78	21321
802.923	21397
803.065	21378
803.208	21249
803.35	21287
803.492	21412
803.635	21473
803.777	21211
803.919	21306
804.061	21633
804.204	21176
804.346	21256
804.488	21173
804.63	21272
804.773	21070
804.915	21287
805.057	21233
805.199	21355
805.341	21066
805.483	21279
805.626	21218
805.768	21157
805.91	21203
806.052	21199
806.194	21066
806.336	21386
806.478	21119
806.62	21241
806.762	21256
806.904	21397
807.046	21671
807.188	21606
807.33	21485
807.472	21663
807.614	21447
807.756	21618
807.898	21439
808.04	21363
808.182	21393
808.324	21485
808.465	21447
808.607	21728
808.749	21819
808.891	21869
809.033	22013
809.174	21945
809.316	21762
809.458	21846
809.6	21751
809.741	21797
809.883	21812
810.025	21819
810.166	21819
810.308	21793
810.45	21778
810.591	21724
810.733	21450
810.875	21568
811.016	21504
811.158	21378
811.299	21389
811.441	21538
811.582	21534
811.724	21329
811.865	21260
812.007	21355
812.148	21401
812.29	21408
812.431	21614
812.573	21644
812.714	21686
812.855	21842
812.997	21941
813.138	22059
813.279	21994
813.421	21892
813.562	21827
813.703	21709
813.845	21473
813.986	21256
814.127	21062
814.268	20990
814.41	20914
814.551	21028
814.692	21005
814.833	20921
814.974	20765
815.115	20944
815.256	20842
815.397	20712
815.539	20758
815.68	20754
815.821	20655
815.962	20712
816.103	20583
816.244	20556
816.385	20415
816.526	20408
816.666	20202
816.807	20134
816.948	20271
817.089	20282
817.23	20218
817.371	20115
817.512	20176
817.653	19997
817.793	19989
817.934	20142
818.075	20122
818.216	20081
818.356	19997
818.497	19898
818.638	19833
818.778	19833
818.919	19883
819.06	19883
819.2	20024
819.341	19970
819.481	19951
819.622	20027
819.762	20282
819.903	20244
820.043	20062
820.184	20164
820.324	20039
820.465	20183
820.605	20149
820.746	20027
820.886	20058
821.026	19963
821.167	20142
821.307	20081
821.447	19955
821.588	19928
821.728	19742
821.868	19514
822.008	19487
822.149	19464
822.289	19426
822.429	19213
822.569	19164
822.709	19110
822.849	18951
822.99	19031
823.13	19000
823.27	18913
823.41	18791
823.55	18677
823.69	18779
823.83	18833
823.97	18798
824.11	18623
824.25	18551
824.389	18616
824.529	18642
824.669	18528
824.809	18677
824.949	18684
825.089	18532
825.228	18585
825.368	18467
825.508	18315
825.648	18407
825.787	18414
825.927	18369
826.067	18296
826.206	18330
826.346	18475
826.485	18376
826.625	18311
826.765	18445
826.904	18399
827.044	18136
827.183	18114
827.323	18076
827.462	18133
827.601	18041
827.741	18114
827.88	17988
828.02	17927
828.159	17999
828.298	18083
828.437	18064
828.577	18068
828.716	18232
828.855	18038
828.994	17805
829.134	17882
829.273	17977
829.412	17760
829.551	17855
829.69	17817
829.829	17851
829.968	17950
830.107	17802
830.246	17840
830.385	17703
830.524	17745
830.663	17676
830.802	17573
830.941	17444
831.08	17406
831.219	17532
831.357	17471
831.496	17600
831.635	17425
831.774	17303
831.913	17337
832.051	17204
832.19	17197
832.329	17345
832.467	17155
832.606	17033
832.744	17071
832.883	17166
833.022	17189
833.16	17239
833.299	17086
833.437	17235
833.576	17250
833.714	17090
833.852	17227
833.991	17254
834.129	17277
834.267	17166
834.406	17235
834.544	17189
834.682	17315
834.821	17231
834.959	17376
835.097	17113
835.235	17250
835.373	17216
835.511	17239
835.65	17079
835.788	17136
835.926	16938
836.064	16908
836.202	16862
836.34	16991
836.478	17227
836.615	16995
836.753	17132
836.891	17033
837.029	17067
837.167	17052
837.305	17048
837.443	17041
837.58	16987
837.718	17083
837.856	16877
837.993	16793
838.131	16900
838.269	16900
838.406	16801
838.544	16820
838.681	16679
838.819	16706
838.956	16424
839.094	16466
839.231	16542
839.369	16637
839.506	16923
839.643	16862
839.781	16470
839.918	16508
840.055	16470
840.193	16421
840.33	16599
840.467	16489
840.604	16531
840.742	16687
840.879	16402
841.016	16310
841.153	16291
841.29	16717
841.427	16558
841.564	16516
841.701	16538
841.838	16443
841.975	16337
842.112	16436
842.249	16272
842.385	16322
842.522	16375
842.659	16276
842.796	16314
842.933	16291
843.069	16211
843.206	16246
843.343	16390
843.479	16348
843.616	16280
843.752	16082
843.889	16051
844.025	16120
844.162	16131
844.298	16021
844.435	16013
844.571	16021
844.708	16051
844.844	16360
844.98	16295
845.117	16055
845.253	16074
845.389	15892
845.525	16063
845.661	16002
845.798	16082
845.934	16150
846.07	16109
846.206	16211
846.342	16154
846.478	16101
846.614	15800
846.75	15648
846.886	15728
847.022	15717
847.158	15751
847.294	15743
847.429	15641
847.565	15595
847.701	15865
847.837	15401
847.972	15374
848.108	15511
848.244	15344
848.379	15241
848.515	15272
848.65	15165
848.786	15165
848.921	15230
849.057	15370
849.192	15272
849.328	15268
849.463	15192
849.598	15055
849.734	15256
849.869	15123
850.004	14994
850.14	15032
850.275	15081
850.41	14944
850.545	14979
850.68	14887
850.815	14944
850.95	14990
851.085	15169
851.22	15070
851.355	14967
851.49	14918
851.625	14902
851.76	14937
851.895	14891
852.03	14876
852.165	14986
852.299	14910
852.434	15131
852.569	14933
852.703	15017
852.838	15100
852.973	15199
853.107	15142
853.242	14895
853.376	14823
853.511	14727
853.645	14804
853.78	14967
853.914	14895
854.048	14815
854.183	14811
854.317	14826
854.451	15001
854.585	14853
854.72	14807
854.854	14941
854.988	14853
855.122	14785
855.256	14765
855.39	14785
855.524	14864
855.658	14906
855.792	14785
855.926	14864
856.06	14830
856.194	14921
856.327	14792
856.461	14758
856.595	14720
856.729	14773
856.862	14929
856.996	14826
857.13	14921
857.263	14902
857.397	15024
857.53	14868
857.664	14960
857.797	14891
857.931	14918
858.064	14872
858.197	14963
858.331	14864
858.464	14792
858.597	14667
858.731	14743
858.864	14872
858.997	14727
859.13	14838
859.263	14910
859.396	14914
859.529	14861
859.662	14864
859.795	14804
859.928	14845
860.061	14998
860.194	15055
860.327	14933
860.46	14864
860.592	14857
860.725	14902
860.858	14941
860.99	14902
861.123	14701
861.256	14746
861.388	14937
861.521	15568
861.653	14663
861.786	14659
861.918	14781
862.05	14727
862.183	14724
862.315	14838
862.447	14902
862.58	14815
862.712	14587
862.844	14518
862.976	14731
863.108	14712
863.24	15051
863.372	14644
863.504	14541
863.636	14674
863.768	14602
863.9	14594
864.032	14465
864.164	14446
864.296	14629
864.428	14693
864.559	14693
864.691	14705
864.823	14632
864.954	14598
865.086	14632
865.217	14522
865.349	14575
865.48	14625
865.612	14632
865.743	14754
865.875	14686
866.006	14575
866.137	14712
866.269	14526
866.4	14598
866.531	14427
866.662	14594
866.793	14484
866.924	14602
867.055	14583
867.186	14499
867.317	14533
867.448	14655
867.579	14552
867.71	14480
867.841	14480
867.972	14552
868.103	14617
868.233	14583
868.364	14579
868.495	14693
868.625	14849
868.756	14956
868.886	14689
869.017	14815
869.147	14994
869.278	15001
869.408	14842
869.539	14800
869.669	14937
869.799	14910
869.929	14910
870.06	14895
870.19	15116
870.32	15104
870.45	15195
870.58	15195
870.71	15302
870.84	15268
870.97	15207
871.1	15218
871.23	15405
871.36	15378
871.489	15367
871.619	15443
871.749	15378
871.879	15393
872.008	15526
872.138	15412
872.267	15344
872.397	15306
872.526	15199
872.656	15272
872.785	15291
872.915	15405
873.044	15538
873.173	15454
873.303	15519
873.432	15580
873.561	15580
873.69	15492
873.819	15488
873.948	15507
874.077	15534
874.206	15374
874.335	15458
874.464	15584
874.593	15736
874.722	15671
874.851	15781
874.979	15770
875.108	15785
875.237	15789
875.365	15728
875.494	15751
875.623	15899
875.751	15831
875.88	15884
876.008	15975
876.136	15987
876.265	16112
876.393	16299
876.521	16253
876.65	16268
876.778	16204
876.906	16188
877.034	16192
877.162	16154
877.29	16109
877.418	16131
877.546	16192
877.674	16211
877.802	16169
877.93	16211
878.058	16230
878.185	16029
878.313	16169
878.441	16101
878.568	16059
878.696	16071
878.824	16192
878.951	16421
879.079	16440
879.206	16626
879.333	16390
879.461	16417
879.588	16390
879.715	16512
879.842	16535
879.97	16371
880.097	16192
880.224	16078
880.351	16124
880.478	16139
880.605	16101
880.732	16181
880.859	16333
880.986	16128
881.112	16097
881.239	16010
881.366	15751
881.493	15724
881.619	15732
881.746	15846
881.872	15766
881.999	15747
882.125	15819
882.252	15838
882.378	15717
882.505	15873
882.631	15648
882.757	15492
882.883	15667
883.01	15580
883.136	15564
883.262	15420
883.388	15374
883.514	15534
883.64	15545
883.766	15435
883.892	15298
884.018	15302
884.143	15580
884.269	15584
884.395	15329
884.52	15199
884.646	15260
884.772	15233
884.897	14994
885.023	15272
885.148	15329
885.274	15382
885.399	15329
885.524	15214
885.65	15260
885.775	15291
885.9	15211
886.025	15405
886.15	15386
886.275	15237
886.4	15150
886.525	15283
886.65	15074
886.775	15176
886.9	15294
887.025	15473
887.149	15211
887.274	15051
887.399	15062
887.523	15036
887.648	15089
887.773	15005
887.897	15135
888.021	15173
888.146	14971
888.27	15211
888.395	15131
888.519	15043
888.643	15077
888.767	15127
888.891	15020
889.015	14883
889.139	14925
889.263	14891
889.387	14982
889.511	15104
889.635	15081
889.759	14880
889.883	14887
890.006	14929
890.13	14921
890.254	14872
890.377	14891
890.501	14811
890.624	14697
890.748	14750
890.871	14587
890.995	14598
891.118	14484
891.241	14507
891.364	14575
891.488	14815
891.611	14564
891.734	14590
891.857	14606
891.98	14629
892.103	14632
892.226	14545
892.349	14552
892.471	14450
892.594	14480
892.717	14602
892.839	14571
892.962	14610
893.085	14610
893.207	14571
893.33	14446
893.452	14495
893.575	14640
893.697	14465
893.819	14625
893.941	14746
894.064	14739
894.186	14507
894.308	14446
894.43	14640
894.552	14864
894.674	14606
894.796	14469
894.918	14571
895.04	14625
895.161	14697
895.283	14640
895.405	14651
895.526	14571
895.648	14613
895.769	14617
895.891	14754
896.012	14823
896.134	14720
896.255	14682
896.376	14590
896.498	14682
896.619	14788
896.74	14796
896.861	14743
896.982	15062
897.103	15119
897.224	15047
897.345	15051
897.466	14963
897.587	15017
897.708	15100
897.828	15074
897.949	15017
898.07	14872
898.19	14944
898.311	15218
898.431	14971
898.552	15028
898.672	15093
898.792	15150
898.913	15085
899.033	14937
899.153	14944
899.273	14834
899.393	14861
899.513	14952
899.633	14982
899.753	15013
899.873	14921
899.993	14918
900.113	14944
900.232	14864
900.352	14769
900.472	14781
900.591	14750
900.711	14739
900.83	14667
900.95	14902
901.069	14872
901.189	14762
901.308	14522
901.427	14362
901.546	14408
901.665	14419
901.784	14393
901.904	14343
902.023	14176
902.141	13967
902.26	13913
902.379	14054
902.498	13974
902.617	13959
902.735	13989
902.854	13940
902.973	13879
903.091	13708
903.21	13677
903.328	13742
903.446	13518
903.565	13533
903.683	13597
903.801	13392
903.919	13636
904.038	13556
904.156	13320
904.274	13403
904.392	13350
904.51	13293
904.627	13343
904.745	13396
904.863	13346
904.981	13095
905.098	13072
905.216	13065
905.334	13114
905.451	13110
905.569	13057
905.686	13057
905.803	13057
905.921	12859
906.038	12943
906.155	12905
906.272	12772
906.389	12829
906.506	12684
906.623	12684
906.74	12703
906.857	12521
906.974	12460
907.091	12597
907.208	12734
907.324	12719
907.441	12665
907.557	12388
907.674	12380
907.79	12300
907.907	12365
908.023	12414
908.139	12418
908.256	12365
908.372	12254
908.488	12308
908.604	12171
908.72	12053
908.836	12114
908.952	12121
909.068	12121
909.184	12197
909.3	12091
909.415	12129
909.531	12083
909.647	11954
909.762	11908
909.878	11851
909.993	11950
910.108	11942
910.224	11863
910.339	11969
910.454	11802
910.57	11707
910.685	11710
910.8	11954
910.915	11855
911.03	11703
911.145	11611
911.259	11543
911.374	11570
911.489	11520
911.604	11467
911.718	11269
911.833	11372
911.947	11258
912.062	11159
912.176	11307
912.291	11360
912.405	11280
912.519	11478
912.633	11608
912.748	11345
912.862	11345
912.976	11269
913.09	11045
913.204	11162
913.318	11246
913.431	11387
913.545	11299
913.659	11288
913.772	11246
913.886	11128
914	11105
914.113	11204
914.226	11227
914.34	11178
914.453	11037
914.566	11174
914.68	11079
914.793	10995
914.906	10873
915.019	10839
915.132	10660
915.245	10786
915.358	10843
915.47	10881
915.583	10889
915.696	10900
915.809	10965
915.921	10980
916.034	10771
916.146	10839
916.259	10805
916.371	10949
916.483	10816
916.595	10710
916.708	10820
916.82	10778
916.932	10748
917.044	10767
917.156	10755
917.268	10512
917.38	10672
917.491	10645
917.603	10660
917.715	10763
917.826	10752
917.938	10592
918.049	10603
918.161	10599
918.272	10729
918.384	10828
918.495	10691
918.606	10561
918.717	10459
918.828	10592
918.939	10512
919.05	10405
919.161	10489
919.272	10341
919.383	10409
919.494	10634
919.604	10736
919.715	10554
919.826	10481
919.936	10508
920.047	10630
920.157	10523
920.267	10729
920.378	10607
920.488	10535
920.598	10736
920.708	10881
920.818	10687
920.928	10782
921.038	10877
921.148	10881
921.258	10584
921.368	10523
921.477	10402
921.587	10394
921.697	10230
921.806	10352
921.916	10249
922.025	10120
922.134	10093
922.244	10097
922.353	10086
922.462	10013
922.571	9880
922.68	9766
922.789	9701
922.898	9846
923.007	9770
923.116	9781
923.224	9793
923.333	9724
923.442	9644
923.55	9652
923.659	9572
923.767	9694
923.876	9656
923.984	9694
924.092	9629
924.201	9618
924.309	9637
924.417	9663
924.525	9561
924.633	9564
924.741	10280
924.849	9389
924.956	9549
925.064	9435
925.172	9275
925.279	9401
925.387	9344
925.494	9408
925.602	9553
925.709	9389
925.816	9378
925.924	9336
926.031	9545
926.138	9367
926.245	9443
926.352	9329
926.459	9477
926.566	9473
926.673	9302
926.779	9275
926.886	9256
926.993	9104
927.099	9127
927.206	9070
927.312	8998
927.419	9146
927.525	9173
927.631	9135
927.737	9001
927.843	8929
927.95	8823
928.056	8937
928.162	8967
928.267	9036
928.373	9606
928.479	9142
928.585	8758
928.69	9028
928.796	9047
928.901	8838
929.007	8781
929.112	8933
929.218	8902
929.323	8811
929.428	8868
929.533	8899
929.638	8781
929.743	8743
929.848	8826
929.953	8769
930.058	8727
930.163	8575
930.267	8568
930.372	8667
930.477	8488
930.581	8724
930.685	8632
930.79	8492
930.894	8575
930.998	8495
931.103	8716
931.207	8332
931.311	8229
931.415	8172
931.519	7978
931.623	8054
