Data from test_V78500241_3347.txt Node
Date: Fri Mar 25 14:57:01 CST 2022
User: usil
Spectrometer: V785-0024
Trigger mode: 0
Integration Time (sec): 4.000000E-1
Scans to average: 1
Nonlinearity correction enabled: false
Boxcar width: 0
Storing dark spectrum: false
XAxis mode: Wavelengths
Number of Pixels in Spectrum: 1024
>>>>>Begin Spectral Data<<<<<
801.071	21934
801.214	21979
801.356	21610
801.499	21576
801.641	21439
801.783	21416
801.926	21294
802.068	21214
802.211	21256
802.353	21150
802.496	20834
802.638	20758
802.78	20819
802.923	20758
803.065	20693
803.208	20697
803.35	20594
803.492	20788
803.635	20754
803.777	20636
803.919	20625
804.061	21005
804.204	20697
804.346	20434
804.488	20492
804.63	20594
804.773	20507
804.915	20499
805.057	20590
805.199	20389
805.341	20568
805.483	20716
805.626	20503
805.768	20560
805.91	20511
806.052	20613
806.194	20457
806.336	20678
806.478	20514
806.62	20564
806.762	20651
806.904	20724
807.046	21043
807.188	20929
807.33	20872
807.472	21013
807.614	20727
807.756	20693
807.898	20720
808.04	20499
808.182	20632
808.324	20621
808.465	20644
808.607	20807
808.749	20921
808.891	20967
809.033	20971
809.174	20868
809.316	20857
809.458	20910
809.6	20872
809.741	20956
809.883	20914
810.025	21001
810.166	21096
810.308	20929
810.45	20807
810.591	20868
810.733	20769
810.875	20629
811.016	20587
811.158	20564
811.299	20788
811.441	20765
811.582	20762
811.724	20727
811.865	20651
812.007	20575
812.148	20644
812.29	20636
812.431	20796
812.573	20960
812.714	21150
812.855	21146
812.997	21260
813.138	21340
813.279	21283
813.421	21176
813.562	20975
813.703	20872
813.845	20796
813.986	20476
814.127	20438
814.268	20320
814.41	20366
814.551	20267
814.692	20355
814.833	20237
814.974	20168
815.115	20221
815.256	19974
815.397	20096
815.539	19963
815.68	19868
815.821	19852
815.962	20012
816.103	19917
816.244	19856
816.385	19632
816.526	19715
816.666	19419
816.807	19331
816.948	19388
817.089	19506
817.23	19392
817.371	19320
817.512	19419
817.653	19358
817.793	19198
817.934	19392
818.075	19316
818.216	19324
818.356	19301
818.497	19065
818.638	19046
818.778	19084
818.919	18958
819.06	19038
819.2	19091
819.341	19285
819.481	19225
819.622	19400
819.762	19464
819.903	19411
820.043	19320
820.184	19419
820.324	19285
820.465	19320
820.605	19236
820.746	19320
820.886	19247
821.026	19312
821.167	19209
821.307	19324
821.447	19285
821.588	19168
821.728	18981
821.868	18798
822.008	18840
822.149	18703
822.289	18753
822.429	18517
822.569	18513
822.709	18536
822.849	18232
822.99	18216
823.13	18228
823.27	18232
823.41	18251
823.55	17923
823.69	18053
823.83	18140
823.97	17916
824.11	17779
824.25	17828
824.389	17771
824.529	17908
824.669	17767
824.809	17897
824.949	17901
825.089	17840
825.228	17935
825.368	17668
825.508	17638
825.648	17668
825.787	17585
825.927	17722
826.067	17547
826.206	17665
826.346	17611
826.485	17627
826.625	17547
826.765	17760
826.904	17745
827.044	17322
827.183	17372
827.323	17261
827.462	17322
827.601	17425
827.741	17334
827.88	17379
828.02	17307
828.159	17311
828.298	17284
828.437	17414
828.577	17364
828.716	17452
828.855	17235
828.994	17132
829.134	17124
829.273	17083
829.412	17018
829.551	17022
829.69	17086
829.829	16995
829.968	17185
830.107	17033
830.246	17105
830.385	17083
830.524	16965
830.663	16869
830.802	16839
830.941	16752
831.08	16736
831.219	16702
831.357	16748
831.496	16911
831.635	16687
831.774	16668
831.913	16546
832.051	16409
832.19	16470
832.329	16504
832.467	16481
832.606	16390
832.744	16242
832.883	16287
833.022	16333
833.16	16409
833.299	16398
833.437	16394
833.576	16440
833.714	16455
833.852	16363
833.991	16500
834.129	16519
834.267	16580
834.406	16413
834.544	16542
834.682	16428
834.821	16535
834.959	16721
835.097	16424
835.235	16561
835.373	16474
835.511	16470
835.65	16337
835.788	16352
835.926	16246
836.064	16211
836.202	16276
836.34	16322
836.478	16489
836.615	16333
836.753	16352
836.891	16428
837.029	16402
837.167	16344
837.305	16261
837.443	16246
837.58	16078
837.718	16287
837.856	16177
837.993	16204
838.131	16188
838.269	16097
838.406	16177
838.544	16185
838.681	15994
838.819	15956
838.956	15816
839.094	15850
839.231	15876
839.369	15934
839.506	16246
839.643	16032
839.781	15804
839.918	15778
840.055	15857
840.193	15785
840.33	15648
840.467	15781
840.604	15842
840.742	16025
840.879	15610
841.016	15698
841.153	15686
841.29	15956
841.427	15804
841.564	15781
841.701	15895
841.838	15770
841.975	15633
842.112	15743
842.249	15648
842.385	15511
842.522	15686
842.659	15633
842.796	15587
842.933	15648
843.069	15515
843.206	15587
843.343	15599
843.479	15595
843.616	15580
843.752	15477
843.889	15416
844.025	15557
844.162	15332
844.298	15526
844.435	15241
844.571	15355
844.708	15424
844.844	15515
844.98	15584
845.117	15580
845.253	15264
845.389	15241
845.525	15370
845.661	15241
845.798	15127
845.934	15298
846.07	15195
846.206	15207
846.342	15272
846.478	15245
846.614	14986
846.75	14880
846.886	14857
847.022	15028
847.158	14906
847.294	14933
847.429	15017
847.565	14937
847.701	15226
847.837	14644
847.972	14552
848.108	14838
848.244	14785
848.379	14613
848.515	14530
848.65	14545
848.786	14404
848.921	14575
849.057	14598
849.192	14697
849.328	14522
849.463	14697
849.598	14507
849.734	14473
849.869	14381
850.004	14320
850.14	14404
850.275	14343
850.41	14176
850.545	14351
850.68	14313
850.815	14290
850.95	14282
851.085	14495
851.22	14423
851.355	14298
851.49	14225
851.625	14240
851.76	14248
851.895	14290
852.03	14081
852.165	14199
852.299	14278
852.434	14271
852.569	14320
852.703	14317
852.838	14362
852.973	14423
853.107	14374
853.242	14290
853.376	14183
853.511	14020
853.645	14138
853.78	14233
853.914	14130
854.048	14069
854.183	14157
854.317	14142
854.451	14351
854.585	14119
854.72	14088
854.854	14278
854.988	14050
855.122	14126
855.256	14016
855.39	14195
855.524	14301
855.658	14180
855.792	14176
855.926	14278
856.06	14225
856.194	14351
856.327	14145
856.461	14130
856.595	14088
856.729	14168
856.862	14263
856.996	14286
857.13	14313
857.263	14244
857.397	14237
857.53	14126
857.664	14237
857.797	14202
857.931	14362
858.064	14206
858.197	14240
858.331	14191
858.464	14050
858.597	14046
858.731	14126
858.864	14229
858.997	14092
859.13	14168
859.263	14199
859.396	14355
859.529	14180
859.662	14134
859.795	14115
859.928	14210
860.061	14282
860.194	14305
860.327	14138
860.46	14214
860.592	14202
860.725	14328
860.858	14328
860.99	14100
861.123	14107
861.256	14092
861.388	14176
861.521	14967
861.653	14073
861.786	13917
861.918	14043
862.05	14145
862.183	14130
862.315	14183
862.447	14225
862.58	14126
862.712	13982
862.844	13860
862.976	14035
863.108	13951
863.24	14256
863.372	13780
863.504	13974
863.636	13959
863.768	14027
863.9	13879
864.032	13921
864.164	13902
864.296	13993
864.428	14054
864.559	14096
864.691	14100
864.823	13978
864.954	13944
865.086	13951
865.217	14054
865.349	13856
865.48	13982
865.612	13879
865.743	13978
865.875	13890
866.006	13894
866.137	13936
866.269	13909
866.4	13890
866.531	13833
866.662	13871
866.793	13898
866.924	13898
867.055	14043
867.186	13909
867.317	13917
867.448	13932
867.579	13890
867.71	13906
867.841	13841
867.972	14001
868.103	13963
868.233	13982
868.364	13944
868.495	14073
868.625	14115
868.756	14282
868.886	14084
869.017	14218
869.147	14275
869.278	14229
869.408	14183
869.539	14195
869.669	14336
869.799	14187
869.929	14374
870.06	14225
870.19	14507
870.32	14446
870.45	14514
870.58	14560
870.71	14640
870.84	14739
870.97	14522
871.1	14625
871.23	14724
871.36	14762
871.489	14758
871.619	14720
871.749	14769
871.879	14796
872.008	14925
872.138	14826
872.267	14800
872.397	14678
872.526	14636
872.656	14655
872.785	14682
872.915	14876
873.044	14918
873.173	14785
873.303	14716
873.432	14937
873.561	14960
873.69	14781
873.819	14724
873.948	14921
874.077	14849
874.206	14861
874.335	14826
874.464	15066
874.593	15058
874.722	14925
874.851	15192
874.979	15100
875.108	15249
875.237	15138
875.365	15097
875.494	15074
875.623	15241
875.751	15070
875.88	15154
876.008	15302
876.136	15321
876.265	15507
876.393	15709
876.521	15660
876.65	15591
876.778	15557
876.906	15561
877.034	15507
877.162	15606
877.29	15416
877.418	15545
877.546	15660
877.674	15530
877.802	15599
877.93	15466
878.058	15564
878.185	15405
878.313	15538
878.441	15618
878.568	15462
878.696	15633
878.824	15538
878.951	15641
879.079	15774
879.206	15899
879.333	15671
879.461	15682
879.588	15622
879.715	15770
879.842	15793
879.97	15667
880.097	15313
880.224	15428
880.351	15439
880.478	15488
880.605	15412
880.732	15412
880.859	15663
880.986	15424
881.112	15405
881.239	15283
881.366	15279
881.493	15100
881.619	15077
881.746	15047
881.872	15032
881.999	15013
882.125	15055
882.252	15116
882.378	15131
882.505	15268
882.631	14998
882.757	14883
882.883	14914
883.01	14902
883.136	14849
883.262	14758
883.388	14792
883.514	14937
883.64	14921
883.766	14845
883.892	14739
884.018	14811
884.143	14838
884.269	14925
884.395	14758
884.52	14602
884.646	14686
884.772	14503
884.897	14560
885.023	14579
885.148	14655
885.274	14655
885.399	14648
885.524	14636
885.65	14682
885.775	14613
885.9	14590
886.025	14587
886.15	14663
886.275	14670
886.4	14575
886.525	14568
886.65	14522
886.775	14530
886.9	14731
887.025	14857
887.149	14648
887.274	14465
887.399	14377
887.523	14412
887.648	14389
887.773	14389
887.897	14545
888.021	14499
888.146	14389
888.27	14522
888.395	14674
888.519	14450
888.643	14503
888.767	14446
888.891	14362
889.015	14290
889.139	14237
889.263	14145
889.387	14377
889.511	14545
889.635	14415
889.759	14237
889.883	14282
890.006	14393
890.13	14355
890.254	14176
890.377	14218
890.501	14199
890.624	14096
890.748	14248
890.871	14107
890.995	13925
891.118	13837
891.241	14069
891.364	13959
891.488	14069
891.611	14031
891.734	14020
891.857	14111
891.98	14012
892.103	14103
892.226	14043
892.349	13986
892.471	13868
892.594	13947
892.717	14062
892.839	13947
892.962	14031
893.085	14096
893.207	14012
893.33	13883
893.452	13921
893.575	14058
893.697	13951
893.819	14218
893.941	14206
894.064	14119
894.186	13963
894.308	13989
894.43	14115
894.552	14161
894.674	14065
894.796	13970
894.918	13909
895.04	14027
895.161	14100
895.283	14107
895.405	13989
895.526	14161
895.648	14161
895.769	14180
895.891	14199
896.012	14256
896.134	14172
896.255	14202
896.376	14073
896.498	14153
896.619	14206
896.74	14149
896.861	14237
896.982	14549
897.103	14621
897.224	14434
897.345	14511
897.466	14309
897.587	14400
897.708	14575
897.828	14503
897.949	14355
898.07	14320
898.19	14400
898.311	14579
898.431	14442
898.552	14423
898.672	14579
898.792	14636
898.913	14610
899.033	14374
899.153	14431
899.273	14176
899.393	14377
899.513	14408
899.633	14374
899.753	14294
899.873	14328
899.993	14366
900.113	14339
900.232	14317
900.352	14484
900.472	14377
900.591	14252
900.711	14259
900.83	14191
900.95	14343
901.069	14374
901.189	14229
901.308	13932
901.427	13856
901.546	13955
901.665	14012
901.784	14005
901.904	13837
902.023	13616
902.141	13521
902.26	13556
902.379	13499
902.498	13449
902.617	13396
902.735	13483
902.854	13457
902.973	13491
903.091	13263
903.21	13289
903.328	13282
903.446	13053
903.565	13019
903.683	13103
903.801	13008
903.919	13126
904.038	13038
904.156	12951
904.274	12856
904.392	12897
904.51	12772
904.627	12764
904.745	12958
904.863	12859
904.981	12741
905.098	12601
905.216	12589
905.334	12597
905.451	12692
905.569	12506
905.686	12585
905.803	12608
905.921	12403
906.038	12536
906.155	12448
906.272	12304
906.389	12391
906.506	12182
906.623	12076
906.74	12178
906.857	12026
906.974	12102
907.091	12270
907.208	12323
907.324	12323
907.441	12121
907.557	11893
907.674	11980
907.79	11882
907.907	11824
908.023	11874
908.139	11916
908.256	11836
908.372	11840
908.488	11771
908.604	11718
908.72	11691
908.836	11638
908.952	11668
909.068	11653
909.184	11748
909.3	11764
909.415	11790
909.531	11703
909.647	11516
909.762	11463
909.878	11414
909.993	11501
910.108	11452
910.224	11391
910.339	11387
910.454	11360
910.57	11303
910.685	11235
910.8	11535
910.915	11398
911.03	11322
911.145	11124
911.259	11170
911.374	11136
911.489	11075
911.604	11079
911.718	10972
911.833	10919
911.947	10812
912.062	10618
912.176	10862
912.291	10889
912.405	10854
912.519	11086
912.633	11113
912.748	10961
912.862	10885
912.976	10767
913.09	10622
913.204	10744
913.318	10816
913.431	10824
913.545	10866
913.659	10908
913.772	10759
913.886	10717
914	10584
914.113	10725
914.226	10786
914.34	10778
914.453	10603
914.566	10733
914.68	10561
914.793	10580
914.906	10462
915.019	10394
915.132	10379
915.245	10440
915.358	10398
915.47	10386
915.583	10527
915.696	10459
915.809	10531
915.921	10542
916.034	10386
916.146	10306
916.259	10329
916.371	10417
916.483	10436
916.595	10322
916.708	10360
916.82	10333
916.932	10272
917.044	10417
917.156	10341
917.268	10158
917.38	10265
917.491	10223
917.603	10131
917.715	10352
917.826	10356
917.938	10242
918.049	10124
918.161	10188
918.272	10382
918.384	10421
918.495	10234
918.606	10051
918.717	10048
918.828	10181
918.939	10097
919.05	10067
919.161	10147
919.272	9983
919.383	9983
919.494	10257
919.604	10352
919.715	10169
919.826	10044
919.936	10173
920.047	10112
920.157	10120
920.267	10318
920.378	10154
920.488	10131
920.598	10337
920.708	10493
920.818	10367
920.928	10310
921.038	10577
921.148	10466
921.258	10135
921.368	10093
921.477	9975
921.587	9979
921.697	9850
921.806	10040
921.916	9907
922.025	9736
922.134	9660
922.244	9663
922.353	9778
922.462	9625
922.571	9568
922.68	9378
922.789	9386
922.898	9424
923.007	9420
923.116	9466
923.224	9367
923.333	9348
923.442	9272
923.55	9268
923.659	9275
923.767	9359
923.876	9306
923.984	9340
924.092	9310
924.201	9230
924.309	9302
924.417	9222
924.525	9230
924.633	9222
924.741	10181
924.849	9020
924.956	9188
925.064	8956
925.172	9036
925.279	9028
925.387	9043
925.494	9005
925.602	9214
925.709	9100
925.816	8941
925.924	9077
926.031	9112
926.138	9135
926.245	9085
926.352	9020
926.459	9157
926.566	9093
926.673	9024
926.779	8937
926.886	8937
926.993	8811
927.099	8705
927.206	8796
927.312	8678
927.419	8868
927.525	8807
927.631	8842
927.737	8701
927.843	8613
927.95	8514
928.056	8613
928.162	8678
928.267	8663
928.373	9374
928.479	8769
928.585	8526
928.69	8644
928.796	8678
928.901	8594
929.007	8488
929.112	8583
929.218	8549
929.323	8526
929.428	8495
929.533	8674
929.638	8457
929.743	8412
929.848	8480
929.953	8450
930.058	8404
930.163	8259
930.267	8282
930.372	8339
930.477	8282
930.581	8434
930.685	8336
930.79	8187
930.894	8252
930.998	8225
931.103	8339
931.207	8046
931.311	7967
931.415	7879
931.519	7712
931.623	7742
