Data from test_V78500241_3559.txt Node
Date: Fri Mar 25 14:58:29 CST 2022
User: usil
Spectrometer: V785-0024
Trigger mode: 0
Integration Time (sec): 4.000000E-1
Scans to average: 1
Nonlinearity correction enabled: false
Boxcar width: 0
Storing dark spectrum: false
XAxis mode: Wavelengths
Number of Pixels in Spectrum: 1024
>>>>>Begin Spectral Data<<<<<
801.071	21937
801.214	21869
801.356	21644
801.499	21492
801.641	21252
801.783	21283
801.926	21302
802.068	21203
802.211	21291
802.353	21188
802.496	20887
802.638	20739
802.78	20781
802.923	20686
803.065	20552
803.208	20503
803.35	20716
803.492	20678
803.635	20746
803.777	20659
803.919	20686
804.061	20914
804.204	20644
804.346	20583
804.488	20575
804.63	20514
804.773	20419
804.915	20469
805.057	20583
805.199	20389
805.341	20457
805.483	20575
805.626	20541
805.768	20454
805.91	20408
806.052	20575
806.194	20377
806.336	20667
806.478	20427
806.62	20522
806.762	20473
806.904	20735
807.046	20944
807.188	20773
807.33	20857
807.472	20975
807.614	20727
807.756	20819
807.898	20739
808.04	20602
808.182	20560
808.324	20400
808.465	20659
808.607	20781
808.749	20765
808.891	21028
809.033	21028
809.174	20971
809.316	20788
809.458	20941
809.6	20849
809.741	20918
809.883	20876
810.025	21100
810.166	20982
810.308	20998
810.45	20956
810.591	20899
810.733	20769
810.875	20579
811.016	20465
811.158	20579
811.299	20568
811.441	20674
811.582	20712
811.724	20708
811.865	20537
812.007	20568
812.148	20583
812.29	20594
812.431	20758
812.573	20785
812.714	21009
812.855	21074
812.997	21188
813.138	21348
813.279	21195
813.421	21047
813.562	20979
813.703	20872
813.845	20891
813.986	20469
814.127	20358
814.268	20263
814.41	20282
814.551	20096
814.692	20176
814.833	20115
814.974	20050
815.115	20161
815.256	20016
815.397	20020
815.539	19913
815.68	19902
815.821	19803
815.962	19967
816.103	19951
816.244	19677
816.385	19559
816.526	19696
816.666	19373
816.807	19354
816.948	19369
817.089	19487
817.23	19369
817.371	19209
817.512	19320
817.653	19266
817.793	19126
817.934	19247
818.075	19263
818.216	19396
818.356	19160
818.497	19046
818.638	18989
818.778	18897
818.919	18958
819.06	19000
819.2	19122
819.341	19232
819.481	19263
819.622	19339
819.762	19537
819.903	19415
820.043	19441
820.184	19293
820.324	19350
820.465	19373
820.605	19122
820.746	19240
820.886	19080
821.026	19255
821.167	19221
821.307	19198
821.447	19244
821.588	19042
821.728	18932
821.868	18829
822.008	18745
822.149	18684
822.289	18700
822.429	18384
822.569	18414
822.709	18422
822.849	18174
822.99	18163
823.13	18098
823.27	18117
823.41	18003
823.55	18068
823.69	18022
823.83	17969
823.97	17836
824.11	17832
824.25	17745
824.389	17710
824.529	17870
824.669	17790
824.809	17775
824.949	17752
825.089	17836
825.228	17665
825.368	17516
825.508	17551
825.648	17463
825.787	17600
825.927	17627
826.067	17520
826.206	17543
826.346	17554
826.485	17573
826.625	17471
826.765	17707
826.904	17672
827.044	17288
827.183	17330
827.323	17220
827.462	17216
827.601	17280
827.741	17254
827.88	17239
828.02	17064
828.159	17037
828.298	17318
828.437	17227
828.577	17075
828.716	17254
828.855	17071
828.994	17056
829.134	16999
829.273	17025
829.412	16984
829.551	16911
829.69	16919
829.829	17041
829.968	17018
830.107	17006
830.246	16862
830.385	17025
830.524	16900
830.663	16835
830.802	16706
830.941	16679
831.08	16497
831.219	16656
831.357	16713
831.496	16847
831.635	16615
831.774	16580
831.913	16527
832.051	16413
832.19	16417
832.329	16386
832.467	16329
832.606	16382
832.744	16234
832.883	16249
833.022	16390
833.16	16333
833.299	16303
833.437	16329
833.576	16352
833.714	16261
833.852	16344
833.991	16360
834.129	16428
834.267	16356
834.406	16432
834.544	16432
834.682	16261
834.821	16390
834.959	16592
835.097	16337
835.235	16485
835.373	16363
835.511	16436
835.65	16276
835.788	16287
835.926	16147
836.064	16044
836.202	16112
836.34	16390
836.478	16356
836.615	16230
836.753	16322
836.891	16443
837.029	16360
837.167	16192
837.305	16230
837.443	16120
837.58	16150
837.718	16299
837.856	16139
837.993	16215
838.131	16158
838.269	16147
838.406	16086
838.544	16082
838.681	15941
838.819	15869
838.956	15698
839.094	15747
839.231	15816
839.369	16002
839.506	16166
839.643	16063
839.781	15797
839.918	15675
840.055	15816
840.193	15720
840.33	15759
840.467	15694
840.604	15778
840.742	16017
840.879	15629
841.016	15709
841.153	15637
841.29	15781
841.427	15789
841.564	15720
841.701	15698
841.838	15739
841.975	15728
842.112	15633
842.249	15652
842.385	15500
842.522	15827
842.659	15599
842.796	15584
842.933	15591
843.069	15492
843.206	15485
843.343	15515
843.479	15542
843.616	15641
843.752	15359
843.889	15279
844.025	15534
844.162	15332
844.298	15450
844.435	15264
844.571	15283
844.708	15355
844.844	15530
844.98	15435
845.117	15435
845.253	15268
845.389	15256
845.525	15298
845.661	15218
845.798	15131
845.934	15131
846.07	15036
846.206	15214
846.342	15184
846.478	15077
846.614	14990
846.75	14906
846.886	14979
847.022	15001
847.158	14899
847.294	14899
847.429	14899
847.565	14842
847.701	15097
847.837	14727
847.972	14606
848.108	14750
848.244	14674
848.379	14613
848.515	14533
848.65	14495
848.786	14473
848.921	14473
849.057	14636
849.192	14564
849.328	14583
849.463	14587
849.598	14431
849.734	14393
849.869	14366
850.004	14320
850.14	14385
850.275	14351
850.41	14168
850.545	14233
850.68	14180
850.815	14286
850.95	14275
851.085	14423
851.22	14370
851.355	14294
851.49	14233
851.625	14282
851.76	14237
851.895	14183
852.03	14195
852.165	14286
852.299	14298
852.434	14358
852.569	14259
852.703	14252
852.838	14298
852.973	14415
853.107	14522
853.242	14237
853.376	14164
853.511	14027
853.645	14054
853.78	14168
853.914	14062
854.048	14073
854.183	14153
854.317	14084
854.451	14294
854.585	14088
854.72	14084
854.854	14229
854.988	14005
855.122	14123
855.256	14035
855.39	14130
855.524	14309
855.658	14130
855.792	14157
855.926	14149
856.06	14069
856.194	14237
856.327	14088
856.461	14088
856.595	14123
856.729	14092
856.862	14199
856.996	14183
857.13	14263
857.263	14161
857.397	14256
857.53	14176
857.664	14195
857.797	14214
857.931	14301
858.064	14176
858.197	14153
858.331	14092
858.464	14077
858.597	14096
858.731	14081
858.864	14069
858.997	14126
859.13	14092
859.263	14157
859.396	14248
859.529	14180
859.662	14096
859.795	14119
859.928	14073
860.061	14332
860.194	14412
860.327	14092
860.46	14134
860.592	14313
860.725	14252
860.858	14347
860.99	14221
861.123	14065
861.256	14138
861.388	14183
861.521	14918
861.653	13909
861.786	13982
861.918	13947
862.05	14134
862.183	14111
862.315	14145
862.447	14248
862.58	14092
862.712	13974
862.844	13894
862.976	14008
863.108	13894
863.24	14320
863.372	13879
863.504	13951
863.636	13849
863.768	14020
863.9	13940
864.032	13818
864.164	13921
864.296	13917
864.428	14100
864.559	14008
864.691	13944
864.823	14024
864.954	13932
865.086	13921
865.217	13909
865.349	13753
865.48	13947
865.612	13894
865.743	14069
865.875	13868
866.006	13879
866.137	13849
866.269	13898
866.4	13974
866.531	13856
866.662	13791
866.793	13860
866.924	13921
867.055	13894
867.186	13932
867.317	13894
867.448	13788
867.579	13875
867.71	13818
867.841	13928
867.972	14001
868.103	13921
868.233	13951
868.364	13955
868.495	14077
868.625	14126
868.756	14298
868.886	14024
869.017	14103
869.147	14225
869.278	14298
869.408	14172
869.539	14130
869.669	14195
869.799	14225
869.929	14259
870.06	14229
870.19	14461
870.32	14511
870.45	14492
870.58	14530
870.71	14598
870.84	14678
870.97	14469
871.1	14492
871.23	14754
871.36	14845
871.489	14606
871.619	14765
871.749	14697
871.879	14834
872.008	14891
872.138	14785
872.267	14746
872.397	14541
872.526	14651
872.656	14556
872.785	14640
872.915	14777
873.044	14876
873.173	14769
873.303	14796
873.432	14933
873.561	14842
873.69	14804
873.819	14682
873.948	14868
874.077	14876
874.206	14792
874.335	14925
874.464	15001
874.593	15203
874.722	15093
874.851	15184
874.979	15146
875.108	15127
875.237	15077
875.365	15009
875.494	15146
875.623	15180
875.751	15077
875.88	15154
876.008	15256
876.136	15431
876.265	15606
876.393	15587
876.521	15724
876.65	15629
876.778	15534
876.906	15473
877.034	15576
877.162	15629
877.29	15462
877.418	15614
877.546	15595
877.674	15572
877.802	15561
877.93	15481
878.058	15534
878.185	15481
878.313	15572
878.441	15507
878.568	15431
878.696	15424
878.824	15515
878.951	15644
879.079	15713
879.206	15816
879.333	15724
879.461	15595
879.588	15660
879.715	15804
879.842	15736
879.97	15656
880.097	15450
880.224	15370
880.351	15397
880.478	15367
880.605	15291
880.732	15340
880.859	15736
880.986	15454
881.112	15397
881.239	15264
881.366	15245
881.493	15123
881.619	14971
881.746	15123
881.872	15093
881.999	15074
882.125	15001
882.252	15085
882.378	15104
882.505	15154
882.631	15066
882.757	14826
882.883	14941
883.01	14986
883.136	14796
883.262	14739
883.388	14754
883.514	14975
883.64	14982
883.766	14838
883.892	14720
884.018	14785
884.143	14823
884.269	14876
884.395	14610
884.52	14560
884.646	14568
884.772	14575
884.897	14415
885.023	14537
885.148	14636
885.274	14796
885.399	14670
885.524	14507
885.65	14644
885.775	14571
885.9	14598
886.025	14792
886.15	14663
886.275	14613
886.4	14564
886.525	14476
886.65	14507
886.775	14488
886.9	14724
887.025	14823
887.149	14606
887.274	14492
887.399	14374
887.523	14305
887.648	14393
887.773	14339
887.897	14465
888.021	14480
888.146	14374
888.27	14579
888.395	14659
888.519	14556
888.643	14415
888.767	14541
888.891	14282
889.015	14248
889.139	14336
889.263	14149
889.387	14396
889.511	14362
889.635	14400
889.759	14267
889.883	14256
890.006	14362
890.13	14415
890.254	14195
890.377	14244
890.501	14107
890.624	14138
890.748	14084
890.871	14005
890.995	13913
891.118	13932
891.241	13989
891.364	14043
891.488	14229
891.611	13982
891.734	13959
891.857	14031
891.98	14012
892.103	14031
892.226	14020
892.349	13955
892.471	13826
892.594	13917
892.717	14005
892.839	13955
892.962	13986
893.085	14119
893.207	14039
893.33	13860
893.452	13963
893.575	13993
893.697	13906
893.819	14088
893.941	14168
894.064	14123
894.186	13921
894.308	13890
894.43	14145
894.552	14263
894.674	14096
894.796	13917
894.918	14035
895.04	14008
895.161	14290
895.283	14119
895.405	13997
895.526	14065
895.648	14153
895.769	14138
895.891	14191
896.012	14244
896.134	14096
896.255	14183
896.376	14176
896.498	14210
896.619	14229
896.74	14145
896.861	14336
896.982	14511
897.103	14682
897.224	14366
897.345	14423
897.466	14385
897.587	14362
897.708	14552
897.828	14408
897.949	14374
898.07	14317
898.19	14442
898.311	14571
898.431	14469
898.552	14571
898.672	14610
898.792	14556
898.913	14541
899.033	14461
899.153	14309
899.273	14119
899.393	14233
899.513	14362
899.633	14351
899.753	14358
899.873	14244
899.993	14374
900.113	14427
900.232	14374
900.352	14362
900.472	14183
900.591	14187
900.711	14183
900.83	14081
900.95	14336
901.069	14339
901.189	14134
901.308	13978
901.427	13898
901.546	13879
901.665	14027
901.784	13909
901.904	13746
902.023	13696
902.141	13449
902.26	13457
902.379	13605
902.498	13460
902.617	13422
902.735	13499
902.854	13415
902.973	13365
903.091	13179
903.21	13187
903.328	13259
903.446	13091
903.565	13015
903.683	13050
903.801	12947
903.919	13038
904.038	13057
904.156	12958
904.274	12954
904.392	12692
904.51	12863
904.627	12833
904.745	12875
904.863	12943
904.981	12631
905.098	12471
905.216	12525
905.334	12544
905.451	12494
905.569	12532
905.686	12578
905.803	12635
905.921	12338
906.038	12544
906.155	12418
906.272	12296
906.389	12209
906.506	12072
906.623	12232
906.74	12152
906.857	11954
906.974	12125
907.091	12239
907.208	12175
907.324	12201
907.441	11984
907.557	11992
907.674	11863
907.79	11813
907.907	11821
908.023	11859
908.139	11882
908.256	11824
908.372	11843
908.488	11741
908.604	11680
908.72	11676
908.836	11646
908.952	11668
909.068	11703
909.184	11779
909.3	11627
909.415	11608
909.531	11661
909.647	11440
909.762	11467
909.878	11398
909.993	11387
910.108	11372
910.224	11463
910.339	11417
910.454	11307
910.57	11250
910.685	11220
910.8	11471
910.915	11448
911.03	11334
911.145	11170
911.259	11117
911.374	11155
911.489	11064
911.604	11022
911.718	10892
911.833	10976
911.947	10809
912.062	10683
912.176	10976
912.291	10892
912.405	10980
912.519	11083
912.633	11079
912.748	10930
912.862	10831
912.976	10805
913.09	10687
913.204	10736
913.318	10843
913.431	10904
913.545	10957
913.659	10873
913.772	10759
913.886	10656
914	10675
914.113	10691
914.226	10782
914.34	10694
914.453	10592
914.566	10752
914.68	10573
914.793	10588
914.906	10409
915.019	10421
915.132	10413
915.245	10379
915.358	10440
915.47	10402
915.583	10443
915.696	10474
915.809	10641
915.921	10580
916.034	10474
916.146	10371
916.259	10409
916.371	10516
916.483	10382
916.595	10325
916.708	10390
916.82	10367
916.932	10417
917.044	10333
917.156	10405
917.268	10185
917.38	10234
917.491	10207
917.603	10303
917.715	10348
917.826	10417
917.938	10299
918.049	10059
918.161	10295
918.272	10379
918.384	10386
918.495	10287
918.606	10162
918.717	10112
918.828	10234
918.939	10215
919.05	10071
919.161	10090
919.272	9945
919.383	10063
919.494	10230
919.604	10314
919.715	10215
919.826	10097
919.936	10169
920.047	10238
920.157	10185
920.267	10344
920.378	10204
920.488	10181
920.598	10402
920.708	10504
920.818	10348
920.928	10333
921.038	10516
921.148	10500
921.258	10185
921.368	10116
921.477	10078
921.587	10082
921.697	9876
921.806	10032
921.916	9918
922.025	9755
922.134	9766
922.244	9671
922.353	9781
922.462	9595
922.571	9591
922.68	9431
922.789	9408
922.898	9298
923.007	9386
923.116	9462
923.224	9458
923.333	9389
923.442	9294
923.55	9279
923.659	9336
923.767	9336
923.876	9176
923.984	9317
924.092	9218
924.201	9332
924.309	9275
924.417	9233
924.525	9214
924.633	9241
924.741	9960
924.849	9047
924.956	9218
925.064	9062
925.172	9001
925.279	9051
925.387	9085
925.494	9104
925.602	9230
925.709	9157
925.816	9097
925.924	9047
926.031	9157
926.138	9157
926.245	9154
926.352	9017
926.459	9070
926.566	9192
926.673	8963
926.779	8952
926.886	8979
926.993	8811
927.099	8766
927.206	8705
927.312	8804
927.419	8807
927.525	8750
927.631	8876
927.737	8716
927.843	8705
927.95	8518
928.056	8644
928.162	8670
928.267	8670
928.373	9367
928.479	8834
928.585	8590
928.69	8689
928.796	8693
928.901	8587
929.007	8533
929.112	8598
929.218	8541
929.323	8461
929.428	8537
929.533	8655
929.638	8454
929.743	8473
929.848	8545
929.953	8450
930.058	8431
930.163	8301
930.267	8317
930.372	8431
930.477	8252
930.581	8492
930.685	8385
930.79	8199
930.894	8256
930.998	8214
931.103	8347
931.207	8084
931.311	8016
931.415	7875
931.519	7742
931.623	7799
