Data from test_V78500241_1518.txt Node
Date: Fri Mar 25 14:44:17 CST 2022
User: usil
Spectrometer: V785-0024
Trigger mode: 0
Integration Time (sec): 4.000000E-1
Scans to average: 1
Nonlinearity correction enabled: false
Boxcar width: 0
Storing dark spectrum: false
XAxis mode: Wavelengths
Number of Pixels in Spectrum: 1024
>>>>>Begin Spectral Data<<<<<
801.071	22500
801.214	22402
801.356	22154
801.499	21956
801.641	21949
801.783	21713
801.926	21812
802.068	21663
802.211	21641
802.353	21580
802.496	21317
802.638	21252
802.78	21291
802.923	21119
803.065	21093
803.208	21089
803.35	21135
803.492	21169
803.635	21188
803.777	21150
803.919	21302
804.061	21618
804.204	21161
804.346	21013
804.488	20998
804.63	21077
804.773	21043
804.915	21123
805.057	21188
805.199	21039
805.341	21119
805.483	21195
805.626	21116
805.768	21047
805.91	21119
806.052	21043
806.194	20941
806.336	21230
806.478	21005
806.62	20937
806.762	20963
806.904	21226
807.046	21500
807.188	21393
807.33	21310
807.472	21488
807.614	21485
807.756	21466
807.898	21294
808.04	21275
808.182	21222
808.324	21279
808.465	21252
808.607	21447
808.749	21561
808.891	21762
809.033	21785
809.174	21717
809.316	21534
809.458	21504
809.6	21473
809.741	21606
809.883	21564
810.025	21663
810.166	21641
810.308	21595
810.45	21526
810.591	21530
810.733	21306
810.875	21336
811.016	21146
811.158	21104
811.299	21188
811.441	21374
811.582	21279
811.724	21306
811.865	21226
812.007	21195
812.148	21218
812.29	21272
812.431	21454
812.573	21572
812.714	21698
812.855	21781
812.997	21880
813.138	21934
813.279	21869
813.421	21698
813.562	21644
813.703	21572
813.845	21439
813.986	21184
814.127	21005
814.268	20838
814.41	20811
814.551	20731
814.692	20895
814.833	20838
814.974	20727
815.115	20735
815.256	20583
815.397	20568
815.539	20648
815.68	20575
815.821	20389
815.962	20457
816.103	20396
816.244	20298
816.385	20343
816.526	20225
816.666	19978
816.807	19894
816.948	19963
817.089	20043
817.23	19970
817.371	19989
817.512	19890
817.653	19826
817.793	19841
817.934	19906
818.075	19894
818.216	19898
818.356	19871
818.497	19772
818.638	19559
818.778	19556
818.919	19742
819.06	19700
819.2	19715
819.341	19791
819.481	19784
819.622	19871
819.762	20077
819.903	20020
820.043	20031
820.184	19830
820.324	19875
820.465	20001
820.605	19887
820.746	19913
820.886	19852
821.026	19841
821.167	19780
821.307	19951
821.447	19826
821.588	19689
821.728	19544
821.868	19476
822.008	19373
822.149	19194
822.289	19343
822.429	18951
822.569	19000
822.709	18993
822.849	18871
822.99	18859
823.13	18650
823.27	18726
823.41	18715
823.55	18426
823.69	18604
823.83	18525
823.97	18460
824.11	18289
824.25	18319
824.389	18346
824.529	18433
824.669	18395
824.809	18467
824.949	18395
825.089	18502
825.228	18418
825.368	18243
825.508	18190
825.648	18330
825.787	18136
825.927	18346
826.067	18254
826.206	18053
826.346	18121
826.485	18163
826.625	18133
826.765	18197
826.904	18163
827.044	17984
827.183	17832
827.323	17847
827.462	17859
827.601	17939
827.741	17817
827.88	17843
828.02	17649
828.159	17775
828.298	17832
828.437	17939
828.577	17828
828.716	17988
828.855	17764
828.994	17554
829.134	17474
829.273	17634
829.412	17615
829.551	17573
829.69	17516
829.829	17490
829.968	17661
830.107	17627
830.246	17539
830.385	17471
830.524	17467
830.663	17372
830.802	17322
830.941	17132
831.08	17185
831.219	17235
831.357	17242
831.496	17345
831.635	17200
831.774	17105
831.913	17109
832.051	17033
832.19	16908
832.329	17006
832.467	16881
832.606	16801
832.744	16812
832.883	16934
833.022	16831
833.16	16877
833.299	16946
833.437	16946
833.576	16858
833.714	16873
833.852	16892
833.991	16995
834.129	16942
834.267	16949
834.406	17029
834.544	17003
834.682	16938
834.821	16900
834.959	17121
835.097	16927
835.235	17010
835.373	17029
835.511	16942
835.65	16828
835.788	16850
835.926	16721
836.064	16607
836.202	16656
836.34	16896
836.478	16976
836.615	16835
836.753	16828
836.891	16961
837.029	16847
837.167	16736
837.305	16763
837.443	16675
837.58	16645
837.718	16740
837.856	16645
837.993	16561
838.131	16744
838.269	16565
838.406	16615
838.544	16611
838.681	16344
838.819	16375
838.956	16314
839.094	16299
839.231	16276
839.369	16329
839.506	16656
839.643	16569
839.781	16272
839.918	16177
840.055	16360
840.193	16234
840.33	16268
840.467	16200
840.604	16280
840.742	16592
840.879	16169
841.016	16230
841.153	16116
841.29	16394
841.427	16192
841.564	16196
841.701	16291
841.838	16249
841.975	16169
842.112	16086
842.249	16109
842.385	16021
842.522	16177
842.659	16017
842.796	16048
842.933	16078
843.069	16002
843.206	15945
843.343	16147
843.479	15983
843.616	16006
843.752	15770
843.889	15823
844.025	16029
844.162	15793
844.298	15846
844.435	15743
844.571	15823
844.708	15869
844.844	15964
844.98	15930
845.117	15960
845.253	15759
845.389	15785
845.525	15762
845.661	15873
845.798	15690
845.934	15873
846.07	15713
846.206	15854
846.342	15975
846.478	15622
846.614	15454
846.75	15462
846.886	15336
847.022	15477
847.158	15370
847.294	15435
847.429	15443
847.565	15313
847.701	15591
847.837	15150
847.972	15131
848.108	15081
848.244	15211
848.379	15058
848.515	14883
848.65	14975
848.786	15047
848.921	15039
849.057	15058
849.192	15032
849.328	14948
849.463	15028
849.598	15020
849.734	14804
849.869	14857
850.004	14697
850.14	14773
850.275	14758
850.41	14674
850.545	14674
850.68	14781
850.815	14758
850.95	14674
851.085	14910
851.22	14868
851.355	14777
851.49	14697
851.625	14659
851.76	14781
851.895	14640
852.03	14594
852.165	14590
852.299	14819
852.434	14842
852.569	14838
852.703	14720
852.838	14849
852.973	14849
853.107	14880
853.242	14598
853.376	14682
853.511	14465
853.645	14560
853.78	14735
853.914	14636
854.048	14594
854.183	14526
854.317	14568
854.451	14773
854.585	14575
854.72	14530
854.854	14568
854.988	14518
855.122	14667
855.256	14370
855.39	14651
855.524	14689
855.658	14602
855.792	14674
855.926	14686
856.06	14670
856.194	14727
856.327	14587
856.461	14590
856.595	14606
856.729	14560
856.862	14762
856.996	14670
857.13	14621
857.263	14689
857.397	14762
857.53	14579
857.664	14712
857.797	14651
857.931	14636
858.064	14629
858.197	14811
858.331	14678
858.464	14564
858.597	14419
858.731	14556
858.864	14511
858.997	14613
859.13	14644
859.263	14617
859.396	14686
859.529	14545
859.662	14522
859.795	14556
859.928	14598
860.061	14819
860.194	14758
860.327	14648
860.46	14503
860.592	14644
860.725	14849
860.858	14800
860.99	14579
861.123	14602
861.256	14598
861.388	14571
861.521	15157
861.653	14492
861.786	14461
861.918	14495
862.05	14564
862.183	14541
862.315	14545
862.447	14667
862.58	14499
862.712	14446
862.844	14358
862.976	14415
863.108	14461
863.24	14785
863.372	14366
863.504	14259
863.636	14408
863.768	14396
863.9	14381
864.032	14393
864.164	14400
864.296	14434
864.428	14484
864.559	14480
864.691	14446
864.823	14400
864.954	14301
865.086	14374
865.217	14332
865.349	14396
865.48	14419
865.612	14328
865.743	14507
865.875	14320
866.006	14317
866.137	14431
866.269	14317
866.4	14336
866.531	14214
866.662	14317
866.793	14317
866.924	14286
867.055	14358
867.186	14309
867.317	14248
867.448	14259
867.579	14271
867.71	14229
867.841	14199
867.972	14347
868.103	14332
868.233	14332
868.364	14358
868.495	14480
868.625	14541
868.756	14727
868.886	14579
869.017	14655
869.147	14629
869.278	14648
869.408	14613
869.539	14610
869.669	14648
869.799	14648
869.929	14689
870.06	14727
870.19	14902
870.32	14891
870.45	14944
870.58	14944
870.71	15047
870.84	15192
870.97	14933
871.1	14937
871.23	15146
871.36	15203
871.489	15066
871.619	15150
871.749	15233
871.879	15218
872.008	15260
872.138	15226
872.267	15154
872.397	15017
872.526	14929
872.656	15039
872.785	15043
872.915	15154
873.044	15325
873.173	15176
873.303	15279
873.432	15245
873.561	15397
873.69	15233
873.819	15226
873.948	15332
874.077	15249
874.206	15192
874.335	15184
874.464	15351
874.593	15523
874.722	15386
874.851	15671
874.979	15614
875.108	15580
875.237	15500
875.365	15511
875.494	15568
875.623	15709
875.751	15545
875.88	15595
876.008	15633
876.136	15873
876.265	16002
876.393	16112
876.521	16032
876.65	15918
876.778	15937
876.906	15892
877.034	15892
877.162	15960
877.29	15850
877.418	15941
877.546	15945
877.674	16048
877.802	15895
877.93	15983
878.058	16010
878.185	15850
878.313	15926
878.441	15960
878.568	15797
878.696	15922
878.824	16010
878.951	16166
879.079	16139
879.206	16318
879.333	16246
879.461	16093
879.588	16143
879.715	16238
879.842	16371
879.97	16200
880.097	15937
880.224	15876
880.351	15861
880.478	15819
880.605	15823
880.732	15827
880.859	16067
880.986	15857
881.112	15857
881.239	15698
881.366	15656
881.493	15500
881.619	15469
881.746	15492
881.872	15485
881.999	15450
882.125	15393
882.252	15584
882.378	15523
882.505	15606
882.631	15431
882.757	15340
882.883	15348
883.01	15355
883.136	15207
883.262	15203
883.388	15146
883.514	15359
883.64	15412
883.766	15245
883.892	15161
884.018	15116
884.143	15302
884.269	15351
884.395	15055
884.52	14975
884.646	15074
884.772	15020
884.897	14918
885.023	15055
885.148	15112
885.274	15222
885.399	15142
885.524	15017
885.65	14963
885.775	15013
885.9	15005
886.025	15070
886.15	15077
886.275	15036
886.4	14807
886.525	14918
886.65	14906
886.775	14902
886.9	15066
887.025	15291
887.149	14971
887.274	14830
887.399	14872
887.523	14807
887.648	14758
887.773	14743
887.897	14868
888.021	14925
888.146	14727
888.27	14937
888.395	14944
888.519	14929
888.643	14883
888.767	14842
888.891	14670
889.015	14587
889.139	14807
889.263	14632
889.387	14765
889.511	14887
889.635	14819
889.759	14682
889.883	14644
890.006	14762
890.13	14727
890.254	14575
890.377	14465
890.501	14404
890.624	14465
890.748	14476
890.871	14423
890.995	14385
891.118	14351
891.241	14377
891.364	14343
891.488	14552
891.611	14469
891.734	14328
891.857	14473
891.98	14480
892.103	14427
892.226	14351
892.349	14332
892.471	14202
892.594	14301
892.717	14415
892.839	14278
892.962	14332
893.085	14400
893.207	14362
893.33	14225
893.452	14256
893.575	14339
893.697	14328
893.819	14511
893.941	14545
894.064	14419
894.186	14355
894.308	14278
894.43	14400
894.552	14621
894.674	14492
894.796	14396
894.918	14446
895.04	14465
895.161	14476
895.283	14469
895.405	14419
895.526	14495
895.648	14431
895.769	14438
895.891	14503
896.012	14507
896.134	14571
896.255	14575
896.376	14480
896.498	14522
896.619	14530
896.74	14499
896.861	14556
896.982	14899
897.103	14956
897.224	14815
897.345	14845
897.466	14712
897.587	14750
897.708	14925
897.828	14872
897.949	14823
898.07	14621
898.19	14777
898.311	14902
898.431	14785
898.552	14891
898.672	14914
898.792	14990
898.913	14937
899.033	14849
899.153	14708
899.273	14610
899.393	14686
899.513	14769
899.633	14724
899.753	14777
899.873	14731
899.993	14807
900.113	14701
900.232	14716
900.352	14689
900.472	14583
900.591	14514
900.711	14629
900.83	14545
900.95	14743
901.069	14754
901.189	14537
901.308	14298
901.427	14214
901.546	14229
901.665	14252
901.784	14252
901.904	14237
902.023	14088
902.141	13936
902.26	13811
902.379	13936
902.498	13845
902.617	13750
902.735	13875
902.854	13898
902.973	13769
903.091	13502
903.21	13506
903.328	13586
903.446	13514
903.565	13331
903.683	13415
903.801	13232
903.919	13316
904.038	13350
904.156	13209
904.274	13304
904.392	13213
904.51	13160
904.627	13247
904.745	13168
904.863	13289
904.981	12958
905.098	12951
905.216	12977
905.334	12875
905.451	12802
905.569	12882
905.686	12905
905.803	12932
905.921	12700
906.038	12833
906.155	12730
906.272	12578
906.389	12639
906.506	12422
906.623	12426
906.74	12517
906.857	12418
906.974	12369
907.091	12544
907.208	12494
907.324	12426
907.441	12384
907.557	12171
907.674	12220
907.79	12140
907.907	12136
908.023	12281
908.139	12182
908.256	12152
908.372	12098
908.488	12140
908.604	11988
908.72	11965
908.836	12053
908.952	11999
909.068	11965
909.184	12087
909.3	11916
909.415	11901
909.531	12038
909.647	11703
909.762	11756
909.878	11642
909.993	11699
910.108	11748
910.224	11672
910.339	11874
910.454	11604
910.57	11592
910.685	11512
910.8	11851
910.915	11707
911.03	11619
911.145	11535
911.259	11505
911.374	11376
911.489	11284
911.604	11299
911.718	11197
911.833	11235
911.947	11079
912.062	10995
912.176	11197
912.291	11105
912.405	11277
912.519	11395
912.633	11414
912.748	11258
912.862	11136
912.976	11045
913.09	10957
913.204	11003
913.318	10987
913.431	11109
913.545	11242
913.659	11185
913.772	11064
913.886	11014
914	10850
914.113	11075
914.226	10972
914.34	10987
914.453	10900
914.566	10991
914.68	10877
914.793	10850
914.906	10767
915.019	10645
915.132	10561
915.245	10634
915.358	10694
915.47	10733
915.583	10683
915.696	10691
915.809	10820
915.921	10801
916.034	10668
916.146	10607
916.259	10687
916.371	10759
916.483	10668
916.595	10519
916.708	10565
916.82	10565
916.932	10596
917.044	10656
917.156	10592
917.268	10443
917.38	10497
917.491	10474
917.603	10523
917.715	10565
917.826	10588
917.938	10512
918.049	10413
918.161	10535
918.272	10607
918.384	10561
918.495	10519
918.606	10394
918.717	10272
918.828	10337
918.939	10413
919.05	10348
919.161	10363
919.272	10143
919.383	10261
919.494	10333
919.604	10653
919.715	10386
919.826	10291
919.936	10329
920.047	10421
920.157	10455
920.267	10607
920.378	10474
920.488	10325
920.598	10554
920.708	10702
920.818	10672
920.928	10645
921.038	10717
921.148	10672
921.258	10390
921.368	10379
921.477	10257
921.587	10207
921.697	10135
921.806	10284
921.916	10192
922.025	9979
922.134	9941
922.244	9876
922.353	9960
922.462	9781
922.571	9717
922.68	9686
922.789	9587
922.898	9671
923.007	9542
923.116	9728
923.224	9625
923.333	9614
923.442	9488
923.55	9515
923.659	9523
923.767	9561
923.876	9504
923.984	9610
924.092	9420
924.201	9485
924.309	9492
924.417	9530
924.525	9435
924.633	9424
924.741	10352
924.849	9222
924.956	9435
925.064	9218
925.172	9123
925.279	9142
925.387	9283
925.494	9321
925.602	9405
925.709	9367
925.816	9218
925.924	9264
926.031	9310
926.138	9348
926.245	9325
926.352	9180
926.459	9344
926.566	9310
926.673	9294
926.779	9192
926.886	9093
926.993	9036
927.099	9017
927.206	8929
927.312	8994
927.419	9074
927.525	8994
927.631	9100
927.737	8956
927.843	8849
927.95	8769
928.056	8895
928.162	8891
928.267	8918
928.373	9447
928.479	8963
928.585	8716
928.69	8834
928.796	8899
928.901	8826
929.007	8667
929.112	8785
929.218	8697
929.323	8682
929.428	8705
929.533	8883
929.638	8625
929.743	8659
929.848	8712
929.953	8678
930.058	8549
930.163	8503
930.267	8492
930.372	8625
930.477	8450
930.581	8727
930.685	8480
930.79	8374
930.894	8442
930.998	8381
931.103	8454
931.207	8202
931.311	8111
931.415	8081
931.519	7894
931.623	7887
