Data from test_V78500241_188.txt Node
Date: Fri Mar 25 14:35:02 CST 2022
User: usil
Spectrometer: V785-0024
Trigger mode: 0
Integration Time (sec): 4.000000E-1
Scans to average: 1
Nonlinearity correction enabled: false
Boxcar width: 0
Storing dark spectrum: false
XAxis mode: Wavelengths
Number of Pixels in Spectrum: 1024
>>>>>Begin Spectral Data<<<<<
801.071	28405
801.214	28333
801.356	28135
801.499	28021
801.641	27865
801.783	27850
801.926	27968
802.068	27816
802.211	27671
802.353	27557
802.496	27492
802.638	27439
802.78	27359
802.923	27264
803.065	27298
803.208	27435
803.35	27249
803.492	27485
803.635	27580
803.777	27424
803.919	27519
804.061	27690
804.204	27500
804.346	27370
804.488	27477
804.63	27367
804.773	27237
804.915	27317
805.057	27397
805.199	27310
805.341	27469
805.483	27542
805.626	27397
805.768	27431
805.91	27492
806.052	27416
806.194	27454
806.336	27545
806.478	27477
806.62	27583
806.762	27515
806.904	27720
807.046	28070
807.188	27968
807.33	27956
807.472	27998
807.614	28029
807.756	27998
807.898	28032
808.04	27983
808.182	28131
808.324	28409
808.465	28462
808.607	28862
808.749	29174
808.891	29239
809.033	29280
809.174	29083
809.316	28934
809.458	28668
809.6	28611
809.741	28508
809.883	28485
810.025	28500
810.166	28356
810.308	28386
810.45	28268
810.591	28112
810.733	28090
810.875	27949
811.016	27804
811.158	27724
811.299	28006
811.441	28029
811.582	27895
811.724	27739
811.865	27781
812.007	27854
812.148	27869
812.29	27846
812.431	27964
812.573	28097
812.714	28367
812.855	28192
812.997	28371
813.138	28329
813.279	28485
813.421	28367
813.562	28093
813.703	28131
813.845	27857
813.986	27637
814.127	27469
814.268	27427
814.41	27374
814.551	27272
814.692	27530
814.833	27355
814.974	27302
815.115	27272
815.256	27283
815.397	27279
815.539	27260
815.68	27123
815.821	26998
815.962	27112
816.103	27058
816.244	27013
816.385	26750
816.526	26857
816.666	26640
816.807	26590
816.948	26587
817.089	26507
817.23	26587
817.371	26484
817.512	26381
817.653	26389
817.793	26358
817.934	26427
818.075	26396
818.216	26351
818.356	26355
818.497	26351
818.638	26122
818.778	26183
818.919	26183
819.06	26282
819.2	26294
819.341	26377
819.481	26210
819.622	26465
819.762	26651
819.903	26568
820.043	26507
820.184	26457
820.324	26423
820.465	26495
820.605	26328
820.746	26503
820.886	26263
821.026	26461
821.167	26294
821.307	26480
821.447	26313
821.588	26122
821.728	26043
821.868	25811
822.008	25799
822.149	25753
822.289	25700
822.429	25343
822.569	25487
822.709	25453
822.849	25221
822.99	25202
823.13	25206
823.27	25164
823.41	25061
823.55	24829
823.69	25023
823.83	25069
823.97	24890
824.11	24814
824.25	24764
824.389	24859
824.529	24852
824.669	24753
824.809	24749
824.949	24882
825.089	24798
825.228	24802
825.368	24669
825.508	24460
825.648	24597
825.787	24692
825.927	24551
826.067	24563
826.206	24475
826.346	24582
826.485	24597
826.625	24460
826.765	24673
826.904	24570
827.044	24547
827.183	24304
827.323	24266
827.462	24121
827.601	24247
827.741	24114
827.88	24201
828.02	24110
828.159	24235
828.298	24216
828.437	24254
828.577	24159
828.716	24304
828.855	24167
828.994	23961
829.134	23950
829.273	23977
829.412	23840
829.551	23954
829.69	23889
829.829	23984
829.968	23961
830.107	23893
830.246	23946
830.385	23912
830.524	23855
830.663	23764
830.802	23604
830.941	23581
831.08	23436
831.219	23493
831.357	23512
831.496	23843
831.635	23509
831.774	23265
831.913	23250
832.051	23208
832.19	23239
832.329	23292
832.467	23113
832.606	23029
832.744	22942
832.883	23109
833.022	23136
833.16	23033
833.299	23155
833.437	23178
833.576	23170
833.714	23273
833.852	23261
833.991	23197
834.129	23303
834.267	23197
834.406	23174
834.544	23136
834.682	23151
834.821	23094
834.959	23311
835.097	23143
835.235	23185
835.373	23162
835.511	23094
835.65	22885
835.788	22984
835.926	22752
836.064	22645
836.202	22748
836.34	22972
836.478	23014
836.615	22957
836.753	23006
836.891	22946
837.029	22942
837.167	22812
837.305	22816
837.443	22748
837.58	22752
837.718	22725
837.856	22793
837.993	22687
838.131	22755
838.269	22641
838.406	22569
838.544	22626
838.681	22417
838.819	22409
838.956	22154
839.094	22226
839.231	22181
839.369	22382
839.506	22603
839.643	22409
839.781	22090
839.918	22223
840.055	22128
840.193	22051
840.33	22154
840.467	22017
840.604	22105
840.742	22287
840.879	21911
841.016	21983
841.153	21979
841.29	22131
841.427	21979
841.564	22105
841.701	21964
841.838	21922
841.975	21968
842.112	21846
842.249	21899
842.385	21682
842.522	21918
842.659	21865
842.796	21770
842.933	21724
843.069	21724
843.206	21831
843.343	21770
843.479	21717
843.616	21739
843.752	21580
843.889	21511
844.025	21690
844.162	21504
844.298	21599
844.435	21561
844.571	21450
844.708	21568
844.844	21724
844.98	21766
845.117	21686
845.253	21526
845.389	21629
845.525	21915
845.661	22185
845.798	22561
845.934	22881
846.07	22858
846.206	22847
846.342	22729
846.478	22131
846.614	21656
846.75	21405
846.886	21180
847.022	21310
847.158	21089
847.294	21112
847.429	20971
847.565	21047
847.701	21173
847.837	20697
847.972	20583
848.108	20979
848.244	20876
848.379	20655
848.515	20526
848.65	20438
848.786	20541
848.921	20583
849.057	20507
849.192	20663
849.328	20461
849.463	20442
849.598	20434
849.734	20412
849.869	20343
850.004	20301
850.14	20244
850.275	20298
850.41	20138
850.545	20187
850.68	20218
850.815	20343
850.95	20336
851.085	20336
851.22	20237
851.355	20343
851.49	20157
851.625	20149
851.76	20259
851.895	20180
852.03	20145
852.165	20103
852.299	20237
852.434	20206
852.569	20221
852.703	20126
852.838	20225
852.973	20301
853.107	20393
853.242	20149
853.376	20077
853.511	19890
853.645	20035
853.78	20050
853.914	20031
854.048	20039
854.183	19951
854.317	20065
854.451	20221
854.585	19978
854.72	20016
854.854	20126
854.988	19913
855.122	20153
855.256	19761
855.39	20058
855.524	20107
855.658	20069
855.792	20050
855.926	19909
856.06	20039
856.194	20031
856.327	19982
856.461	19921
856.595	20001
856.729	19883
856.862	20062
856.996	20088
857.13	20031
857.263	20039
857.397	20012
857.53	19909
857.664	19906
857.797	20069
857.931	20134
858.064	20088
858.197	20077
858.331	19909
858.464	19940
858.597	19822
858.731	19860
858.864	19921
858.997	19879
859.13	19944
859.263	19955
859.396	20073
859.529	19811
859.662	19875
859.795	19875
859.928	20035
860.061	20077
860.194	20142
860.327	19868
860.46	19947
860.592	19974
860.725	20031
860.858	20020
860.99	19940
861.123	19814
861.256	19830
861.388	19944
861.521	20530
861.653	19791
861.786	19818
861.918	19890
862.05	19887
862.183	19959
862.315	19986
862.447	20111
862.58	19841
862.712	19742
862.844	19712
862.976	19772
863.108	19757
863.24	19967
863.372	19655
863.504	19655
863.636	19624
863.768	19704
863.9	19681
864.032	19613
864.164	19578
864.296	19670
864.428	19719
864.559	19655
864.691	19620
864.823	19632
864.954	19575
865.086	19647
865.217	19639
865.349	19441
865.48	19647
865.612	19563
865.743	19658
865.875	19510
866.006	19506
866.137	19422
866.269	19540
866.4	19430
866.531	19502
866.662	19464
866.793	19499
866.924	19438
867.055	19514
867.186	19480
867.317	19480
867.448	19320
867.579	19441
867.71	19369
867.841	19350
867.972	19533
868.103	19506
868.233	19510
868.364	19518
868.495	19609
868.625	19628
868.756	19803
868.886	19605
869.017	19666
869.147	19845
869.278	19799
869.408	19723
869.539	19643
869.669	19791
869.799	19693
869.929	19814
870.06	19830
870.19	19989
870.32	19932
870.45	20054
870.58	20062
870.71	20206
870.84	20134
870.97	20100
871.1	20126
871.23	20168
871.36	20370
871.489	20168
871.619	20218
871.749	20259
871.879	20259
872.008	20427
872.138	20400
872.267	20355
872.397	20145
872.526	20161
872.656	20164
872.785	20065
872.915	20309
873.044	20465
873.173	20275
873.303	20400
873.432	20415
873.561	20320
873.69	20427
873.819	20362
873.948	20518
874.077	20275
874.206	20221
874.335	20347
874.464	20499
874.593	20484
874.722	20571
874.851	20655
874.979	20598
875.108	20655
875.237	20530
875.365	20609
875.494	20598
875.623	20617
875.751	20564
875.88	20716
876.008	20716
876.136	20762
876.265	20967
876.393	21180
876.521	21081
876.65	21199
876.778	21036
876.906	21017
877.034	20963
877.162	20975
877.29	20914
877.418	21093
877.546	21070
877.674	21074
877.802	21005
877.93	20941
878.058	21005
878.185	21039
878.313	21005
878.441	21062
878.568	20921
878.696	21188
878.824	21359
878.951	21317
879.079	21408
879.206	21861
879.333	21781
879.461	21713
879.588	21880
879.715	22090
879.842	22002
879.97	21660
880.097	21336
880.224	21332
880.351	21085
880.478	21169
880.605	21020
880.732	20990
880.859	21169
880.986	21009
881.112	21135
881.239	21032
881.366	20811
881.493	20811
881.619	20708
881.746	20800
881.872	20522
881.999	20674
882.125	20571
882.252	20693
882.378	20606
882.505	20739
882.631	20495
882.757	20415
882.883	20381
883.01	20454
883.136	20343
883.262	20286
883.388	20229
883.514	20362
883.64	20355
883.766	20259
883.892	20278
884.018	20248
884.143	20374
884.269	20339
884.395	20069
884.52	20039
884.646	19932
884.772	19959
884.897	19906
885.023	20142
885.148	20043
885.274	20256
885.399	20008
885.524	20073
885.65	20073
885.775	20096
885.9	19913
886.025	20050
886.15	19944
886.275	19967
886.4	19879
886.525	19955
886.65	19822
886.775	19742
886.9	20008
887.025	20157
887.149	19868
887.274	19639
887.399	19700
887.523	19708
887.648	19483
887.773	19582
887.897	19746
888.021	19753
888.146	19620
888.27	19757
888.395	19689
888.519	19620
888.643	19658
888.767	19635
888.891	19563
889.015	19308
889.139	19483
889.263	19354
889.387	19445
889.511	19685
889.635	19457
889.759	19289
889.883	19392
890.006	19396
890.13	19396
890.254	19320
890.377	19316
890.501	19202
890.624	19160
890.748	19148
890.871	19072
890.995	18886
891.118	18943
891.241	19091
891.364	18962
891.488	19110
891.611	18897
891.734	18951
891.857	19004
891.98	18973
892.103	19076
892.226	18958
892.349	18913
892.471	18909
892.594	18890
892.717	18882
892.839	18859
892.962	18867
893.085	18970
893.207	18954
893.33	18696
893.452	18829
893.575	18993
893.697	18909
893.819	19255
893.941	19080
894.064	18943
894.186	18863
894.308	18817
894.43	19000
894.552	19091
894.674	18924
894.796	18764
894.918	18833
895.04	18741
895.161	18878
895.283	18859
895.405	18760
895.526	18875
895.648	18989
895.769	18920
895.891	18920
896.012	18962
896.134	19031
896.255	18954
896.376	18935
896.498	18833
896.619	18996
896.74	18916
896.861	19034
896.982	19274
897.103	19403
897.224	19206
897.345	19183
897.466	19038
897.587	19148
897.708	19278
897.828	19236
897.949	19160
898.07	19065
898.19	19118
898.311	19164
898.431	19057
898.552	19164
898.672	19217
898.792	19217
898.913	19217
899.033	18939
899.153	18928
899.273	18844
899.393	18897
899.513	18871
899.633	18939
899.753	18973
899.873	18894
899.993	18913
900.113	18856
900.232	18924
900.352	18779
900.472	18817
900.591	18692
900.711	18886
900.83	18669
900.95	18825
901.069	18795
901.189	18711
901.308	18350
901.427	18361
901.546	18372
901.665	18277
901.784	18376
901.904	18197
902.023	18102
902.141	17988
902.26	17813
902.379	17901
902.498	17786
902.617	17889
902.735	17889
902.854	17729
902.973	17687
903.091	17516
903.21	17486
903.328	17425
903.446	17497
903.565	17330
903.683	17284
903.801	17299
903.919	17322
904.038	17212
904.156	17025
904.274	17170
904.392	17010
904.51	17102
904.627	16961
904.745	17128
904.863	17147
904.981	16885
905.098	16771
905.216	16721
905.334	16733
905.451	16725
905.569	16668
905.686	16812
905.803	16656
905.921	16489
906.038	16550
906.155	16394
906.272	16394
906.389	16329
906.506	16306
906.623	16207
906.74	16242
906.857	16150
906.974	16188
907.091	16265
907.208	16390
907.324	16185
907.441	16120
907.557	15899
907.674	16021
907.79	15865
907.907	15842
908.023	15960
908.139	15922
908.256	15747
908.372	15785
908.488	15812
908.604	15538
908.72	15641
908.836	15603
908.952	15519
909.068	15519
909.184	15743
909.3	15606
909.415	15591
909.531	15515
909.647	15367
909.762	15355
909.878	15260
909.993	15378
910.108	15233
910.224	15359
910.339	15321
910.454	15207
910.57	15146
910.685	15104
910.8	15374
910.915	15310
911.03	15051
911.145	14986
911.259	14887
911.374	15001
911.489	14918
911.604	14807
911.718	14739
911.833	14720
911.947	14594
912.062	14465
912.176	14640
912.291	14746
912.405	14583
912.519	14845
912.633	14815
912.748	14689
912.862	14545
912.976	14583
913.09	14518
913.204	14492
913.318	14476
913.431	14473
913.545	14568
913.659	14526
913.772	14503
913.886	14366
914	14301
914.113	14408
914.226	14404
914.34	14366
914.453	14271
914.566	14336
914.68	14286
914.793	14153
914.906	14077
915.019	13951
915.132	13868
915.245	13951
915.358	13951
915.47	13970
915.583	14069
915.696	14081
915.809	14081
915.921	14161
916.034	13932
916.146	13875
916.259	13947
916.371	14035
916.483	13887
916.595	13925
916.708	13765
916.82	13898
916.932	13700
917.044	13818
917.156	13776
917.268	13616
917.38	13601
917.491	13582
917.603	13666
917.715	13780
917.826	13780
917.938	13525
918.049	13609
918.161	13575
918.272	13674
918.384	13784
918.495	13601
918.606	13514
918.717	13384
918.828	13400
918.939	13441
919.05	13354
919.161	13441
919.272	13217
919.383	13236
919.494	13419
919.604	13616
919.715	13502
919.826	13270
919.936	13251
920.047	13506
920.157	13438
920.267	13518
920.378	13369
920.488	13350
920.598	13563
920.708	13753
920.818	13449
920.928	13540
921.038	13689
921.148	13651
921.258	13400
921.368	13198
921.477	13095
921.587	13061
921.697	13008
921.806	13110
921.916	12977
922.025	12924
922.134	12875
922.244	12722
922.353	12806
922.462	12639
922.571	12650
922.68	12334
922.789	12502
922.898	12483
923.007	12292
923.116	12456
923.224	12460
923.333	12395
923.442	12380
923.55	12308
923.659	12228
923.767	12395
923.876	12209
923.984	12319
924.092	12182
924.201	12205
924.309	12095
924.417	12197
924.525	12194
924.633	12136
924.741	13050
924.849	11954
924.956	12155
925.064	11988
925.172	11882
925.279	11927
925.387	11939
925.494	11927
925.602	12034
925.709	11920
925.816	11817
925.924	11961
926.031	11927
926.138	11840
926.245	11851
926.352	11752
926.459	11912
926.566	11878
926.673	11764
926.779	11699
926.886	11665
926.993	11570
927.099	11535
927.206	11520
927.312	11474
927.419	11535
927.525	11543
927.631	11577
927.737	11360
927.843	11376
927.95	11299
928.056	11341
928.162	11493
928.267	11493
928.373	12091
928.479	11387
928.585	11223
928.69	11315
928.796	11364
928.901	11246
929.007	11143
929.112	11288
929.218	11185
929.323	11121
929.428	11083
929.533	11201
929.638	11022
929.743	11056
929.848	11060
929.953	11045
930.058	11010
930.163	10763
930.267	10752
930.372	10930
930.477	10733
930.581	10915
930.685	10869
930.79	10656
930.894	10660
930.998	10721
931.103	10729
931.207	10447
931.311	10436
931.415	10261
931.519	10074
931.623	10078
