Data from test_V78500241_298.txt Node
Date: Fri Mar 25 14:35:47 CST 2022
User: usil
Spectrometer: V785-0024
Trigger mode: 0
Integration Time (sec): 4.000000E-1
Scans to average: 1
Nonlinearity correction enabled: false
Boxcar width: 0
Storing dark spectrum: false
XAxis mode: Wavelengths
Number of Pixels in Spectrum: 1024
>>>>>Begin Spectral Data<<<<<
801.071	27230
801.214	27047
801.356	27055
801.499	26826
801.641	26678
801.783	26526
801.926	26636
802.068	26621
802.211	26484
802.353	26461
802.496	26377
802.638	26157
802.78	26168
802.923	26172
803.065	26092
803.208	26229
803.35	26237
803.492	26263
803.635	26336
803.777	26187
803.919	26301
804.061	26545
804.204	26229
804.346	26191
804.488	26062
804.63	26073
804.773	25966
804.915	26210
805.057	26278
805.199	26103
805.341	26153
805.483	26259
805.626	26122
805.768	26240
805.91	26142
806.052	26271
806.194	26092
806.336	26419
806.478	26256
806.62	26176
806.762	26419
806.904	26469
807.046	26625
807.188	26560
807.33	26423
807.472	26473
807.614	26579
807.756	26583
807.898	26503
808.04	26450
808.182	26522
808.324	26366
808.465	26415
808.607	26568
808.749	26773
808.891	26963
809.033	26842
809.174	26838
809.316	26636
809.458	26682
809.6	26743
809.741	26765
809.883	26815
810.025	26823
810.166	26918
810.308	26940
810.45	26781
810.591	26765
810.733	26663
810.875	26648
811.016	26549
811.158	26518
811.299	26629
811.441	26617
811.582	26674
811.724	26446
811.865	26480
812.007	26655
812.148	26571
812.29	26598
812.431	26727
812.573	26830
812.714	26986
812.855	26857
812.997	27127
813.138	27203
813.279	27081
813.421	27176
813.562	27028
813.703	26918
813.845	26651
813.986	26537
814.127	26370
814.268	26157
814.41	26115
814.551	26065
814.692	26252
814.833	26103
814.974	26043
815.115	26267
815.256	26005
815.397	25940
815.539	25966
815.68	25883
815.821	25852
815.962	25887
816.103	25978
816.244	25605
816.385	25662
816.526	25559
816.666	25590
816.807	25392
816.948	25403
817.089	25282
817.23	25320
817.371	25244
817.512	25266
817.653	25156
817.793	25179
817.934	25266
818.075	25297
818.216	25148
818.356	25175
818.497	25069
818.638	24878
818.778	24958
818.919	24981
819.06	24928
819.2	25141
819.341	25095
819.481	25099
819.622	25320
819.762	25350
819.903	25327
820.043	25343
820.184	25278
820.324	25225
820.465	25251
820.605	25217
820.746	25263
820.886	25198
821.026	25285
821.167	25198
821.307	25110
821.447	25122
821.588	24871
821.728	24882
821.868	24760
822.008	24574
822.149	24570
822.289	24498
822.429	24388
822.569	24209
822.709	24311
822.849	24060
822.99	24057
823.13	23939
823.27	23912
823.41	23824
823.55	23657
823.69	23882
823.83	23813
823.97	23824
824.11	23512
824.25	23440
824.389	23623
824.529	23615
824.669	23520
824.809	23642
824.949	23653
825.089	23676
825.228	23509
825.368	23520
825.508	23334
825.648	23318
825.787	23452
825.927	23570
826.067	23429
826.206	23307
826.346	23406
826.485	23303
826.625	23368
826.765	23421
826.904	23311
827.044	23155
827.183	23083
827.323	22980
827.462	23098
827.601	23136
827.741	22999
827.88	23102
828.02	22927
828.159	22965
828.298	23162
828.437	23124
828.577	22949
828.716	23060
828.855	22877
828.994	22790
829.134	22786
829.273	22763
829.412	22710
829.551	22584
829.69	22771
829.829	22771
829.968	22869
830.107	22736
830.246	22683
830.385	22634
830.524	22603
830.663	22573
830.802	22451
830.941	22284
831.08	22276
831.219	22303
831.357	22512
831.496	22462
831.635	22230
831.774	22169
831.913	22238
832.051	22006
832.19	21960
832.329	21994
832.467	21941
832.606	21911
832.744	21907
832.883	21926
833.022	21953
833.16	21956
833.299	21964
833.437	21975
833.576	21994
833.714	21945
833.852	22013
833.991	22017
834.129	22006
834.267	22010
834.406	21907
834.544	22025
834.682	21972
834.821	21888
834.959	22097
835.097	21854
835.235	21968
835.373	21941
835.511	21869
835.65	21774
835.788	21671
835.926	21637
836.064	21690
836.202	21641
836.34	21755
836.478	21800
836.615	21720
836.753	21838
836.891	21857
837.029	21804
837.167	21633
837.305	21599
837.443	21682
837.58	21599
837.718	21663
837.856	21656
837.993	21462
838.131	21679
838.269	21523
838.406	21500
838.544	21431
838.681	21310
838.819	21222
838.956	21085
839.094	21066
839.231	21169
839.369	21272
839.506	21359
839.643	21203
839.781	21039
839.918	20941
840.055	21001
840.193	21066
840.33	20948
840.467	20914
840.604	20986
840.742	21214
840.879	20823
841.016	20864
841.153	20872
841.29	21184
841.427	20937
841.564	21043
841.701	20891
841.838	20918
841.975	20754
842.112	20735
842.249	20667
842.385	20621
842.522	20914
842.659	20659
842.796	20682
842.933	20716
843.069	20670
843.206	20495
843.343	20712
843.479	20670
843.616	20651
843.752	20492
843.889	20362
844.025	20727
844.162	20385
844.298	20640
844.435	20442
844.571	20427
844.708	20480
844.844	20549
844.98	20640
845.117	20613
845.253	20358
845.389	20317
845.525	20324
845.661	20366
845.798	20195
845.934	20343
846.07	20355
846.206	20328
846.342	20492
846.478	20332
846.614	19967
846.75	19921
846.886	19909
847.022	19982
847.158	19947
847.294	19967
847.429	19986
847.565	19955
847.701	20073
847.837	19681
847.972	19605
848.108	19597
848.244	19700
848.379	19613
848.515	19552
848.65	19407
848.786	19457
848.921	19419
849.057	19624
849.192	19552
849.328	19537
849.463	19400
849.598	19388
849.734	19396
849.869	19316
850.004	19190
850.14	19320
850.275	19126
850.41	19145
850.545	19034
850.68	19217
850.815	19145
850.95	19171
851.085	19457
851.22	19282
851.355	19202
851.49	19126
851.625	19072
851.76	19168
851.895	19198
852.03	18973
852.165	19148
852.299	19076
852.434	19304
852.569	19160
852.703	19145
852.838	19194
852.973	19384
853.107	19293
853.242	19099
853.376	18993
853.511	18932
853.645	18935
853.78	19198
853.914	19160
854.048	19076
854.183	18928
854.317	19008
854.451	19107
854.585	19008
854.72	18932
854.854	18958
854.988	18916
855.122	18913
855.256	18962
855.39	19099
855.524	19129
855.658	19000
855.792	19050
855.926	18970
856.06	19099
856.194	19008
856.327	18916
856.461	18939
856.595	18947
856.729	18947
856.862	19126
856.996	18939
857.13	19057
857.263	19103
857.397	18981
857.53	18928
857.664	19065
857.797	19031
857.931	18935
858.064	18951
858.197	19057
858.331	18920
858.464	18825
858.597	18760
858.731	18882
858.864	18909
858.997	18901
859.13	18947
859.263	18798
859.396	19019
859.529	18897
859.662	18909
859.795	18951
859.928	18848
860.061	18977
860.194	19103
860.327	18897
860.46	18886
860.592	19053
860.725	19061
860.858	18996
860.99	18901
861.123	18734
861.256	18837
861.388	18943
861.521	19472
861.653	18787
861.786	18814
861.918	18890
862.05	18897
862.183	18996
862.315	18951
862.447	18977
862.58	18821
862.712	18669
862.844	18642
862.976	18658
863.108	18738
863.24	19107
863.372	18612
863.504	18620
863.636	18654
863.768	18688
863.9	18669
864.032	18585
864.164	18593
864.296	18791
864.428	18658
864.559	18677
864.691	18677
864.823	18654
864.954	18631
865.086	18502
865.217	18582
865.349	18479
865.48	18521
865.612	18490
865.743	18681
865.875	18608
866.006	18498
866.137	18570
866.269	18471
866.4	18498
866.531	18437
866.662	18464
866.793	18547
866.924	18517
867.055	18612
867.186	18490
867.317	18384
867.448	18376
867.579	18414
867.71	18361
867.841	18441
867.972	18502
868.103	18494
868.233	18464
868.364	18521
868.495	18604
868.625	18787
868.756	18852
868.886	18544
869.017	18730
869.147	18776
869.278	18779
869.408	18734
869.539	18734
869.669	18916
869.799	18821
869.929	18776
870.06	18810
870.19	18970
870.32	19072
870.45	19103
870.58	19221
870.71	19156
870.84	19244
870.97	19137
871.1	19034
871.23	19411
871.36	19354
871.489	19221
871.619	19240
871.749	19343
871.879	19419
872.008	19407
872.138	19293
872.267	19384
872.397	19175
872.526	19133
872.656	19168
872.785	19168
872.915	19362
873.044	19388
873.173	19350
873.303	19419
873.432	19525
873.561	19392
873.69	19308
873.819	19362
873.948	19582
874.077	19350
874.206	19282
874.335	19438
874.464	19426
874.593	19575
874.722	19559
874.851	19620
874.979	19674
875.108	19632
875.237	19556
875.365	19510
875.494	19567
875.623	19658
875.751	19647
875.88	19651
876.008	19704
876.136	19849
876.265	20050
876.393	20092
876.521	20096
876.65	20054
876.778	20084
876.906	19845
877.034	20012
877.162	20054
877.29	20031
877.418	20031
877.546	19974
877.674	20050
877.802	19890
877.93	19967
878.058	19993
878.185	19856
878.313	19989
878.441	19986
878.568	19852
878.696	20157
878.824	19997
878.951	20100
879.079	20191
879.206	20271
879.333	20168
879.461	20164
879.588	20221
879.715	20149
879.842	20256
879.97	20157
880.097	19837
880.224	19940
880.351	19959
880.478	19845
880.605	19814
880.732	19932
880.859	19963
880.986	19833
881.112	19917
881.239	19719
881.366	19704
881.493	19571
881.619	19460
881.746	19392
881.872	19445
881.999	19384
882.125	19392
882.252	19510
882.378	19559
882.505	19567
882.631	19460
882.757	19255
882.883	19331
883.01	19202
883.136	19259
883.262	19217
883.388	19038
883.514	19236
883.64	19308
883.766	19266
883.892	18962
884.018	19023
884.143	19091
884.269	19259
884.395	18993
884.52	18951
884.646	18817
884.772	18882
884.897	18745
885.023	18920
885.148	19034
885.274	19012
885.399	18935
885.524	18901
885.65	18814
885.775	18859
885.9	18996
886.025	18916
886.15	18939
886.275	18833
886.4	18878
886.525	18772
886.65	18677
886.775	18772
886.9	19038
887.025	19114
887.149	18882
887.274	18578
887.399	18528
887.523	18635
887.648	18665
887.773	18673
887.897	18715
888.021	18646
888.146	18555
888.27	18795
888.395	18715
888.519	18612
888.643	18734
888.767	18741
888.891	18445
889.015	18460
889.139	18384
889.263	18422
889.387	18494
889.511	18570
889.635	18517
889.759	18353
889.883	18315
890.006	18376
890.13	18464
890.254	18330
890.377	18266
890.501	18220
890.624	18121
890.748	18262
890.871	18205
890.995	17878
891.118	17988
891.241	17999
891.364	18041
891.488	18114
891.611	18003
891.734	18011
891.857	18121
891.98	18159
892.103	18076
892.226	17988
892.349	17988
892.471	17847
892.594	17996
892.717	18019
892.839	17965
892.962	17984
893.085	18079
893.207	18057
893.33	17859
893.452	17950
893.575	18007
893.697	18007
893.819	18247
893.941	18098
894.064	18064
894.186	17870
894.308	17866
894.43	18060
894.552	18133
894.674	18216
894.796	17939
894.918	17984
895.04	18026
895.161	18057
895.283	17912
895.405	17904
895.526	17980
895.648	17954
895.769	18007
895.891	18053
896.012	18041
896.134	18144
896.255	18079
896.376	18102
896.498	18095
896.619	18216
896.74	18045
896.861	18057
896.982	18403
897.103	18544
897.224	18334
897.345	18220
897.466	18194
897.587	18216
897.708	18456
897.828	18315
897.949	18163
898.07	18201
898.19	18270
898.311	18448
898.431	18239
898.552	18285
898.672	18266
898.792	18399
898.913	18334
899.033	18292
899.153	18194
899.273	18026
899.393	18034
899.513	18079
899.633	18098
899.753	18087
899.873	17984
899.993	18171
900.113	17980
900.232	18060
900.352	18007
900.472	17851
900.591	17863
900.711	17992
900.83	17805
900.95	18057
901.069	18003
901.189	17687
901.308	17566
901.427	17596
901.546	17509
901.665	17570
901.784	17402
901.904	17497
902.023	17223
902.141	17166
902.26	17052
902.379	17083
902.498	17029
902.617	16961
902.735	17003
902.854	16957
902.973	16927
903.091	16755
903.21	16725
903.328	16683
903.446	16611
903.565	16531
903.683	16550
903.801	16352
903.919	16440
904.038	16508
904.156	16356
904.274	16329
904.392	16234
904.51	16322
904.627	16215
904.745	16375
904.863	16318
904.981	16078
905.098	15987
905.216	15979
905.334	15911
905.451	15899
905.569	15949
905.686	15975
905.803	15941
905.921	15770
906.038	15895
906.155	15724
906.272	15675
906.389	15679
906.506	15564
906.623	15572
906.74	15500
906.857	15332
906.974	15405
907.091	15530
907.208	15637
907.324	15530
907.441	15298
907.557	15275
907.674	15135
907.79	15218
907.907	15199
908.023	15233
908.139	15138
908.256	15119
908.372	15024
908.488	15108
908.604	15020
908.72	14815
908.836	14815
908.952	14941
909.068	14933
909.184	15081
909.3	14785
909.415	14925
909.531	14788
909.647	14495
909.762	14590
909.878	14533
909.993	14621
910.108	14579
910.224	14629
910.339	14674
910.454	14465
910.57	14381
910.685	14404
910.8	14613
910.915	14514
911.03	14419
911.145	14370
911.259	14252
911.374	14317
911.489	14172
911.604	14157
911.718	13986
911.833	14012
911.947	13940
912.062	13845
912.176	14008
912.291	14008
912.405	14073
912.519	14115
912.633	14115
912.748	14092
912.862	13906
912.976	13795
913.09	13704
913.204	13761
913.318	13776
913.431	13928
913.545	13883
913.659	13955
913.772	13715
913.886	13727
914	13693
914.113	13734
914.226	13753
914.34	13723
914.453	13582
914.566	13677
914.68	13544
914.793	13525
914.906	13354
915.019	13304
915.132	13324
915.245	13289
915.358	13289
915.47	13396
915.583	13365
915.696	13301
915.809	13426
915.921	13468
916.034	13289
916.146	13213
916.259	13221
916.371	13301
916.483	13221
916.595	13190
916.708	13232
916.82	13126
916.932	13110
917.044	13175
917.156	13088
917.268	12954
917.38	12993
917.491	12970
917.603	13080
917.715	13080
917.826	13137
917.938	12966
918.049	12795
918.161	12947
918.272	13072
918.384	13076
918.495	12932
918.606	12875
918.717	12783
918.828	12829
918.939	12863
919.05	12787
919.161	12703
919.272	12582
919.383	12566
919.494	12791
919.604	13008
919.715	12783
919.826	12669
919.936	12726
920.047	12829
920.157	12768
920.267	13050
920.378	12798
920.488	12707
920.598	12935
920.708	13061
920.818	12837
920.928	12798
921.038	13080
921.148	13114
921.258	12810
921.368	12650
921.477	12593
921.587	12521
921.697	12422
921.806	12464
921.916	12403
922.025	12232
922.134	12251
922.244	12190
922.353	12194
922.462	12015
922.571	12064
922.68	11878
922.789	11882
922.898	11920
923.007	11779
923.116	11885
923.224	11836
923.333	11760
923.442	11786
923.55	11672
923.659	11775
923.767	11855
923.876	11623
923.984	11729
924.092	11653
924.201	11642
924.309	11699
924.417	11691
924.525	11570
924.633	11619
924.741	12498
924.849	11376
924.956	11570
925.064	11315
925.172	11303
925.279	11311
925.387	11433
925.494	11368
925.602	11406
925.709	11349
925.816	11299
925.924	11326
926.031	11398
926.138	11307
926.245	11410
926.352	11296
926.459	11391
926.566	11471
926.673	11303
926.779	11098
926.886	11162
926.993	11006
927.099	10972
927.206	10919
927.312	10957
927.419	11124
927.525	11041
927.631	11041
927.737	10976
927.843	10748
927.95	10672
928.056	10896
928.162	10961
928.267	10908
928.373	11417
928.479	10953
928.585	10622
928.69	10805
928.796	10873
928.901	10733
929.007	10660
929.112	10672
929.218	10641
929.323	10622
929.428	10664
929.533	10736
929.638	10519
929.743	10558
929.848	10607
929.953	10584
930.058	10466
930.163	10344
930.267	10314
930.372	10493
930.477	10363
930.581	10489
930.685	10394
930.79	10234
930.894	10185
930.998	10185
931.103	10314
931.207	9945
931.311	9915
931.415	9831
931.519	9656
931.623	9663
