Data from test_V78500241_3364.txt Node
Date: Fri Mar 25 14:57:08 CST 2022
User: usil
Spectrometer: V785-0024
Trigger mode: 0
Integration Time (sec): 4.000000E-1
Scans to average: 1
Nonlinearity correction enabled: false
Boxcar width: 0
Storing dark spectrum: false
XAxis mode: Wavelengths
Number of Pixels in Spectrum: 1024
>>>>>Begin Spectral Data<<<<<
801.071	21964
801.214	21873
801.356	21553
801.499	21500
801.641	21374
801.783	21313
801.926	21359
802.068	21317
802.211	21272
802.353	21058
802.496	20811
802.638	20845
802.78	20678
802.923	20739
803.065	20526
803.208	20571
803.35	20507
803.492	20792
803.635	20705
803.777	20606
803.919	20670
804.061	20914
804.204	20712
804.346	20518
804.488	20438
804.63	20568
804.773	20522
804.915	20583
805.057	20507
805.199	20640
805.341	20609
805.483	20587
805.626	20583
805.768	20541
805.91	20575
806.052	20621
806.194	20446
806.336	20769
806.478	20511
806.62	20568
806.762	20450
806.904	20731
807.046	21009
807.188	20796
807.33	20914
807.472	20914
807.614	20826
807.756	20857
807.898	20655
808.04	20503
808.182	20537
808.324	20606
808.465	20663
808.607	20800
808.749	20880
808.891	20925
809.033	20876
809.174	20948
809.316	20895
809.458	20781
809.6	20876
809.741	20982
809.883	20937
810.025	21108
810.166	20975
810.308	20986
810.45	20979
810.591	21005
810.733	20830
810.875	20705
811.016	20579
811.158	20594
811.299	20743
811.441	20762
811.582	20777
811.724	20762
811.865	20667
812.007	20617
812.148	20663
812.29	20629
812.431	20819
812.573	21032
812.714	21001
812.855	21135
812.997	21275
813.138	21428
813.279	21146
813.421	21131
813.562	20990
813.703	21009
813.845	20735
813.986	20568
814.127	20355
814.268	20168
814.41	20240
814.551	20138
814.692	20256
814.833	20138
814.974	20138
815.115	20145
815.256	20073
815.397	19970
815.539	20031
815.68	19970
815.821	19928
815.962	19909
816.103	19936
816.244	19772
816.385	19700
816.526	19643
816.666	19502
816.807	19381
816.948	19388
817.089	19438
817.23	19468
817.371	19285
817.512	19297
817.653	19297
817.793	19301
817.934	19472
818.075	19396
818.216	19365
818.356	19225
818.497	19057
818.638	18909
818.778	19031
818.919	19065
819.06	18958
819.2	19141
819.341	19168
819.481	19175
819.622	19304
819.762	19605
819.903	19483
820.043	19350
820.184	19403
820.324	19247
820.465	19343
820.605	19270
820.746	19293
820.886	19145
821.026	19266
821.167	19335
821.307	19377
821.447	19190
821.588	19129
821.728	19065
821.868	18840
822.008	18692
822.149	18703
822.289	18703
822.429	18536
822.569	18384
822.709	18407
822.849	18224
822.99	18319
823.13	18201
823.27	18171
823.41	18076
823.55	17920
823.69	18083
823.83	18022
823.97	17984
824.11	17821
824.25	17783
824.389	17767
824.529	17843
824.669	17760
824.809	17874
824.949	17904
825.089	17843
825.228	17870
825.368	17562
825.508	17676
825.648	17592
825.787	17596
825.927	17729
826.067	17539
826.206	17520
826.346	17539
826.485	17512
826.625	17467
826.765	17809
826.904	17695
827.044	17345
827.183	17288
827.323	17208
827.462	17330
827.601	17258
827.741	17212
827.88	17315
828.02	17155
828.159	17140
828.298	17383
828.437	17425
828.577	17284
828.716	17410
828.855	17315
828.994	16984
829.134	16984
829.273	17052
829.412	17045
829.551	17010
829.69	16858
829.829	17052
829.968	17102
830.107	17113
830.246	17045
830.385	17060
830.524	17022
830.663	16850
830.802	16793
830.941	16599
831.08	16607
831.219	16725
831.357	16664
831.496	16812
831.635	16668
831.774	16592
831.913	16592
832.051	16291
832.19	16443
832.329	16367
832.467	16455
832.606	16329
832.744	16363
832.883	16276
833.022	16295
833.16	16341
833.299	16432
833.437	16348
833.576	16325
833.714	16402
833.852	16466
833.991	16474
834.129	16462
834.267	16535
834.406	16344
834.544	16440
834.682	16356
834.821	16386
834.959	16470
835.097	16356
835.235	16535
835.373	16451
835.511	16424
835.65	16318
835.788	16360
835.926	16147
836.064	16181
836.202	16071
836.34	16497
836.478	16344
836.615	16284
836.753	16268
836.891	16360
837.029	16363
837.167	16246
837.305	16207
837.443	16204
837.58	16238
837.718	16257
837.856	16238
837.993	16185
838.131	16219
838.269	16116
838.406	16192
838.544	16143
838.681	15918
838.819	15857
838.956	15781
839.094	15755
839.231	15842
839.369	15873
839.506	16139
839.643	15983
839.781	15762
839.918	15614
840.055	15751
840.193	15816
840.33	15690
840.467	15671
840.604	15701
840.742	16074
840.879	15667
841.016	15709
841.153	15625
841.29	15930
841.427	15778
841.564	15800
841.701	15705
841.838	15701
841.975	15751
842.112	15675
842.249	15637
842.385	15663
842.522	15770
842.659	15526
842.796	15542
842.933	15557
843.069	15557
843.206	15519
843.343	15542
843.479	15477
843.616	15595
843.752	15325
843.889	15344
844.025	15370
844.162	15279
844.298	15515
844.435	15332
844.571	15222
844.708	15397
844.844	15481
844.98	15466
845.117	15492
845.253	15332
845.389	15169
845.525	15351
845.661	15313
845.798	15138
845.934	15214
846.07	15070
846.206	15077
846.342	15211
846.478	15116
846.614	15032
846.75	14842
846.886	14823
847.022	14918
847.158	14899
847.294	14925
847.429	15005
847.565	14929
847.701	15131
847.837	14663
847.972	14587
848.108	14781
848.244	14720
848.379	14537
848.515	14564
848.65	14438
848.786	14564
848.921	14457
849.057	14530
849.192	14606
849.328	14556
849.463	14457
849.598	14465
849.734	14389
849.869	14332
850.004	14298
850.14	14324
850.275	14328
850.41	14134
850.545	14221
850.68	14237
850.815	14332
850.95	14259
851.085	14423
851.22	14324
851.355	14298
851.49	14214
851.625	14244
851.76	14282
851.895	14134
852.03	14172
852.165	14214
852.299	14229
852.434	14355
852.569	14225
852.703	14313
852.838	14396
852.973	14343
853.107	14370
853.242	14218
853.376	14157
853.511	14084
853.645	14157
853.78	14370
853.914	14084
854.048	14134
854.183	14172
854.317	14119
854.451	14317
854.585	14164
854.72	14043
854.854	14267
854.988	14092
855.122	14088
855.256	13997
855.39	14187
855.524	14221
855.658	14100
855.792	14153
855.926	14164
856.06	14275
856.194	14202
856.327	14195
856.461	14180
856.595	14043
856.729	14046
856.862	14263
856.996	14183
857.13	14149
857.263	14172
857.397	14138
857.53	14168
857.664	14214
857.797	14248
857.931	14282
858.064	14210
858.197	14263
858.331	14172
858.464	14107
858.597	14012
858.731	14119
858.864	14168
858.997	14183
859.13	14256
859.263	14183
859.396	14267
859.529	14123
859.662	14088
859.795	14161
859.928	14187
860.061	14332
860.194	14282
860.327	14176
860.46	14107
860.592	14225
860.725	14195
860.858	14240
860.99	14096
861.123	14046
861.256	14081
861.388	14153
861.521	14956
861.653	14008
861.786	13997
861.918	14016
862.05	14039
862.183	14176
862.315	14134
862.447	14263
862.58	14058
862.712	13841
862.844	13833
862.976	13967
863.108	13967
863.24	14324
863.372	13769
863.504	13917
863.636	13852
863.768	13978
863.9	13898
864.032	13879
864.164	13864
864.296	13936
864.428	13997
864.559	14001
864.691	14024
864.823	14046
864.954	13940
865.086	13993
865.217	13860
865.349	13841
865.48	13814
865.612	13909
865.743	14073
865.875	13898
866.006	13841
866.137	13833
866.269	13921
866.4	13928
866.531	13875
866.662	13989
866.793	13837
866.924	13833
867.055	14001
867.186	13883
867.317	13830
867.448	13788
867.579	13890
867.71	13856
867.841	13845
867.972	13845
868.103	13951
868.233	13890
868.364	13989
868.495	13947
868.625	14153
868.756	14290
868.886	14092
869.017	14100
869.147	14259
869.278	14290
869.408	14195
869.539	14084
869.669	14267
869.799	14229
869.929	14237
870.06	14286
870.19	14465
870.32	14514
870.45	14541
870.58	14541
870.71	14686
870.84	14655
870.97	14450
871.1	14587
871.23	14800
871.36	14708
871.489	14606
871.619	14807
871.749	14762
871.879	14807
872.008	14910
872.138	14796
872.267	14781
872.397	14659
872.526	14617
872.656	14697
872.785	14530
872.915	14811
873.044	14853
873.173	14765
873.303	14830
873.432	14842
873.561	14800
873.69	14864
873.819	14937
873.948	14918
874.077	14864
874.206	14785
874.335	14800
874.464	14948
874.593	15142
874.722	15074
874.851	15100
874.979	15184
875.108	15127
875.237	15100
875.365	14956
875.494	15093
875.623	15173
875.751	15043
875.88	15237
876.008	15351
876.136	15348
876.265	15500
876.393	15629
876.521	15705
876.65	15564
876.778	15488
876.906	15443
877.034	15439
877.162	15622
877.29	15500
877.418	15523
877.546	15500
877.674	15679
877.802	15652
877.93	15561
878.058	15408
878.185	15477
878.313	15500
878.441	15561
878.568	15344
878.696	15523
878.824	15515
878.951	15587
879.079	15778
879.206	15827
879.333	15698
879.461	15660
879.588	15701
879.715	15774
879.842	15797
879.97	15568
880.097	15523
880.224	15458
880.351	15359
880.478	15363
880.605	15454
880.732	15374
880.859	15629
880.986	15424
881.112	15466
881.239	15264
881.366	15313
881.493	15070
881.619	15005
881.746	15150
881.872	15036
881.999	15036
882.125	15039
882.252	15226
882.378	15108
882.505	15097
882.631	15024
882.757	14853
882.883	14902
883.01	14872
883.136	14861
883.262	14735
883.388	14815
883.514	14861
883.64	14956
883.766	14746
883.892	14629
884.018	14785
884.143	14921
884.269	14971
884.395	14610
884.52	14537
884.646	14602
884.772	14503
884.897	14488
885.023	14594
885.148	14712
885.274	14735
885.399	14716
885.524	14518
885.65	14610
885.775	14621
885.9	14571
886.025	14765
886.15	14610
886.275	14583
886.4	14495
886.525	14594
886.65	14484
886.775	14541
886.9	14724
887.025	14864
887.149	14545
887.274	14404
887.399	14396
887.523	14427
887.648	14317
887.773	14328
887.897	14461
888.021	14530
888.146	14461
888.27	14469
888.395	14507
888.519	14499
888.643	14423
888.767	14484
888.891	14366
889.015	14229
889.139	14290
889.263	14252
889.387	14332
889.511	14461
889.635	14339
889.759	14252
889.883	14172
890.006	14351
890.13	14408
890.254	14206
890.377	14214
890.501	14149
890.624	14039
890.748	14138
890.871	14081
890.995	13955
891.118	14046
891.241	13963
891.364	13986
891.488	14092
891.611	13967
891.734	14020
891.857	13974
891.98	14058
892.103	14069
892.226	14020
892.349	14005
892.471	13856
892.594	13894
892.717	14012
892.839	13909
892.962	13959
893.085	14054
893.207	14008
893.33	13944
893.452	13921
893.575	14058
893.697	13963
893.819	14130
893.941	14115
894.064	14123
894.186	13967
894.308	13947
894.43	14016
894.552	14161
894.674	14069
894.796	13970
894.918	13936
895.04	14077
895.161	14161
895.283	14111
895.405	13955
895.526	14024
895.648	14123
895.769	14138
895.891	14183
896.012	14237
896.134	14240
896.255	14134
896.376	14138
896.498	14142
896.619	14153
896.74	14084
896.861	14206
896.982	14488
897.103	14667
897.224	14488
897.345	14415
897.466	14332
897.587	14412
897.708	14526
897.828	14454
897.949	14480
898.07	14355
898.19	14389
898.311	14469
898.431	14419
898.552	14518
898.672	14564
898.792	14659
898.913	14450
899.033	14480
899.153	14457
899.273	14328
899.393	14336
899.513	14355
899.633	14358
899.753	14423
899.873	14256
899.993	14347
900.113	14309
900.232	14263
900.352	14396
900.472	14187
900.591	14096
900.711	14176
900.83	14073
900.95	14396
901.069	14347
901.189	13989
901.308	13890
901.427	13860
901.546	13940
901.665	13955
901.784	13906
901.904	13818
902.023	13582
902.141	13472
902.26	13415
902.379	13525
902.498	13460
902.617	13407
902.735	13544
902.854	13502
902.973	13392
903.091	13183
903.21	13168
903.328	13175
903.446	13118
903.565	13091
903.683	13050
903.801	12954
903.919	13031
904.038	12913
904.156	12863
904.274	12844
904.392	12745
904.51	12852
904.627	12890
904.745	12867
904.863	12943
904.981	12616
905.098	12407
905.216	12570
905.334	12506
905.451	12574
905.569	12635
905.686	12585
905.803	12559
905.921	12346
906.038	12456
906.155	12342
906.272	12315
906.389	12334
906.506	12220
906.623	12243
906.74	12175
906.857	11961
906.974	12095
907.091	12285
907.208	12285
907.324	12140
907.441	12148
907.557	11863
907.674	11882
907.79	11874
907.907	11794
908.023	11958
908.139	11863
908.256	11863
908.372	11828
908.488	11821
908.604	11775
908.72	11562
908.836	11596
908.952	11634
909.068	11642
909.184	11752
909.3	11684
909.415	11695
909.531	11615
909.647	11474
909.762	11516
909.878	11425
909.993	11547
910.108	11376
910.224	11406
910.339	11398
910.454	11345
910.57	11315
910.685	11246
910.8	11512
910.915	11516
911.03	11227
911.145	11166
911.259	11121
911.374	11162
911.489	11117
911.604	10927
911.718	10869
911.833	10877
911.947	10782
912.062	10714
912.176	10911
912.291	10934
912.405	10816
912.519	11052
912.633	11086
912.748	10999
912.862	10915
912.976	10748
913.09	10637
913.204	10771
913.318	10755
913.431	10847
913.545	10828
913.659	10957
913.772	10809
913.886	10714
914	10668
914.113	10744
914.226	10828
914.34	10706
914.453	10584
914.566	10755
914.68	10653
914.793	10630
914.906	10413
915.019	10390
915.132	10322
915.245	10417
915.358	10428
915.47	10371
915.583	10428
915.696	10424
915.809	10538
915.921	10535
916.034	10356
916.146	10386
916.259	10360
916.371	10466
916.483	10356
916.595	10329
916.708	10322
916.82	10360
916.932	10234
917.044	10284
917.156	10257
917.268	10261
917.38	10192
917.491	10242
917.603	10257
917.715	10375
917.826	10386
917.938	10211
918.049	10131
918.161	10181
918.272	10295
918.384	10333
918.495	10257
918.606	10051
918.717	10036
918.828	10128
918.939	10177
919.05	9972
919.161	10147
919.272	9926
919.383	9911
919.494	10234
919.604	10386
919.715	10204
919.826	10021
919.936	10162
920.047	10082
920.157	10128
920.267	10322
920.378	10150
920.488	10120
920.598	10257
920.708	10451
920.818	10325
920.928	10352
921.038	10512
921.148	10417
921.258	10204
921.368	10131
921.477	9991
921.587	10078
921.697	9895
921.806	9956
921.916	9941
922.025	9793
922.134	9671
922.244	9652
922.353	9705
922.462	9549
922.571	9507
922.68	9435
922.789	9405
922.898	9401
923.007	9340
923.116	9420
923.224	9431
923.333	9428
923.442	9279
923.55	9294
923.659	9348
923.767	9283
923.876	9249
923.984	9397
924.092	9150
924.201	9249
924.309	9245
924.417	9260
924.525	9154
924.633	9226
924.741	10169
924.849	9039
924.956	9218
925.064	9074
925.172	8982
925.279	9028
925.387	9001
925.494	9024
925.602	9230
925.709	9173
925.816	8956
925.924	9020
926.031	9116
926.138	9119
926.245	9104
926.352	9001
926.459	9138
926.566	9161
926.673	8941
926.779	8910
926.886	8990
926.993	8804
927.099	8716
927.206	8701
927.312	8746
927.419	8746
927.525	8743
927.631	8864
927.737	8648
927.843	8579
927.95	8556
928.056	8663
928.162	8693
928.267	8731
928.373	9389
928.479	8773
928.585	8613
928.69	8629
928.796	8693
928.901	8579
929.007	8492
929.112	8655
929.218	8549
929.323	8457
929.428	8469
929.533	8625
929.638	8446
929.743	8503
929.848	8613
929.953	8507
930.058	8366
930.163	8282
930.267	8233
930.372	8381
930.477	8259
930.581	8469
930.685	8313
930.79	8240
930.894	8229
930.998	8210
931.103	8355
931.207	7944
931.311	7936
931.415	7928
931.519	7780
931.623	7742
