Data from test_V78500241_1064.txt Node
Date: Fri Mar 25 14:41:07 CST 2022
User: usil
Spectrometer: V785-0024
Trigger mode: 0
Integration Time (sec): 4.000000E-1
Scans to average: 1
Nonlinearity correction enabled: false
Boxcar width: 0
Storing dark spectrum: false
XAxis mode: Wavelengths
Number of Pixels in Spectrum: 1024
>>>>>Begin Spectral Data<<<<<
801.071	22843
801.214	22835
801.356	22443
801.499	22268
801.641	22196
801.783	22169
801.926	22143
802.068	22090
802.211	22059
802.353	21956
802.496	21720
802.638	21701
802.78	21713
802.923	21606
803.065	21625
803.208	21523
803.35	21561
803.492	21622
803.635	21583
803.777	21545
803.919	21583
804.061	21819
804.204	21587
804.346	21412
804.488	21374
804.63	21439
804.773	21466
804.915	21393
805.057	21606
805.199	21367
805.341	21618
805.483	21648
805.626	21378
805.768	21458
805.91	21633
806.052	21485
806.194	21466
806.336	21660
806.478	21412
806.62	21507
806.762	21641
806.904	21576
807.046	21964
807.188	21857
807.33	21892
807.472	21960
807.614	21781
807.756	21960
807.898	21759
808.04	21724
808.182	21838
808.324	21903
808.465	21930
808.607	22204
808.749	22405
808.891	22508
809.033	22580
809.174	22440
809.316	22249
809.458	22287
809.6	22101
809.741	22188
809.883	22082
810.025	22116
810.166	22265
810.308	22093
810.45	22112
810.591	22021
810.733	21789
810.875	21846
811.016	21561
811.158	21644
811.299	21766
811.441	21823
811.582	21759
811.724	21557
811.865	21549
812.007	21637
812.148	21618
812.29	21701
812.431	21804
812.573	21983
812.714	22090
812.855	22074
812.997	22246
813.138	22284
813.279	22211
813.421	22287
813.562	22158
813.703	21953
813.845	21819
813.986	21526
814.127	21397
814.268	21279
814.41	21287
814.551	21310
814.692	21348
814.833	21184
814.974	21116
815.115	21169
815.256	21085
815.397	21020
815.539	21135
815.68	20971
815.821	20921
815.962	21017
816.103	21001
816.244	20712
816.385	20743
816.526	20720
816.666	20511
816.807	20370
816.948	20507
817.089	20488
817.23	20347
817.371	20286
817.512	20355
817.653	20385
817.793	20282
817.934	20377
818.075	20507
818.216	20305
818.356	20305
818.497	20298
818.638	20077
818.778	20039
818.919	19951
819.06	20145
819.2	20161
819.341	20202
819.481	20172
819.622	20347
819.762	20571
819.903	20495
820.043	20332
820.184	20427
820.324	20244
820.465	20317
820.605	20511
820.746	20355
820.886	20081
821.026	20298
821.167	20286
821.307	20313
821.447	20176
821.588	20164
821.728	19940
821.868	19940
822.008	19761
822.149	19742
822.289	19723
822.429	19521
822.569	19365
822.709	19422
822.849	19232
822.99	19152
823.13	19225
823.27	19129
823.41	19050
823.55	18867
823.69	18958
823.83	19012
823.97	18951
824.11	18954
824.25	18878
824.389	18795
824.529	18875
824.669	18852
824.809	18943
824.949	18932
825.089	18791
825.228	18905
825.368	18551
825.508	18555
825.648	18696
825.787	18658
825.927	18726
826.067	18582
826.206	18547
826.346	18597
826.485	18604
826.625	18589
826.765	18757
826.904	18707
827.044	18338
827.183	18292
827.323	18277
827.462	18190
827.601	18266
827.741	18209
827.88	18311
828.02	18174
828.159	18266
828.298	18433
828.437	18251
828.577	18273
828.716	18365
828.855	18334
828.994	18011
829.134	18064
829.273	18136
829.412	18011
829.551	18034
829.69	18117
829.829	18011
829.968	18152
830.107	18011
830.246	18087
830.385	18011
830.524	17832
830.663	17790
830.802	17824
830.941	17608
831.08	17718
831.219	17668
831.357	17726
831.496	17908
831.635	17687
831.774	17532
831.913	17524
832.051	17364
832.19	17482
832.329	17600
832.467	17520
832.606	17322
832.744	17322
832.883	17315
833.022	17322
833.16	17326
833.299	17455
833.437	17433
833.576	17383
833.714	17353
833.852	17478
833.991	17501
834.129	17497
834.267	17528
834.406	17410
834.544	17471
834.682	17520
834.821	17360
834.959	17619
835.097	17463
835.235	17402
835.373	17395
835.511	17402
835.65	17334
835.788	17280
835.926	17178
836.064	17086
836.202	17174
836.34	17296
836.478	17417
836.615	17242
836.753	17334
836.891	17353
837.029	17296
837.167	17364
837.305	17231
837.443	17181
837.58	17136
837.718	17212
837.856	17212
837.993	17079
838.131	17170
838.269	17113
838.406	17311
838.544	17033
838.681	16854
838.819	16820
838.956	16706
839.094	16660
839.231	16824
839.369	16812
839.506	17136
839.643	16919
839.781	16771
839.918	16637
840.055	16740
840.193	16744
840.33	16687
840.467	16691
840.604	16786
840.742	16957
840.879	16546
841.016	16584
841.153	16710
841.29	16778
841.427	16656
841.564	16793
841.701	16660
841.838	16679
841.975	16672
842.112	16618
842.249	16485
842.385	16371
842.522	16664
842.659	16443
842.796	16451
842.933	16558
843.069	16443
843.206	16443
843.343	16558
843.479	16546
843.616	16508
843.752	16188
843.889	16150
844.025	16375
844.162	16398
844.298	16333
844.435	16192
844.571	16280
844.708	16333
844.844	16466
844.98	16474
845.117	16478
845.253	16291
845.389	16287
845.525	16447
845.661	16470
845.798	16569
845.934	16748
846.07	16713
846.206	16801
846.342	16771
846.478	16440
846.614	16211
846.75	15983
846.886	15857
847.022	15865
847.158	15842
847.294	15857
847.429	15903
847.565	15766
847.701	16044
847.837	15523
847.972	15488
848.108	15641
848.244	15591
848.379	15408
848.515	15336
848.65	15439
848.786	15454
848.921	15435
849.057	15526
849.192	15481
849.328	15367
849.463	15469
849.598	15374
849.734	15306
849.869	15298
850.004	15199
850.14	15199
850.275	15275
850.41	15081
850.545	15085
850.68	15077
850.815	15081
850.95	15146
851.085	15321
851.22	15329
851.355	15157
851.49	15157
851.625	15074
851.76	15131
851.895	15081
852.03	15104
852.165	15199
852.299	15188
852.434	15233
852.569	15150
852.703	15188
852.838	15222
852.973	15340
853.107	15245
853.242	15169
853.376	14982
853.511	14933
853.645	15009
853.78	15058
853.914	15138
854.048	15005
854.183	15043
854.317	15043
854.451	15260
854.585	15176
854.72	15028
854.854	15047
854.988	15043
855.122	15043
855.256	14979
855.39	15013
855.524	15066
855.658	15032
855.792	15043
855.926	15081
856.06	15100
856.194	15028
856.327	15020
856.461	14994
856.595	14979
856.729	14960
856.862	15116
856.996	15013
857.13	15135
857.263	15142
857.397	15256
857.53	15047
857.664	15104
857.797	15070
857.931	15131
858.064	15097
858.197	15199
858.331	14990
858.464	15001
858.597	14906
858.731	15017
858.864	15058
858.997	15005
859.13	15036
859.263	15047
859.396	14998
859.529	14982
859.662	15013
859.795	14918
859.928	15024
860.061	15207
860.194	15260
860.327	15051
860.46	14960
860.592	15062
860.725	15230
860.858	15127
860.99	14971
861.123	14948
861.256	14906
861.388	14982
861.521	15545
861.653	14834
861.786	14819
861.918	14861
862.05	14830
862.183	14952
862.315	14967
862.447	15089
862.58	15024
862.712	14754
862.844	14686
862.976	14872
863.108	14800
863.24	15291
863.372	14708
863.504	14762
863.636	14754
863.768	14849
863.9	14807
864.032	14716
864.164	14750
864.296	14750
864.428	14853
864.559	14914
864.691	14849
864.823	14868
864.954	14720
865.086	14819
865.217	14693
865.349	14655
865.48	14792
865.612	14819
865.743	14861
865.875	14773
866.006	14686
866.137	14720
866.269	14746
866.4	14750
866.531	14712
866.662	14556
866.793	14625
866.924	14697
867.055	14792
867.186	14746
867.317	14667
867.448	14678
867.579	14773
867.71	14705
867.841	14644
867.972	14739
868.103	14750
868.233	14754
868.364	14678
868.495	14811
868.625	14971
868.756	15058
868.886	14845
869.017	14819
869.147	15146
869.278	15028
869.408	14986
869.539	15055
869.669	15074
869.799	15055
869.929	15119
870.06	15077
870.19	15298
870.32	15374
870.45	15317
870.58	15435
870.71	15572
870.84	15488
870.97	15359
871.1	15298
871.23	15580
871.36	15568
871.489	15473
871.619	15656
871.749	15584
871.879	15557
872.008	15587
872.138	15625
872.267	15644
872.397	15447
872.526	15401
872.656	15386
872.785	15416
872.915	15679
873.044	15698
873.173	15644
873.303	15709
873.432	15644
873.561	15812
873.69	15698
873.819	15622
873.948	15747
874.077	15606
874.206	15576
874.335	15667
874.464	15759
874.593	15960
874.722	15987
874.851	16036
874.979	15998
875.108	15960
875.237	15934
875.365	15857
875.494	15892
875.623	16032
875.751	15941
875.88	16101
876.008	16063
876.136	16242
876.265	16363
876.393	16516
876.521	16398
876.65	16504
876.778	16424
876.906	16451
877.034	16322
877.162	16367
877.29	16371
877.418	16489
877.546	16352
877.674	16443
877.802	16436
877.93	16360
878.058	16428
878.185	16329
878.313	16386
878.441	16440
878.568	16322
878.696	16257
878.824	16500
878.951	16675
879.079	16588
879.206	16873
879.333	16778
879.461	16790
879.588	16809
879.715	16782
879.842	17010
879.97	16790
880.097	16474
880.224	16360
880.351	16417
880.478	16291
880.605	16272
880.732	16303
880.859	16432
880.986	16299
881.112	16291
881.239	16101
881.366	16048
881.493	16059
881.619	16017
881.746	15918
881.872	15941
881.999	15911
882.125	15991
882.252	15968
882.378	16082
882.505	16143
882.631	16025
882.757	15766
882.883	15888
883.01	15774
883.136	15679
883.262	15496
883.388	15584
883.514	15770
883.64	15895
883.766	15641
883.892	15629
884.018	15538
884.143	15641
884.269	15831
884.395	15523
884.52	15363
884.646	15534
884.772	15317
884.897	15435
885.023	15504
885.148	15549
885.274	15637
885.399	15542
885.524	15473
885.65	15435
885.775	15561
885.9	15481
886.025	15599
886.15	15481
886.275	15306
886.4	15355
886.525	15424
886.65	15378
886.775	15340
886.9	15511
887.025	15614
887.149	15431
887.274	15226
887.399	15256
887.523	15252
887.648	15116
887.773	15165
887.897	15344
888.021	15355
888.146	15226
888.27	15389
888.395	15389
888.519	15291
888.643	15359
888.767	15245
888.891	15180
889.015	15051
889.139	15116
889.263	14982
889.387	15203
889.511	15469
889.635	15233
889.759	15051
889.883	15009
890.006	15039
890.13	15173
890.254	15024
890.377	15062
890.501	14895
890.624	14838
890.748	14929
890.871	14765
890.995	14731
891.118	14697
891.241	14777
891.364	14727
891.488	14834
891.611	14845
891.734	14823
891.857	14785
891.98	14792
892.103	14868
892.226	14785
892.349	14716
892.471	14659
892.594	14792
892.717	14773
892.839	14712
892.962	14708
893.085	14754
893.207	14785
893.33	14632
893.452	14598
893.575	14807
893.697	14743
893.819	14921
893.941	14929
894.064	14899
894.186	14686
894.308	14735
894.43	14838
894.552	14941
894.674	14823
894.796	14674
894.918	14796
895.04	14712
895.161	14804
895.283	14815
895.405	14670
895.526	14769
895.648	14796
895.769	14857
895.891	14826
896.012	14990
896.134	14967
896.255	14861
896.376	14792
896.498	14872
896.619	14956
896.74	14899
896.861	14998
896.982	15222
897.103	15363
897.224	15146
897.345	15146
897.466	15112
897.587	15108
897.708	15272
897.828	15226
897.949	15070
898.07	15001
898.19	15100
898.311	15230
898.431	15199
898.552	15214
898.672	15291
898.792	15294
898.913	15230
899.033	15260
899.153	15097
899.273	15005
899.393	15112
899.513	15146
899.633	15039
899.753	15070
899.873	15077
899.993	15119
900.113	15077
900.232	15192
900.352	15058
900.472	14979
900.591	14880
900.711	14937
900.83	14853
900.95	15074
901.069	15062
901.189	14823
901.308	14701
901.427	14621
901.546	14689
901.665	14613
901.784	14693
901.904	14533
902.023	14423
902.141	14271
902.26	14225
902.379	14221
902.498	14176
902.617	14046
902.735	14191
902.854	14096
902.973	13989
903.091	13887
903.21	13959
903.328	13928
903.446	13727
903.565	13719
903.683	13753
903.801	13590
903.919	13651
904.038	13662
904.156	13468
904.274	13594
904.392	13556
904.51	13491
904.627	13480
904.745	13582
904.863	13537
904.981	13312
905.098	13179
905.216	13190
905.334	13263
905.451	13289
905.569	13221
905.686	13270
905.803	13213
905.921	13053
906.038	13183
906.155	13065
906.272	12913
906.389	12943
906.506	12787
906.623	12829
906.74	12821
906.857	12654
906.974	12783
907.091	12867
907.208	12916
907.324	12787
907.441	12711
907.557	12494
907.674	12620
907.79	12456
907.907	12350
908.023	12513
908.139	12570
908.256	12502
908.372	12441
908.488	12483
908.604	12247
908.72	12228
908.836	12334
908.952	12182
909.068	12197
909.184	12407
909.3	12270
909.415	12346
909.531	12239
909.647	11969
909.762	12068
909.878	12049
909.993	12003
910.108	12064
910.224	12034
910.339	12049
910.454	11977
910.57	11935
910.685	11764
910.8	12045
910.915	12041
911.03	11893
911.145	11783
911.259	11737
911.374	11729
911.489	11566
911.604	11623
911.718	11596
911.833	11528
911.947	11387
912.062	11258
912.176	11520
912.291	11558
912.405	11436
912.519	11691
912.633	11657
912.748	11486
912.862	11421
912.976	11395
913.09	11197
913.204	11330
913.318	11402
913.431	11429
913.545	11455
913.659	11463
913.772	11387
913.886	11231
914	11162
914.113	11364
914.226	11406
914.34	11231
914.453	11197
914.566	11277
914.68	11159
914.793	11162
914.906	11006
915.019	10953
915.132	10820
915.245	11014
915.358	10976
915.47	11025
915.583	11003
915.696	10953
915.809	11079
915.921	11060
916.034	10957
916.146	10946
916.259	10892
916.371	10999
916.483	10968
916.595	10881
916.708	10858
916.82	10908
916.932	10786
917.044	10854
917.156	10843
917.268	10740
917.38	10740
917.491	10759
917.603	10809
917.715	10900
917.826	10881
917.938	10687
918.049	10660
918.161	10774
918.272	10862
918.384	10923
918.495	10725
918.606	10683
918.717	10599
918.828	10599
918.939	10615
919.05	10512
919.161	10599
919.272	10405
919.383	10459
919.494	10679
919.604	10900
919.715	10702
919.826	10622
919.936	10634
920.047	10736
920.157	10687
920.267	10892
920.378	10714
920.488	10660
920.598	10972
920.708	10995
920.818	10824
920.928	10847
921.038	11018
921.148	10919
921.258	10706
921.368	10580
921.477	10531
921.587	10466
921.697	10379
921.806	10519
921.916	10402
922.025	10143
922.134	10192
922.244	10147
922.353	10234
922.462	10131
922.571	10006
922.68	9857
922.789	9823
922.898	9854
923.007	9785
923.116	9888
923.224	9899
923.333	9888
923.442	9724
923.55	9747
923.659	9751
923.767	9747
923.876	9679
923.984	9816
924.092	9709
924.201	9709
924.309	9732
924.417	9709
924.525	9736
924.633	9720
924.741	10588
924.849	9504
924.956	9686
925.064	9515
925.172	9450
925.279	9466
925.387	9545
925.494	9492
925.602	9686
925.709	9515
925.816	9450
925.924	9496
926.031	9511
926.138	9519
926.245	9492
926.352	9412
926.459	9568
926.566	9606
926.673	9519
926.779	9397
926.886	9370
926.993	9253
927.099	9203
927.206	9188
927.312	9161
927.419	9188
927.525	9211
927.631	9245
927.737	9165
927.843	9017
927.95	8921
928.056	9043
928.162	9032
928.267	9119
928.373	9793
928.479	9203
928.585	8982
928.69	8971
928.796	9089
928.901	8994
929.007	8902
929.112	9020
929.218	8925
929.323	8952
929.428	8883
929.533	9093
929.638	8899
929.743	8815
929.848	8952
929.953	8861
930.058	8861
930.163	8621
930.267	8632
930.372	8838
930.477	8655
930.581	8864
930.685	8769
930.79	8606
930.894	8568
930.998	8655
931.103	8735
931.207	8412
931.311	8336
931.415	8282
931.519	8092
931.623	8100
