Data from test_V78500241_1811.txt Node
Date: Fri Mar 25 14:46:19 CST 2022
User: usil
Spectrometer: V785-0024
Trigger mode: 0
Integration Time (sec): 4.000000E-1
Scans to average: 1
Nonlinearity correction enabled: false
Boxcar width: 0
Storing dark spectrum: false
XAxis mode: Wavelengths
Number of Pixels in Spectrum: 1024
>>>>>Begin Spectral Data<<<<<
801.071	22169
801.214	21994
801.356	21816
801.499	21675
801.641	21591
801.783	21485
801.926	21485
802.068	21534
802.211	21408
802.353	21340
802.496	21157
802.638	20952
802.78	21146
802.923	20982
803.065	20929
803.208	20819
803.35	20857
803.492	21001
803.635	21077
803.777	20891
803.919	20944
804.061	21188
804.204	21058
804.346	20746
804.488	20800
804.63	20724
804.773	20712
804.915	20754
805.057	20864
805.199	20819
805.341	20895
805.483	20895
805.626	20876
805.768	20868
805.91	20796
806.052	20861
806.194	20743
806.336	20975
806.478	20701
806.62	20758
806.762	20861
806.904	20895
807.046	21222
807.188	21119
807.33	21066
807.472	21089
807.614	20960
807.756	20902
807.898	20979
808.04	20842
808.182	20887
808.324	20815
808.465	20914
808.607	21028
808.749	21199
808.891	21363
809.033	21252
809.174	21192
809.316	21241
809.458	21154
809.6	21173
809.741	21230
809.883	21291
810.025	21313
810.166	21386
810.308	21329
810.45	21412
810.591	21127
810.733	21096
810.875	20994
811.016	20826
811.158	20834
811.299	21005
811.441	21089
811.582	21055
811.724	21085
811.865	20933
812.007	20960
812.148	20937
812.29	21005
812.431	21055
812.573	21211
812.714	21332
812.855	21500
812.997	21561
813.138	21603
813.279	21606
813.421	21336
813.562	21359
813.703	21131
813.845	21024
813.986	20834
814.127	20640
814.268	20663
814.41	20549
814.551	20461
814.692	20571
814.833	20457
814.974	20541
815.115	20446
815.256	20343
815.397	20358
815.539	20358
815.68	20237
815.821	20183
815.962	20301
816.103	20278
816.244	20073
816.385	20077
816.526	19955
816.666	19852
816.807	19727
816.948	19791
817.089	19689
817.23	19586
817.371	19567
817.512	19635
817.653	19624
817.793	19525
817.934	19662
818.075	19628
818.216	19746
818.356	19540
818.497	19415
818.638	19384
818.778	19343
818.919	19304
819.06	19377
819.2	19518
819.341	19441
819.481	19628
819.622	19597
819.762	19841
819.903	19776
820.043	19639
820.184	19681
820.324	19632
820.465	19750
820.605	19597
820.746	19521
820.886	19548
821.026	19601
821.167	19548
821.307	19616
821.447	19586
821.588	19354
821.728	19392
821.868	19171
822.008	19065
822.149	19076
822.289	18962
822.429	18783
822.569	18631
822.709	18604
822.849	18555
822.99	18346
823.13	18513
823.27	18471
823.41	18342
823.55	18194
823.69	18300
823.83	18190
823.97	18220
824.11	18136
824.25	18060
824.389	18125
824.529	18220
824.669	18133
824.809	18201
824.949	18178
825.089	18209
825.228	18133
825.368	17885
825.508	17931
825.648	17980
825.787	17908
825.927	17901
826.067	17874
826.206	17874
826.346	17999
826.485	17866
826.625	17729
826.765	18003
826.904	17885
827.044	17619
827.183	17646
827.323	17558
827.462	17524
827.601	17615
827.741	17455
827.88	17455
828.02	17558
828.159	17528
828.298	17543
828.437	17627
828.577	17581
828.716	17684
828.855	17558
828.994	17372
829.134	17353
829.273	17307
829.412	17322
829.551	17200
829.69	17220
829.829	17326
829.968	17322
830.107	17395
830.246	17242
830.385	17208
830.524	17140
830.663	17151
830.802	17033
830.941	16850
831.08	16862
831.219	17136
831.357	17067
831.496	17193
831.635	16885
831.774	16862
831.913	16816
832.051	16675
832.19	16771
832.329	16740
832.467	16580
832.606	16637
832.744	16656
832.883	16622
833.022	16508
833.16	16672
833.299	16580
833.437	16630
833.576	16774
833.714	16656
833.852	16683
833.991	16683
834.129	16828
834.267	16797
834.406	16679
834.544	16748
834.682	16736
834.821	16736
834.959	16786
835.097	16759
835.235	16729
835.373	16664
835.511	16725
835.65	16584
835.788	16592
835.926	16531
836.064	16424
836.202	16421
836.34	16649
836.478	16774
836.615	16599
836.753	16649
836.891	16637
837.029	16630
837.167	16561
837.305	16424
837.443	16478
837.58	16542
837.718	16462
837.856	16462
837.993	16440
838.131	16481
838.269	16318
838.406	16386
838.544	16341
838.681	16188
838.819	16166
838.956	15850
839.094	15911
839.231	16071
839.369	16147
839.506	16398
839.643	16211
839.781	16040
839.918	15968
840.055	15983
840.193	15934
840.33	16029
840.467	15972
840.604	16036
840.742	16200
840.879	15888
841.016	15994
841.153	15857
841.29	16105
841.427	16051
841.564	16040
841.701	16006
841.838	15907
841.975	16002
842.112	15892
842.249	15842
842.385	15694
842.522	15903
842.659	15850
842.796	15812
842.933	15751
843.069	15690
843.206	15713
843.343	15865
843.479	15774
843.616	15835
843.752	15580
843.889	15545
844.025	15785
844.162	15504
844.298	15663
844.435	15545
844.571	15431
844.708	15576
844.844	15785
844.98	15762
845.117	15778
845.253	15580
845.389	15485
845.525	15515
845.661	15466
845.798	15340
845.934	15439
846.07	15332
846.206	15485
846.342	15568
846.478	15294
846.614	15157
846.75	15173
846.886	15195
847.022	15176
847.158	15157
847.294	15142
847.429	15135
847.565	15112
847.701	15420
847.837	14883
847.972	14788
848.108	14861
848.244	14952
848.379	14765
848.515	14720
848.65	14613
848.786	14762
848.921	14701
849.057	14826
849.192	14853
849.328	14838
849.463	14754
849.598	14640
849.734	14689
849.869	14579
850.004	14537
850.14	14526
850.275	14514
850.41	14476
850.545	14476
850.68	14469
850.815	14560
850.95	14499
851.085	14743
851.22	14610
851.355	14438
851.49	14469
851.625	14473
851.76	14446
851.895	14419
852.03	14355
852.165	14457
852.299	14503
852.434	14648
852.569	14480
852.703	14438
852.838	14617
852.973	14655
853.107	14579
853.242	14393
853.376	14339
853.511	14259
853.645	14271
853.78	14648
853.914	14339
854.048	14275
854.183	14233
854.317	14393
854.451	14533
854.585	14370
854.72	14313
854.854	14419
854.988	14290
855.122	14404
855.256	14286
855.39	14339
855.524	14476
855.658	14442
855.792	14412
855.926	14366
856.06	14507
856.194	14552
856.327	14366
856.461	14320
856.595	14374
856.729	14347
856.862	14454
856.996	14457
857.13	14415
857.263	14499
857.397	14522
857.53	14450
857.664	14427
857.797	14377
857.931	14427
858.064	14415
858.197	14434
858.331	14423
858.464	14385
858.597	14218
858.731	14355
858.864	14347
858.997	14362
859.13	14347
859.263	14423
859.396	14492
859.529	14366
859.662	14332
859.795	14244
859.928	14419
860.061	14552
860.194	14484
860.327	14393
860.46	14442
860.592	14412
860.725	14545
860.858	14473
860.99	14351
861.123	14294
861.256	14309
861.388	14351
861.521	15051
861.653	14374
861.786	14092
861.918	14187
862.05	14385
862.183	14347
862.315	14370
862.447	14461
862.58	14370
862.712	14145
862.844	14168
862.976	14278
863.108	14221
863.24	14503
863.372	14123
863.504	14244
863.636	14111
863.768	14145
863.9	14107
864.032	14142
864.164	14138
864.296	14214
864.428	14195
864.559	14202
864.691	14240
864.823	14252
864.954	14172
865.086	14214
865.217	14107
865.349	14134
865.48	14107
865.612	14214
865.743	14263
865.875	14031
866.006	14138
866.137	14081
866.269	14164
866.4	14115
866.531	14172
866.662	14088
866.793	14062
866.924	14115
867.055	14100
867.186	14107
867.317	14050
867.448	14001
867.579	14027
867.71	13978
867.841	14039
867.972	14157
868.103	14092
868.233	14096
868.364	14134
868.495	14237
868.625	14336
868.756	14434
868.886	14225
869.017	14301
869.147	14556
869.278	14461
869.408	14438
869.539	14339
869.669	14400
869.799	14431
869.929	14469
870.06	14446
870.19	14682
870.32	14773
870.45	14762
870.58	14887
870.71	14845
870.84	14853
870.97	14804
871.1	14708
871.23	15001
871.36	14944
871.489	14842
871.619	14902
871.749	14910
871.879	15024
872.008	14998
872.138	15013
872.267	14868
872.397	14872
872.526	14785
872.656	14735
872.785	14826
872.915	14986
873.044	14994
873.173	15047
873.303	15074
873.432	15085
873.561	15184
873.69	15055
873.819	15085
873.948	15074
874.077	15047
874.206	14994
874.335	15077
874.464	15161
874.593	15302
874.722	15321
874.851	15374
874.979	15363
875.108	15370
875.237	15401
875.365	15321
875.494	15306
875.623	15420
875.751	15272
875.88	15348
876.008	15500
876.136	15663
876.265	15774
876.393	15800
876.521	15739
876.65	15850
876.778	15827
876.906	15682
877.034	15762
877.162	15644
877.29	15667
877.418	15736
877.546	15717
877.674	15823
877.802	15808
877.93	15755
878.058	15781
878.185	15644
878.313	15747
878.441	15720
878.568	15549
878.696	15739
878.824	15755
878.951	15838
879.079	15903
879.206	16048
879.333	15934
879.461	15838
879.588	15876
879.715	15983
879.842	16078
879.97	15903
880.097	15656
880.224	15572
880.351	15576
880.478	15747
880.605	15561
880.732	15492
880.859	15781
880.986	15713
881.112	15576
881.239	15507
881.366	15359
881.493	15313
881.619	15260
881.746	15233
881.872	15260
881.999	15180
882.125	15180
882.252	15313
882.378	15207
882.505	15416
882.631	15291
882.757	15074
882.883	15089
883.01	15081
883.136	14979
883.262	14967
883.388	14963
883.514	15093
883.64	15104
883.766	15036
883.892	14826
884.018	14921
884.143	15112
884.269	15173
884.395	14906
884.52	14800
884.646	14724
884.772	14697
884.897	14708
885.023	14724
885.148	14933
885.274	14872
885.399	14838
885.524	14743
885.65	14804
885.775	14849
885.9	14762
886.025	14845
886.15	14754
886.275	14731
886.4	14667
886.525	14796
886.65	14632
886.775	14674
886.9	14864
887.025	14986
887.149	14762
887.274	14651
887.399	14476
887.523	14575
887.648	14526
887.773	14431
887.897	14629
888.021	14716
888.146	14511
888.27	14667
888.395	14743
888.519	14655
888.643	14689
888.767	14682
888.891	14526
889.015	14454
889.139	14518
889.263	14381
889.387	14640
889.511	14697
889.635	14636
889.759	14537
889.883	14454
890.006	14514
890.13	14644
890.254	14374
890.377	14454
890.501	14336
890.624	14233
890.748	14343
890.871	14271
890.995	14199
891.118	14012
891.241	14278
891.364	14210
891.488	14294
891.611	14176
891.734	14248
891.857	14221
891.98	14164
892.103	14271
892.226	14176
892.349	14100
892.471	13978
892.594	14172
892.717	14123
892.839	14149
892.962	14164
893.085	14187
893.207	14161
893.33	14107
893.452	14069
893.575	14256
893.697	14202
893.819	14343
893.941	14419
894.064	14450
894.186	14157
894.308	14081
894.43	14282
894.552	14324
894.674	14240
894.796	14221
894.918	14183
895.04	14157
895.161	14389
895.283	14362
895.405	14206
895.526	14324
895.648	14256
895.769	14294
895.891	14412
896.012	14286
896.134	14377
896.255	14377
896.376	14317
896.498	14366
896.619	14412
896.74	14343
896.861	14454
896.982	14765
897.103	14807
897.224	14701
897.345	14556
897.466	14613
897.587	14644
897.708	14800
897.828	14636
897.949	14697
898.07	14488
898.19	14583
898.311	14796
898.431	14644
898.552	14674
898.672	14712
898.792	14788
898.913	14708
899.033	14682
899.153	14670
899.273	14454
899.393	14533
899.513	14629
899.633	14590
899.753	14552
899.873	14492
899.993	14545
900.113	14495
900.232	14549
900.352	14495
900.472	14450
900.591	14355
900.711	14412
900.83	14206
900.95	14530
901.069	14541
901.189	14263
901.308	14164
901.427	14016
901.546	14062
901.665	14096
901.784	14096
901.904	13887
902.023	13887
902.141	13750
902.26	13693
902.379	13776
902.498	13578
902.617	13594
902.735	13712
902.854	13651
902.973	13639
903.091	13316
903.21	13457
903.328	13434
903.446	13316
903.565	13247
903.683	13304
903.801	13183
903.919	13152
904.038	13160
904.156	13008
904.274	13076
904.392	13038
904.51	12928
904.627	12958
904.745	13118
904.863	13038
904.981	12897
905.098	12673
905.216	12696
905.334	12734
905.451	12722
905.569	12677
905.686	12764
905.803	12715
905.921	12616
906.038	12639
906.155	12570
906.272	12460
906.389	12414
906.506	12399
906.623	12315
906.74	12311
906.857	12228
906.974	12190
907.091	12372
907.208	12475
907.324	12323
907.441	12296
907.557	12049
907.674	12026
907.79	11992
907.907	11965
908.023	12064
908.139	12026
908.256	11954
908.372	11954
908.488	11916
908.604	11866
908.72	11855
908.836	11840
908.952	11718
909.068	11821
909.184	11927
909.3	11771
909.415	11920
909.531	11901
909.647	11608
909.762	11646
909.878	11558
909.993	11646
910.108	11524
910.224	11570
910.339	11657
910.454	11440
910.57	11478
910.685	11379
910.8	11562
910.915	11573
911.03	11406
911.145	11383
911.259	11299
911.374	11330
911.489	11242
911.604	11212
911.718	11090
911.833	11117
911.947	10968
912.062	10930
912.176	11022
912.291	11022
912.405	11003
912.519	11269
912.633	11246
912.748	11064
912.862	11048
912.976	10946
913.09	10790
913.204	10873
913.318	10972
913.431	11041
913.545	11003
913.659	11090
913.772	10946
913.886	10866
914	10763
914.113	10877
914.226	10980
914.34	10896
914.453	10782
914.566	10965
914.68	10774
914.793	10649
914.906	10592
915.019	10493
915.132	10542
915.245	10546
915.358	10592
915.47	10599
915.583	10489
915.696	10580
915.809	10577
915.921	10755
916.034	10512
916.146	10504
916.259	10489
916.371	10538
916.483	10580
916.595	10481
916.708	10436
916.82	10493
916.932	10519
917.044	10504
917.156	10443
917.268	10386
917.38	10402
917.491	10333
917.603	10440
917.715	10428
917.826	10402
917.938	10348
918.049	10291
918.161	10398
918.272	10493
918.384	10550
918.495	10493
918.606	10265
918.717	10173
918.828	10192
918.939	10219
919.05	10181
919.161	10188
919.272	10048
919.383	10116
919.494	10337
919.604	10485
919.715	10333
919.826	10188
919.936	10306
920.047	10299
920.157	10219
920.267	10443
920.378	10337
920.488	10261
920.598	10489
920.708	10672
920.818	10489
920.928	10538
921.038	10603
921.148	10531
921.258	10306
921.368	10249
921.477	10105
921.587	10112
921.697	10010
921.806	10131
921.916	10032
922.025	9880
922.134	9781
922.244	9759
922.353	9926
922.462	9694
922.571	9675
922.68	9515
922.789	9515
922.898	9557
923.007	9462
923.116	9549
923.224	9561
923.333	9492
923.442	9393
923.55	9428
923.659	9408
923.767	9408
923.876	9370
923.984	9458
924.092	9260
924.201	9367
924.309	9382
924.417	9435
924.525	9283
924.633	9348
924.741	10291
924.849	9138
924.956	9272
925.064	9081
925.172	9100
925.279	9062
925.387	9169
925.494	9138
925.602	9359
925.709	9211
925.816	9173
925.924	9192
926.031	9207
926.138	9233
926.245	9135
926.352	8998
926.459	9214
926.566	9237
926.673	9161
926.779	9047
926.886	9062
926.993	8956
927.099	8864
927.206	8777
927.312	8792
927.419	8975
927.525	8914
927.631	8857
927.737	8807
927.843	8792
927.95	8651
928.056	8720
928.162	8762
928.267	8796
928.373	9447
928.479	8925
928.585	8579
928.69	8731
928.796	8769
928.901	8762
929.007	8564
929.112	8667
929.218	8731
929.323	8613
929.428	8568
929.533	8724
929.638	8579
929.743	8625
929.848	8625
929.953	8579
930.058	8552
930.163	8351
930.267	8377
930.372	8499
930.477	8313
930.581	8545
930.685	8446
930.79	8309
930.894	8343
930.998	8301
931.103	8484
931.207	8081
931.311	8027
931.415	8008
931.519	7784
931.623	7769
