Data from test_V78500241_2904.txt Node
Date: Fri Mar 25 14:53:56 CST 2022
User: usil
Spectrometer: V785-0024
Trigger mode: 0
Integration Time (sec): 4.000000E-1
Scans to average: 1
Nonlinearity correction enabled: false
Boxcar width: 0
Storing dark spectrum: false
XAxis mode: Wavelengths
Number of Pixels in Spectrum: 1024
>>>>>Begin Spectral Data<<<<<
801.071	22097
801.214	21926
801.356	21812
801.499	21606
801.641	21477
801.783	21462
801.926	21367
802.068	21264
802.211	21298
802.353	21279
802.496	21047
802.638	21036
802.78	20933
802.923	20792
803.065	20746
803.208	20777
803.35	20804
803.492	20868
803.635	20883
803.777	20758
803.919	20906
804.061	21123
804.204	20830
804.346	20674
804.488	20625
804.63	20758
804.773	20674
804.915	20667
805.057	20834
805.199	20613
805.341	20663
805.483	20845
805.626	20697
805.768	20617
805.91	20804
806.052	20735
806.194	20682
806.336	20686
806.478	20617
806.62	20670
806.762	20762
806.904	20876
807.046	21180
807.188	21009
807.33	21089
807.472	21108
807.614	20861
807.756	20895
807.898	20857
808.04	20739
808.182	20716
808.324	20792
808.465	20781
808.607	20998
808.749	21017
808.891	21176
809.033	21093
809.174	21123
809.316	21020
809.458	21070
809.6	21055
809.741	21119
809.883	21055
810.025	21272
810.166	21306
810.308	21245
810.45	21119
810.591	21077
810.733	20868
810.875	20937
811.016	20750
811.158	20663
811.299	20830
811.441	20785
811.582	20971
811.724	20861
811.865	20724
812.007	20883
812.148	20880
812.29	20872
812.431	20864
812.573	21169
812.714	21203
812.855	21348
812.997	21382
813.138	21450
813.279	21428
813.421	21355
813.562	21298
813.703	21066
813.845	21066
813.986	20739
814.127	20590
814.268	20473
814.41	20446
814.551	20438
814.692	20385
814.833	20351
814.974	20202
815.115	20374
815.256	20218
815.397	20423
815.539	20187
815.68	20115
815.821	20119
815.962	20084
816.103	20115
816.244	19791
816.385	19864
816.526	19788
816.666	19658
816.807	19586
816.948	19666
817.089	19567
817.23	19480
817.371	19358
817.512	19559
817.653	19495
817.793	19548
817.934	19544
818.075	19544
818.216	19502
818.356	19419
818.497	19331
818.638	19209
818.778	19183
818.919	19232
819.06	19251
819.2	19312
819.341	19426
819.481	19343
819.622	19518
819.762	19750
819.903	19624
820.043	19487
820.184	19487
820.324	19548
820.465	19590
820.605	19453
820.746	19434
820.886	19232
821.026	19396
821.167	19384
821.307	19487
821.447	19434
821.588	19247
821.728	19133
821.868	19034
822.008	18954
822.149	18905
822.289	18768
822.429	18665
822.569	18612
822.709	18578
822.849	18391
822.99	18334
823.13	18395
823.27	18388
823.41	18327
823.55	18117
823.69	18239
823.83	18228
823.97	18125
824.11	17946
824.25	17980
824.389	17958
824.529	18003
824.669	18079
824.809	18106
824.949	18007
825.089	18072
825.228	17931
825.368	17832
825.508	17794
825.648	17752
825.787	17794
825.927	17813
826.067	17684
826.206	17672
826.346	17657
826.485	17752
826.625	17707
826.765	17828
826.904	17653
827.044	17592
827.183	17395
827.323	17490
827.462	17528
827.601	17467
827.741	17417
827.88	17455
828.02	17296
828.159	17482
828.298	17463
828.437	17547
828.577	17452
828.716	17543
828.855	17436
828.994	17170
829.134	17235
829.273	17220
829.412	17140
829.551	17033
829.69	17147
829.829	17155
829.968	17364
830.107	17292
830.246	17273
830.385	17090
830.524	17025
830.663	16995
830.802	16934
830.941	16767
831.08	16862
831.219	16862
831.357	16850
831.496	17033
831.635	16889
831.774	16729
831.913	16694
832.051	16641
832.19	16596
832.329	16660
832.467	16417
832.606	16352
832.744	16519
832.883	16421
833.022	16519
833.16	16443
833.299	16565
833.437	16466
833.576	16565
833.714	16535
833.852	16474
833.991	16603
834.129	16531
834.267	16474
834.406	16512
834.544	16607
834.682	16622
834.821	16462
834.959	16664
835.097	16596
835.235	16599
835.373	16497
835.511	16561
835.65	16424
835.788	16394
835.926	16280
836.064	16188
836.202	16272
836.34	16466
836.478	16504
836.615	16379
836.753	16519
836.891	16508
837.029	16519
837.167	16470
837.305	16394
837.443	16280
837.58	16219
837.718	16276
837.856	16303
837.993	16143
838.131	16306
838.269	16177
838.406	16272
838.544	16246
838.681	15994
838.819	15979
838.956	15854
839.094	15835
839.231	15816
839.369	15953
839.506	16207
839.643	16093
839.781	15884
839.918	15732
840.055	15854
840.193	15857
840.33	15892
840.467	15869
840.604	15876
840.742	16082
840.879	15641
841.016	15755
841.153	15766
841.29	15937
841.427	15827
841.564	15861
841.701	15865
841.838	15808
841.975	15667
842.112	15656
842.249	15671
842.385	15656
842.522	15808
842.659	15629
842.796	15526
842.933	15667
843.069	15515
843.206	15606
843.343	15698
843.479	15667
843.616	15660
843.752	15447
843.889	15382
844.025	15561
844.162	15351
844.298	15458
844.435	15454
844.571	15386
844.708	15348
844.844	15584
844.98	15610
845.117	15515
845.253	15332
845.389	15329
845.525	15355
845.661	15279
845.798	15260
845.934	15249
846.07	15237
846.206	15203
846.342	15370
846.478	15294
846.614	15020
846.75	14975
846.886	15028
847.022	15116
847.158	15036
847.294	14857
847.429	14982
847.565	14906
847.701	15199
847.837	14625
847.972	14689
848.108	14823
848.244	14769
848.379	14587
848.515	14568
848.65	14533
848.786	14651
848.921	14621
849.057	14693
849.192	14632
849.328	14473
849.463	14670
849.598	14621
849.734	14492
849.869	14499
850.004	14362
850.14	14400
850.275	14389
850.41	14183
850.545	14252
850.68	14180
850.815	14404
850.95	14282
851.085	14541
851.22	14465
851.355	14370
851.49	14259
851.625	14278
851.76	14328
851.895	14187
852.03	14183
852.165	14332
852.299	14336
852.434	14450
852.569	14404
852.703	14294
852.838	14438
852.973	14484
853.107	14484
853.242	14275
853.376	14267
853.511	14043
853.645	14065
853.78	14301
853.914	14240
854.048	14183
854.183	14119
854.317	14180
854.451	14191
854.585	14142
854.72	14142
854.854	14237
854.988	14096
855.122	14214
855.256	14073
855.39	14126
855.524	14263
855.658	14252
855.792	14278
855.926	14225
856.06	14282
856.194	14290
856.327	14164
856.461	14046
856.595	14225
856.729	14168
856.862	14320
856.996	14229
857.13	14278
857.263	14343
857.397	14294
857.53	14168
857.664	14157
857.797	14275
857.931	14305
858.064	14233
858.197	14214
858.331	14153
858.464	14206
858.597	14199
858.731	14142
858.864	14267
858.997	14157
859.13	14157
859.263	14328
859.396	14237
859.529	14176
859.662	14164
859.795	14149
859.928	14256
860.061	14332
860.194	14404
860.327	14256
860.46	14161
860.592	14381
860.725	14377
860.858	14286
860.99	14142
861.123	14180
861.256	14027
861.388	14240
861.521	14887
861.653	14107
861.786	13986
861.918	14027
862.05	14145
862.183	14054
862.315	14164
862.447	14168
862.58	14058
862.712	14008
862.844	13944
862.976	14020
863.108	14035
863.24	14244
863.372	13936
863.504	13997
863.636	14012
863.768	13989
863.9	13989
864.032	13978
864.164	14069
864.296	13974
864.428	14043
864.559	14062
864.691	14126
864.823	14024
864.954	14020
865.086	14100
865.217	13951
865.349	13925
865.48	14005
865.612	14058
865.743	14043
865.875	13928
866.006	13955
866.137	13951
866.269	13932
866.4	13974
866.531	13856
866.662	13970
866.793	13837
866.924	13940
867.055	13959
867.186	13963
867.317	13913
867.448	13852
867.579	13822
867.71	13811
867.841	13845
867.972	13986
868.103	13947
868.233	13947
868.364	13913
868.495	14016
868.625	14164
868.756	14298
868.886	14191
869.017	14065
869.147	14294
869.278	14324
869.408	14290
869.539	14206
869.669	14347
869.799	14248
869.929	14267
870.06	14301
870.19	14465
870.32	14473
870.45	14507
870.58	14579
870.71	14644
870.84	14689
870.97	14590
871.1	14549
871.23	14750
871.36	14830
871.489	14663
871.619	14792
871.749	14777
871.879	14765
872.008	14876
872.138	14838
872.267	14845
872.397	14636
872.526	14644
872.656	14663
872.785	14648
872.915	14944
873.044	14967
873.173	14842
873.303	15013
873.432	14982
873.561	14941
873.69	14811
873.819	14910
873.948	14918
874.077	14796
874.206	14883
874.335	14887
874.464	15017
874.593	15127
874.722	15058
874.851	15226
874.979	15298
875.108	15142
875.237	15154
875.365	15100
875.494	15207
875.623	15321
875.751	15097
875.88	15161
876.008	15302
876.136	15420
876.265	15591
876.393	15667
876.521	15709
876.65	15709
876.778	15728
876.906	15469
877.034	15469
877.162	15523
877.29	15447
877.418	15713
877.546	15557
877.674	15564
877.802	15504
877.93	15667
878.058	15500
878.185	15454
878.313	15606
878.441	15534
878.568	15359
878.696	15595
878.824	15606
878.951	15694
879.079	15873
879.206	15964
879.333	15774
879.461	15496
879.588	15553
879.715	15899
879.842	15979
879.97	15629
880.097	15389
880.224	15572
880.351	15538
880.478	15473
880.605	15344
880.732	15397
880.859	15644
880.986	15420
881.112	15500
881.239	15256
881.366	15279
881.493	15123
881.619	15195
881.746	15097
881.872	15070
881.999	15104
882.125	15020
882.252	15237
882.378	15161
882.505	15188
882.631	15066
882.757	14921
882.883	14986
883.01	14868
883.136	14849
883.262	14800
883.388	14731
883.514	14781
883.64	15009
883.766	14914
883.892	14701
884.018	14872
884.143	14948
884.269	15070
884.395	14754
884.52	14571
884.646	14632
884.772	14537
884.897	14442
885.023	14621
885.148	14720
885.274	14693
885.399	14800
885.524	14556
885.65	14629
885.775	14587
885.9	14598
886.025	14804
886.15	14678
886.275	14495
886.4	14507
886.525	14606
886.65	14610
886.775	14560
886.9	14667
887.025	14773
887.149	14602
887.274	14484
887.399	14450
887.523	14450
887.648	14355
887.773	14446
887.897	14404
888.021	14571
888.146	14427
888.27	14568
888.395	14507
888.519	14495
888.643	14442
888.767	14514
888.891	14366
889.015	14324
889.139	14358
889.263	14324
889.387	14366
889.511	14431
889.635	14511
889.759	14267
889.883	14229
890.006	14305
890.13	14381
890.254	14153
890.377	14111
890.501	14161
890.624	14077
890.748	14206
890.871	14050
890.995	13989
891.118	13936
891.241	13986
891.364	14084
891.488	14138
891.611	14054
891.734	13967
891.857	14126
891.98	14084
892.103	14172
892.226	13967
892.349	14039
892.471	13799
892.594	14020
892.717	13978
892.839	14016
892.962	14020
893.085	14107
893.207	14069
893.33	13898
893.452	13993
893.575	14039
893.697	13986
893.819	14168
893.941	14183
894.064	14092
894.186	14001
894.308	13978
894.43	14176
894.552	14286
894.674	14214
894.796	14035
894.918	14145
895.04	14084
895.161	14195
895.283	14130
895.405	14088
895.526	14172
895.648	14115
895.769	14233
895.891	14271
896.012	14271
896.134	14214
896.255	14221
896.376	14168
896.498	14161
896.619	14221
896.74	14195
896.861	14142
896.982	14492
897.103	14678
897.224	14579
897.345	14457
897.466	14419
897.587	14499
897.708	14716
897.828	14530
897.949	14488
898.07	14377
898.19	14404
898.311	14598
898.431	14446
898.552	14450
898.672	14571
898.792	14598
898.913	14552
899.033	14545
899.153	14408
899.273	14347
899.393	14450
899.513	14480
899.633	14313
899.753	14419
899.873	14400
899.993	14389
900.113	14366
900.232	14396
900.352	14408
900.472	14347
900.591	14233
900.711	14294
900.83	14256
900.95	14404
901.069	14343
901.189	14145
901.308	13989
901.427	13986
901.546	13909
901.665	14005
901.784	14001
901.904	13864
902.023	13708
902.141	13597
902.26	13510
902.379	13605
902.498	13613
902.617	13487
902.735	13483
902.854	13502
902.973	13449
903.091	13270
903.21	13217
903.328	13263
903.446	13232
903.565	13061
903.683	13141
903.801	13057
903.919	12989
904.038	13107
904.156	12951
904.274	13012
904.392	12920
904.51	12966
904.627	12882
904.745	13061
904.863	13004
904.981	12734
905.098	12559
905.216	12582
905.334	12665
905.451	12563
905.569	12578
905.686	12688
905.803	12654
905.921	12429
906.038	12494
906.155	12384
906.272	12334
906.389	12353
906.506	12186
906.623	12144
906.74	12171
906.857	12140
906.974	12205
907.091	12175
907.208	12311
907.324	12205
907.441	12175
907.557	11984
907.674	11965
907.79	11897
907.907	11897
908.023	11950
908.139	11923
908.256	11859
908.372	11843
908.488	11779
908.604	11733
908.72	11680
908.836	11714
908.952	11642
909.068	11688
909.184	11847
909.3	11665
909.415	11726
909.531	11733
909.647	11455
909.762	11509
909.878	11471
909.993	11459
910.108	11452
910.224	11425
910.339	11436
910.454	11417
910.57	11269
910.685	11292
910.8	11535
910.915	11592
911.03	11292
911.145	11181
911.259	11128
911.374	11223
911.489	11143
911.604	11022
911.718	10904
911.833	11045
911.947	10839
912.062	10816
912.176	10908
912.291	10869
912.405	10946
912.519	11102
912.633	11090
912.748	11029
912.862	10957
912.976	10824
913.09	10714
913.204	10759
913.318	10816
913.431	10900
913.545	10850
913.659	10915
913.772	10725
913.886	10714
914	10637
914.113	10778
914.226	10850
914.34	10767
914.453	10630
914.566	10812
914.68	10611
914.793	10592
914.906	10409
915.019	10390
915.132	10314
915.245	10443
915.358	10451
915.47	10470
915.583	10462
915.696	10508
915.809	10561
915.921	10592
916.034	10428
916.146	10333
916.259	10409
916.371	10508
916.483	10382
916.595	10367
916.708	10341
916.82	10432
916.932	10367
917.044	10367
917.156	10348
917.268	10341
917.38	10223
917.491	10227
917.603	10287
917.715	10375
917.826	10360
917.938	10215
918.049	10162
918.161	10341
918.272	10436
918.384	10424
918.495	10291
918.606	10192
918.717	10101
918.828	10204
918.939	10192
919.05	10063
919.161	10131
919.272	9895
919.383	9983
919.494	10200
919.604	10341
919.715	10253
919.826	10032
919.936	10169
920.047	10223
920.157	10162
920.267	10337
920.378	10257
920.488	10078
920.598	10394
920.708	10516
920.818	10341
920.928	10337
921.038	10546
921.148	10531
921.258	10162
921.368	10128
921.477	10074
921.587	10006
921.697	9922
921.806	9979
921.916	9888
922.025	9785
922.134	9797
922.244	9732
922.353	9812
922.462	9584
922.571	9538
922.68	9405
922.789	9317
922.898	9412
923.007	9397
923.116	9447
923.224	9485
923.333	9435
923.442	9313
923.55	9313
923.659	9287
923.767	9310
923.876	9264
923.984	9298
924.092	9272
924.201	9325
924.309	9275
924.417	9329
924.525	9222
924.633	9279
924.741	10124
924.849	9104
924.956	9241
925.064	9074
925.172	8986
925.279	8998
925.387	9066
925.494	9062
925.602	9199
925.709	9150
925.816	8990
925.924	8982
926.031	9157
926.138	9123
926.245	9070
926.352	9036
926.459	9173
926.566	9192
926.673	9005
926.779	8952
926.886	9009
926.993	8834
927.099	8781
927.206	8754
927.312	8727
927.419	8781
927.525	8796
927.631	8853
927.737	8701
927.843	8689
927.95	8503
928.056	8667
928.162	8716
928.267	8746
928.373	9424
928.479	8781
928.585	8556
928.69	8655
928.796	8701
928.901	8610
929.007	8400
929.112	8613
929.218	8522
929.323	8522
929.428	8511
929.533	8621
929.638	8431
929.743	8476
929.848	8480
929.953	8526
930.058	8423
930.163	8252
930.267	8252
930.372	8446
930.477	8206
930.581	8568
930.685	8347
930.79	8271
930.894	8317
930.998	8252
931.103	8400
931.207	8020
931.311	7989
931.415	7879
931.519	7776
931.623	7712
