Data from test_V78500241_325.txt Node
Date: Fri Mar 25 14:35:59 CST 2022
User: usil
Spectrometer: V785-0024
Trigger mode: 0
Integration Time (sec): 4.000000E-1
Scans to average: 1
Nonlinearity correction enabled: false
Boxcar width: 0
Storing dark spectrum: false
XAxis mode: Wavelengths
Number of Pixels in Spectrum: 1024
>>>>>Begin Spectral Data<<<<<
801.071	26998
801.214	26921
801.356	26788
801.499	26602
801.641	26381
801.783	26362
801.926	26408
802.068	26275
802.211	26210
802.353	26214
802.496	26096
802.638	25932
802.78	26001
802.923	25833
803.065	25902
803.208	25833
803.35	25879
803.492	25993
803.635	26065
803.777	25970
803.919	25989
804.061	26317
804.204	25997
804.346	25940
804.488	25765
804.63	25909
804.773	25887
804.915	25890
805.057	26145
805.199	25997
805.341	26081
805.483	26001
805.626	25845
805.768	25932
805.91	26043
806.052	25955
806.194	25875
806.336	26180
806.478	25989
806.62	25982
806.762	26092
806.904	26149
807.046	26450
807.188	26278
807.33	26355
807.472	26324
807.614	26142
807.756	26168
807.898	26176
808.04	26020
808.182	26195
808.324	26176
808.465	26157
808.607	26358
808.749	26549
808.891	26670
809.033	26689
809.174	26648
809.316	26560
809.458	26492
809.6	26514
809.741	26488
809.883	26499
810.025	26659
810.166	26556
810.308	26446
810.45	26678
810.591	26625
810.733	26453
810.875	26206
811.016	26298
811.158	26358
811.299	26347
811.441	26385
811.582	26461
811.724	26313
811.865	26256
812.007	26252
812.148	26275
812.29	26320
812.431	26400
812.573	26632
812.714	26686
812.855	26838
812.997	26701
813.138	27020
813.279	26940
813.421	26712
813.562	26807
813.703	26552
813.845	26465
813.986	26149
814.127	25993
814.268	25917
814.41	25944
814.551	25791
814.692	25947
814.833	25807
814.974	25780
815.115	25944
815.256	25677
815.397	25715
815.539	25731
815.68	25601
815.821	25613
815.962	25552
816.103	25635
816.244	25514
816.385	25270
816.526	25274
816.666	25042
816.807	25050
816.948	25031
817.089	25129
817.23	25038
817.371	24871
817.512	24909
817.653	24981
817.793	24897
817.934	24996
818.075	25080
818.216	24981
818.356	25023
818.497	24882
818.638	24646
818.778	24601
818.919	24593
819.06	24681
819.2	24760
819.341	24878
819.481	24783
819.622	25080
819.762	25282
819.903	25175
820.043	25015
820.184	25072
820.324	24806
820.465	25000
820.605	25019
820.746	24928
820.886	24863
821.026	24821
821.167	24890
821.307	24985
821.447	24817
821.588	24707
821.728	24604
821.868	24467
822.008	24300
822.149	24300
822.289	24224
822.429	23965
822.569	24072
822.709	23954
822.849	23786
822.99	23809
823.13	23805
823.27	23676
823.41	23653
823.55	23623
823.69	23653
823.83	23562
823.97	23653
824.11	23395
824.25	23242
824.389	23341
824.529	23425
824.669	23296
824.809	23539
824.949	23322
825.089	23455
825.228	23254
825.368	23086
825.508	23136
825.648	23200
825.787	23109
825.927	23231
826.067	23090
826.206	23064
826.346	23162
826.485	23155
826.625	23132
826.765	23235
826.904	23170
827.044	22866
827.183	22919
827.323	22771
827.462	22927
827.601	22767
827.741	22828
827.88	22927
828.02	22710
828.159	22641
828.298	22828
828.437	22801
828.577	22733
828.716	22900
828.855	22653
828.994	22459
829.134	22641
829.273	22531
829.412	22413
829.551	22428
829.69	22394
829.829	22561
829.968	22641
830.107	22516
830.246	22607
830.385	22405
830.524	22318
830.663	22249
830.802	22112
830.941	22051
831.08	22086
831.219	22029
831.357	22067
831.496	22230
831.635	22025
831.774	21922
831.913	21899
832.051	21774
832.19	21789
832.329	21766
832.467	21739
832.606	21671
832.744	21515
832.883	21663
833.022	21633
833.16	21808
833.299	21732
833.437	21682
833.576	21770
833.714	21804
833.852	21793
833.991	21812
834.129	21808
834.267	21759
834.406	21778
834.544	21816
834.682	21675
834.821	21682
834.959	21835
835.097	21701
835.235	21789
835.373	21614
835.511	21660
835.65	21530
835.788	21519
835.926	21317
836.064	21344
836.202	21439
836.34	21553
836.478	21682
836.615	21477
836.753	21481
836.891	21545
837.029	21606
837.167	21519
837.305	21477
837.443	21492
837.58	21382
837.718	21389
837.856	21386
837.993	21447
838.131	21279
838.269	21294
838.406	21466
838.544	21199
838.681	21150
838.819	20982
838.956	20895
839.094	20842
839.231	20693
839.369	20990
839.506	21230
839.643	21142
839.781	20807
839.918	20773
840.055	20777
840.193	20724
840.33	20697
840.467	20674
840.604	20762
840.742	20929
840.879	20579
841.016	20750
841.153	20579
841.29	20720
841.427	20716
841.564	20667
841.701	20708
841.838	20609
841.975	20568
842.112	20526
842.249	20511
842.385	20332
842.522	20701
842.659	20518
842.796	20461
842.933	20434
843.069	20461
843.206	20461
843.343	20469
843.479	20473
843.616	20446
843.752	20172
843.889	20290
844.025	20309
844.162	20187
844.298	20396
844.435	20259
844.571	20202
844.708	20282
844.844	20343
844.98	20271
845.117	20278
845.253	20202
845.389	20111
845.525	20138
845.661	20149
845.798	20039
845.934	20031
846.07	20001
846.206	20092
846.342	20164
846.478	20008
846.614	19772
846.75	19685
846.886	19731
847.022	19719
847.158	19689
847.294	19624
847.429	19765
847.565	19658
847.701	19894
847.837	19419
847.972	19373
848.108	19491
848.244	19476
848.379	19362
848.515	19331
848.65	19236
848.786	19202
848.921	19156
849.057	19331
849.192	19327
849.328	19266
849.463	19202
849.598	19206
849.734	19148
849.869	19019
850.004	18924
850.14	19061
850.275	19065
850.41	18954
850.545	19057
850.68	18943
850.815	19019
850.95	18947
851.085	19129
851.22	19069
851.355	18954
851.49	18875
851.625	18939
851.76	18909
851.895	18787
852.03	18894
852.165	18958
852.299	18981
852.434	19038
852.569	19004
852.703	18928
852.838	18901
852.973	19019
853.107	19008
853.242	18932
853.376	18856
853.511	18722
853.645	18707
853.78	18878
853.914	18817
854.048	18681
854.183	18745
854.317	18719
854.451	18958
854.585	18757
854.72	18707
854.854	18840
854.988	18715
855.122	18844
855.256	18612
855.39	18703
855.524	18856
855.658	18760
855.792	18837
855.926	18829
856.06	18821
856.194	18764
856.327	18696
856.461	18661
856.595	18738
856.729	18768
856.862	18825
856.996	18749
857.13	18753
857.263	18859
857.397	18726
857.53	18715
857.664	18840
857.797	18753
857.931	18878
858.064	18856
858.197	18802
858.331	18635
858.464	18681
858.597	18570
858.731	18749
858.864	18688
858.997	18623
859.13	18806
859.263	18787
859.396	18798
859.529	18791
859.662	18696
859.795	18661
859.928	18673
860.061	18741
860.194	18817
860.327	18757
860.46	18776
860.592	18658
860.725	18954
860.858	18844
860.99	18745
861.123	18688
861.256	18570
861.388	18715
861.521	19381
861.653	18623
861.786	18528
861.918	18547
862.05	18578
862.183	18745
862.315	18753
862.447	18844
862.58	18734
862.712	18528
862.844	18426
862.976	18578
863.108	18509
863.24	18867
863.372	18414
863.504	18464
863.636	18464
863.768	18471
863.9	18448
864.032	18361
864.164	18372
864.296	18456
864.428	18631
864.559	18490
864.691	18574
864.823	18601
864.954	18418
865.086	18407
865.217	18300
865.349	18308
865.48	18361
865.612	18277
865.743	18467
865.875	18395
866.006	18220
866.137	18426
866.269	18353
866.4	18361
866.531	18418
866.662	18311
866.793	18155
866.924	18319
867.055	18365
867.186	18483
867.317	18251
867.448	18247
867.579	18281
867.71	18262
867.841	18205
867.972	18311
868.103	18296
868.233	18334
868.364	18323
868.495	18338
868.625	18509
868.756	18608
868.886	18422
869.017	18566
869.147	18578
869.278	18616
869.408	18639
869.539	18559
869.669	18559
869.799	18703
869.929	18700
870.06	18574
870.19	18757
870.32	18856
870.45	18837
870.58	18947
870.71	19023
870.84	19034
870.97	18878
871.1	18867
871.23	19027
871.36	19141
871.489	19031
871.619	19034
871.749	19141
871.879	19175
872.008	19217
872.138	19168
872.267	19221
872.397	18947
872.526	18947
872.656	19088
872.785	18966
872.915	19114
873.044	19266
873.173	19122
873.303	19213
873.432	19160
873.561	19148
873.69	19221
873.819	19148
873.948	19160
874.077	19217
874.206	18981
874.335	19164
874.464	19304
874.593	19430
874.722	19369
874.851	19438
874.979	19388
875.108	19407
875.237	19411
875.365	19403
875.494	19438
875.623	19537
875.751	19407
875.88	19426
876.008	19590
876.136	19727
876.265	19772
876.393	19989
876.521	19841
876.65	20031
876.778	19788
876.906	19757
877.034	19837
877.162	19750
877.29	19731
877.418	19826
877.546	19856
877.674	19852
877.802	19723
877.93	19887
878.058	19746
878.185	19719
878.313	19765
878.441	19852
878.568	19772
878.696	19734
878.824	19906
878.951	19868
879.079	19951
879.206	20084
879.333	20054
879.461	19826
879.588	19944
879.715	20039
879.842	20016
879.97	19837
880.097	19632
880.224	19605
880.351	19769
880.478	19647
880.605	19750
880.732	19662
880.859	19928
880.986	19647
881.112	19677
881.239	19578
881.366	19403
881.493	19259
881.619	19350
881.746	19285
881.872	19217
881.999	19209
882.125	19164
882.252	19301
882.378	19331
882.505	19358
882.631	19160
882.757	18935
882.883	19099
883.01	19057
883.136	19038
883.262	18935
883.388	18875
883.514	19076
883.64	19183
883.766	19019
883.892	18791
884.018	18901
884.143	18939
884.269	19053
884.395	18791
884.52	18715
884.646	18734
884.772	18494
884.897	18566
885.023	18715
885.148	18700
885.274	18798
885.399	18715
885.524	18684
885.65	18677
885.775	18681
885.9	18688
886.025	18867
886.15	18738
886.275	18623
886.4	18585
886.525	18715
886.65	18467
886.775	18608
886.9	18745
887.025	18901
887.149	18673
887.274	18486
887.399	18502
887.523	18437
887.648	18327
887.773	18369
887.897	18452
888.021	18448
888.146	18403
888.27	18551
888.395	18604
888.519	18422
888.643	18395
888.767	18551
888.891	18266
889.015	18262
889.139	18376
889.263	18296
889.387	18338
889.511	18372
889.635	18437
889.759	18243
889.883	18140
890.006	18213
890.13	18384
890.254	18003
890.377	18205
890.501	18060
890.624	17878
890.748	18121
890.871	17946
890.995	17893
891.118	17783
891.241	17882
891.364	17863
891.488	17980
891.611	17859
891.734	17824
891.857	18015
891.98	17859
892.103	17897
892.226	17935
892.349	17863
892.471	17672
892.594	17874
892.717	17908
892.839	17851
892.962	17832
893.085	17923
893.207	17939
893.33	17741
893.452	17722
893.575	17786
893.697	17813
893.819	17908
893.941	18087
894.064	17851
894.186	17680
894.308	17699
894.43	17832
894.552	18022
894.674	17859
894.796	17714
894.918	17866
895.04	17729
895.161	17923
895.283	17821
895.405	17745
895.526	17813
895.648	17794
895.769	17851
895.891	17878
896.012	18019
896.134	17965
896.255	17923
896.376	17920
896.498	17889
896.619	17977
896.74	17939
896.861	17931
896.982	18254
897.103	18475
897.224	18174
897.345	18182
897.466	17992
897.587	18106
897.708	18220
897.828	18102
897.949	18015
898.07	17859
898.19	18106
898.311	18224
898.431	18117
898.552	18182
898.672	18220
898.792	18155
898.913	18133
899.033	17988
899.153	17908
899.273	17828
899.393	17904
899.513	17950
899.633	17882
899.753	17980
899.873	17882
899.993	17885
900.113	17710
900.232	17901
900.352	17824
900.472	17680
900.591	17642
900.711	17764
900.83	17695
900.95	17809
901.069	17859
901.189	17604
901.308	17528
901.427	17337
901.546	17337
901.665	17414
901.784	17334
901.904	17258
902.023	17200
902.141	16869
902.26	16961
902.379	16942
902.498	16816
902.617	16805
902.735	16961
902.854	16839
902.973	16691
903.091	16558
903.21	16554
903.328	16580
903.446	16474
903.565	16371
903.683	16299
903.801	16295
903.919	16363
904.038	16390
904.156	16257
904.274	16211
904.392	16257
904.51	16082
904.627	16048
904.745	16207
904.863	16162
904.981	15945
905.098	15869
905.216	15778
905.334	15922
905.451	15880
905.569	15774
905.686	15861
905.803	15770
905.921	15595
906.038	15633
906.155	15641
906.272	15576
906.389	15496
906.506	15450
906.623	15351
906.74	15294
906.857	15203
906.974	15279
907.091	15367
907.208	15496
907.324	15325
907.441	15340
907.557	15116
907.674	15047
907.79	15017
907.907	14986
908.023	15085
908.139	14956
908.256	15005
908.372	14857
908.488	14967
908.604	14857
908.72	14765
908.836	14800
908.952	14708
909.068	14739
909.184	14895
909.3	14788
909.415	14743
909.531	14743
909.647	14541
909.762	14473
909.878	14518
909.993	14446
910.108	14438
910.224	14320
910.339	14442
910.454	14366
910.57	14358
910.685	14275
910.8	14480
910.915	14476
911.03	14298
911.145	14176
911.259	14092
911.374	14096
911.489	14001
911.604	13932
911.718	13860
911.833	13887
911.947	13765
912.062	13666
912.176	13753
912.291	13898
912.405	13833
912.519	13951
912.633	13993
912.748	13860
912.862	13776
912.976	13708
913.09	13590
913.204	13616
913.318	13655
913.431	13776
913.545	13708
913.659	13822
913.772	13655
913.886	13483
914	13533
914.113	13636
914.226	13689
914.34	13647
914.453	13426
914.566	13575
914.68	13415
914.793	13369
914.906	13274
915.019	13228
915.132	13118
915.245	13179
915.358	13312
915.47	13202
915.583	13225
915.696	13209
915.809	13403
915.921	13270
916.034	13110
916.146	13137
916.259	13046
916.371	13221
916.483	13171
916.595	13057
916.708	13015
916.82	13091
916.932	13046
917.044	12966
917.156	13053
917.268	12871
917.38	12859
917.491	12943
917.603	12897
917.715	13031
917.826	13027
917.938	12901
918.049	12764
918.161	12901
918.272	13012
918.384	13008
918.495	12928
918.606	12703
918.717	12582
918.828	12711
918.939	12734
919.05	12582
919.161	12730
919.272	12441
919.383	12608
919.494	12783
919.604	12913
919.715	12700
919.826	12612
919.936	12692
920.047	12734
920.157	12692
920.267	12859
920.378	12635
920.488	12574
920.598	12806
920.708	12954
920.818	12722
920.928	12738
921.038	12909
921.148	12939
921.258	12665
921.368	12471
921.477	12467
921.587	12403
921.697	12292
921.806	12433
921.916	12357
922.025	12194
922.134	12144
922.244	12079
922.353	12197
922.462	12019
922.571	11908
922.68	11824
922.789	11737
922.898	11760
923.007	11714
923.116	11710
923.224	11764
923.333	11722
923.442	11676
923.55	11627
923.659	11703
923.767	11638
923.876	11471
923.984	11543
924.092	11471
924.201	11596
924.309	11516
924.417	11478
924.525	11486
924.633	11535
924.741	12167
924.849	11349
924.956	11398
925.064	11269
925.172	11147
925.279	11193
925.387	11330
925.494	11349
925.602	11360
925.709	11406
925.816	11132
925.924	11189
926.031	11364
926.138	11166
926.245	11277
926.352	11132
926.459	11337
926.566	11414
926.673	11178
926.779	11117
926.886	11083
926.993	10904
927.099	10869
927.206	10854
927.312	10862
927.419	10900
927.525	10858
927.631	10889
927.737	10763
927.843	10759
927.95	10622
928.056	10721
928.162	10740
928.267	10782
928.373	11284
928.479	10858
928.585	10615
928.69	10759
928.796	10862
928.901	10687
929.007	10481
929.112	10626
929.218	10599
929.323	10538
929.428	10451
929.533	10573
929.638	10485
929.743	10519
929.848	10531
929.953	10485
930.058	10363
930.163	10230
930.267	10215
930.372	10356
930.477	10116
930.581	10409
930.685	10280
930.79	10101
930.894	10139
930.998	10051
931.103	10143
931.207	9903
931.311	9812
931.415	9781
931.519	9545
931.623	9500
