Data from test_V78500241_1552.txt Node
Date: Fri Mar 25 14:44:31 CST 2022
User: usil
Spectrometer: V785-0024
Trigger mode: 0
Integration Time (sec): 4.000000E-1
Scans to average: 1
Nonlinearity correction enabled: false
Boxcar width: 0
Storing dark spectrum: false
XAxis mode: Wavelengths
Number of Pixels in Spectrum: 1024
>>>>>Begin Spectral Data<<<<<
801.071	22417
801.214	22379
801.356	22120
801.499	21964
801.641	21827
801.783	21816
801.926	21717
802.068	21660
802.211	21545
802.353	21485
802.496	21382
802.638	21268
802.78	21233
802.923	21096
803.065	21047
803.208	21062
803.35	21138
803.492	21310
803.635	21317
803.777	21150
803.919	21245
804.061	21424
804.204	21089
804.346	21005
804.488	21062
804.63	21096
804.773	21032
804.915	20956
805.057	21154
805.199	20979
805.341	21169
805.483	21123
805.626	21036
805.768	20899
805.91	21017
806.052	21066
806.194	20861
806.336	21142
806.478	21074
806.62	21009
806.762	21127
806.904	21081
807.046	21481
807.188	21226
807.33	21325
807.472	21332
807.614	21344
807.756	21355
807.898	21226
808.04	21089
808.182	21233
808.324	21192
808.465	21199
808.607	21397
808.749	21526
808.891	21675
809.033	21679
809.174	21610
809.316	21591
809.458	21492
809.6	21477
809.741	21690
809.883	21576
810.025	21622
810.166	21530
810.308	21561
810.45	21519
810.591	21447
810.733	21374
810.875	21226
811.016	21173
811.158	21089
811.299	21336
811.441	21336
811.582	21294
811.724	21169
811.865	21237
812.007	21184
812.148	21313
812.29	21237
812.431	21397
812.573	21408
812.714	21675
812.855	21549
812.997	21846
813.138	21915
813.279	21759
813.421	21778
813.562	21561
813.703	21485
813.845	21370
813.986	21066
814.127	20868
814.268	20845
814.41	20743
814.551	20735
814.692	20750
814.833	20617
814.974	20644
815.115	20693
815.256	20564
815.397	20511
815.539	20617
815.68	20617
815.821	20404
815.962	20564
816.103	20484
816.244	20412
816.385	20263
816.526	20229
816.666	20088
816.807	19951
816.948	20126
817.089	19993
817.23	19909
817.371	19879
817.512	19826
817.653	19795
817.793	19890
817.934	19967
818.075	19875
818.216	19868
818.356	19822
818.497	19715
818.638	19487
818.778	19476
818.919	19605
819.06	19548
819.2	19761
819.341	19784
819.481	19696
819.622	19944
819.762	20005
819.903	20005
820.043	19830
820.184	19936
820.324	19849
820.465	19906
820.605	19860
820.746	19932
820.886	19666
821.026	19841
821.167	19807
821.307	19982
821.447	19814
821.588	19708
821.728	19518
821.868	19426
822.008	19213
822.149	19247
822.289	19297
822.429	18977
822.569	19038
822.709	18951
822.849	18829
822.99	18787
823.13	18764
823.27	18677
823.41	18464
823.55	18528
823.69	18635
823.83	18555
823.97	18525
824.11	18300
824.25	18289
824.389	18232
824.529	18433
824.669	18437
824.809	18502
824.949	18391
825.089	18384
825.228	18388
825.368	18296
825.508	18171
825.648	18148
825.787	18178
825.927	18171
826.067	18194
826.206	17977
826.346	18178
826.485	18114
826.625	18102
826.765	18251
826.904	18045
827.044	17988
827.183	17783
827.323	17809
827.462	17859
827.601	17760
827.741	17737
827.88	17866
828.02	17615
828.159	17805
828.298	17809
828.437	17874
828.577	17760
828.716	17882
828.855	17710
828.994	17577
829.134	17566
829.273	17497
829.412	17535
829.551	17482
829.69	17509
829.829	17581
829.968	17684
830.107	17604
830.246	17562
830.385	17490
830.524	17482
830.663	17421
830.802	17269
830.941	17204
831.08	17185
831.219	17197
831.357	17250
831.496	17406
831.635	17113
831.774	17170
831.913	17090
832.051	16881
832.19	16953
832.329	16953
832.467	16843
832.606	16862
832.744	16797
832.883	16801
833.022	16774
833.16	16987
833.299	16934
833.437	16957
833.576	16847
833.714	16889
833.852	16793
833.991	16919
834.129	16927
834.267	16927
834.406	16873
834.544	16938
834.682	17006
834.821	16889
834.959	17033
835.097	16843
835.235	16934
835.373	16869
835.511	16858
835.65	16850
835.788	16710
835.926	16664
836.064	16580
836.202	16599
836.34	16839
836.478	16824
836.615	16778
836.753	16729
836.891	16771
837.029	16793
837.167	16763
837.305	16698
837.443	16653
837.58	16622
837.718	16710
837.856	16698
837.993	16668
838.131	16630
838.269	16554
838.406	16580
838.544	16447
838.681	16348
838.819	16322
838.956	16139
839.094	16223
839.231	16261
839.369	16360
839.506	16615
839.643	16382
839.781	16265
839.918	16150
840.055	16238
840.193	16303
840.33	16211
840.467	16177
840.604	16246
840.742	16428
840.879	16093
841.016	16063
841.153	16067
841.29	16303
841.427	16196
841.564	16185
841.701	16169
841.838	16154
841.975	16090
842.112	16059
842.249	15930
842.385	15934
842.522	16116
842.659	15937
842.796	15979
842.933	15964
843.069	15983
843.206	15994
843.343	16044
843.479	15994
843.616	15876
843.752	15690
843.889	15739
844.025	15915
844.162	15781
844.298	15869
844.435	15747
844.571	15663
844.708	15770
844.844	15945
844.98	15937
845.117	15850
845.253	15686
845.389	15698
845.525	15644
845.661	15762
845.798	15667
845.934	15774
846.07	15587
846.206	15778
846.342	15819
846.478	15652
846.614	15386
846.75	15275
846.886	15245
847.022	15374
847.158	15389
847.294	15329
847.429	15302
847.565	15226
847.701	15488
847.837	15062
847.972	14899
848.108	15142
848.244	15062
848.379	14998
848.515	14952
848.65	14899
848.786	14883
848.921	14956
849.057	14975
849.192	14982
849.328	14910
849.463	14899
849.598	14929
849.734	14823
849.869	14758
850.004	14651
850.14	14762
850.275	14613
850.41	14526
850.545	14598
850.68	14708
850.815	14686
850.95	14640
851.085	14910
851.22	14697
851.355	14781
851.49	14651
851.625	14651
851.76	14583
851.895	14587
852.03	14552
852.165	14682
852.299	14746
852.434	14720
852.569	14670
852.703	14663
852.838	14708
852.973	14830
853.107	14872
853.242	14575
853.376	14556
853.511	14377
853.645	14492
853.78	14575
853.914	14575
854.048	14465
854.183	14507
854.317	14495
854.451	14762
854.585	14560
854.72	14488
854.854	14659
854.988	14434
855.122	14507
855.256	14339
855.39	14533
855.524	14507
855.658	14610
855.792	14499
855.926	14492
856.06	14590
856.194	14632
856.327	14568
856.461	14552
856.595	14511
856.729	14495
856.862	14537
856.996	14575
857.13	14556
857.263	14651
857.397	14632
857.53	14514
857.664	14590
857.797	14587
857.931	14674
858.064	14564
858.197	14693
858.331	14469
858.464	14575
858.597	14343
858.731	14522
858.864	14545
858.997	14473
859.13	14461
859.263	14556
859.396	14625
859.529	14492
859.662	14503
859.795	14484
859.928	14579
860.061	14731
860.194	14716
860.327	14495
860.46	14526
860.592	14575
860.725	14632
860.858	14663
860.99	14495
861.123	14419
861.256	14499
861.388	14670
861.521	15146
861.653	14347
861.786	14461
861.918	14275
862.05	14488
862.183	14507
862.315	14514
862.447	14564
862.58	14393
862.712	14282
862.844	14313
862.976	14404
863.108	14332
863.24	14792
863.372	14233
863.504	14385
863.636	14267
863.768	14408
863.9	14298
864.032	14138
864.164	14362
864.296	14362
864.428	14328
864.559	14374
864.691	14362
864.823	14358
864.954	14336
865.086	14415
865.217	14362
865.349	14221
865.48	14324
865.612	14336
865.743	14423
865.875	14320
866.006	14206
866.137	14332
866.269	14366
866.4	14233
866.531	14275
866.662	14278
866.793	14202
866.924	14237
867.055	14313
867.186	14256
867.317	14301
867.448	14096
867.579	14229
867.71	14240
867.841	14176
867.972	14355
868.103	14294
868.233	14286
868.364	14229
868.495	14320
868.625	14530
868.756	14686
868.886	14374
869.017	14495
869.147	14670
869.278	14579
869.408	14473
869.539	14587
869.669	14613
869.799	14552
869.929	14636
870.06	14590
870.19	14876
870.32	14861
870.45	14975
870.58	14967
870.71	15066
870.84	15001
870.97	14944
871.1	14861
871.23	15051
871.36	15097
871.489	15013
871.619	15058
871.749	15116
871.879	15256
872.008	15176
872.138	15142
872.267	15077
872.397	15036
872.526	14952
872.656	14883
872.785	14994
872.915	15089
873.044	15165
873.173	15150
873.303	15180
873.432	15195
873.561	15329
873.69	15142
873.819	15283
873.948	15211
874.077	15203
874.206	15093
874.335	15157
874.464	15321
874.593	15447
874.722	15454
874.851	15466
874.979	15466
875.108	15488
875.237	15424
875.365	15424
875.494	15420
875.623	15511
875.751	15530
875.88	15564
876.008	15637
876.136	15648
876.265	15949
876.393	16086
876.521	16006
876.65	16002
876.778	15979
876.906	15865
877.034	15861
877.162	15861
877.29	15842
877.418	15960
877.546	15895
877.674	15873
877.802	15861
877.93	15918
878.058	15865
878.185	15679
878.313	15903
878.441	15892
878.568	15762
878.696	15884
878.824	15953
878.951	15979
879.079	16162
879.206	16291
879.333	16101
879.461	16002
879.588	16074
879.715	16109
879.842	16215
879.97	16002
880.097	15876
880.224	15762
880.351	15804
880.478	15701
880.605	15736
880.732	15842
880.859	16002
880.986	15800
881.112	15797
881.239	15648
881.366	15542
881.493	15393
881.619	15393
881.746	15515
881.872	15447
881.999	15450
882.125	15370
882.252	15443
882.378	15439
882.505	15584
882.631	15283
882.757	15272
882.883	15161
883.01	15321
883.136	15203
883.262	15199
883.388	15062
883.514	15199
883.64	15298
883.766	15260
883.892	15089
884.018	15127
884.143	15245
884.269	15340
884.395	14986
884.52	14925
884.646	14887
884.772	14811
884.897	14804
885.023	14960
885.148	14948
885.274	14956
885.399	15062
885.524	15020
885.65	14941
885.775	15017
885.9	14914
886.025	15081
886.15	15020
886.275	14819
886.4	14754
886.525	14891
886.65	14857
886.775	14826
886.9	15089
887.025	15138
887.149	14994
887.274	14716
887.399	14750
887.523	14682
887.648	14705
887.773	14674
887.897	14849
888.021	14788
888.146	14705
888.27	14891
888.395	14883
888.519	14796
888.643	14823
888.767	14834
888.891	14788
889.015	14644
889.139	14667
889.263	14648
889.387	14659
889.511	14811
889.635	14674
889.759	14545
889.883	14598
890.006	14686
890.13	14724
890.254	14552
890.377	14480
890.501	14408
890.624	14362
890.748	14488
890.871	14320
890.995	14317
891.118	14275
891.241	14313
891.364	14313
891.488	14431
891.611	14259
891.734	14259
891.857	14370
891.98	14328
892.103	14412
892.226	14412
892.349	14290
892.471	14191
892.594	14271
892.717	14339
892.839	14317
892.962	14355
893.085	14317
893.207	14370
893.33	14278
893.452	14275
893.575	14396
893.697	14290
893.819	14412
893.941	14560
894.064	14404
894.186	14275
894.308	14286
894.43	14377
894.552	14518
894.674	14503
894.796	14244
894.918	14332
895.04	14275
895.161	14404
895.283	14473
895.405	14343
895.526	14389
895.648	14393
895.769	14442
895.891	14488
896.012	14579
896.134	14476
896.255	14374
896.376	14419
896.498	14465
896.619	14476
896.74	14522
896.861	14484
896.982	14899
897.103	14921
897.224	14777
897.345	14674
897.466	14602
897.587	14689
897.708	14864
897.828	14739
897.949	14632
898.07	14610
898.19	14743
898.311	14944
898.431	14720
898.552	14765
898.672	14910
898.792	14861
898.913	14902
899.033	14762
899.153	14739
899.273	14579
899.393	14651
899.513	14727
899.633	14606
899.753	14655
899.873	14644
899.993	14746
900.113	14716
900.232	14705
900.352	14648
900.472	14556
900.591	14518
900.711	14541
900.83	14469
900.95	14579
901.069	14693
901.189	14556
901.308	14221
901.427	14172
901.546	14301
901.665	14252
901.784	14248
901.904	14092
902.023	14043
902.141	13868
902.26	13780
902.379	13887
902.498	13830
902.617	13776
902.735	13898
902.854	13772
902.973	13826
903.091	13441
903.21	13480
903.328	13518
903.446	13403
903.565	13411
903.683	13434
903.801	13247
903.919	13304
904.038	13301
904.156	13190
904.274	13206
904.392	13160
904.51	13129
904.627	13156
904.745	13202
904.863	13202
904.981	12985
905.098	12894
905.216	12913
905.334	12875
905.451	12905
905.569	12878
905.686	12787
905.803	12829
905.921	12673
906.038	12730
906.155	12677
906.272	12460
906.389	12563
906.506	12380
906.623	12369
906.74	12547
906.857	12357
906.974	12330
907.091	12517
907.208	12513
907.324	12429
907.441	12292
907.557	12194
907.674	12167
907.79	12125
907.907	12098
908.023	12205
908.139	12152
908.256	12140
908.372	12087
908.488	11992
908.604	11950
908.72	11843
908.836	11893
908.952	11878
909.068	11950
909.184	12034
909.3	11840
909.415	11999
909.531	11980
909.647	11726
909.762	11760
909.878	11642
909.993	11729
910.108	11710
910.224	11672
910.339	11729
910.454	11657
910.57	11505
910.685	11486
910.8	11817
910.915	11649
911.03	11592
911.145	11364
911.259	11368
911.374	11402
911.489	11315
911.604	11322
911.718	11197
911.833	11159
911.947	11132
912.062	11083
912.176	11056
912.291	11151
912.405	11162
912.519	11280
912.633	11414
912.748	11197
912.862	11109
912.976	10999
913.09	10869
913.204	10942
913.318	10984
913.431	11064
913.545	11170
913.659	11121
913.772	11033
913.886	10927
914	10896
914.113	11033
914.226	11037
914.34	11052
914.453	10820
914.566	10976
914.68	10805
914.793	10752
914.906	10626
915.019	10634
915.132	10641
915.245	10660
915.358	10607
915.47	10649
915.583	10679
915.696	10649
915.809	10797
915.921	10790
916.034	10599
916.146	10580
916.259	10599
916.371	10717
916.483	10668
916.595	10592
916.708	10573
916.82	10497
916.932	10565
917.044	10542
917.156	10611
917.268	10413
917.38	10348
917.491	10390
917.603	10497
917.715	10611
917.826	10580
917.938	10459
918.049	10356
918.161	10531
918.272	10626
918.384	10645
918.495	10459
918.606	10356
918.717	10272
918.828	10333
918.939	10371
919.05	10227
919.161	10356
919.272	10162
919.383	10181
919.494	10390
919.604	10584
919.715	10249
919.826	10287
919.936	10329
920.047	10409
920.157	10390
920.267	10531
920.378	10402
920.488	10344
920.598	10538
920.708	10763
920.818	10527
920.928	10546
921.038	10710
921.148	10656
921.258	10417
921.368	10287
921.477	10284
921.587	10253
921.697	10116
921.806	10169
921.916	10139
922.025	9953
922.134	9918
922.244	9854
922.353	9975
922.462	9766
922.571	9679
922.68	9564
922.789	9519
922.898	9686
923.007	9542
923.116	9671
923.224	9610
923.333	9572
923.442	9511
923.55	9485
923.659	9523
923.767	9485
923.876	9523
923.984	9488
924.092	9359
924.201	9431
924.309	9515
924.417	9420
924.525	9439
924.633	9408
924.741	10341
924.849	9195
924.956	9389
925.064	9203
925.172	9188
925.279	9199
925.387	9203
925.494	9298
925.602	9401
925.709	9302
925.816	9184
925.924	9226
926.031	9313
926.138	9218
926.245	9332
926.352	9222
926.459	9298
926.566	9332
926.673	9237
926.779	9112
926.886	9138
926.993	8948
927.099	9017
927.206	8937
927.312	8941
927.419	9028
927.525	9009
927.631	9070
927.737	8944
927.843	8819
927.95	8712
928.056	8891
928.162	8899
928.267	8971
928.373	9393
928.479	8998
928.585	8693
928.69	8845
928.796	8823
928.901	8849
929.007	8602
929.112	8853
929.218	8743
929.323	8739
929.428	8579
929.533	8838
929.638	8587
929.743	8610
929.848	8724
929.953	8617
930.058	8583
930.163	8412
930.267	8442
930.372	8530
930.477	8362
930.581	8640
930.685	8514
930.79	8419
930.894	8412
930.998	8381
931.103	8507
931.207	8225
931.311	8164
931.415	8100
931.519	7951
931.623	7986
