Data from test_V78500241_1880.txt Node
Date: Fri Mar 25 14:46:48 CST 2022
User: usil
Spectrometer: V785-0024
Trigger mode: 0
Integration Time (sec): 4.000000E-1
Scans to average: 1
Nonlinearity correction enabled: false
Boxcar width: 0
Storing dark spectrum: false
XAxis mode: Wavelengths
Number of Pixels in Spectrum: 1024
>>>>>Begin Spectral Data<<<<<
801.071	22131
801.214	21915
801.356	21770
801.499	21568
801.641	21564
801.783	21370
801.926	21462
802.068	21469
802.211	21329
802.353	21203
802.496	21047
802.638	21058
802.78	20872
802.923	20975
803.065	20941
803.208	20746
803.35	20765
803.492	20887
803.635	21013
803.777	20739
803.919	20876
804.061	21089
804.204	20880
804.346	20758
804.488	20663
804.63	20891
804.773	20716
804.915	20792
805.057	20792
805.199	20708
805.341	20830
805.483	21062
805.626	20811
805.768	20655
805.91	20655
806.052	20773
806.194	20499
806.336	20967
806.478	20568
806.62	20693
806.762	20804
806.904	20868
807.046	21131
807.188	21096
807.33	20937
807.472	21058
807.614	20921
807.756	21028
807.898	20933
808.04	20819
808.182	20857
808.324	20929
808.465	21005
808.607	20967
808.749	21150
808.891	21294
809.033	21252
809.174	21214
809.316	21085
809.458	21058
809.6	20990
809.741	21256
809.883	21127
810.025	21294
810.166	21317
810.308	21233
810.45	21272
810.591	21055
810.733	21005
810.875	20944
811.016	20868
811.158	20834
811.299	20921
811.441	20994
811.582	20937
811.724	20986
811.865	20899
812.007	20849
812.148	20830
812.29	20910
812.431	21017
812.573	21195
812.714	21264
812.855	21382
812.997	21500
813.138	21595
813.279	21553
813.421	21374
813.562	21382
813.703	21135
813.845	20944
813.986	20651
814.127	20629
814.268	20454
814.41	20473
814.551	20518
814.692	20564
814.833	20400
814.974	20465
815.115	20484
815.256	20244
815.397	20237
815.539	20336
815.68	20290
815.821	20142
815.962	20172
816.103	20187
816.244	19963
816.385	20020
816.526	19803
816.666	19738
816.807	19544
816.948	19689
817.089	19708
817.23	19757
817.371	19582
817.512	19529
817.653	19518
817.793	19441
817.934	19559
818.075	19628
818.216	19510
818.356	19548
818.497	19301
818.638	19164
818.778	19301
818.919	19247
819.06	19324
819.2	19434
819.341	19403
819.481	19464
819.622	19609
819.762	19715
819.903	19632
820.043	19674
820.184	19590
820.324	19578
820.465	19499
820.605	19563
820.746	19620
820.886	19457
821.026	19514
821.167	19597
821.307	19601
821.447	19594
821.588	19403
821.728	19137
821.868	19145
822.008	18905
822.149	19000
822.289	18939
822.429	18669
822.569	18692
822.709	18631
822.849	18391
822.99	18502
823.13	18399
823.27	18464
823.41	18174
823.55	18209
823.69	18327
823.83	18243
823.97	18243
824.11	18015
824.25	17984
824.389	18030
824.529	18064
824.669	18053
824.809	18148
824.949	18174
825.089	18011
825.228	17996
825.368	17935
825.508	17923
825.648	17798
825.787	17882
825.927	17840
826.067	17870
826.206	17870
826.346	17821
826.485	17767
826.625	17703
826.765	17901
826.904	17923
827.044	17634
827.183	17455
827.323	17440
827.462	17471
827.601	17440
827.741	17478
827.88	17570
828.02	17417
828.159	17497
828.298	17463
828.437	17585
828.577	17425
828.716	17611
828.855	17528
828.994	17280
829.134	17181
829.273	17387
829.412	17208
829.551	17140
829.69	17258
829.829	17349
829.968	17387
830.107	17155
830.246	17269
830.385	17162
830.524	17212
830.663	17132
830.802	16999
830.941	16885
831.08	16786
831.219	16949
831.357	16908
831.496	17193
831.635	16869
831.774	16805
831.913	16820
832.051	16694
832.19	16679
832.329	16710
832.467	16531
832.606	16538
832.744	16550
832.883	16542
833.022	16592
833.16	16630
833.299	16649
833.437	16634
833.576	16611
833.714	16615
833.852	16599
833.991	16656
834.129	16535
834.267	16630
834.406	16577
834.544	16733
834.682	16588
834.821	16596
834.959	16854
835.097	16493
835.235	16820
835.373	16607
835.511	16637
835.65	16512
835.788	16577
835.926	16398
836.064	16329
836.202	16379
836.34	16508
836.478	16618
836.615	16485
836.753	16577
836.891	16649
837.029	16615
837.167	16542
837.305	16409
837.443	16447
837.58	16310
837.718	16493
837.856	16402
837.993	16379
838.131	16512
838.269	16310
838.406	16398
838.544	16257
838.681	16166
838.819	16124
838.956	15956
839.094	15968
839.231	16017
839.369	16105
839.506	16390
839.643	16169
839.781	15998
839.918	15880
840.055	15972
840.193	15892
840.33	15972
840.467	16006
840.604	15994
840.742	16268
840.879	15876
841.016	15880
841.153	15831
841.29	16063
841.427	15972
841.564	15972
841.701	16006
841.838	16021
841.975	15827
842.112	15846
842.249	15861
842.385	15663
842.522	15964
842.659	15755
842.796	15633
842.933	15739
843.069	15755
843.206	15671
843.343	15812
843.479	15751
843.616	15892
843.752	15603
843.889	15610
844.025	15629
844.162	15515
844.298	15511
844.435	15610
844.571	15496
844.708	15698
844.844	15690
844.98	15663
845.117	15698
845.253	15443
845.389	15374
845.525	15405
845.661	15431
845.798	15211
845.934	15340
846.07	15249
846.206	15294
846.342	15416
846.478	15302
846.614	15245
846.75	15100
846.886	15146
847.022	15207
847.158	15138
847.294	15108
847.429	15180
847.565	15051
847.701	15310
847.837	14929
847.972	14838
848.108	14960
848.244	14956
848.379	14720
848.515	14731
848.65	14674
848.786	14712
848.921	14746
849.057	14777
849.192	14705
849.328	14754
849.463	14746
849.598	14697
849.734	14655
849.869	14499
850.004	14530
850.14	14488
850.275	14480
850.41	14396
850.545	14408
850.68	14393
850.815	14469
850.95	14549
851.085	14632
851.22	14560
851.355	14381
851.49	14370
851.625	14511
851.76	14427
851.895	14438
852.03	14298
852.165	14549
852.299	14556
852.434	14575
852.569	14514
852.703	14549
852.838	14511
852.973	14514
853.107	14571
853.242	14355
853.376	14362
853.511	14263
853.645	14290
853.78	14454
853.914	14370
854.048	14366
854.183	14317
854.317	14381
854.451	14545
854.585	14404
854.72	14336
854.854	14320
854.988	14313
855.122	14298
855.256	14187
855.39	14275
855.524	14488
855.658	14415
855.792	14366
855.926	14320
856.06	14446
856.194	14423
856.327	14374
856.461	14396
856.595	14377
856.729	14263
856.862	14492
856.996	14385
857.13	14385
857.263	14419
857.397	14480
857.53	14400
857.664	14450
857.797	14427
857.931	14492
858.064	14351
858.197	14419
858.331	14294
858.464	14263
858.597	14282
858.731	14343
858.864	14313
858.997	14393
859.13	14415
859.263	14400
859.396	14355
859.529	14396
859.662	14328
859.795	14313
859.928	14358
860.061	14568
860.194	14511
860.327	14473
860.46	14248
860.592	14469
860.725	14507
860.858	14522
860.99	14256
861.123	14271
861.256	14233
861.388	14404
861.521	14933
861.653	14248
861.786	14172
861.918	14153
862.05	14408
862.183	14320
862.315	14347
862.447	14324
862.58	14343
862.712	14172
862.844	14096
862.976	14069
863.108	14149
863.24	14488
863.372	14020
863.504	14134
863.636	14161
863.768	14145
863.9	14172
864.032	14081
864.164	14065
864.296	14183
864.428	14240
864.559	14248
864.691	14267
864.823	14172
864.954	14172
865.086	14119
865.217	14145
865.349	14024
865.48	14043
865.612	14100
865.743	14210
865.875	14088
866.006	14096
866.137	14084
866.269	14134
866.4	14126
866.531	14069
866.662	13989
866.793	14008
866.924	14027
867.055	14081
867.186	14073
867.317	14084
867.448	14027
867.579	14054
867.71	14054
867.841	14012
867.972	14016
868.103	14073
868.233	14134
868.364	14084
868.495	14275
868.625	14336
868.756	14415
868.886	14214
869.017	14393
869.147	14442
869.278	14488
869.408	14480
869.539	14336
869.669	14389
869.799	14431
869.929	14530
870.06	14568
870.19	14632
870.32	14598
870.45	14693
870.58	14701
870.71	14796
870.84	14910
870.97	14750
871.1	14674
871.23	14933
871.36	14998
871.489	14876
871.619	14902
871.749	14994
871.879	14944
872.008	15066
872.138	14986
872.267	15051
872.397	14842
872.526	14716
872.656	14762
872.785	14792
872.915	14952
873.044	15055
873.173	15009
873.303	15005
873.432	15097
873.561	14975
873.69	15085
873.819	14979
873.948	15066
874.077	15077
874.206	15005
874.335	15001
874.464	15203
874.593	15260
874.722	15226
874.851	15405
874.979	15279
875.108	15382
875.237	15283
875.365	15264
875.494	15332
875.623	15416
875.751	15294
875.88	15279
876.008	15443
876.136	15500
876.265	15781
876.393	15983
876.521	15953
876.65	15793
876.778	15751
876.906	15637
877.034	15606
877.162	15720
877.29	15690
877.418	15732
877.546	15637
877.674	15660
877.802	15755
877.93	15789
878.058	15720
878.185	15641
878.313	15622
878.441	15648
878.568	15637
878.696	15652
878.824	15694
878.951	15720
879.079	15907
879.206	16013
879.333	15918
879.461	15751
879.588	15892
879.715	15972
879.842	16044
879.97	15854
880.097	15561
880.224	15534
880.351	15637
880.478	15625
880.605	15515
880.732	15564
880.859	15827
880.986	15595
881.112	15576
881.239	15534
881.366	15336
881.493	15306
881.619	15256
881.746	15317
881.872	15157
881.999	15154
882.125	15192
882.252	15260
882.378	15340
882.505	15420
882.631	15199
882.757	15009
882.883	15116
883.01	15024
883.136	14986
883.262	14842
883.388	14857
883.514	15032
883.64	14960
883.766	14944
883.892	14857
884.018	14902
884.143	14956
884.269	15173
884.395	14845
884.52	14762
884.646	14895
884.772	14663
884.897	14571
885.023	14765
885.148	14891
885.274	14929
885.399	14864
885.524	14781
885.65	14735
885.775	14864
885.9	14785
886.025	14857
886.15	14838
886.275	14670
886.4	14655
886.525	14750
886.65	14621
886.775	14648
886.9	14853
887.025	14925
887.149	14750
887.274	14598
887.399	14674
887.523	14594
887.648	14427
887.773	14598
887.897	14617
888.021	14773
888.146	14655
888.27	14708
888.395	14781
888.519	14545
888.643	14610
888.767	14674
888.891	14530
889.015	14450
889.139	14465
889.263	14446
889.387	14602
889.511	14632
889.635	14556
889.759	14366
889.883	14400
890.006	14412
890.13	14537
890.254	14328
890.377	14450
890.501	14252
890.624	14324
890.748	14324
890.871	14138
890.995	14115
891.118	14081
891.241	14157
891.364	14164
891.488	14225
891.611	14123
891.734	14187
891.857	14206
891.98	14191
892.103	14153
892.226	14195
892.349	14145
892.471	14065
892.594	14035
892.717	14199
892.839	14225
892.962	14187
893.085	14233
893.207	14149
893.33	14012
893.452	14107
893.575	14191
893.697	14084
893.819	14290
893.941	14381
894.064	14263
894.186	14161
894.308	14130
894.43	14221
894.552	14294
894.674	14298
894.796	14103
894.918	14119
895.04	14221
895.161	14324
895.283	14305
895.405	14233
895.526	14282
895.648	14244
895.769	14229
895.891	14286
896.012	14454
896.134	14286
896.255	14328
896.376	14278
896.498	14396
896.619	14317
896.74	14389
896.861	14324
896.982	14712
897.103	14838
897.224	14663
897.345	14629
897.466	14526
897.587	14583
897.708	14632
897.828	14522
897.949	14636
898.07	14492
898.19	14541
898.311	14659
898.431	14571
898.552	14743
898.672	14849
898.792	14826
898.913	14670
899.033	14712
899.153	14545
899.273	14465
899.393	14583
899.513	14606
899.633	14564
899.753	14621
899.873	14503
899.993	14571
900.113	14636
900.232	14564
900.352	14457
900.472	14442
900.591	14377
900.711	14358
900.83	14336
900.95	14461
901.069	14533
901.189	14351
901.308	14145
901.427	14065
901.546	14100
901.665	14183
901.784	14111
901.904	13917
902.023	13852
902.141	13639
902.26	13639
902.379	13685
902.498	13723
902.617	13628
902.735	13738
902.854	13636
902.973	13601
903.091	13377
903.21	13403
903.328	13506
903.446	13320
903.565	13244
903.683	13316
903.801	13160
903.919	13145
904.038	13263
904.156	13080
904.274	13114
904.392	12996
904.51	13065
904.627	13076
904.745	13084
904.863	13088
904.981	12878
905.098	12684
905.216	12654
905.334	12764
905.451	12749
905.569	12719
905.686	12814
905.803	12658
905.921	12620
906.038	12681
906.155	12623
906.272	12574
906.389	12517
906.506	12311
906.623	12376
906.74	12289
906.857	12228
906.974	12273
907.091	12384
907.208	12433
907.324	12357
907.441	12258
907.557	12102
907.674	12053
907.79	12034
907.907	12034
908.023	12114
908.139	12121
908.256	12003
908.372	12038
908.488	11984
908.604	11916
908.72	11840
908.836	11863
908.952	11874
909.068	11840
909.184	12019
909.3	11805
909.415	11954
909.531	11821
909.647	11695
909.762	11528
909.878	11516
909.993	11630
910.108	11608
910.224	11566
910.339	11509
910.454	11520
910.57	11482
910.685	11284
910.8	11741
910.915	11657
911.03	11372
911.145	11288
911.259	11337
911.374	11303
911.489	11242
911.604	11079
911.718	11014
911.833	11086
911.947	10904
912.062	10896
912.176	11014
912.291	11033
912.405	11045
912.519	11235
912.633	11337
912.748	11109
912.862	11041
912.976	10980
913.09	10744
913.204	10919
913.318	10869
913.431	11136
913.545	10984
913.659	11098
913.772	10904
913.886	10771
914	10790
914.113	10919
914.226	10942
914.34	10923
914.453	10763
914.566	10896
914.68	10782
914.793	10755
914.906	10599
915.019	10599
915.132	10470
915.245	10512
915.358	10500
915.47	10634
915.583	10607
915.696	10603
915.809	10702
915.921	10637
916.034	10546
916.146	10500
916.259	10504
916.371	10634
916.483	10588
916.595	10516
916.708	10508
916.82	10432
916.932	10440
917.044	10436
917.156	10516
917.268	10382
917.38	10440
917.491	10428
917.603	10379
917.715	10470
917.826	10538
917.938	10382
918.049	10249
918.161	10417
918.272	10462
918.384	10504
918.495	10409
918.606	10249
918.717	10287
918.828	10280
918.939	10352
919.05	10246
919.161	10257
919.272	10090
919.383	10093
919.494	10417
919.604	10436
919.715	10299
919.826	10204
919.936	10242
920.047	10360
920.157	10379
920.267	10504
920.378	10284
920.488	10234
920.598	10447
920.708	10615
920.818	10443
920.928	10470
921.038	10656
921.148	10599
921.258	10272
921.368	10177
921.477	10196
921.587	10116
921.697	10101
921.806	10219
921.916	9975
922.025	9835
922.134	9766
922.244	9736
922.353	9895
922.462	9671
922.571	9713
922.68	9519
922.789	9462
922.898	9530
923.007	9477
923.116	9534
923.224	9595
923.333	9481
923.442	9450
923.55	9374
923.659	9458
923.767	9458
923.876	9397
923.984	9469
924.092	9275
924.201	9454
924.309	9420
924.417	9370
924.525	9389
924.633	9431
924.741	10284
924.849	9112
924.956	9317
925.064	9146
925.172	9074
925.279	9097
925.387	9268
925.494	9203
925.602	9317
925.709	9279
925.816	9138
925.924	9169
926.031	9283
926.138	9237
926.245	9233
926.352	9104
926.459	9294
926.566	9268
926.673	9116
926.779	9047
926.886	9066
926.993	9013
927.099	8952
927.206	8853
927.312	8853
927.419	9005
927.525	8868
927.631	8956
927.737	8800
927.843	8804
927.95	8693
928.056	8773
928.162	8883
928.267	8876
928.373	9340
928.479	8830
928.585	8651
928.69	8800
928.796	8849
928.901	8659
929.007	8568
929.112	8735
929.218	8571
929.323	8644
929.428	8583
929.533	8731
929.638	8568
929.743	8610
929.848	8636
929.953	8549
930.058	8530
930.163	8362
930.267	8454
930.372	8499
930.477	8442
930.581	8594
930.685	8450
930.79	8336
930.894	8362
930.998	8336
931.103	8450
931.207	8180
931.311	8145
931.415	8039
931.519	7864
931.623	7830
