Data from test_V78500241_3363.txt Node
Date: Fri Mar 25 14:57:07 CST 2022
User: usil
Spectrometer: V785-0024
Trigger mode: 0
Integration Time (sec): 4.000000E-1
Scans to average: 1
Nonlinearity correction enabled: false
Boxcar width: 0
Storing dark spectrum: false
XAxis mode: Wavelengths
Number of Pixels in Spectrum: 1024
>>>>>Begin Spectral Data<<<<<
801.071	22048
801.214	21884
801.356	21648
801.499	21454
801.641	21374
801.783	21431
801.926	21389
802.068	21180
802.211	21241
802.353	21245
802.496	20960
802.638	20811
802.78	20705
802.923	20754
803.065	20686
803.208	20590
803.35	20678
803.492	20762
803.635	20887
803.777	20598
803.919	20754
804.061	20948
804.204	20674
804.346	20663
804.488	20503
804.63	20670
804.773	20609
804.915	20530
805.057	20670
805.199	20549
805.341	20609
805.483	20731
805.626	20598
805.768	20503
805.91	20587
806.052	20583
806.194	20492
806.336	20667
806.478	20427
806.62	20457
806.762	20571
806.904	20746
807.046	20929
807.188	20830
807.33	20906
807.472	20914
807.614	20819
807.756	20845
807.898	20587
808.04	20629
808.182	20682
808.324	20579
808.465	20629
808.607	20861
808.749	20864
808.891	21127
809.033	21070
809.174	20933
809.316	20807
809.458	20883
809.6	20792
809.741	21077
809.883	20849
810.025	21020
810.166	21074
810.308	21043
810.45	21001
810.591	20998
810.733	20708
810.875	20735
811.016	20632
811.158	20568
811.299	20731
811.441	20849
811.582	20773
811.724	20800
811.865	20598
812.007	20613
812.148	20735
812.29	20762
812.431	20807
812.573	21005
812.714	21005
812.855	21058
812.997	21252
813.138	21408
813.279	21336
813.421	21192
813.562	21047
813.703	20815
813.845	20807
813.986	20511
814.127	20377
814.268	20252
814.41	20301
814.551	20263
814.692	20309
814.833	20145
814.974	20233
815.115	20153
815.256	19989
815.397	20130
815.539	20092
815.68	20043
815.821	20069
815.962	20016
816.103	19864
816.244	19826
816.385	19540
816.526	19556
816.666	19563
816.807	19377
816.948	19358
817.089	19476
817.23	19350
817.371	19297
817.512	19373
817.653	19350
817.793	19358
817.934	19263
818.075	19426
818.216	19331
818.356	19240
818.497	19225
818.638	19015
818.778	19065
818.919	19053
819.06	19072
819.2	19114
819.341	19194
819.481	19133
819.622	19525
819.762	19525
819.903	19460
820.043	19343
820.184	19327
820.324	19358
820.465	19396
820.605	19434
820.746	19289
820.886	19103
821.026	19327
821.167	19259
821.307	19293
821.447	19255
821.588	19095
821.728	19129
821.868	18875
822.008	18703
822.149	18802
822.289	18783
822.429	18540
822.569	18365
822.709	18483
822.849	18262
822.99	18273
823.13	18136
823.27	18155
823.41	18038
823.55	17954
823.69	18026
823.83	18019
823.97	17916
824.11	17794
824.25	17813
824.389	17882
824.529	17992
824.669	17779
824.809	17920
824.949	17958
825.089	17824
825.228	17813
825.368	17600
825.508	17581
825.648	17562
825.787	17630
825.927	17668
826.067	17512
826.206	17600
826.346	17566
826.485	17539
826.625	17638
826.765	17726
826.904	17551
827.044	17391
827.183	17353
827.323	17235
827.462	17299
827.601	17254
827.741	17223
827.88	17414
828.02	17162
828.159	17280
828.298	17315
828.437	17337
828.577	17341
828.716	17501
828.855	17159
828.994	17132
829.134	17014
829.273	17159
829.412	16915
829.551	16911
829.69	16999
829.829	16995
829.968	17178
830.107	17086
830.246	17083
830.385	17014
830.524	16953
830.663	16843
830.802	16656
830.941	16679
831.08	16660
831.219	16725
831.357	16755
831.496	16786
831.635	16675
831.774	16588
831.913	16626
832.051	16508
832.19	16470
832.329	16500
832.467	16478
832.606	16314
832.744	16379
832.883	16356
833.022	16280
833.16	16360
833.299	16455
833.437	16447
833.576	16413
833.714	16481
833.852	16440
833.991	16466
834.129	16485
834.267	16489
834.406	16360
834.544	16535
834.682	16440
834.821	16436
834.959	16550
835.097	16379
835.235	16474
835.373	16481
835.511	16356
835.65	16348
835.788	16363
835.926	16139
836.064	16169
836.202	16280
836.34	16421
836.478	16398
836.615	16211
836.753	16352
836.891	16447
837.029	16280
837.167	16211
837.305	16261
837.443	16173
837.58	16135
837.718	16295
837.856	16246
837.993	16188
838.131	16226
838.269	16112
838.406	16048
838.544	16025
838.681	15857
838.819	15964
838.956	15804
839.094	15751
839.231	15705
839.369	15941
839.506	16139
839.643	16032
839.781	15766
839.918	15774
840.055	15861
840.193	15747
840.33	15736
840.467	15804
840.604	15804
840.742	15888
840.879	15641
841.016	15652
841.153	15675
841.29	15926
841.427	15812
841.564	15838
841.701	15785
841.838	15698
841.975	15614
842.112	15610
842.249	15667
842.385	15530
842.522	15751
842.659	15606
842.796	15462
842.933	15561
843.069	15458
843.206	15553
843.343	15515
843.479	15549
843.616	15599
843.752	15374
843.889	15408
844.025	15389
844.162	15268
844.298	15389
844.435	15272
844.571	15363
844.708	15321
844.844	15523
844.98	15431
845.117	15447
845.253	15169
845.389	15287
845.525	15287
845.661	15260
845.798	15131
845.934	15138
846.07	15142
846.206	15161
846.342	15154
846.478	15161
846.614	15032
846.75	14849
846.886	14864
847.022	15051
847.158	14895
847.294	14982
847.429	15013
847.565	14891
847.701	15123
847.837	14598
847.972	14648
848.108	14617
848.244	14716
848.379	14583
848.515	14522
848.65	14514
848.786	14495
848.921	14469
849.057	14625
849.192	14636
849.328	14594
849.463	14549
849.598	14522
849.734	14560
849.869	14457
850.004	14336
850.14	14256
850.275	14309
850.41	14149
850.545	14278
850.68	14180
850.815	14240
850.95	14278
851.085	14438
851.22	14381
851.355	14210
851.49	14176
851.625	14164
851.76	14275
851.895	14183
852.03	14180
852.165	14317
852.299	14282
852.434	14362
852.569	14263
852.703	14317
852.838	14336
852.973	14465
853.107	14374
853.242	14259
853.376	14187
853.511	14092
853.645	14126
853.78	14271
853.914	14092
854.048	14111
854.183	14084
854.317	14153
854.451	14362
854.585	14084
854.72	14043
854.854	14271
854.988	14035
855.122	14073
855.256	14081
855.39	14092
855.524	14130
855.658	14282
855.792	14195
855.926	14126
856.06	14256
856.194	14195
856.327	14244
856.461	14069
856.595	14187
856.729	14107
856.862	14237
856.996	14195
857.13	14290
857.263	14298
857.397	14309
857.53	14084
857.664	14214
857.797	14282
857.931	14294
858.064	14187
858.197	14153
858.331	14149
858.464	14168
858.597	14077
858.731	14088
858.864	14183
858.997	14039
859.13	14259
859.263	14210
859.396	14252
859.529	14164
859.662	14005
859.795	14164
859.928	14202
860.061	14256
860.194	14320
860.327	14187
860.46	14142
860.592	14298
860.725	14317
860.858	14252
860.99	14153
861.123	14058
861.256	14077
861.388	14195
861.521	14899
861.653	14005
861.786	13974
861.918	13944
862.05	14039
862.183	14130
862.315	14058
862.447	14142
862.58	14077
862.712	13974
862.844	13894
862.976	14027
863.108	14073
863.24	14328
863.372	13830
863.504	13974
863.636	13795
863.768	13997
863.9	13879
864.032	13921
864.164	13807
864.296	13955
864.428	13993
864.559	14027
864.691	14035
864.823	14043
864.954	13936
865.086	13887
865.217	13913
865.349	13837
865.48	13940
865.612	13902
865.743	14096
865.875	13963
866.006	13974
866.137	13902
866.269	13917
866.4	13902
866.531	13902
866.662	13849
866.793	13837
866.924	13811
867.055	13970
867.186	13932
867.317	13936
867.448	13864
867.579	13894
867.71	13788
867.841	13909
867.972	13845
868.103	13925
868.233	13959
868.364	13852
868.495	13993
868.625	14142
868.756	14229
868.886	14176
869.017	14126
869.147	14202
869.278	14370
869.408	14149
869.539	14103
869.669	14199
869.799	14123
869.929	14221
870.06	14244
870.19	14480
870.32	14400
870.45	14454
870.58	14549
870.71	14758
870.84	14682
870.97	14545
871.1	14518
871.23	14777
871.36	14773
871.489	14625
871.619	14663
871.749	14765
871.879	14785
872.008	14868
872.138	14701
872.267	14716
872.397	14670
872.526	14587
872.656	14583
872.785	14651
872.915	14701
873.044	14868
873.173	14754
873.303	14785
873.432	14819
873.561	14868
873.69	14887
873.819	14876
873.948	14887
874.077	14883
874.206	14739
874.335	14743
874.464	14952
874.593	15058
874.722	15100
874.851	15176
874.979	15123
875.108	15150
875.237	15112
875.365	15058
875.494	15074
875.623	15195
875.751	15074
875.88	15173
876.008	15340
876.136	15351
876.265	15568
876.393	15622
876.521	15641
876.65	15713
876.778	15584
876.906	15534
877.034	15530
877.162	15477
877.29	15584
877.418	15561
877.546	15572
877.674	15606
877.802	15492
877.93	15515
878.058	15481
878.185	15496
878.313	15526
878.441	15564
878.568	15317
878.696	15462
878.824	15530
878.951	15614
879.079	15732
879.206	15846
879.333	15599
879.461	15663
879.588	15656
879.715	15641
879.842	15751
879.97	15667
880.097	15393
880.224	15310
880.351	15428
880.478	15359
880.605	15348
880.732	15428
880.859	15652
880.986	15370
881.112	15378
881.239	15363
881.366	15222
881.493	15146
881.619	15081
881.746	15150
881.872	15043
881.999	14994
882.125	15036
882.252	15108
882.378	15017
882.505	15123
882.631	14975
882.757	14876
882.883	14952
883.01	14960
883.136	14807
883.262	14735
883.388	14670
883.514	14800
883.64	14918
883.766	14811
883.892	14678
884.018	14712
884.143	14853
884.269	14948
884.395	14621
884.52	14514
884.646	14632
884.772	14454
884.897	14564
885.023	14511
885.148	14708
885.274	14838
885.399	14648
885.524	14568
885.65	14568
885.775	14530
885.9	14632
886.025	14648
886.15	14632
886.275	14518
886.4	14488
886.525	14545
886.65	14469
886.775	14640
886.9	14659
887.025	14811
887.149	14503
887.274	14415
887.399	14343
887.523	14396
887.648	14362
887.773	14358
887.897	14339
888.021	14522
888.146	14355
888.27	14473
888.395	14476
888.519	14404
888.643	14393
888.767	14488
888.891	14408
889.015	14286
889.139	14457
889.263	14305
889.387	14393
889.511	14423
889.635	14400
889.759	14343
889.883	14256
890.006	14347
890.13	14324
890.254	14252
890.377	14240
890.501	14096
890.624	13982
890.748	14199
890.871	14069
890.995	14027
891.118	13909
891.241	13909
891.364	13936
891.488	14164
891.611	13917
891.734	14027
891.857	14024
891.98	14024
892.103	14119
892.226	14069
892.349	13841
892.471	13852
892.594	13864
892.717	13932
892.839	14016
892.962	14058
893.085	14069
893.207	13963
893.33	13849
893.452	13913
893.575	14065
893.697	14035
893.819	14138
893.941	14126
894.064	14115
894.186	13982
894.308	13959
894.43	14088
894.552	14138
894.674	14096
894.796	13936
894.918	13959
895.04	13951
895.161	14096
895.283	14065
895.405	14115
895.526	14077
895.648	14058
895.769	14115
895.891	14161
896.012	14275
896.134	14183
896.255	14252
896.376	14115
896.498	14157
896.619	14164
896.74	14244
896.861	14195
896.982	14556
897.103	14708
897.224	14484
897.345	14355
897.466	14393
897.587	14381
897.708	14621
897.828	14488
897.949	14488
898.07	14294
898.19	14324
898.311	14457
898.431	14499
898.552	14492
898.672	14564
898.792	14552
898.913	14552
899.033	14503
899.153	14412
899.273	14366
899.393	14374
899.513	14499
899.633	14290
899.753	14385
899.873	14370
899.993	14343
900.113	14419
900.232	14412
900.352	14339
900.472	14301
900.591	14168
900.711	14259
900.83	14134
900.95	14271
901.069	14317
901.189	14153
901.308	13906
901.427	13944
901.546	13894
901.665	14001
901.784	13913
901.904	13757
902.023	13624
902.141	13487
902.26	13506
902.379	13636
902.498	13453
902.617	13441
902.735	13544
902.854	13434
902.973	13343
903.091	13225
903.21	13206
903.328	13213
903.446	13141
903.565	13004
903.683	13023
903.801	13027
903.919	13069
904.038	13046
904.156	12901
904.274	13034
904.392	12928
904.51	12886
904.627	12863
904.745	12886
904.863	12951
904.981	12673
905.098	12544
905.216	12540
905.334	12639
905.451	12639
905.569	12665
905.686	12620
905.803	12585
905.921	12372
906.038	12464
906.155	12407
906.272	12353
906.389	12361
906.506	12144
906.623	12247
906.74	12106
906.857	11992
906.974	12140
907.091	12175
907.208	12311
907.324	12171
907.441	12083
907.557	11965
907.674	11977
907.79	11878
907.907	11866
908.023	11946
908.139	11916
908.256	11908
908.372	11783
908.488	11863
908.604	11668
908.72	11714
908.836	11695
908.952	11703
909.068	11707
909.184	11821
909.3	11657
909.415	11733
909.531	11653
909.647	11425
909.762	11440
909.878	11364
909.993	11474
910.108	11395
910.224	11360
910.339	11463
910.454	11372
910.57	11242
910.685	11231
910.8	11482
910.915	11436
911.03	11337
911.145	11166
911.259	11117
911.374	11075
911.489	11094
911.604	10980
911.718	10957
911.833	10885
911.947	10778
912.062	10672
912.176	10900
912.291	10896
912.405	10889
912.519	11033
912.633	11075
912.748	10991
912.862	10831
912.976	10748
913.09	10683
913.204	10763
913.318	10774
913.431	10889
913.545	10824
913.659	10873
913.772	10774
913.886	10637
914	10683
914.113	10748
914.226	10797
914.34	10748
914.453	10538
914.566	10759
914.68	10694
914.793	10618
914.906	10440
915.019	10394
915.132	10329
915.245	10344
915.358	10417
915.47	10390
915.583	10447
915.696	10436
915.809	10485
915.921	10569
916.034	10348
916.146	10436
916.259	10268
916.371	10451
916.483	10436
916.595	10325
916.708	10360
916.82	10329
916.932	10363
917.044	10337
917.156	10310
917.268	10192
917.38	10261
917.491	10230
917.603	10223
917.715	10318
917.826	10314
917.938	10249
918.049	10169
918.161	10211
918.272	10451
918.384	10348
918.495	10280
918.606	10139
918.717	10055
918.828	10112
918.939	10147
919.05	10040
919.161	10082
919.272	9907
919.383	9895
919.494	10097
919.604	10360
919.715	10120
919.826	10097
919.936	10032
920.047	10207
920.157	10147
920.267	10295
920.378	10139
920.488	10177
920.598	10375
920.708	10493
920.818	10348
920.928	10325
921.038	10470
921.148	10527
921.258	10150
921.368	10097
921.477	10051
921.587	9949
921.697	9911
921.806	9983
921.916	9846
922.025	9698
922.134	9720
922.244	9679
922.353	9755
922.462	9564
922.571	9553
922.68	9408
922.789	9408
922.898	9443
923.007	9367
923.116	9424
923.224	9405
923.333	9355
923.442	9241
923.55	9294
923.659	9317
923.767	9329
923.876	9203
923.984	9329
924.092	9173
924.201	9325
924.309	9264
924.417	9256
924.525	9188
924.633	9222
924.741	10166
924.849	9142
924.956	9188
925.064	9062
925.172	8967
925.279	9043
925.387	9047
925.494	8960
925.602	9100
925.709	9176
925.816	9020
925.924	9062
926.031	9195
926.138	9058
926.245	9070
926.352	9005
926.459	9112
926.566	9142
926.673	8918
926.779	8891
926.886	8982
926.993	8838
927.099	8727
927.206	8743
927.312	8701
927.419	8902
927.525	8754
927.631	8853
927.737	8716
927.843	8689
927.95	8598
928.056	8629
928.162	8644
928.267	8727
928.373	9359
928.479	8788
928.585	8564
928.69	8705
928.796	8758
928.901	8602
929.007	8461
929.112	8621
929.218	8533
929.323	8488
929.428	8461
929.533	8602
929.638	8434
929.743	8518
929.848	8511
929.953	8518
930.058	8419
930.163	8176
930.267	8256
930.372	8351
930.477	8225
930.581	8469
930.685	8343
930.79	8161
930.894	8183
930.998	8199
931.103	8343
931.207	8008
931.311	7959
931.415	7849
931.519	7666
931.623	7727
