Data from test_V78500241_1038.txt Node
Date: Fri Mar 25 14:40:56 CST 2022
User: usil
Spectrometer: V785-0024
Trigger mode: 0
Integration Time (sec): 4.000000E-1
Scans to average: 1
Nonlinearity correction enabled: false
Boxcar width: 0
Storing dark spectrum: false
XAxis mode: Wavelengths
Number of Pixels in Spectrum: 1024
>>>>>Begin Spectral Data<<<<<
801.071	22911
801.214	22809
801.356	22649
801.499	22440
801.641	22417
801.783	22253
801.926	22272
802.068	22268
802.211	22055
802.353	21998
802.496	21804
802.638	21762
802.78	21793
802.923	21698
803.065	21610
803.208	21523
803.35	21637
803.492	21713
803.635	21690
803.777	21633
803.919	21838
804.061	21964
804.204	21770
804.346	21709
804.488	21583
804.63	21511
804.773	21481
804.915	21530
805.057	21652
805.199	21515
805.341	21561
805.483	21599
805.626	21599
805.768	21610
805.91	21530
806.052	21587
806.194	21530
806.336	21709
806.478	21717
806.62	21637
806.762	21625
806.904	21895
807.046	22105
807.188	21983
807.33	22082
807.472	21991
807.614	21945
807.756	21945
807.898	21991
808.04	21895
808.182	22086
808.324	22154
808.465	22268
808.607	22489
808.749	22729
808.891	22828
809.033	22892
809.174	22752
809.316	22569
809.458	22489
809.6	22322
809.741	22329
809.883	22219
810.025	22348
810.166	22238
810.308	22230
810.45	22211
810.591	22268
810.733	21907
810.875	21899
811.016	21755
811.158	21778
811.299	21926
811.441	22013
811.582	21972
811.724	21804
811.865	21835
812.007	21876
812.148	21816
812.29	21743
812.431	22017
812.573	22051
812.714	22200
812.855	22253
812.997	22424
813.138	22500
813.279	22341
813.421	22249
813.562	22192
813.703	21964
813.845	21972
813.986	21614
814.127	21428
814.268	21374
814.41	21412
814.551	21393
814.692	21393
814.833	21389
814.974	21249
815.115	21332
815.256	21207
815.397	21085
815.539	21230
815.68	21150
815.821	21020
815.962	21039
816.103	21017
816.244	20853
816.385	20807
816.526	20925
816.666	20530
816.807	20507
816.948	20617
817.089	20693
817.23	20583
817.371	20499
817.512	20480
817.653	20457
817.793	20415
817.934	20454
818.075	20461
818.216	20438
818.356	20469
818.497	20309
818.638	20130
818.778	20145
818.919	20168
819.06	20168
819.2	20366
819.341	20332
819.481	20366
819.622	20461
819.762	20701
819.903	20583
820.043	20419
820.184	20404
820.324	20351
820.465	20549
820.605	20393
820.746	20480
820.886	20309
821.026	20347
821.167	20324
821.307	20461
821.447	20351
821.588	20351
821.728	20164
821.868	19947
822.008	19803
822.149	19856
822.289	19780
822.429	19578
822.569	19544
822.709	19571
822.849	19285
822.99	19362
823.13	19339
823.27	19308
823.41	19164
823.55	19057
823.69	19103
823.83	18996
823.97	19023
824.11	18981
824.25	18951
824.389	19031
824.529	18882
824.669	18993
824.809	18985
824.949	19061
825.089	18993
825.228	18981
825.368	18745
825.508	18901
825.648	18707
825.787	18779
825.927	18806
826.067	18677
826.206	18734
826.346	18798
826.485	18730
826.625	18745
826.765	18894
826.904	18749
827.044	18445
827.183	18555
827.323	18399
827.462	18456
827.601	18376
827.741	18395
827.88	18342
828.02	18220
828.159	18353
828.298	18338
828.437	18486
828.577	18365
828.716	18517
828.855	18357
828.994	18197
829.134	18041
829.273	18178
829.412	18098
829.551	18053
829.69	18144
829.829	18098
829.968	18342
830.107	18197
830.246	18125
830.385	18117
830.524	18007
830.663	17870
830.802	17843
830.941	17771
831.08	17680
831.219	17904
831.357	17695
831.496	17897
831.635	17821
831.774	17581
831.913	17634
832.051	17391
832.19	17459
832.329	17573
832.467	17417
832.606	17383
832.744	17448
832.883	17474
833.022	17474
833.16	17455
833.299	17516
833.437	17448
833.576	17474
833.714	17482
833.852	17623
833.991	17581
834.129	17539
834.267	17596
834.406	17414
834.544	17486
834.682	17505
834.821	17532
834.959	17714
835.097	17482
835.235	17547
835.373	17638
835.511	17455
835.65	17398
835.788	17349
835.926	17212
836.064	17170
836.202	17303
836.34	17406
836.478	17448
836.615	17284
836.753	17459
836.891	17376
837.029	17467
837.167	17360
837.305	17223
837.443	17303
837.58	17181
837.718	17311
837.856	17364
837.993	17132
838.131	17288
838.269	17181
838.406	17216
838.544	17132
838.681	16991
838.819	16904
838.956	16763
839.094	16733
839.231	16919
839.369	16957
839.506	17174
839.643	17105
839.781	16816
839.918	16641
840.055	16801
840.193	16748
840.33	16698
840.467	16809
840.604	16824
840.742	17041
840.879	16653
841.016	16626
841.153	16622
841.29	16915
841.427	16729
841.564	16759
841.701	16736
841.838	16679
841.975	16596
842.112	16725
842.249	16554
842.385	16542
842.522	16729
842.659	16531
842.796	16474
842.933	16588
843.069	16443
843.206	16436
843.343	16607
843.479	16493
843.616	16607
843.752	16246
843.889	16265
844.025	16459
844.162	16238
844.298	16466
844.435	16341
844.571	16352
844.708	16371
844.844	16569
844.98	16466
845.117	16516
845.253	16421
845.389	16443
845.525	16375
845.661	16615
845.798	16782
845.934	17018
846.07	17006
846.206	17105
846.342	16995
846.478	16736
846.614	16356
846.75	16090
846.886	16021
847.022	16029
847.158	16090
847.294	15930
847.429	15926
847.565	15838
847.701	16200
847.837	15728
847.972	15610
848.108	15705
848.244	15671
848.379	15561
848.515	15439
848.65	15424
848.786	15397
848.921	15557
849.057	15568
849.192	15694
849.328	15606
849.463	15561
849.598	15408
849.734	15492
849.869	15287
850.004	15374
850.14	15192
850.275	15389
850.41	15180
850.545	15203
850.68	15195
850.815	15310
850.95	15233
851.085	15408
851.22	15336
851.355	15264
851.49	15279
851.625	15180
851.76	15176
851.895	15081
852.03	15127
852.165	15207
852.299	15165
852.434	15279
852.569	15207
852.703	15233
852.838	15348
852.973	15306
853.107	15329
853.242	15119
853.376	15127
853.511	14941
853.645	15108
853.78	15283
853.914	15176
854.048	15085
854.183	15150
854.317	15173
854.451	15310
854.585	15036
854.72	15058
854.854	15146
854.988	15005
855.122	15051
855.256	14933
855.39	15112
855.524	15161
855.658	15123
855.792	15161
855.926	15176
856.06	15184
856.194	15157
856.327	15142
856.461	15093
856.595	15055
856.729	15165
856.862	15199
856.996	15146
857.13	15135
857.263	15275
857.397	15211
857.53	15195
857.664	15184
857.797	15192
857.931	15313
858.064	15081
858.197	15252
858.331	15119
858.464	14937
858.597	15051
858.731	15039
858.864	15089
858.997	15070
859.13	15127
859.263	15211
859.396	15211
859.529	15097
859.662	15070
859.795	15070
859.928	15119
860.061	15192
860.194	15264
860.327	15165
860.46	15089
860.592	15260
860.725	15245
860.858	15214
860.99	15066
861.123	15009
861.256	15009
861.388	15077
861.521	15682
861.653	15020
861.786	14906
861.918	14990
862.05	15047
862.183	15074
862.315	14982
862.447	15093
862.58	15062
862.712	14826
862.844	14830
862.976	14933
863.108	14861
863.24	15272
863.372	14678
863.504	14788
863.636	14880
863.768	14929
863.9	14845
864.032	14750
864.164	14750
864.296	14826
864.428	14910
864.559	14925
864.691	14876
864.823	14952
864.954	14948
865.086	14834
865.217	14750
865.349	14777
865.48	14807
865.612	14849
865.743	14960
865.875	14861
866.006	14796
866.137	14785
866.269	14712
866.4	14823
866.531	14777
866.662	14796
866.793	14823
866.924	14845
867.055	14883
867.186	14785
867.317	14792
867.448	14769
867.579	14800
867.71	14769
867.841	14724
867.972	14845
868.103	14796
868.233	14872
868.364	14743
868.495	14887
868.625	15123
868.756	15203
868.886	14986
869.017	15020
869.147	15218
869.278	15180
869.408	15077
869.539	15131
869.669	15165
869.799	15097
869.929	15218
870.06	15207
870.19	15515
870.32	15367
870.45	15412
870.58	15469
870.71	15629
870.84	15599
870.97	15435
871.1	15412
871.23	15690
871.36	15679
871.489	15526
871.619	15663
871.749	15599
871.879	15793
872.008	15804
872.138	15720
872.267	15736
872.397	15553
872.526	15504
872.656	15500
872.785	15397
872.915	15690
873.044	15785
873.173	15633
873.303	15682
873.432	15717
873.561	15751
873.69	15736
873.819	15800
873.948	15770
874.077	15701
874.206	15781
874.335	15755
874.464	15812
874.593	16025
874.722	15972
874.851	16010
874.979	16048
875.108	16116
875.237	16040
875.365	15941
875.494	15979
875.623	16131
875.751	15953
875.88	16063
876.008	16207
876.136	16291
876.265	16474
876.393	16584
876.521	16421
876.65	16481
876.778	16577
876.906	16337
877.034	16424
877.162	16519
877.29	16325
877.418	16481
877.546	16436
877.674	16466
877.802	16527
877.93	16417
878.058	16443
878.185	16421
878.313	16417
878.441	16500
878.568	16344
878.696	16440
878.824	16622
878.951	16672
879.079	16812
879.206	16961
879.333	16976
879.461	16930
879.588	16987
879.715	17025
879.842	17048
879.97	16862
880.097	16550
880.224	16478
880.351	16527
880.478	16466
880.605	16535
880.732	16447
880.859	16630
880.986	16455
881.112	16386
881.239	16299
881.366	16192
881.493	16063
881.619	15994
881.746	16116
881.872	16040
881.999	16013
882.125	15972
882.252	16051
882.378	15994
882.505	16215
882.631	16002
882.757	15827
882.883	15968
883.01	15812
883.136	15819
883.262	15739
883.388	15739
883.514	15960
883.64	15854
883.766	15915
883.892	15671
884.018	15690
884.143	15827
884.269	15979
884.395	15759
884.52	15564
884.646	15587
884.772	15603
884.897	15424
885.023	15610
885.148	15595
885.274	15728
885.399	15610
885.524	15526
885.65	15561
885.775	15603
885.9	15447
886.025	15667
886.15	15614
886.275	15401
886.4	15435
886.525	15424
886.65	15439
886.775	15469
886.9	15644
887.025	15648
887.149	15481
887.274	15313
887.399	15272
887.523	15275
887.648	15252
887.773	15218
887.897	15397
888.021	15329
888.146	15146
888.27	15420
888.395	15507
888.519	15264
888.643	15386
888.767	15374
888.891	15302
889.015	15081
889.139	15241
889.263	15085
889.387	15291
889.511	15359
889.635	15195
889.759	15188
889.883	15180
890.006	15165
890.13	15249
890.254	14994
890.377	15108
890.501	14918
890.624	14899
890.748	14933
890.871	14910
890.995	14918
891.118	14769
891.241	14765
891.364	14823
891.488	14880
891.611	14792
891.734	14868
891.857	14857
891.98	14838
892.103	14918
892.226	14933
892.349	14811
892.471	14667
892.594	14804
892.717	14857
892.839	14701
892.962	14823
893.085	14864
893.207	14842
893.33	14670
893.452	14788
893.575	14883
893.697	14826
893.819	14906
893.941	15017
894.064	14929
894.186	14811
894.308	14777
894.43	14921
894.552	14986
894.674	14963
894.796	14708
894.918	14720
895.04	14899
895.161	15024
895.283	14891
895.405	14777
895.526	14891
895.648	14872
895.769	14956
895.891	14967
896.012	14906
896.134	15001
896.255	14872
896.376	14979
896.498	14872
896.619	14982
896.74	14956
896.861	15001
896.982	15321
897.103	15466
897.224	15252
897.345	15252
897.466	15157
897.587	15138
897.708	15340
897.828	15279
897.949	15161
898.07	15161
898.19	15131
898.311	15214
898.431	15222
898.552	15230
898.672	15382
898.792	15344
898.913	15325
899.033	15256
899.153	15081
899.273	15100
899.393	15093
899.513	15123
899.633	15108
899.753	15161
899.873	15108
899.993	15211
900.113	15150
900.232	15211
900.352	15146
900.472	15039
900.591	14960
900.711	15013
900.83	14933
900.95	15116
901.069	15089
901.189	14963
901.308	14731
901.427	14648
901.546	14598
901.665	14674
901.784	14724
901.904	14522
902.023	14457
902.141	14286
902.26	14286
902.379	14180
902.498	14191
902.617	14195
902.735	14183
902.854	14237
902.973	14202
903.091	13913
903.21	13856
903.328	13955
903.446	13814
903.565	13769
903.683	13890
903.801	13731
903.919	13712
904.038	13742
904.156	13518
904.274	13605
904.392	13552
904.51	13628
904.627	13544
904.745	13632
904.863	13563
904.981	13369
905.098	13202
905.216	13316
905.334	13339
905.451	13247
905.569	13187
905.686	13282
905.803	13285
905.921	13038
906.038	13141
906.155	13088
906.272	12920
906.389	12943
906.506	12863
906.623	12817
906.74	12890
906.857	12753
906.974	12677
907.091	12935
907.208	12909
907.324	12859
907.441	12719
907.557	12585
907.674	12646
907.79	12570
907.907	12547
908.023	12536
908.139	12547
908.256	12555
908.372	12486
908.488	12460
908.604	12410
908.72	12334
908.836	12361
908.952	12239
909.068	12334
909.184	12395
909.3	12338
909.415	12342
909.531	12365
909.647	12060
909.762	12034
909.878	12057
909.993	12083
910.108	12060
910.224	12030
910.339	12045
910.454	11965
910.57	11992
910.685	11904
910.8	12171
910.915	12064
911.03	12003
911.145	11790
911.259	11741
911.374	11726
911.489	11665
911.604	11726
911.718	11551
911.833	11539
911.947	11417
912.062	11322
912.176	11482
912.291	11528
912.405	11520
912.519	11737
912.633	11729
912.748	11581
912.862	11444
912.976	11379
913.09	11269
913.204	11280
913.318	11360
913.431	11471
913.545	11406
913.659	11539
913.772	11395
913.886	11299
914	11258
914.113	11376
914.226	11364
914.34	11368
914.453	11204
914.566	11292
914.68	11220
914.793	11201
914.906	11025
915.019	10892
915.132	10881
915.245	10923
915.358	10930
915.47	11006
915.583	11048
915.696	10980
915.809	11041
915.921	11162
916.034	11102
916.146	10987
916.259	10881
916.371	11075
916.483	11010
916.595	10896
916.708	10961
916.82	10991
916.932	10771
917.044	10839
917.156	10911
917.268	10774
917.38	10824
917.491	10782
917.603	10919
917.715	10957
917.826	10900
917.938	10752
918.049	10664
918.161	10831
918.272	11010
918.384	10995
918.495	10904
918.606	10611
918.717	10649
918.828	10653
918.939	10656
919.05	10607
919.161	10611
919.272	10527
919.383	10584
919.494	10736
919.604	10873
919.715	10668
919.826	10565
919.936	10618
920.047	10702
920.157	10687
920.267	10949
920.378	10691
920.488	10637
920.598	10930
920.708	11033
920.818	10942
920.928	10854
921.038	11025
921.148	10972
921.258	10744
921.368	10622
921.477	10516
921.587	10489
921.697	10440
921.806	10580
921.916	10500
922.025	10227
922.134	10219
922.244	10131
922.353	10246
922.462	10116
922.571	10116
922.68	9930
922.789	9831
922.898	9850
923.007	9854
923.116	9918
923.224	9915
923.333	9846
923.442	9808
923.55	9816
923.659	9759
923.767	9835
923.876	9656
923.984	9819
924.092	9622
924.201	9781
924.309	9804
924.417	9679
924.525	9686
924.633	9778
924.741	10668
924.849	9466
924.956	9663
925.064	9515
925.172	9469
925.279	9500
925.387	9519
925.494	9549
925.602	9682
925.709	9671
925.816	9492
925.924	9591
926.031	9580
926.138	9610
926.245	9591
926.352	9485
926.459	9545
926.566	9576
926.673	9454
926.779	9336
926.886	9325
926.993	9294
927.099	9283
927.206	9211
927.312	9230
927.419	9370
927.525	9169
927.631	9222
927.737	9131
927.843	9116
927.95	8990
928.056	9119
928.162	9097
928.267	9173
928.373	9762
928.479	9241
928.585	8952
928.69	9093
928.796	9085
928.901	8994
929.007	8899
929.112	9036
929.218	9039
929.323	8963
929.428	8891
929.533	9043
929.638	8838
929.743	8899
929.848	8914
929.953	8975
930.058	8861
930.163	8670
930.267	8705
930.372	8868
930.477	8670
930.581	8902
930.685	8769
930.79	8629
930.894	8651
930.998	8583
931.103	8769
931.207	8492
931.311	8438
931.415	8298
931.519	8119
931.623	8100
