Data from test_V78500241_3315.txt Node
Date: Fri Mar 25 14:56:47 CST 2022
User: usil
Spectrometer: V785-0024
Trigger mode: 0
Integration Time (sec): 4.000000E-1
Scans to average: 1
Nonlinearity correction enabled: false
Boxcar width: 0
Storing dark spectrum: false
XAxis mode: Wavelengths
Number of Pixels in Spectrum: 1024
>>>>>Begin Spectral Data<<<<<
801.071	21869
801.214	21835
801.356	21568
801.499	21549
801.641	21428
801.783	21294
801.926	21454
802.068	21283
802.211	21249
802.353	21230
802.496	20933
802.638	20804
802.78	20689
802.923	20594
803.065	20556
803.208	20651
803.35	20659
803.492	20765
803.635	20765
803.777	20674
803.919	20670
804.061	21028
804.204	20769
804.346	20587
804.488	20598
804.63	20648
804.773	20393
804.915	20609
805.057	20686
805.199	20511
805.341	20629
805.483	20651
805.626	20636
805.768	20499
805.91	20625
806.052	20617
806.194	20533
806.336	20731
806.478	20552
806.62	20499
806.762	20762
806.904	20819
807.046	20910
807.188	20883
807.33	20864
807.472	21009
807.614	20792
807.756	20792
807.898	20655
808.04	20701
808.182	20560
808.324	20609
808.465	20689
808.607	20819
808.749	20887
808.891	20994
809.033	21047
809.174	20876
809.316	20815
809.458	20891
809.6	20800
809.741	20990
809.883	21096
810.025	21135
810.166	21039
810.308	21058
810.45	20975
810.591	20895
810.733	20902
810.875	20701
811.016	20518
811.158	20613
811.299	20743
811.441	20785
811.582	20792
811.724	20750
811.865	20571
812.007	20648
812.148	20651
812.29	20724
812.431	20773
812.573	20948
812.714	21070
812.855	21146
812.997	21237
813.138	21412
813.279	21283
813.421	21176
813.562	21093
813.703	20941
813.845	20807
813.986	20514
814.127	20351
814.268	20237
814.41	20267
814.551	20267
814.692	20275
814.833	20103
814.974	20187
815.115	20237
815.256	19978
815.397	20043
815.539	20005
815.68	20012
815.821	19906
815.962	20016
816.103	19928
816.244	19890
816.385	19833
816.526	19696
816.666	19624
816.807	19320
816.948	19422
817.089	19476
817.23	19468
817.371	19400
817.512	19343
817.653	19293
817.793	19247
817.934	19362
818.075	19373
818.216	19381
818.356	19335
818.497	19164
818.638	18981
818.778	19061
818.919	19148
819.06	18985
819.2	19168
819.341	19240
819.481	19156
819.622	19285
819.762	19552
819.903	19563
820.043	19483
820.184	19377
820.324	19308
820.465	19324
820.605	19289
820.746	19213
820.886	19164
821.026	19168
821.167	19293
821.307	19407
821.447	19183
821.588	19198
821.728	19015
821.868	18810
822.008	18650
822.149	18764
822.289	18669
822.429	18517
822.569	18399
822.709	18475
822.849	18216
822.99	18178
823.13	18285
823.27	18171
823.41	18076
823.55	18015
823.69	18041
823.83	18083
823.97	17958
824.11	17710
824.25	17748
824.389	17855
824.529	17904
824.669	17817
824.809	17893
824.949	17973
825.089	17843
825.228	17988
825.368	17581
825.508	17615
825.648	17668
825.787	17608
825.927	17581
826.067	17646
826.206	17448
826.346	17668
826.485	17695
826.625	17436
826.765	17684
826.904	17642
827.044	17372
827.183	17292
827.323	17376
827.462	17303
827.601	17185
827.741	17292
827.88	17250
828.02	17223
828.159	17250
828.298	17280
828.437	17326
828.577	17162
828.716	17318
828.855	17235
828.994	17025
829.134	17018
829.273	17113
829.412	17033
829.551	16881
829.69	17064
829.829	17132
829.968	17212
830.107	17048
830.246	17048
830.385	17014
830.524	17003
830.663	16824
830.802	16733
830.941	16641
831.08	16558
831.219	16660
831.357	16645
831.496	16774
831.635	16668
831.774	16588
831.913	16523
832.051	16481
832.19	16459
832.329	16478
832.467	16485
832.606	16344
832.744	16367
832.883	16390
833.022	16234
833.16	16394
833.299	16432
833.437	16306
833.576	16341
833.714	16322
833.852	16402
833.991	16481
834.129	16516
834.267	16481
834.406	16417
834.544	16462
834.682	16478
834.821	16478
834.959	16535
835.097	16272
835.235	16413
835.373	16489
835.511	16443
835.65	16325
835.788	16337
835.926	16078
836.064	16139
836.202	16185
836.34	16356
836.478	16405
836.615	16265
836.753	16348
836.891	16367
837.029	16367
837.167	16253
837.305	16230
837.443	16204
837.58	16128
837.718	16284
837.856	16257
837.993	16139
838.131	16147
838.269	16131
838.406	16154
838.544	16086
838.681	15994
838.819	15808
838.956	15812
839.094	15701
839.231	15785
839.369	15907
839.506	16177
839.643	16036
839.781	15751
839.918	15679
840.055	15759
840.193	15838
840.33	15797
840.467	15739
840.604	15732
840.742	15964
840.879	15580
841.016	15652
841.153	15606
841.29	15941
841.427	15816
841.564	15812
841.701	15793
841.838	15701
841.975	15648
842.112	15637
842.249	15625
842.385	15447
842.522	15751
842.659	15625
842.796	15549
842.933	15530
843.069	15462
843.206	15466
843.343	15545
843.479	15504
843.616	15542
843.752	15310
843.889	15348
844.025	15553
844.162	15275
844.298	15450
844.435	15416
844.571	15332
844.708	15389
844.844	15416
844.98	15435
845.117	15435
845.253	15302
845.389	15195
845.525	15252
845.661	15146
845.798	15058
845.934	15173
846.07	15165
846.206	15154
846.342	15237
846.478	15104
846.614	14925
846.75	14872
846.886	14838
847.022	14975
847.158	14914
847.294	14933
847.429	14914
847.565	14826
847.701	15100
847.837	14708
847.972	14629
848.108	14781
848.244	14689
848.379	14587
848.515	14495
848.65	14461
848.786	14476
848.921	14571
849.057	14617
849.192	14526
849.328	14545
849.463	14465
849.598	14465
849.734	14419
849.869	14370
850.004	14377
850.14	14343
850.275	14278
850.41	14195
850.545	14275
850.68	14408
850.815	14393
850.95	14309
851.085	14434
851.22	14370
851.355	14237
851.49	14221
851.625	14210
851.76	14172
851.895	14046
852.03	14161
852.165	14259
852.299	14225
852.434	14309
852.569	14278
852.703	14271
852.838	14298
852.973	14473
853.107	14358
853.242	14134
853.376	14172
853.511	14008
853.645	14126
853.78	14301
853.914	14157
854.048	14180
854.183	14111
854.317	14107
854.451	14259
854.585	14187
854.72	14183
854.854	14187
854.988	14039
855.122	14016
855.256	13970
855.39	14183
855.524	14202
855.658	14229
855.792	14187
855.926	14180
856.06	14218
856.194	14267
856.327	14176
856.461	14039
856.595	14054
856.729	14096
856.862	14294
856.996	14180
857.13	14210
857.263	14244
857.397	14278
857.53	14180
857.664	14221
857.797	14282
857.931	14252
858.064	14206
858.197	14191
858.331	14046
858.464	14077
858.597	13921
858.731	14153
858.864	14130
858.997	14107
859.13	14214
859.263	14214
859.396	14206
859.529	14172
859.662	14062
859.795	14027
859.928	14183
860.061	14214
860.194	14267
860.327	14153
860.46	14107
860.592	14259
860.725	14324
860.858	14214
860.99	14164
861.123	14073
861.256	14126
861.388	14123
861.521	14864
861.653	14024
861.786	13997
861.918	13856
862.05	14069
862.183	14092
862.315	14115
862.447	14138
862.58	14092
862.712	13940
862.844	13967
862.976	14016
863.108	14043
863.24	14278
863.372	13822
863.504	13898
863.636	13906
863.768	13970
863.9	13932
864.032	13879
864.164	13928
864.296	13940
864.428	14058
864.559	14058
864.691	14005
864.823	13989
864.954	13890
865.086	13909
865.217	13917
865.349	13871
865.48	13902
865.612	14050
865.743	14005
865.875	13871
866.006	13776
866.137	13932
866.269	13909
866.4	13997
866.531	13928
866.662	13860
866.793	13906
866.924	13898
867.055	13925
867.186	13970
867.317	13925
867.448	13799
867.579	13875
867.71	13860
867.841	13765
867.972	13936
868.103	13830
868.233	13978
868.364	13887
868.495	14039
868.625	14126
868.756	14263
868.886	14020
869.017	14084
869.147	14267
869.278	14233
869.408	14164
869.539	14214
869.669	14339
869.799	14157
869.929	14240
870.06	14263
870.19	14476
870.32	14556
870.45	14480
870.58	14552
870.71	14670
870.84	14735
870.97	14533
871.1	14575
871.23	14773
871.36	14720
871.489	14632
871.619	14750
871.749	14708
871.879	14769
872.008	14944
872.138	14720
872.267	14754
872.397	14659
872.526	14560
872.656	14530
872.785	14716
872.915	14815
873.044	14857
873.173	14769
873.303	14842
873.432	14872
873.561	14914
873.69	14804
873.819	14788
873.948	14849
874.077	14925
874.206	14838
874.335	14906
874.464	14998
874.593	15127
874.722	15104
874.851	15161
874.979	15119
875.108	15150
875.237	15169
875.365	15066
875.494	15142
875.623	15157
875.751	15116
875.88	15131
876.008	15321
876.136	15435
876.265	15641
876.393	15652
876.521	15568
876.65	15599
876.778	15618
876.906	15576
877.034	15466
877.162	15553
877.29	15572
877.418	15652
877.546	15557
877.674	15523
877.802	15469
877.93	15584
878.058	15538
878.185	15386
878.313	15580
878.441	15534
878.568	15287
878.696	15504
878.824	15515
878.951	15835
879.079	15713
879.206	15926
879.333	15720
879.461	15705
879.588	15701
879.715	15800
879.842	15869
879.97	15629
880.097	15462
880.224	15313
880.351	15492
880.478	15439
880.605	15340
880.732	15370
880.859	15663
880.986	15397
881.112	15431
881.239	15279
881.366	15157
881.493	15051
881.619	15154
881.746	15009
881.872	15051
881.999	14971
882.125	14971
882.252	15100
882.378	15077
882.505	15241
882.631	15001
882.757	14815
882.883	14986
883.01	14910
883.136	14754
883.262	14765
883.388	14678
883.514	14956
883.64	14929
883.766	14842
883.892	14632
884.018	14689
884.143	14857
884.269	14948
884.395	14640
884.52	14632
884.646	14549
884.772	14438
884.897	14492
885.023	14625
885.148	14678
885.274	14834
885.399	14769
885.524	14533
885.65	14632
885.775	14648
885.9	14583
886.025	14724
886.15	14705
886.275	14488
886.4	14518
886.525	14590
886.65	14556
886.775	14514
886.9	14750
887.025	14769
887.149	14583
887.274	14461
887.399	14332
887.523	14355
887.648	14294
887.773	14343
887.897	14393
888.021	14351
888.146	14358
888.27	14526
888.395	14533
888.519	14438
888.643	14442
888.767	14518
888.891	14362
889.015	14210
889.139	14336
889.263	14328
889.387	14415
889.511	14473
889.635	14450
889.759	14240
889.883	14290
890.006	14355
890.13	14457
890.254	14142
890.377	14206
890.501	14016
890.624	14069
890.748	14168
890.871	14069
890.995	13925
891.118	13925
891.241	14005
891.364	13967
891.488	14077
891.611	14016
891.734	13925
891.857	14027
891.98	14005
892.103	13970
892.226	14046
892.349	14016
892.471	13849
892.594	13955
892.717	13967
892.839	13993
892.962	14046
893.085	13982
893.207	13982
893.33	13860
893.452	13989
893.575	14138
893.697	13989
893.819	14202
893.941	14218
894.064	14081
894.186	14001
894.308	14035
894.43	14111
894.552	14248
894.674	14172
894.796	13909
894.918	14035
895.04	13974
895.161	14168
895.283	14096
895.405	13993
895.526	14119
895.648	14202
895.769	14008
895.891	14149
896.012	14202
896.134	14183
896.255	14107
896.376	14046
896.498	14164
896.619	14259
896.74	14161
896.861	14252
896.982	14495
897.103	14640
897.224	14476
897.345	14366
897.466	14419
897.587	14423
897.708	14613
897.828	14427
897.949	14298
898.07	14259
898.19	14370
898.311	14530
898.431	14294
898.552	14629
898.672	14674
898.792	14621
898.913	14575
899.033	14415
899.153	14381
899.273	14267
899.393	14370
899.513	14396
899.633	14294
899.753	14434
899.873	14332
899.993	14366
900.113	14320
900.232	14351
900.352	14385
900.472	14320
900.591	14142
900.711	14263
900.83	14263
900.95	14294
901.069	14275
901.189	14172
901.308	13944
901.427	13841
901.546	13856
901.665	13982
901.784	13940
901.904	13772
902.023	13715
902.141	13445
902.26	13495
902.379	13571
902.498	13377
902.617	13407
902.735	13453
902.854	13533
902.973	13419
903.091	13179
903.21	13118
903.328	13129
903.446	13065
903.565	13076
903.683	13080
903.801	12897
903.919	13107
904.038	12970
904.156	12863
904.274	12848
904.392	12875
904.51	12856
904.627	12840
904.745	12844
904.863	12890
904.981	12776
905.098	12608
905.216	12536
905.334	12479
905.451	12528
905.569	12559
905.686	12582
905.803	12612
905.921	12350
906.038	12448
906.155	12498
906.272	12254
906.389	12273
906.506	12140
906.623	12216
906.74	12175
906.857	11977
906.974	12087
907.091	12205
907.208	12334
907.324	12235
907.441	12068
907.557	11908
907.674	11863
907.79	11794
907.907	11882
908.023	11870
908.139	12011
908.256	11779
908.372	11901
908.488	11748
908.604	11638
908.72	11570
908.836	11657
908.952	11585
909.068	11688
909.184	11794
909.3	11627
909.415	11684
909.531	11695
909.647	11463
909.762	11455
909.878	11391
909.993	11486
910.108	11391
910.224	11387
910.339	11448
910.454	11220
910.57	11284
910.685	11227
910.8	11486
910.915	11539
911.03	11315
911.145	11193
911.259	11098
911.374	11128
911.489	11010
911.604	11052
911.718	10991
911.833	10862
911.947	10797
912.062	10755
912.176	10953
912.291	10835
912.405	10934
912.519	11048
912.633	11151
912.748	11003
912.862	10930
912.976	10748
913.09	10710
913.204	10702
913.318	10771
913.431	10885
913.545	10885
913.659	10812
913.772	10771
913.886	10706
914	10618
914.113	10668
914.226	10771
914.34	10725
914.453	10569
914.566	10824
914.68	10630
914.793	10565
914.906	10417
915.019	10291
915.132	10291
915.245	10386
915.358	10466
915.47	10390
915.583	10443
915.696	10516
915.809	10417
915.921	10577
916.034	10440
916.146	10341
916.259	10382
916.371	10440
916.483	10459
916.595	10276
916.708	10363
916.82	10360
916.932	10303
917.044	10344
917.156	10265
917.268	10242
917.38	10261
917.491	10200
917.603	10246
917.715	10337
917.826	10352
917.938	10211
918.049	10131
918.161	10188
918.272	10409
918.384	10306
918.495	10234
918.606	10093
918.717	10055
918.828	10120
918.939	10029
919.05	10029
919.161	10158
919.272	9842
919.383	9941
919.494	10166
919.604	10329
919.715	10181
919.826	10143
919.936	10116
920.047	10257
920.157	10112
920.267	10390
920.378	10238
920.488	10116
920.598	10382
920.708	10497
920.818	10287
920.928	10310
921.038	10485
921.148	10493
921.258	10249
921.368	10200
921.477	9918
921.587	9987
921.697	9846
921.806	9941
921.916	9880
922.025	9694
922.134	9675
922.244	9641
922.353	9740
922.462	9610
922.571	9542
922.68	9325
922.789	9439
922.898	9382
923.007	9325
923.116	9420
923.224	9408
923.333	9420
923.442	9294
923.55	9340
923.659	9260
923.767	9408
923.876	9222
923.984	9359
924.092	9218
924.201	9313
924.309	9214
924.417	9253
924.525	9184
924.633	9249
924.741	10135
924.849	8941
924.956	9150
925.064	9009
925.172	8960
925.279	8944
925.387	9135
925.494	9032
925.602	9161
925.709	9142
925.816	9005
925.924	9066
926.031	9165
926.138	9051
926.245	9150
926.352	8956
926.459	9089
926.566	9180
926.673	9009
926.779	8952
926.886	8975
926.993	8838
927.099	8758
927.206	8754
927.312	8758
927.419	8800
927.525	8815
927.631	8823
927.737	8708
927.843	8705
927.95	8564
928.056	8636
928.162	8705
928.267	8720
928.373	9279
928.479	8697
928.585	8552
928.69	8625
928.796	8716
928.901	8602
929.007	8374
929.112	8549
929.218	8575
929.323	8457
929.428	8476
929.533	8602
929.638	8454
929.743	8404
929.848	8499
929.953	8389
930.058	8412
930.163	8309
930.267	8271
930.372	8393
930.477	8210
930.581	8461
930.685	8374
930.79	8233
930.894	8237
930.998	8218
931.103	8355
931.207	8012
931.311	7959
931.415	7906
931.519	7723
931.623	7712
