Data from test_V78500241_2952.txt Node
Date: Fri Mar 25 14:54:16 CST 2022
User: usil
Spectrometer: V785-0024
Trigger mode: 0
Integration Time (sec): 4.000000E-1
Scans to average: 1
Nonlinearity correction enabled: false
Boxcar width: 0
Storing dark spectrum: false
XAxis mode: Wavelengths
Number of Pixels in Spectrum: 1024
>>>>>Begin Spectral Data<<<<<
801.071	22070
801.214	22025
801.356	21728
801.499	21606
801.641	21504
801.783	21496
801.926	21477
802.068	21435
802.211	21298
802.353	21123
802.496	21001
802.638	20933
802.78	20849
802.923	20918
803.065	20758
803.208	20811
803.35	20659
803.492	20838
803.635	21009
803.777	20792
803.919	20826
804.061	21203
804.204	20891
804.346	20678
804.488	20625
804.63	20781
804.773	20579
804.915	20758
805.057	20948
805.199	20587
805.341	20773
805.483	20727
805.626	20720
805.768	20575
805.91	20804
806.052	20697
806.194	20686
806.336	20857
806.478	20758
806.62	20594
806.762	20743
806.904	20906
807.046	21154
807.188	21036
807.33	21127
807.472	21039
807.614	20921
807.756	21001
807.898	20735
808.04	20811
808.182	20773
808.324	20750
808.465	20853
808.607	20979
808.749	21150
808.891	21142
809.033	21306
809.174	21096
809.316	20994
809.458	21150
809.6	21013
809.741	21093
809.883	21146
810.025	21226
810.166	21264
810.308	21287
810.45	21169
810.591	21112
810.733	21020
810.875	20842
811.016	20769
811.158	20773
811.299	20838
811.441	20998
811.582	20956
811.724	20765
811.865	20705
812.007	20762
812.148	20815
812.29	20918
812.431	21066
812.573	21207
812.714	21222
812.855	21355
812.997	21473
813.138	21679
813.279	21553
813.421	21393
813.562	21226
813.703	20998
813.845	20937
813.986	20632
814.127	20484
814.268	20423
814.41	20503
814.551	20370
814.692	20434
814.833	20347
814.974	20320
815.115	20381
815.256	20248
815.397	20252
815.539	20244
815.68	20115
815.821	19947
815.962	20126
816.103	20035
816.244	19970
816.385	19967
816.526	19776
816.666	19670
816.807	19502
816.948	19674
817.089	19559
817.23	19590
817.371	19419
817.512	19449
817.653	19460
817.793	19502
817.934	19411
818.075	19544
818.216	19346
818.356	19350
818.497	19285
818.638	19156
818.778	19141
818.919	19175
819.06	19190
819.2	19388
819.341	19278
819.481	19384
819.622	19544
819.762	19712
819.903	19620
820.043	19567
820.184	19575
820.324	19533
820.465	19552
820.605	19468
820.746	19483
820.886	19365
821.026	19510
821.167	19472
821.307	19605
821.447	19407
821.588	19285
821.728	19168
821.868	19012
822.008	18981
822.149	19015
822.289	18943
822.429	18620
822.569	18623
822.709	18521
822.849	18342
822.99	18350
823.13	18350
823.27	18289
823.41	18140
823.55	18171
823.69	18220
823.83	18281
823.97	18117
824.11	18091
824.25	17897
824.389	17980
824.529	17988
824.669	17942
824.809	18083
824.949	17969
825.089	18072
825.228	17912
825.368	17775
825.508	17756
825.648	17722
825.787	17802
825.927	17707
826.067	17676
826.206	17687
826.346	17824
826.485	17824
826.625	17649
826.765	17859
826.904	17630
827.044	17512
827.183	17592
827.323	17425
827.462	17551
827.601	17562
827.741	17406
827.88	17307
828.02	17284
828.159	17406
828.298	17307
828.437	17509
828.577	17414
828.716	17505
828.855	17368
828.994	17166
829.134	17185
829.273	17273
829.412	17204
829.551	17151
829.69	17143
829.829	17181
829.968	17273
830.107	17235
830.246	17162
830.385	17109
830.524	17064
830.663	16980
830.802	16984
830.941	16835
831.08	16733
831.219	16839
831.357	16809
831.496	16999
831.635	16744
831.774	16721
831.913	16736
832.051	16596
832.19	16573
832.329	16618
832.467	16432
832.606	16447
832.744	16481
832.883	16485
833.022	16417
833.16	16417
833.299	16596
833.437	16432
833.576	16603
833.714	16474
833.852	16538
833.991	16493
834.129	16550
834.267	16519
834.406	16447
834.544	16660
834.682	16542
834.821	16500
834.959	16679
835.097	16531
835.235	16497
835.373	16512
835.511	16497
835.65	16451
835.788	16386
835.926	16257
836.064	16356
836.202	16230
836.34	16405
836.478	16497
836.615	16379
836.753	16409
836.891	16443
837.029	16531
837.167	16291
837.305	16375
837.443	16268
837.58	16238
837.718	16386
837.856	16375
837.993	16234
838.131	16246
838.269	16196
838.406	16230
838.544	16135
838.681	16082
838.819	15949
838.956	15911
839.094	15926
839.231	15926
839.369	15968
839.506	16181
839.643	16101
839.781	15835
839.918	15709
840.055	15793
840.193	15895
840.33	15842
840.467	15831
840.604	15907
840.742	16010
840.879	15747
841.016	15625
841.153	15850
841.29	15907
841.427	15880
841.564	15854
841.701	15789
841.838	15797
841.975	15709
842.112	15812
842.249	15641
842.385	15614
842.522	15759
842.659	15648
842.796	15717
842.933	15545
843.069	15648
843.206	15485
843.343	15667
843.479	15614
843.616	15599
843.752	15469
843.889	15393
844.025	15519
844.162	15485
844.298	15443
844.435	15389
844.571	15355
844.708	15496
844.844	15526
844.98	15572
845.117	15500
845.253	15355
845.389	15241
845.525	15340
845.661	15287
845.798	15218
845.934	15211
846.07	15112
846.206	15249
846.342	15275
846.478	15207
846.614	14998
846.75	14967
846.886	15036
847.022	14998
847.158	14998
847.294	15047
847.429	14941
847.565	14868
847.701	15108
847.837	14773
847.972	14636
848.108	14796
848.244	14670
848.379	14640
848.515	14526
848.65	14530
848.786	14571
848.921	14541
849.057	14651
849.192	14579
849.328	14594
849.463	14556
849.598	14526
849.734	14507
849.869	14393
850.004	14324
850.14	14396
850.275	14286
850.41	14313
850.545	14343
850.68	14389
850.815	14339
850.95	14294
851.085	14514
851.22	14434
851.355	14294
851.49	14199
851.625	14358
851.76	14332
851.895	14195
852.03	14214
852.165	14320
852.299	14377
852.434	14370
852.569	14301
852.703	14248
852.838	14362
852.973	14518
853.107	14495
853.242	14263
853.376	14218
853.511	14092
853.645	14130
853.78	14339
853.914	14164
854.048	14088
854.183	14069
854.317	14187
854.451	14317
854.585	14149
854.72	14142
854.854	14202
854.988	14153
855.122	14058
855.256	14081
855.39	14199
855.524	14313
855.658	14298
855.792	14248
855.926	14195
856.06	14218
856.194	14305
856.327	14183
856.461	14103
856.595	14149
856.729	14244
856.862	14320
856.996	14206
857.13	14278
857.263	14252
857.397	14332
857.53	14210
857.664	14225
857.797	14252
857.931	14366
858.064	14176
858.197	14233
858.331	14145
858.464	14290
858.597	14039
858.731	14100
858.864	14225
858.997	14218
859.13	14195
859.263	14210
859.396	14191
859.529	14168
859.662	14111
859.795	14183
859.928	14237
860.061	14358
860.194	14427
860.327	14180
860.46	14145
860.592	14339
860.725	14301
860.858	14355
860.99	14202
861.123	14142
861.256	14065
861.388	14115
861.521	14762
861.653	14123
861.786	14020
861.918	14027
862.05	14107
862.183	14168
862.315	14187
862.447	14218
862.58	14126
862.712	14043
862.844	13890
862.976	14039
863.108	14050
863.24	14362
863.372	13906
863.504	14020
863.636	13963
863.768	14111
863.9	13963
864.032	13951
864.164	13928
864.296	13970
864.428	14073
864.559	14088
864.691	14081
864.823	14077
864.954	13986
865.086	14119
865.217	13947
865.349	13909
865.48	14031
865.612	13963
865.743	14157
865.875	13871
866.006	13936
866.137	13959
866.269	13955
866.4	13989
866.531	13989
866.662	13902
866.793	13963
866.924	13936
867.055	14100
867.186	14050
867.317	13951
867.448	13868
867.579	13928
867.71	13955
867.841	13879
867.972	13917
868.103	13955
868.233	13970
868.364	13955
868.495	14073
868.625	14161
868.756	14286
868.886	14142
869.017	14221
869.147	14320
869.278	14332
869.408	14240
869.539	14168
869.669	14199
869.799	14286
869.929	14343
870.06	14362
870.19	14556
870.32	14522
870.45	14514
870.58	14579
870.71	14587
870.84	14651
870.97	14560
871.1	14655
871.23	14727
871.36	14815
871.489	14697
871.619	14811
871.749	14845
871.879	14937
872.008	14960
872.138	14830
872.267	14800
872.397	14598
872.526	14625
872.656	14644
872.785	14739
872.915	14906
873.044	14891
873.173	14811
873.303	14830
873.432	14914
873.561	14948
873.69	14788
873.819	14971
873.948	14914
874.077	14807
874.206	14845
874.335	14891
874.464	14941
874.593	15165
874.722	15017
874.851	15218
874.979	15085
875.108	15142
875.237	15165
875.365	15112
875.494	15173
875.623	15291
875.751	15123
875.88	15218
876.008	15370
876.136	15336
876.265	15591
876.393	15747
876.521	15591
876.65	15747
876.778	15576
876.906	15530
877.034	15553
877.162	15595
877.29	15500
877.418	15660
877.546	15523
877.674	15587
877.802	15606
877.93	15564
878.058	15584
878.185	15485
878.313	15530
878.441	15561
878.568	15367
878.696	15553
878.824	15652
878.951	15648
879.079	15701
879.206	15922
879.333	15724
879.461	15633
879.588	15770
879.715	15724
879.842	15861
879.97	15705
880.097	15386
880.224	15412
880.351	15424
880.478	15420
880.605	15435
880.732	15393
880.859	15637
880.986	15401
881.112	15466
881.239	15317
881.366	15203
881.493	15138
881.619	15104
881.746	15093
881.872	15032
881.999	15017
882.125	15032
882.252	15173
882.378	15188
882.505	15264
882.631	15077
882.757	14944
882.883	14975
883.01	14971
883.136	14895
883.262	14899
883.388	14792
883.514	14979
883.64	14944
883.766	14849
883.892	14701
884.018	14754
884.143	14937
884.269	14967
884.395	14674
884.52	14625
884.646	14511
884.772	14454
884.897	14503
885.023	14625
885.148	14754
885.274	14800
885.399	14556
885.524	14526
885.65	14610
885.775	14735
885.9	14590
886.025	14792
886.15	14705
886.275	14590
886.4	14579
886.525	14621
886.65	14549
886.775	14492
886.9	14682
887.025	14842
887.149	14587
887.274	14503
887.399	14469
887.523	14374
887.648	14412
887.773	14358
887.897	14442
888.021	14469
888.146	14469
888.27	14514
888.395	14602
888.519	14469
888.643	14503
888.767	14427
888.891	14400
889.015	14180
889.139	14366
889.263	14259
889.387	14385
889.511	14457
889.635	14423
889.759	14320
889.883	14339
890.006	14362
890.13	14377
890.254	14214
890.377	14218
890.501	14096
890.624	14157
890.748	14248
890.871	14020
890.995	14008
891.118	13978
891.241	13917
891.364	14077
891.488	14069
891.611	13997
891.734	14024
891.857	14191
891.98	14050
892.103	14096
892.226	14130
892.349	13963
892.471	13871
892.594	13955
892.717	13982
892.839	13993
892.962	14157
893.085	14001
893.207	14001
893.33	13890
893.452	13925
893.575	14073
893.697	13986
893.819	14187
893.941	14259
894.064	14073
894.186	13928
894.308	14012
894.43	14142
894.552	14142
894.674	14119
894.796	13978
894.918	14043
895.04	14050
895.161	14218
895.283	14195
895.405	14100
895.526	14103
895.648	14084
895.769	14161
895.891	14092
896.012	14180
896.134	14172
896.255	14221
896.376	14100
896.498	14202
896.619	14225
896.74	14199
896.861	14324
896.982	14575
897.103	14686
897.224	14533
897.345	14484
897.466	14370
897.587	14484
897.708	14659
897.828	14427
897.949	14446
898.07	14263
898.19	14492
898.311	14667
898.431	14434
898.552	14495
898.672	14564
898.792	14686
898.913	14560
899.033	14484
899.153	14374
899.273	14278
899.393	14324
899.513	14465
899.633	14370
899.753	14530
899.873	14229
899.993	14499
900.113	14488
900.232	14442
900.352	14393
900.472	14317
900.591	14199
900.711	14252
900.83	14244
900.95	14381
901.069	14381
901.189	14161
901.308	14027
901.427	13917
901.546	14008
901.665	14107
901.784	13947
901.904	13837
902.023	13826
902.141	13518
902.26	13510
902.379	13514
902.498	13487
902.617	13422
902.735	13483
902.854	13514
902.973	13449
903.091	13221
903.21	13225
903.328	13282
903.446	13198
903.565	13076
903.683	13118
903.801	13000
903.919	13038
904.038	12993
904.156	12985
904.274	13031
904.392	12878
904.51	12840
904.627	12810
904.745	12954
904.863	13004
904.981	12757
905.098	12589
905.216	12486
905.334	12639
905.451	12650
905.569	12620
905.686	12589
905.803	12563
905.921	12353
906.038	12509
906.155	12426
906.272	12308
906.389	12357
906.506	12201
906.623	12190
906.74	12201
906.857	12125
906.974	12076
907.091	12235
907.208	12357
907.324	12235
907.441	12144
907.557	11950
907.674	11969
907.79	11904
907.907	11961
908.023	12038
908.139	11961
908.256	11984
908.372	11779
908.488	11718
908.604	11745
908.72	11596
908.836	11688
908.952	11741
909.068	11767
909.184	11836
909.3	11688
909.415	11802
909.531	11691
909.647	11501
909.762	11501
909.878	11448
909.993	11512
910.108	11429
910.224	11349
910.339	11532
910.454	11379
910.57	11322
910.685	11197
910.8	11474
910.915	11463
911.03	11383
911.145	11159
911.259	11197
911.374	11147
911.489	11056
911.604	11083
911.718	10881
911.833	10999
911.947	10831
912.062	10755
912.176	10919
912.291	10930
912.405	10915
912.519	11113
912.633	11151
912.748	11014
912.862	10892
912.976	10812
913.09	10687
913.204	10717
913.318	10820
913.431	10896
913.545	10915
913.659	10854
913.772	10835
913.886	10672
914	10710
914.113	10801
914.226	10820
914.34	10744
914.453	10554
914.566	10793
914.68	10664
914.793	10675
914.906	10489
915.019	10424
915.132	10394
915.245	10424
915.358	10409
915.47	10436
915.583	10402
915.696	10504
915.809	10615
915.921	10607
916.034	10371
916.146	10432
916.259	10356
916.371	10500
916.483	10440
916.595	10390
916.708	10356
916.82	10352
916.932	10382
917.044	10390
917.156	10363
917.268	10177
917.38	10192
917.491	10257
917.603	10314
917.715	10394
917.826	10310
917.938	10223
918.049	10120
918.161	10185
918.272	10409
918.384	10436
918.495	10291
918.606	10169
918.717	10135
918.828	10090
918.939	10207
919.05	10109
919.161	10097
919.272	9983
919.383	10013
919.494	10234
919.604	10310
919.715	10181
919.826	10059
919.936	10105
920.047	10215
920.157	10257
920.267	10341
920.378	10143
920.488	10181
920.598	10325
920.708	10462
920.818	10325
920.928	10455
921.038	10531
921.148	10462
921.258	10219
921.368	10090
921.477	10082
921.587	10010
921.697	9934
921.806	10029
921.916	9922
922.025	9743
922.134	9770
922.244	9595
922.353	9800
922.462	9660
922.571	9568
922.68	9424
922.789	9355
922.898	9439
923.007	9359
923.116	9374
923.224	9397
923.333	9405
923.442	9348
923.55	9275
923.659	9332
923.767	9348
923.876	9256
923.984	9370
924.092	9226
924.201	9283
924.309	9298
924.417	9340
924.525	9173
924.633	9283
924.741	10192
924.849	9047
924.956	9192
925.064	9138
925.172	9055
925.279	9013
925.387	9161
925.494	9135
925.602	9203
925.709	9150
925.816	9024
925.924	9032
926.031	9154
926.138	9100
926.245	9199
926.352	8967
926.459	9108
926.566	9214
926.673	9055
926.779	8937
926.886	8880
926.993	8796
927.099	8807
927.206	8762
927.312	8731
927.419	8830
927.525	8781
927.631	8807
927.737	8758
927.843	8731
927.95	8571
928.056	8655
928.162	8689
928.267	8750
928.373	9389
928.479	8781
928.585	8556
928.69	8663
928.796	8731
928.901	8613
929.007	8457
929.112	8655
929.218	8579
929.323	8518
929.428	8480
929.533	8678
929.638	8469
929.743	8476
929.848	8469
929.953	8518
930.058	8419
930.163	8282
930.267	8362
930.372	8400
930.477	8218
930.581	8522
930.685	8324
930.79	8233
930.894	8305
930.998	8259
931.103	8301
931.207	8020
931.311	8062
931.415	7860
931.519	7738
931.623	7761
