Data from test_V78500241_1818.txt Node
Date: Fri Mar 25 14:46:22 CST 2022
User: usil
Spectrometer: V785-0024
Trigger mode: 0
Integration Time (sec): 4.000000E-1
Scans to average: 1
Nonlinearity correction enabled: false
Boxcar width: 0
Storing dark spectrum: false
XAxis mode: Wavelengths
Number of Pixels in Spectrum: 1024
>>>>>Begin Spectral Data<<<<<
801.071	22177
801.214	22188
801.356	21800
801.499	21686
801.641	21606
801.783	21439
801.926	21515
802.068	21359
802.211	21355
802.353	21298
802.496	21184
802.638	21089
802.78	21047
802.923	21009
803.065	20845
803.208	20773
803.35	20952
803.492	21096
803.635	21047
803.777	20933
803.919	20910
804.061	21237
804.204	21051
804.346	20765
804.488	20697
804.63	20842
804.773	20750
804.915	20792
805.057	20895
805.199	20785
805.341	20826
805.483	21032
805.626	20880
805.768	20815
805.91	20754
806.052	20785
806.194	20804
806.336	20887
806.478	20838
806.62	20674
806.762	20868
806.904	20967
807.046	21256
807.188	21214
807.33	21081
807.472	21203
807.614	21047
807.756	21131
807.898	20845
808.04	20750
808.182	20921
808.324	20845
808.465	20800
808.607	21024
808.749	21211
808.891	21310
809.033	21359
809.174	21294
809.316	21199
809.458	21176
809.6	21116
809.741	21230
809.883	21389
810.025	21348
810.166	21317
810.308	21325
810.45	21329
810.591	21180
810.733	21036
810.875	20910
811.016	20800
811.158	20914
811.299	21020
811.441	21043
811.582	21036
811.724	20925
811.865	20956
812.007	20925
812.148	20906
812.29	21032
812.431	21036
812.573	21294
812.714	21302
812.855	21500
812.997	21450
813.138	21743
813.279	21580
813.421	21450
813.562	21359
813.703	21252
813.845	21142
813.986	20906
814.127	20708
814.268	20434
814.41	20602
814.551	20408
814.692	20514
814.833	20415
814.974	20328
815.115	20450
815.256	20347
815.397	20336
815.539	20336
815.68	20202
815.821	20142
815.962	20172
816.103	20252
816.244	20058
816.385	19970
816.526	19982
816.666	19807
816.807	19662
816.948	19712
817.089	19776
817.23	19731
817.371	19578
817.512	19578
817.653	19662
817.793	19559
817.934	19605
818.075	19632
818.216	19662
818.356	19616
818.497	19563
818.638	19377
818.778	19362
818.919	19365
819.06	19316
819.2	19441
819.341	19582
819.481	19476
819.622	19597
819.762	19814
819.903	19677
820.043	19677
820.184	19704
820.324	19601
820.465	19674
820.605	19582
820.746	19548
820.886	19373
821.026	19578
821.167	19616
821.307	19632
821.447	19616
821.588	19453
821.728	19419
821.868	19137
822.008	19023
822.149	19019
822.289	18962
822.429	18745
822.569	18700
822.709	18806
822.849	18612
822.99	18536
823.13	18467
823.27	18467
823.41	18395
823.55	18239
823.69	18327
823.83	18414
823.97	18323
824.11	18076
824.25	18041
824.389	18083
824.529	18026
824.669	18087
824.809	18030
824.949	18201
825.089	18239
825.228	18106
825.368	17859
825.508	17927
825.648	17882
825.787	17954
825.927	17977
826.067	17859
826.206	17798
826.346	17847
826.485	17859
826.625	17908
826.765	17893
826.904	17878
827.044	17699
827.183	17623
827.323	17611
827.462	17611
827.601	17543
827.741	17516
827.88	17566
828.02	17558
828.159	17604
828.298	17627
828.437	17649
828.577	17630
828.716	17699
828.855	17478
828.994	17292
829.134	17273
829.273	17330
829.412	17303
829.551	17254
829.69	17322
829.829	17345
829.968	17292
830.107	17474
830.246	17315
830.385	17216
830.524	17178
830.663	17155
830.802	17006
830.941	16927
831.08	16942
831.219	17003
831.357	17022
831.496	17254
831.635	17025
831.774	16900
831.913	16934
832.051	16721
832.19	16828
832.329	16759
832.467	16607
832.606	16542
832.744	16577
832.883	16565
833.022	16733
833.16	16653
833.299	16763
833.437	16733
833.576	16622
833.714	16710
833.852	16729
833.991	16649
834.129	16702
834.267	16778
834.406	16691
834.544	16797
834.682	16698
834.821	16637
834.959	16774
835.097	16592
835.235	16717
835.373	16679
835.511	16752
835.65	16577
835.788	16462
835.926	16489
836.064	16398
836.202	16447
836.34	16618
836.478	16607
836.615	16497
836.753	16656
836.891	16717
837.029	16698
837.167	16485
837.305	16508
837.443	16531
837.58	16432
837.718	16443
837.856	16489
837.993	16371
838.131	16565
838.269	16348
838.406	16352
838.544	16253
838.681	16169
838.819	16101
838.956	15956
839.094	16036
839.231	16040
839.369	16166
839.506	16348
839.643	16173
839.781	16010
839.918	15926
840.055	16090
840.193	15964
840.33	16029
840.467	15991
840.604	16036
840.742	16253
840.879	15903
841.016	15884
841.153	15918
841.29	16219
841.427	15991
841.564	15991
841.701	15953
841.838	15975
841.975	15804
842.112	15880
842.249	15766
842.385	15743
842.522	16025
842.659	15804
842.796	15720
842.933	15785
843.069	15747
843.206	15694
843.343	15800
843.479	15720
843.616	15831
843.752	15610
843.889	15526
844.025	15679
844.162	15584
844.298	15720
844.435	15466
844.571	15466
844.708	15618
844.844	15728
844.98	15736
845.117	15671
845.253	15542
845.389	15447
845.525	15447
845.661	15504
845.798	15378
845.934	15466
846.07	15363
846.206	15389
846.342	15435
846.478	15332
846.614	15230
846.75	15146
846.886	15112
847.022	15214
847.158	15272
847.294	15070
847.429	15218
847.565	15055
847.701	15256
847.837	14941
847.972	14864
848.108	14880
848.244	14918
848.379	14826
848.515	14746
848.65	14724
848.786	14758
848.921	14807
849.057	14792
849.192	14773
849.328	14735
849.463	14773
849.598	14663
849.734	14659
849.869	14606
850.004	14514
850.14	14579
850.275	14537
850.41	14469
850.545	14358
850.68	14575
850.815	14606
850.95	14469
851.085	14716
851.22	14560
851.355	14473
851.49	14518
851.625	14533
851.76	14454
851.895	14408
852.03	14366
852.165	14476
852.299	14488
852.434	14625
852.569	14495
852.703	14575
852.838	14568
852.973	14724
853.107	14648
853.242	14507
853.376	14355
853.511	14263
853.645	14381
853.78	14457
853.914	14454
854.048	14263
854.183	14332
854.317	14503
854.451	14495
854.585	14393
854.72	14282
854.854	14484
854.988	14248
855.122	14313
855.256	14336
855.39	14438
855.524	14362
855.658	14454
855.792	14358
855.926	14396
856.06	14488
856.194	14461
856.327	14370
856.461	14324
856.595	14278
856.729	14396
856.862	14434
856.996	14377
857.13	14393
857.263	14499
857.397	14537
857.53	14347
857.664	14541
857.797	14400
857.931	14465
858.064	14465
858.197	14492
858.331	14298
858.464	14305
858.597	14347
858.731	14313
858.864	14438
858.997	14412
859.13	14366
859.263	14374
859.396	14522
859.529	14408
859.662	14358
859.795	14366
859.928	14374
860.061	14583
860.194	14625
860.327	14339
860.46	14355
860.592	14427
860.725	14530
860.858	14522
860.99	14343
861.123	14229
861.256	14339
861.388	14457
861.521	14941
861.653	14229
861.786	14244
861.918	14172
862.05	14377
862.183	14358
862.315	14343
862.447	14385
862.58	14317
862.712	14183
862.844	14084
862.976	14244
863.108	14221
863.24	14442
863.372	14138
863.504	14092
863.636	14172
863.768	14218
863.9	14164
864.032	14035
864.164	14149
864.296	14187
864.428	14332
864.559	14263
864.691	14237
864.823	14271
864.954	14149
865.086	14126
865.217	14024
865.349	14126
865.48	14020
865.612	14103
865.743	14278
865.875	14145
866.006	14043
866.137	14073
866.269	14062
866.4	14149
866.531	14088
866.662	14016
866.793	14111
866.924	14119
867.055	14123
867.186	14191
867.317	14039
867.448	14062
867.579	14062
867.71	14107
867.841	14107
867.972	14081
868.103	14199
868.233	14092
868.364	14176
868.495	14282
868.625	14431
868.756	14469
868.886	14298
869.017	14381
869.147	14438
869.278	14480
869.408	14237
869.539	14377
869.669	14419
869.799	14480
869.929	14587
870.06	14469
870.19	14720
870.32	14762
870.45	14727
870.58	14781
870.71	14876
870.84	14857
870.97	14800
871.1	14765
871.23	14956
871.36	14956
871.489	14937
871.619	14956
871.749	14986
871.879	14979
872.008	14994
872.138	14998
872.267	14998
872.397	14906
872.526	14777
872.656	14845
872.785	14762
872.915	14990
873.044	15051
873.173	15070
873.303	14979
873.432	15051
873.561	15097
873.69	15058
873.819	14941
873.948	15097
874.077	15062
874.206	15032
874.335	15017
874.464	15233
874.593	15367
874.722	15359
874.851	15340
874.979	15336
875.108	15466
875.237	15348
875.365	15294
875.494	15291
875.623	15408
875.751	15233
875.88	15344
876.008	15523
876.136	15595
876.265	15778
876.393	15945
876.521	15751
876.65	15781
876.778	15713
876.906	15660
877.034	15682
877.162	15717
877.29	15709
877.418	15717
877.546	15781
877.674	15759
877.802	15713
877.93	15747
878.058	15625
878.185	15606
878.313	15808
878.441	15762
878.568	15656
878.696	15705
878.824	15804
878.951	15793
879.079	15987
879.206	15972
879.333	15956
879.461	15675
879.588	15819
879.715	15972
879.842	16097
879.97	15774
880.097	15584
880.224	15576
880.351	15618
880.478	15633
880.605	15561
880.732	15534
880.859	15838
880.986	15652
881.112	15736
881.239	15500
881.366	15397
881.493	15268
881.619	15291
881.746	15329
881.872	15218
881.999	15184
882.125	15233
882.252	15325
882.378	15306
882.505	15424
882.631	15230
882.757	15013
882.883	15077
883.01	15116
883.136	15024
883.262	14868
883.388	14887
883.514	15043
883.64	15150
883.766	15058
883.892	14830
884.018	14979
884.143	15100
884.269	15119
884.395	14914
884.52	14708
884.646	14712
884.772	14670
884.897	14648
885.023	14804
885.148	14880
885.274	14895
885.399	14914
885.524	14785
885.65	14849
885.775	14853
885.9	14777
886.025	14937
886.15	14906
886.275	14773
886.4	14720
886.525	14727
886.65	14830
886.775	14594
886.9	14944
887.025	15013
887.149	14807
887.274	14644
887.399	14583
887.523	14571
887.648	14526
887.773	14507
887.897	14701
888.021	14705
888.146	14583
888.27	14682
888.395	14686
888.519	14625
888.643	14602
888.767	14716
888.891	14511
889.015	14522
889.139	14606
889.263	14415
889.387	14537
889.511	14773
889.635	14598
889.759	14431
889.883	14442
890.006	14522
890.13	14549
890.254	14393
890.377	14408
890.501	14313
890.624	14199
890.748	14389
890.871	14233
890.995	14130
891.118	14107
891.241	14103
891.364	14164
891.488	14271
891.611	14142
891.734	14278
891.857	14161
891.98	14248
892.103	14275
892.226	14191
892.349	14199
892.471	14046
892.594	14218
892.717	14195
892.839	14191
892.962	14103
893.085	14244
893.207	14199
893.33	14084
893.452	14058
893.575	14164
893.697	14096
893.819	14393
893.941	14374
894.064	14343
894.186	14138
894.308	14126
894.43	14317
894.552	14434
894.674	14259
894.796	14176
894.918	14221
895.04	14240
895.161	14381
895.283	14259
895.405	14202
895.526	14199
895.648	14332
895.769	14385
895.891	14370
896.012	14434
896.134	14370
896.255	14328
896.376	14347
896.498	14294
896.619	14419
896.74	14396
896.861	14412
896.982	14644
897.103	14857
897.224	14667
897.345	14590
897.466	14537
897.587	14575
897.708	14735
897.828	14598
897.949	14579
898.07	14465
898.19	14583
898.311	14712
898.431	14674
898.552	14739
898.672	14739
898.792	14765
898.913	14746
899.033	14674
899.153	14518
899.273	14465
899.393	14522
899.513	14602
899.633	14579
899.753	14537
899.873	14587
899.993	14507
900.113	14507
900.232	14461
900.352	14533
900.472	14400
900.591	14389
900.711	14377
900.83	14328
900.95	14518
901.069	14537
901.189	14339
901.308	14199
901.427	14100
901.546	14058
901.665	14145
901.784	14210
901.904	13921
902.023	13841
902.141	13719
902.26	13674
902.379	13822
902.498	13677
902.617	13594
902.735	13651
902.854	13674
902.973	13586
903.091	13381
903.21	13339
903.328	13339
903.446	13316
903.565	13171
903.683	13206
903.801	13118
903.919	13266
904.038	13259
904.156	13088
904.274	13110
904.392	13034
904.51	13004
904.627	13023
904.745	13004
904.863	13095
904.981	12848
905.098	12692
905.216	12722
905.334	12802
905.451	12616
905.569	12658
905.686	12734
905.803	12688
905.921	12582
906.038	12684
906.155	12566
906.272	12604
906.389	12422
906.506	12372
906.623	12369
906.74	12304
906.857	12144
906.974	12228
907.091	12403
907.208	12403
907.324	12296
907.441	12144
907.557	12095
907.674	12022
907.79	12026
907.907	12041
908.023	12049
908.139	12045
908.256	12057
908.372	12026
908.488	11946
908.604	11786
908.72	11790
908.836	11821
908.952	11661
909.068	11859
909.184	11946
909.3	11813
909.415	11756
909.531	11836
909.647	11589
909.762	11554
909.878	11505
909.993	11547
910.108	11562
910.224	11467
910.339	11592
910.454	11566
910.57	11490
910.685	11425
910.8	11657
910.915	11589
911.03	11341
911.145	11406
911.259	11273
911.374	11258
911.489	11128
911.604	11143
911.718	11113
911.833	11041
911.947	10900
912.062	10858
912.176	11060
912.291	10930
912.405	11079
912.519	11296
912.633	11223
912.748	11109
912.862	10972
912.976	10927
913.09	10782
913.204	10869
913.318	10866
913.431	10984
913.545	11041
913.659	11098
913.772	10957
913.886	10763
914	10828
914.113	10847
914.226	10980
914.34	10854
914.453	10649
914.566	10896
914.68	10748
914.793	10755
914.906	10535
915.019	10440
915.132	10538
915.245	10508
915.358	10546
915.47	10561
915.583	10561
915.696	10592
915.809	10653
915.921	10706
916.034	10554
916.146	10474
916.259	10405
916.371	10645
916.483	10588
916.595	10558
916.708	10447
916.82	10504
916.932	10462
917.044	10535
917.156	10535
917.268	10284
917.38	10402
917.491	10348
917.603	10367
917.715	10474
917.826	10527
917.938	10310
918.049	10291
918.161	10379
918.272	10516
918.384	10493
918.495	10485
918.606	10207
918.717	10101
918.828	10215
918.939	10314
919.05	10124
919.161	10169
919.272	10013
919.383	10173
919.494	10295
919.604	10455
919.715	10196
919.826	10246
919.936	10249
920.047	10310
920.157	10287
920.267	10512
920.378	10284
920.488	10295
920.598	10440
920.708	10637
920.818	10470
920.928	10409
921.038	10630
921.148	10565
921.258	10337
921.368	10257
921.477	10173
921.587	10116
921.697	9934
921.806	10150
921.916	9972
922.025	9865
922.134	9800
922.244	9835
922.353	9846
922.462	9743
922.571	9610
922.68	9564
922.789	9469
922.898	9515
923.007	9481
923.116	9557
923.224	9492
923.333	9572
923.442	9443
923.55	9405
923.659	9454
923.767	9454
923.876	9306
923.984	9420
924.092	9344
924.201	9435
924.309	9382
924.417	9321
924.525	9275
924.633	9351
924.741	10249
924.849	9211
924.956	9325
925.064	9112
925.172	9123
925.279	9108
925.387	9184
925.494	9150
925.602	9310
925.709	9230
925.816	9165
925.924	9116
926.031	9275
926.138	9165
926.245	9272
926.352	9039
926.459	9218
926.566	9260
926.673	9169
926.779	8994
926.886	8979
926.993	8929
927.099	8883
927.206	8777
927.312	8838
927.419	8914
927.525	8941
927.631	8986
927.737	8880
927.843	8769
927.95	8651
928.056	8731
928.162	8788
928.267	8902
928.373	9435
928.479	8883
928.585	8571
928.69	8807
928.796	8857
928.901	8651
929.007	8556
929.112	8674
929.218	8686
929.323	8678
929.428	8610
929.533	8712
929.638	8564
929.743	8545
929.848	8545
929.953	8556
930.058	8511
930.163	8324
930.267	8347
930.372	8541
930.477	8404
930.581	8575
930.685	8484
930.79	8210
930.894	8347
930.998	8309
931.103	8450
931.207	8065
931.311	8084
931.415	7974
931.519	7795
931.623	7894
