Data from test_V78500241_466.txt Node
Date: Fri Mar 25 14:36:57 CST 2022
User: usil
Spectrometer: V785-0024
Trigger mode: 0
Integration Time (sec): 4.000000E-1
Scans to average: 1
Nonlinearity correction enabled: false
Boxcar width: 0
Storing dark spectrum: false
XAxis mode: Wavelengths
Number of Pixels in Spectrum: 1024
>>>>>Begin Spectral Data<<<<<
801.071	26609
801.214	26408
801.356	26244
801.499	26278
801.641	26027
801.783	25970
801.926	25913
802.068	25966
802.211	25788
802.353	25795
802.496	25677
802.638	25540
802.78	25594
802.923	25373
803.065	25457
803.208	25396
803.35	25518
803.492	25601
803.635	25635
803.777	25544
803.919	25643
804.061	25761
804.204	25559
804.346	25407
804.488	25381
804.63	25510
804.773	25464
804.915	25449
805.057	25578
805.199	25597
805.341	25597
805.483	25487
805.626	25567
805.768	25460
805.91	25552
806.052	25457
806.194	25434
806.336	25609
806.478	25613
806.62	25552
806.762	25666
806.904	25868
807.046	25989
807.188	25970
807.33	25966
807.472	25875
807.614	25902
807.756	25772
807.898	25696
808.04	25639
808.182	25559
808.324	25582
808.465	25734
808.607	25826
808.749	25909
808.891	26035
809.033	26176
809.174	26130
809.316	26031
809.458	25925
809.6	25875
809.741	25921
809.883	26142
810.025	26263
810.166	26229
810.308	26206
810.45	26183
810.591	26077
810.733	25879
810.875	25830
811.016	25715
811.158	25681
811.299	25921
811.441	26005
811.582	26043
811.724	25727
811.865	25814
812.007	25761
812.148	25742
812.29	25826
812.431	25917
812.573	26122
812.714	26111
812.855	26313
812.997	26351
813.138	26484
813.279	26366
813.421	26328
813.562	26298
813.703	26149
813.845	25917
813.986	25651
814.127	25400
814.268	25369
814.41	25460
814.551	25426
814.692	25419
814.833	25377
814.974	25339
815.115	25369
815.256	25175
815.397	25247
815.539	25282
815.68	24970
815.821	25251
815.962	25114
816.103	25110
816.244	24897
816.385	24837
816.526	24677
816.666	24738
816.807	24604
816.948	24540
817.089	24574
817.23	24601
817.371	24399
817.512	24452
817.653	24517
817.793	24433
817.934	24467
818.075	24498
818.216	24604
818.356	24384
818.497	24391
818.638	24178
818.778	24205
818.919	24239
819.06	24190
819.2	24350
819.341	24414
819.481	24357
819.622	24437
819.762	24703
819.903	24722
820.043	24429
820.184	24403
820.324	24540
820.465	24559
820.605	24372
820.746	24464
820.886	24270
821.026	24502
821.167	24391
821.307	24433
821.447	24186
821.588	24300
821.728	24091
821.868	23973
822.008	23843
822.149	23760
822.289	23775
822.429	23501
822.569	23558
822.709	23410
822.849	23288
822.99	23193
823.13	23326
823.27	23098
823.41	23083
823.55	23052
823.69	23124
823.83	23010
823.97	22984
824.11	22946
824.25	22866
824.389	22816
824.529	22972
824.669	22752
824.809	22965
824.949	22771
825.089	22904
825.228	22854
825.368	22626
825.508	22691
825.648	22675
825.787	22713
825.927	22630
826.067	22531
826.206	22645
826.346	22580
826.485	22702
826.625	22557
826.765	22752
826.904	22569
827.044	22466
827.183	22382
827.323	22284
827.462	22329
827.601	22284
827.741	22360
827.88	22306
828.02	22265
828.159	22253
828.298	22371
828.437	22325
828.577	22219
828.716	22436
828.855	22166
828.994	22032
829.134	22036
829.273	22029
829.412	21922
829.551	21941
829.69	22051
829.829	21953
829.968	22059
830.107	22093
830.246	21991
830.385	21926
830.524	22010
830.663	21770
830.802	21713
830.941	21682
831.08	21462
831.219	21686
831.357	21583
831.496	21793
831.635	21599
831.774	21393
831.913	21507
832.051	21249
832.19	21386
832.329	21325
832.467	21252
832.606	21180
832.744	21127
832.883	21135
833.022	21214
833.16	21256
833.299	21214
833.437	21344
833.576	21226
833.714	21161
833.852	21230
833.991	21260
834.129	21283
834.267	21378
834.406	21237
834.544	21214
834.682	21332
834.821	21218
834.959	21389
835.097	21146
835.235	21386
835.373	21363
835.511	21184
835.65	21154
835.788	21131
835.926	21055
836.064	20906
836.202	20906
836.34	21077
836.478	21089
836.615	21085
836.753	21020
836.891	21214
837.029	20979
837.167	21043
837.305	21028
837.443	20967
837.58	20929
837.718	20956
837.856	21062
837.993	20929
838.131	20921
838.269	20781
838.406	20948
838.544	20762
838.681	20594
838.819	20484
838.956	20431
839.094	20442
839.231	20522
839.369	20556
839.506	20651
839.643	20579
839.781	20431
839.918	20298
840.055	20457
840.193	20381
840.33	20332
840.467	20343
840.604	20320
840.742	20590
840.879	20229
841.016	20244
841.153	20218
841.29	20343
841.427	20214
841.564	20495
841.701	20305
841.838	20229
841.975	20256
842.112	20248
842.249	20092
842.385	20031
842.522	20286
842.659	20142
842.796	19963
842.933	20096
843.069	19913
843.206	20050
843.343	20122
843.479	20073
843.616	19986
843.752	19830
843.889	19788
844.025	19921
844.162	19681
844.298	19879
844.435	19727
844.571	19651
844.708	19765
844.844	19890
844.98	19967
845.117	19799
845.253	19731
845.389	19662
845.525	19677
845.661	19677
845.798	19487
845.934	19559
846.07	19628
846.206	19518
846.342	19628
846.478	19575
846.614	19381
846.75	19316
846.886	19221
847.022	19301
847.158	19240
847.294	19369
847.429	19270
847.565	19251
847.701	19502
847.837	19053
847.972	18977
848.108	19031
848.244	18981
848.379	18753
848.515	18817
848.65	18848
848.786	18852
848.921	18814
849.057	18882
849.192	18916
849.328	18920
849.463	18821
849.598	18821
849.734	18844
849.869	18661
850.004	18688
850.14	18563
850.275	18612
850.41	18464
850.545	18448
850.68	18559
850.815	18540
850.95	18544
851.085	18665
851.22	18730
851.355	18585
851.49	18506
851.625	18498
851.76	18544
851.895	18391
852.03	18418
852.165	18559
852.299	18582
852.434	18730
852.569	18544
852.703	18551
852.838	18620
852.973	18616
853.107	18620
853.242	18566
853.376	18327
853.511	18152
853.645	18300
853.78	18483
853.914	18448
854.048	18372
854.183	18456
854.317	18479
854.451	18532
854.585	18361
854.72	18353
854.854	18426
854.988	18300
855.122	18319
855.256	18270
855.39	18289
855.524	18410
855.658	18277
855.792	18399
855.926	18357
856.06	18403
856.194	18464
856.327	18327
856.461	18350
856.595	18289
856.729	18342
856.862	18433
856.996	18509
857.13	18414
857.263	18422
857.397	18365
857.53	18346
857.664	18357
857.797	18422
857.931	18563
858.064	18369
858.197	18479
858.331	18285
858.464	18243
858.597	18220
858.731	18247
858.864	18228
858.997	18315
859.13	18266
859.263	18346
859.396	18410
859.529	18376
859.662	18209
859.795	18194
859.928	18247
860.061	18433
860.194	18479
860.327	18285
860.46	18289
860.592	18361
860.725	18422
860.858	18422
860.99	18209
861.123	18300
861.256	18201
861.388	18273
861.521	18875
861.653	18159
861.786	18068
861.918	18270
862.05	18224
862.183	18285
862.315	18372
862.447	18414
862.58	18323
862.712	18148
862.844	17984
862.976	18277
863.108	18247
863.24	18342
863.372	18011
863.504	18117
863.636	17980
863.768	17999
863.9	18098
864.032	17893
864.164	17996
864.296	18019
864.428	18232
864.559	18106
864.691	18117
864.823	18091
864.954	18011
865.086	17950
865.217	17958
865.349	17935
865.48	17961
865.612	17984
865.743	18095
865.875	17977
866.006	17912
866.137	17882
866.269	17988
866.4	17958
866.531	17882
866.662	17874
866.793	17851
866.924	17897
867.055	17950
867.186	17977
867.317	17946
867.448	17855
867.579	17878
867.71	17653
867.841	17836
867.972	17927
868.103	17950
868.233	18026
868.364	17817
868.495	18026
868.625	18060
868.756	18155
868.886	18026
869.017	18041
869.147	18228
869.278	18270
869.408	18178
869.539	18155
869.669	18171
869.799	18087
869.929	18220
870.06	18277
870.19	18494
870.32	18509
870.45	18506
870.58	18506
870.71	18601
870.84	18502
870.97	18574
871.1	18513
871.23	18726
871.36	18703
871.489	18490
871.619	18669
871.749	18654
871.879	18814
872.008	18711
872.138	18616
872.267	18768
872.397	18684
872.526	18471
872.656	18555
872.785	18525
872.915	18768
873.044	18757
873.173	18669
873.303	18757
873.432	18734
873.561	18909
873.69	18772
873.819	18741
873.948	18856
874.077	18722
874.206	18738
874.335	18798
874.464	18909
874.593	19145
874.722	18985
874.851	19065
874.979	19179
875.108	19110
875.237	19050
875.365	18951
875.494	19023
875.623	19141
875.751	19038
875.88	18981
876.008	19133
876.136	19240
876.265	19384
876.393	19506
876.521	19491
876.65	19510
876.778	19430
876.906	19419
877.034	19350
877.162	19392
877.29	19346
877.418	19464
877.546	19529
877.674	19388
877.802	19430
877.93	19320
878.058	19441
878.185	19247
878.313	19400
878.441	19365
878.568	19244
878.696	19289
878.824	19362
878.951	19495
879.079	19578
879.206	19727
879.333	19666
879.461	19514
879.588	19510
879.715	19620
879.842	19685
879.97	19514
880.097	19278
880.224	19316
880.351	19304
880.478	19346
880.605	19244
880.732	19396
880.859	19514
880.986	19324
881.112	19400
881.239	19145
881.366	19012
881.493	19042
881.619	18875
881.746	18886
881.872	18856
881.999	18894
882.125	18859
882.252	18905
882.378	18901
882.505	19038
882.631	18753
882.757	18658
882.883	18749
883.01	18726
883.136	18757
883.262	18517
883.388	18437
883.514	18635
883.64	18776
883.766	18589
883.892	18467
884.018	18604
884.143	18620
884.269	18692
884.395	18277
884.52	18266
884.646	18228
884.772	18209
884.897	18247
885.023	18266
885.148	18544
885.274	18467
885.399	18456
885.524	18243
885.65	18410
885.775	18258
885.9	18346
886.025	18350
886.15	18414
886.275	18220
886.4	18171
886.525	18174
886.65	18144
886.775	18220
886.9	18380
887.025	18479
887.149	18296
887.274	18152
887.399	17996
887.523	18015
887.648	17961
887.773	17893
887.897	18076
888.021	18182
888.146	17908
888.27	18038
888.395	18182
888.519	18121
888.643	18098
888.767	18057
888.891	17977
889.015	17912
889.139	18003
889.263	17840
889.387	18003
889.511	18087
889.635	18068
889.759	17855
889.883	17821
890.006	17855
890.13	17870
890.254	17764
890.377	17874
890.501	17672
890.624	17600
890.748	17653
890.871	17668
890.995	17440
891.118	17395
891.241	17490
891.364	17554
891.488	17585
891.611	17440
891.734	17516
891.857	17551
891.98	17570
892.103	17490
892.226	17516
892.349	17444
892.471	17387
892.594	17410
892.717	17414
892.839	17341
892.962	17501
893.085	17535
893.207	17455
893.33	17337
893.452	17254
893.575	17402
893.697	17387
893.819	17619
893.941	17775
894.064	17528
894.186	17444
894.308	17402
894.43	17532
894.552	17646
894.674	17596
894.796	17452
894.918	17383
895.04	17417
895.161	17547
895.283	17512
895.405	17448
895.526	17532
895.648	17414
895.769	17528
895.891	17592
896.012	17581
896.134	17581
896.255	17516
896.376	17573
896.498	17592
896.619	17554
896.74	17581
896.861	17703
896.982	17901
897.103	18060
897.224	17828
897.345	17722
897.466	17726
897.587	17756
897.708	17889
897.828	17889
897.949	17638
898.07	17699
898.19	17790
898.311	17889
898.431	17817
898.552	17775
898.672	17935
898.792	17783
898.913	17882
899.033	17642
899.153	17554
899.273	17486
899.393	17577
899.513	17573
899.633	17661
899.753	17570
899.873	17509
899.993	17554
900.113	17478
900.232	17577
900.352	17474
900.472	17356
900.591	17299
900.711	17345
900.83	17315
900.95	17463
901.069	17463
901.189	17318
901.308	17025
901.427	17132
901.546	17018
901.665	16999
901.784	17056
901.904	16942
902.023	16744
902.141	16755
902.26	16615
902.379	16637
902.498	16584
902.617	16386
902.735	16561
902.854	16500
902.973	16462
903.091	16265
903.21	16192
903.328	16211
903.446	16120
903.565	16078
903.683	16044
903.801	15987
903.919	16051
904.038	16006
904.156	15819
904.274	15892
904.392	15846
904.51	15770
904.627	15762
904.745	15880
904.863	15835
904.981	15526
905.098	15515
905.216	15591
905.334	15553
905.451	15515
905.569	15374
905.686	15511
905.803	15382
905.921	15287
906.038	15389
906.155	15264
906.272	15180
906.389	15256
906.506	15093
906.623	15062
906.74	15074
906.857	14895
906.974	14975
907.091	15127
907.208	15184
907.324	15055
907.441	14967
907.557	14910
907.674	14796
907.79	14739
907.907	14659
908.023	14853
908.139	14872
908.256	14674
908.372	14598
908.488	14670
908.604	14518
908.72	14495
908.836	14465
908.952	14404
909.068	14461
909.184	14442
909.3	14393
909.415	14415
909.531	14492
909.647	14347
909.762	14275
909.878	14130
909.993	14164
910.108	14153
910.224	14206
910.339	14256
910.454	14050
910.57	13932
910.685	13936
910.8	14259
910.915	14100
911.03	14043
911.145	13845
911.259	13887
911.374	13814
911.489	13655
911.604	13734
911.718	13681
911.833	13578
911.947	13426
912.062	13400
912.176	13415
912.291	13575
912.405	13556
912.519	13780
912.633	13723
912.748	13594
912.862	13525
912.976	13362
913.09	13365
913.204	13335
913.318	13400
913.431	13521
913.545	13491
913.659	13483
913.772	13377
913.886	13274
914	13190
914.113	13312
914.226	13274
914.34	13312
914.453	13129
914.566	13304
914.68	13145
914.793	13156
914.906	12947
915.019	12928
915.132	12833
915.245	12890
915.358	12977
915.47	12901
915.583	13027
915.696	13053
915.809	13103
915.921	13027
916.034	12901
916.146	12787
916.259	12867
916.371	13023
916.483	12833
916.595	12867
916.708	12795
916.82	12844
916.932	12662
917.044	12760
917.156	12722
917.268	12612
917.38	12642
917.491	12631
917.603	12642
917.715	12726
917.826	12753
917.938	12521
918.049	12452
918.161	12639
918.272	12749
918.384	12798
918.495	12555
918.606	12517
918.717	12464
918.828	12448
918.939	12467
919.05	12342
919.161	12555
919.272	12342
919.383	12304
919.494	12486
919.604	12631
919.715	12498
919.826	12384
919.936	12407
920.047	12517
920.157	12403
920.267	12650
920.378	12388
920.488	12391
920.598	12627
920.708	12696
920.818	12582
920.928	12570
921.038	12749
921.148	12665
921.258	12353
921.368	12266
921.477	12258
921.587	12155
921.697	12140
921.806	12148
921.916	12106
922.025	11920
922.134	11840
922.244	11866
922.353	11847
922.462	11756
922.571	11627
922.68	11551
922.789	11539
922.898	11585
923.007	11452
923.116	11547
923.224	11543
923.333	11516
923.442	11417
923.55	11307
923.659	11455
923.767	11478
923.876	11368
923.984	11493
924.092	11284
924.201	11326
924.309	11387
924.417	11265
924.525	11277
924.633	11299
924.741	12194
924.849	11086
924.956	11181
925.064	11132
925.172	11033
925.279	11022
925.387	11086
925.494	11201
925.602	11151
925.709	11159
925.816	10984
925.924	11018
926.031	11041
926.138	10999
926.245	11075
926.352	10968
926.459	11083
926.566	11037
926.673	10934
926.779	10923
926.886	10843
926.993	10771
927.099	10744
927.206	10660
927.312	10649
927.419	10717
927.525	10694
927.631	10698
927.737	10656
927.843	10554
927.95	10443
928.056	10538
928.162	10535
928.267	10596
928.373	11128
928.479	10675
928.585	10367
928.69	10561
928.796	10565
928.901	10493
929.007	10428
929.112	10432
929.218	10386
929.323	10352
929.428	10352
929.533	10421
929.638	10276
929.743	10257
929.848	10314
929.953	10295
930.058	10257
930.163	10010
930.267	10063
930.372	10120
930.477	9979
930.581	10223
930.685	10124
930.79	9922
930.894	10063
930.998	9895
931.103	10044
931.207	9637
931.311	9652
931.415	9542
931.519	9462
931.623	9363
