Data from test_V78500241_1902.txt Node
Date: Fri Mar 25 14:46:57 CST 2022
User: usil
Spectrometer: V785-0024
Trigger mode: 0
Integration Time (sec): 4.000000E-1
Scans to average: 1
Nonlinearity correction enabled: false
Boxcar width: 0
Storing dark spectrum: false
XAxis mode: Wavelengths
Number of Pixels in Spectrum: 1024
>>>>>Begin Spectral Data<<<<<
801.071	22029
801.214	21975
801.356	21804
801.499	21667
801.641	21481
801.783	21610
801.926	21599
802.068	21332
802.211	21256
802.353	21222
802.496	20986
802.638	21055
802.78	21013
802.923	20895
803.065	20777
803.208	20689
803.35	20804
803.492	20883
803.635	20944
803.777	20743
803.919	20773
804.061	21077
804.204	20868
804.346	20823
804.488	20590
804.63	20845
804.773	20640
804.915	20609
805.057	20746
805.199	20651
805.341	20716
805.483	20842
805.626	20746
805.768	20689
805.91	20735
806.052	20758
806.194	20663
806.336	20842
806.478	20625
806.62	20663
806.762	20712
806.904	20804
807.046	21119
807.188	21028
807.33	21020
807.472	21077
807.614	20963
807.756	20979
807.898	20830
808.04	20746
808.182	20731
808.324	20845
808.465	20819
808.607	21013
808.749	21161
808.891	21279
809.033	21256
809.174	21108
809.316	21100
809.458	20990
809.6	21036
809.741	21032
809.883	21154
810.025	21321
810.166	21275
810.308	21150
810.45	21157
810.591	21119
810.733	21055
810.875	20857
811.016	20735
811.158	20743
811.299	20948
811.441	20883
811.582	21032
811.724	20785
811.865	20746
812.007	20902
812.148	20788
812.29	20823
812.431	20929
812.573	21203
812.714	21252
812.855	21230
812.997	21428
813.138	21618
813.279	21378
813.421	21279
813.562	21249
813.703	21089
813.845	20994
813.986	20655
814.127	20526
814.268	20362
814.41	20450
814.551	20343
814.692	20492
814.833	20286
814.974	20328
815.115	20355
815.256	20233
815.397	20218
815.539	20244
815.68	20130
815.821	20031
815.962	20172
816.103	20134
816.244	20020
816.385	19757
816.526	19936
816.666	19685
816.807	19632
816.948	19662
817.089	19639
817.23	19643
817.371	19540
817.512	19590
817.653	19529
817.793	19392
817.934	19510
818.075	19563
818.216	19548
818.356	19453
818.497	19369
818.638	19187
818.778	19076
818.919	19160
819.06	19213
819.2	19327
819.341	19396
819.481	19438
819.622	19506
819.762	19727
819.903	19658
820.043	19483
820.184	19441
820.324	19590
820.465	19590
820.605	19422
820.746	19343
820.886	19377
821.026	19491
821.167	19491
821.307	19586
821.447	19373
821.588	19400
821.728	19327
821.868	19057
822.008	18954
822.149	18913
822.289	18840
822.429	18566
822.569	18623
822.709	18540
822.849	18433
822.99	18448
823.13	18388
823.27	18365
823.41	18311
823.55	18121
823.69	18338
823.83	18281
823.97	18079
824.11	17996
824.25	18060
824.389	17965
824.529	18030
824.669	18019
824.809	18155
824.949	18057
825.089	18057
825.228	17980
825.368	17756
825.508	17863
825.648	17775
825.787	17817
825.927	17783
826.067	17695
826.206	17741
826.346	17889
826.485	17866
826.625	17722
826.765	17999
826.904	17824
827.044	17474
827.183	17543
827.323	17402
827.462	17436
827.601	17509
827.741	17387
827.88	17471
828.02	17353
828.159	17429
828.298	17501
828.437	17558
828.577	17383
828.716	17524
828.855	17433
828.994	17178
829.134	17288
829.273	17246
829.412	17052
829.551	17193
829.69	17189
829.829	17292
829.968	17376
830.107	17322
830.246	17246
830.385	17220
830.524	17193
830.663	17022
830.802	16961
830.941	16873
831.08	16748
831.219	16881
831.357	16831
831.496	17098
831.635	16729
831.774	16809
831.913	16725
832.051	16660
832.19	16645
832.329	16637
832.467	16565
832.606	16508
832.744	16580
832.883	16523
833.022	16432
833.16	16656
833.299	16569
833.437	16565
833.576	16588
833.714	16645
833.852	16577
833.991	16691
834.129	16717
834.267	16694
834.406	16710
834.544	16653
834.682	16645
834.821	16649
834.959	16858
835.097	16664
835.235	16694
835.373	16599
835.511	16645
835.65	16470
835.788	16538
835.926	16424
836.064	16398
836.202	16348
836.34	16626
836.478	16558
836.615	16485
836.753	16577
836.891	16683
837.029	16558
837.167	16504
837.305	16402
837.443	16443
837.58	16432
837.718	16481
837.856	16462
837.993	16379
838.131	16398
838.269	16310
838.406	16318
838.544	16367
838.681	16059
838.819	16124
838.956	15964
839.094	15983
839.231	15975
839.369	16093
839.506	16306
839.643	16177
839.781	15975
839.918	15873
840.055	15930
840.193	15991
840.33	15934
840.467	15899
840.604	15994
840.742	16173
840.879	15743
841.016	15865
841.153	15835
841.29	16063
841.427	15991
841.564	16074
841.701	15979
841.838	15884
841.975	15846
842.112	15804
842.249	15812
842.385	15656
842.522	15857
842.659	15713
842.796	15682
842.933	15797
843.069	15660
843.206	15610
843.343	15804
843.479	15713
843.616	15770
843.752	15507
843.889	15568
844.025	15648
844.162	15477
844.298	15549
844.435	15511
844.571	15568
844.708	15595
844.844	15694
844.98	15682
845.117	15595
845.253	15408
845.389	15355
845.525	15405
845.661	15412
845.798	15367
845.934	15374
846.07	15291
846.206	15340
846.342	15519
846.478	15287
846.614	15085
846.75	15066
846.886	15135
847.022	15237
847.158	15085
847.294	15165
847.429	15104
847.565	14998
847.701	15374
847.837	14826
847.972	14906
848.108	14868
848.244	14910
848.379	14739
848.515	14708
848.65	14712
848.786	14773
848.921	14781
849.057	14807
849.192	14811
849.328	14819
849.463	14598
849.598	14659
849.734	14651
849.869	14602
850.004	14454
850.14	14526
850.275	14507
850.41	14499
850.545	14366
850.68	14412
850.815	14495
850.95	14377
851.085	14564
851.22	14579
851.355	14484
851.49	14465
851.625	14457
851.76	14427
851.895	14298
852.03	14339
852.165	14362
852.299	14488
852.434	14503
852.569	14522
852.703	14442
852.838	14511
852.973	14617
853.107	14594
853.242	14454
853.376	14423
853.511	14123
853.645	14351
853.78	14396
853.914	14275
854.048	14336
854.183	14233
854.317	14381
854.451	14613
854.585	14286
854.72	14256
854.854	14317
854.988	14221
855.122	14301
855.256	14176
855.39	14362
855.524	14415
855.658	14336
855.792	14473
855.926	14309
856.06	14393
856.194	14461
856.327	14320
856.461	14313
856.595	14366
856.729	14240
856.862	14385
856.996	14336
857.13	14434
857.263	14423
857.397	14484
857.53	14332
857.664	14320
857.797	14434
857.931	14446
858.064	14305
858.197	14457
858.331	14404
858.464	14267
858.597	14180
858.731	14324
858.864	14358
858.997	14271
859.13	14374
859.263	14393
859.396	14393
859.529	14294
859.662	14374
859.795	14286
859.928	14294
860.061	14446
860.194	14556
860.327	14355
860.46	14389
860.592	14431
860.725	14495
860.858	14442
860.99	14298
861.123	14233
861.256	14286
861.388	14374
861.521	15085
861.653	14244
861.786	14031
861.918	14267
862.05	14282
862.183	14355
862.315	14271
862.447	14434
862.58	14389
862.712	14081
862.844	14031
862.976	14172
863.108	14149
863.24	14484
863.372	14077
863.504	14096
863.636	14145
863.768	14123
863.9	14100
864.032	14039
864.164	14081
864.296	14039
864.428	14218
864.559	14221
864.691	14149
864.823	14199
864.954	14221
865.086	14145
865.217	14142
865.349	14073
865.48	14100
865.612	14119
865.743	14240
865.875	14073
866.006	14073
866.137	14119
866.269	14115
866.4	14050
866.531	14081
866.662	14016
866.793	14027
866.924	14077
867.055	14111
867.186	14103
867.317	14035
867.448	14024
867.579	14092
867.71	14058
867.841	14062
867.972	14123
868.103	14202
868.233	14084
868.364	14031
868.495	14035
868.625	14214
868.756	14495
868.886	14206
869.017	14343
869.147	14511
869.278	14454
869.408	14434
869.539	14385
869.669	14404
869.799	14431
869.929	14431
870.06	14560
870.19	14758
870.32	14644
870.45	14785
870.58	14731
870.71	14807
870.84	14895
870.97	14735
871.1	14693
871.23	14868
871.36	15001
871.489	14826
871.619	14914
871.749	15013
871.879	14963
872.008	15036
872.138	14899
872.267	14941
872.397	14705
872.526	14682
872.656	14705
872.785	14739
872.915	14971
873.044	15001
873.173	15028
873.303	15047
873.432	15051
873.561	15131
873.69	14956
873.819	14998
873.948	15081
874.077	14967
874.206	15089
874.335	14986
874.464	15138
874.593	15233
874.722	15268
874.851	15321
874.979	15317
875.108	15287
875.237	15302
875.365	15260
875.494	15260
875.623	15340
875.751	15222
875.88	15355
876.008	15454
876.136	15507
876.265	15842
876.393	15857
876.521	15804
876.65	15846
876.778	15819
876.906	15652
877.034	15675
877.162	15656
877.29	15637
877.418	15663
877.546	15705
877.674	15717
877.802	15648
877.93	15717
878.058	15679
878.185	15637
878.313	15652
878.441	15690
878.568	15519
878.696	15591
878.824	15755
878.951	15827
879.079	15937
879.206	15979
879.333	16006
879.461	15861
879.588	15854
879.715	15907
879.842	16006
879.97	15808
880.097	15614
880.224	15580
880.351	15656
880.478	15618
880.605	15492
880.732	15496
880.859	15789
880.986	15561
881.112	15717
881.239	15473
881.366	15450
881.493	15192
881.619	15184
881.746	15230
881.872	15195
881.999	15325
882.125	15195
882.252	15249
882.378	15241
882.505	15359
882.631	15222
882.757	15055
882.883	15123
883.01	14986
883.136	15005
883.262	14944
883.388	14899
883.514	15077
883.64	15203
883.766	15005
883.892	14883
884.018	14918
884.143	15020
884.269	15195
884.395	14804
884.52	14682
884.646	14743
884.772	14644
884.897	14640
885.023	14773
885.148	14941
885.274	14918
885.399	14792
885.524	14811
885.65	14781
885.775	14876
885.9	14678
886.025	14902
886.15	14697
886.275	14708
886.4	14606
886.525	14667
886.65	14731
886.775	14701
886.9	14849
887.025	15017
887.149	14712
887.274	14644
887.399	14549
887.523	14533
887.648	14480
887.773	14484
887.897	14625
888.021	14606
888.146	14514
888.27	14670
888.395	14701
888.519	14682
888.643	14613
888.767	14617
888.891	14507
889.015	14473
889.139	14476
889.263	14393
889.387	14571
889.511	14720
889.635	14655
889.759	14389
889.883	14511
890.006	14476
890.13	14590
890.254	14389
890.377	14415
890.501	14267
890.624	14286
890.748	14339
890.871	14256
890.995	14134
891.118	14096
891.241	14271
891.364	14229
891.488	14347
891.611	14233
891.734	14240
891.857	14275
891.98	14176
892.103	14218
892.226	14256
892.349	14168
892.471	14020
892.594	14138
892.717	14145
892.839	14046
892.962	14126
893.085	14092
893.207	14145
893.33	14130
893.452	14065
893.575	14103
893.697	14199
893.819	14347
893.941	14324
894.064	14252
894.186	14187
894.308	14142
894.43	14309
894.552	14374
894.674	14206
894.796	14164
894.918	14195
895.04	14191
895.161	14290
895.283	14313
895.405	14233
895.526	14206
895.648	14271
895.769	14256
895.891	14309
896.012	14400
896.134	14385
896.255	14240
896.376	14259
896.498	14286
896.619	14381
896.74	14305
896.861	14385
896.982	14720
897.103	14762
897.224	14545
897.345	14545
897.466	14419
897.587	14587
897.708	14701
897.828	14617
897.949	14598
898.07	14476
898.19	14526
898.311	14750
898.431	14648
898.552	14625
898.672	14781
898.792	14750
898.913	14716
899.033	14648
899.153	14556
899.273	14404
899.393	14545
899.513	14492
899.633	14503
899.753	14644
899.873	14427
899.993	14480
900.113	14522
900.232	14560
900.352	14492
900.472	14404
900.591	14282
900.711	14480
900.83	14298
900.95	14469
901.069	14446
901.189	14309
901.308	14126
901.427	14073
901.546	14084
901.665	14001
901.784	14008
901.904	13860
902.023	13868
902.141	13597
902.26	13655
902.379	13712
902.498	13628
902.617	13518
902.735	13639
902.854	13613
902.973	13571
903.091	13339
903.21	13282
903.328	13381
903.446	13259
903.565	13141
903.683	13285
903.801	13038
903.919	13107
904.038	13240
904.156	13057
904.274	13110
904.392	13038
904.51	12973
904.627	13110
904.745	12970
904.863	13065
904.981	12856
905.098	12654
905.216	12711
905.334	12741
905.451	12753
905.569	12738
905.686	12730
905.803	12722
905.921	12547
906.038	12650
906.155	12509
906.272	12471
906.389	12369
906.506	12327
906.623	12289
906.74	12273
906.857	12201
906.974	12152
907.091	12346
907.208	12433
907.324	12334
907.441	12152
907.557	12091
907.674	12106
907.79	11935
907.907	12098
908.023	12068
908.139	12064
908.256	11920
908.372	11935
908.488	11946
908.604	11878
908.72	11847
908.836	11756
908.952	11794
909.068	11840
909.184	11901
909.3	11798
909.415	11843
909.531	11809
909.647	11604
909.762	11592
909.878	11539
909.993	11505
910.108	11661
910.224	11524
910.339	11630
910.454	11398
910.57	11463
910.685	11410
910.8	11661
910.915	11630
911.03	11368
911.145	11269
911.259	11220
911.374	11223
911.489	11155
911.604	11102
911.718	10995
911.833	11048
911.947	10881
912.062	10862
912.176	11029
912.291	10968
912.405	10995
912.519	11273
912.633	11227
912.748	11071
912.862	11060
912.976	10961
913.09	10717
913.204	10828
913.318	10877
913.431	10968
913.545	10995
913.659	11071
913.772	10892
913.886	10812
914	10752
914.113	10919
914.226	10824
914.34	10942
914.453	10714
914.566	10801
914.68	10816
914.793	10702
914.906	10584
915.019	10527
915.132	10462
915.245	10580
915.358	10558
915.47	10523
915.583	10512
915.696	10546
915.809	10622
915.921	10618
916.034	10478
916.146	10489
916.259	10470
916.371	10538
916.483	10634
916.595	10394
916.708	10398
916.82	10455
916.932	10489
917.044	10390
917.156	10371
917.268	10379
917.38	10371
917.491	10314
917.603	10333
917.715	10413
917.826	10516
917.938	10329
918.049	10234
918.161	10356
918.272	10455
918.384	10443
918.495	10440
918.606	10291
918.717	10204
918.828	10280
918.939	10276
919.05	10185
919.161	10230
919.272	10021
919.383	10109
919.494	10268
919.604	10462
919.715	10207
919.826	10185
919.936	10207
920.047	10337
920.157	10306
920.267	10447
920.378	10287
920.488	10234
920.598	10363
920.708	10630
920.818	10451
920.928	10481
921.038	10675
921.148	10618
921.258	10257
921.368	10227
921.477	10139
921.587	10097
921.697	9941
921.806	10059
921.916	10017
922.025	9895
922.134	9778
922.244	9736
922.353	9918
922.462	9698
922.571	9641
922.68	9572
922.789	9549
922.898	9515
923.007	9439
923.116	9526
923.224	9488
923.333	9488
923.442	9344
923.55	9393
923.659	9401
923.767	9530
923.876	9374
923.984	9435
924.092	9192
924.201	9359
924.309	9336
924.417	9260
924.525	9310
924.633	9336
924.741	10314
924.849	9043
924.956	9302
925.064	9146
925.172	9043
925.279	9154
925.387	9253
925.494	9116
925.602	9260
925.709	9165
925.816	9165
925.924	9180
926.031	9226
926.138	9123
926.245	9249
926.352	9036
926.459	9173
926.566	9253
926.673	9131
926.779	8994
926.886	9032
926.993	8902
927.099	8853
927.206	8800
927.312	8849
927.419	8887
927.525	8819
927.631	8921
927.737	8819
927.843	8800
927.95	8644
928.056	8648
928.162	8750
928.267	8800
928.373	9332
928.479	8864
928.585	8682
928.69	8720
928.796	8788
928.901	8735
929.007	8518
929.112	8621
929.218	8610
929.323	8598
929.428	8568
929.533	8750
929.638	8480
929.743	8492
929.848	8621
929.953	8644
930.058	8492
930.163	8347
930.267	8351
930.372	8541
930.477	8317
930.581	8526
930.685	8495
930.79	8305
930.894	8313
930.998	8195
931.103	8461
931.207	8138
931.311	8008
931.415	7944
931.519	7780
931.623	7792
