Data from test_V78500241_947.txt Node
Date: Fri Mar 25 14:40:18 CST 2022
User: usil
Spectrometer: V785-0024
Trigger mode: 0
Integration Time (sec): 4.000000E-1
Scans to average: 1
Nonlinearity correction enabled: false
Boxcar width: 0
Storing dark spectrum: false
XAxis mode: Wavelengths
Number of Pixels in Spectrum: 1024
>>>>>Begin Spectral Data<<<<<
801.071	24224
801.214	24030
801.356	23851
801.499	23836
801.641	23459
801.783	23634
801.926	23672
802.068	23528
802.211	23474
802.353	23349
802.496	23140
802.638	23006
802.78	23098
802.923	23079
803.065	22946
803.208	22854
803.35	22957
803.492	23174
803.635	23048
803.777	22953
803.919	23014
804.061	23349
804.204	22968
804.346	23060
804.488	22790
804.63	22812
804.773	22847
804.915	22866
805.057	23128
805.199	22908
805.341	22934
805.483	22987
805.626	23044
805.768	22809
805.91	23025
806.052	22942
806.194	22854
806.336	23140
806.478	23006
806.62	23105
806.762	23143
806.904	23193
807.046	23581
807.188	23646
807.33	23433
807.472	23642
807.614	23562
807.756	23722
807.898	23855
808.04	23992
808.182	24174
808.324	24357
808.465	24642
808.607	25255
808.749	25635
808.891	25715
809.033	25902
809.174	25613
809.316	25190
809.458	24810
809.6	24502
809.741	24464
809.883	24049
810.025	24091
810.166	24079
810.308	23969
810.45	23855
810.591	23627
810.733	23570
810.875	23471
811.016	23216
811.158	23288
811.299	23455
811.441	23318
811.582	23292
811.724	23193
811.865	23151
812.007	23193
812.148	23151
812.29	23227
812.431	23349
812.573	23573
812.714	23577
812.855	23649
812.997	23676
813.138	23870
813.279	23866
813.421	23596
813.562	23554
813.703	23467
813.845	23414
813.986	23022
814.127	22885
814.268	22675
814.41	22801
814.551	22580
814.692	22634
814.833	22573
814.974	22592
815.115	22675
815.256	22653
815.397	22455
815.539	22512
815.68	22424
815.821	22405
815.962	22417
816.103	22341
816.244	22162
816.385	22196
816.526	22139
816.666	22082
816.807	21926
816.948	22025
817.089	22032
817.23	21861
817.371	21827
817.512	21785
817.653	21781
817.793	21846
817.934	21736
818.075	21934
818.216	21736
818.356	21698
818.497	21580
818.638	21519
818.778	21351
818.919	21382
819.06	21572
819.2	21606
819.341	21618
819.481	21675
819.622	21823
819.762	21907
819.903	21842
820.043	21808
820.184	21724
820.324	21686
820.465	21892
820.605	21842
820.746	21660
820.886	21739
821.026	21576
821.167	21690
821.307	21812
821.447	21614
821.588	21496
821.728	21382
821.868	21336
822.008	21184
822.149	21116
822.289	21043
822.429	21001
822.569	20781
822.709	20663
822.849	20587
822.99	20564
823.13	20602
823.27	20602
823.41	20442
823.55	20286
823.69	20320
823.83	20358
823.97	20267
824.11	20149
824.25	20111
824.389	20168
824.529	20275
824.669	20100
824.809	20267
824.949	20172
825.089	20286
825.228	20176
825.368	20035
825.508	19986
825.648	20103
825.787	19883
825.927	20016
826.067	19875
826.206	19936
826.346	19875
826.485	19997
826.625	20008
826.765	20130
826.904	20020
827.044	19738
827.183	19651
827.323	19540
827.462	19727
827.601	19738
827.741	19620
827.88	19632
828.02	19590
828.159	19445
828.298	19632
828.437	19677
828.577	19533
828.716	19742
828.855	19544
828.994	19419
829.134	19362
829.273	19377
829.412	19343
829.551	19293
829.69	19285
829.829	19403
829.968	19373
830.107	19285
830.246	19255
830.385	19187
830.524	19316
830.663	19126
830.802	19091
830.941	18886
831.08	19015
831.219	19008
831.357	19050
831.496	19183
831.635	18962
831.774	18856
831.913	18757
832.051	18802
832.19	18654
832.329	18859
832.467	18627
832.606	18639
832.744	18673
832.883	18616
833.022	18688
833.16	18646
833.299	18673
833.437	18688
833.576	18749
833.714	18859
833.852	18829
833.991	18871
834.129	18798
834.267	18829
834.406	18688
834.544	18833
834.682	18787
834.821	18681
834.959	18920
835.097	18692
835.235	18760
835.373	18639
835.511	18684
835.65	18544
835.788	18475
835.926	18388
836.064	18327
836.202	18357
836.34	18464
836.478	18642
836.615	18460
836.753	18623
836.891	18547
837.029	18559
837.167	18441
837.305	18445
837.443	18467
837.58	18361
837.718	18513
837.856	18376
837.993	18281
838.131	18437
838.269	18232
838.406	18251
838.544	18114
838.681	18114
838.819	17996
838.956	17832
839.094	17889
839.231	18015
839.369	18030
839.506	18289
839.643	18190
839.781	17855
839.918	17828
840.055	17878
840.193	17813
840.33	17771
840.467	17813
840.604	17878
840.742	18102
840.879	17703
841.016	17798
841.153	17646
841.29	17809
841.427	17786
841.564	17798
841.701	17729
841.838	17775
841.975	17619
842.112	17691
842.249	17532
842.385	17486
842.522	17802
842.659	17680
842.796	17520
842.933	17543
843.069	17627
843.206	17539
843.343	17608
843.479	17592
843.616	17611
843.752	17402
843.889	17387
844.025	17577
844.162	17398
844.298	17600
844.435	17334
844.571	17379
844.708	17600
844.844	17680
844.98	17665
845.117	17665
845.253	17653
845.389	17726
845.525	18091
845.661	18642
845.798	19217
845.934	19719
846.07	19974
846.206	20050
846.342	19696
846.478	18863
846.614	18087
846.75	17455
846.886	17391
847.022	17193
847.158	17121
847.294	16953
847.429	16938
847.565	16957
847.701	17143
847.837	16618
847.972	16748
848.108	16752
848.244	16748
848.379	16527
848.515	16440
848.65	16504
848.786	16409
848.921	16470
849.057	16531
849.192	16622
849.328	16519
849.463	16424
849.598	16474
849.734	16398
849.869	16329
850.004	16242
850.14	16211
850.275	16226
850.41	16131
850.545	16226
850.68	16158
850.815	16219
850.95	16223
851.085	16459
851.22	16318
851.355	16230
851.49	16223
851.625	16204
851.76	16249
851.895	16226
852.03	16120
852.165	16204
852.299	16268
852.434	16265
852.569	16226
852.703	16204
852.838	16261
852.973	16356
853.107	16329
853.242	16139
853.376	16071
853.511	16090
853.645	16112
853.78	16242
853.914	16169
854.048	16166
854.183	16105
854.317	16181
854.451	16223
854.585	16135
854.72	16059
854.854	16120
854.988	15994
855.122	16063
855.256	15975
855.39	16063
855.524	16101
855.658	16150
855.792	16059
855.926	16177
856.06	16215
856.194	16143
856.327	16044
856.461	15880
856.595	16040
856.729	16036
856.862	16105
856.996	16143
857.13	16287
857.263	16124
857.397	16181
857.53	16048
857.664	16086
857.797	16162
857.931	16162
858.064	16207
858.197	16135
858.331	16135
858.464	15930
858.597	15903
858.731	15968
858.864	16067
858.997	15956
859.13	16013
859.263	16017
859.396	16169
859.529	15941
859.662	16055
859.795	15968
859.928	16013
860.061	16162
860.194	16238
860.327	16147
860.46	15960
860.592	16116
860.725	16112
860.858	16063
860.99	16025
861.123	16044
861.256	16029
861.388	15960
861.521	16710
861.653	15972
861.786	15770
861.918	15915
862.05	15926
862.183	15956
862.315	16029
862.447	16162
862.58	16025
862.712	15789
862.844	15781
862.976	15861
863.108	15842
863.24	16226
863.372	15701
863.504	15857
863.636	15816
863.768	15789
863.9	15747
864.032	15751
864.164	15800
864.296	15755
864.428	15907
864.559	15831
864.691	15842
864.823	15854
864.954	15854
865.086	15743
865.217	15880
865.349	15694
865.48	15755
865.612	15785
865.743	15823
865.875	15736
866.006	15717
866.137	15743
866.269	15793
866.4	15797
866.531	15774
866.662	15785
866.793	15717
866.924	15663
867.055	15732
867.186	15739
867.317	15587
867.448	15553
867.579	15625
867.71	15641
867.841	15606
867.972	15698
868.103	15732
868.233	15755
868.364	15728
868.495	15831
868.625	15968
868.756	16044
868.886	15850
869.017	15956
869.147	16025
869.278	16097
869.408	15998
869.539	15994
869.669	16063
869.799	16025
869.929	16055
870.06	16078
870.19	16333
870.32	16226
870.45	16382
870.58	16485
870.71	16417
870.84	16519
870.97	16322
871.1	16325
871.23	16538
871.36	16558
871.489	16470
871.619	16538
871.749	16538
871.879	16546
872.008	16752
872.138	16634
872.267	16611
872.397	16447
872.526	16413
872.656	16428
872.785	16493
872.915	16599
873.044	16668
873.173	16584
873.303	16649
873.432	16653
873.561	16782
873.69	16645
873.819	16736
873.948	16752
874.077	16748
874.206	16649
874.335	16683
874.464	16771
874.593	16847
874.722	16824
874.851	16892
874.979	16961
875.108	16984
875.237	16881
875.365	16900
875.494	16900
875.623	16965
875.751	16927
875.88	17071
876.008	17006
876.136	17280
876.265	17482
876.393	17547
876.521	17551
876.65	17509
876.778	17265
876.906	17356
877.034	17433
877.162	17402
877.29	17376
877.418	17448
877.546	17478
877.674	17376
877.802	17433
877.93	17554
878.058	17341
878.185	17467
878.313	17570
878.441	17619
878.568	17395
878.696	17577
878.824	17699
878.951	17908
879.079	18140
879.206	18513
879.333	18631
879.461	18795
879.588	18897
879.715	18890
879.842	18996
879.97	18509
880.097	18144
880.224	17920
880.351	17824
880.478	17836
880.605	17657
880.732	17661
880.859	17824
880.986	17570
881.112	17554
881.239	17376
881.366	17280
881.493	17216
881.619	17185
881.746	17223
881.872	17166
881.999	17159
882.125	17216
882.252	17402
882.378	17318
882.505	17452
882.631	17189
882.757	16938
882.883	17102
883.01	17029
883.136	16946
883.262	16786
883.388	16793
883.514	17124
883.64	17052
883.766	17029
883.892	16820
884.018	16778
884.143	17010
884.269	17113
884.395	16755
884.52	16683
884.646	16831
884.772	16702
884.897	16622
885.023	16687
885.148	16858
885.274	16896
885.399	16771
885.524	16729
885.65	16694
885.775	16615
885.9	16607
886.025	16805
886.15	16725
886.275	16481
886.4	16516
886.525	16527
886.65	16443
886.775	16462
886.9	16740
887.025	16774
887.149	16508
887.274	16390
887.399	16379
887.523	16306
887.648	16207
887.773	16177
887.897	16341
888.021	16306
888.146	16112
888.27	16272
888.395	16417
888.519	16287
888.643	16440
888.767	16352
888.891	16207
889.015	16139
889.139	16162
889.263	16090
889.387	16261
889.511	16265
889.635	16173
889.759	15953
889.883	16128
890.006	16051
890.13	16128
890.254	16139
890.377	16040
890.501	15865
890.624	15797
890.748	15979
890.871	15812
890.995	15690
891.118	15595
891.241	15816
891.364	15709
891.488	15808
891.611	15690
891.734	15671
891.857	15838
891.98	15671
892.103	15956
892.226	15774
892.349	15663
892.471	15587
892.594	15660
892.717	15667
892.839	15614
892.962	15622
893.085	15732
893.207	15652
893.33	15538
893.452	15549
893.575	15701
893.697	15572
893.819	15759
893.941	15694
894.064	15800
894.186	15663
894.308	15606
894.43	15736
894.552	15819
894.674	15584
894.796	15545
894.918	15686
895.04	15618
895.161	15770
895.283	15717
895.405	15561
895.526	15663
895.648	15686
895.769	15766
895.891	15797
896.012	15800
896.134	15819
896.255	15732
896.376	15728
896.498	15705
896.619	15720
896.74	15785
896.861	15739
896.982	16071
897.103	16291
897.224	16097
897.345	15949
897.466	15953
897.587	16036
897.708	16169
897.828	16021
897.949	16059
898.07	15915
898.19	16063
898.311	16128
898.431	15987
898.552	16006
898.672	16173
898.792	16166
898.913	16261
899.033	15987
899.153	15979
899.273	15816
899.393	15918
899.513	15873
899.633	16006
899.753	15930
899.873	15831
899.993	16036
900.113	15949
900.232	15949
900.352	15827
900.472	15808
900.591	15793
900.711	15831
900.83	15724
900.95	15850
901.069	15827
901.189	15705
901.308	15576
901.427	15473
901.546	15466
901.665	15549
901.784	15462
901.904	15348
902.023	15180
902.141	14990
902.26	15070
902.379	15066
902.498	15032
902.617	14906
902.735	15017
902.854	14921
902.973	14891
903.091	14651
903.21	14636
903.328	14594
903.446	14625
903.565	14484
903.683	14522
903.801	14343
903.919	14358
904.038	14370
904.156	14301
904.274	14385
904.392	14271
904.51	14298
904.627	14252
904.745	14396
904.863	14408
904.981	14100
905.098	13974
905.216	13970
905.334	13902
905.451	13967
905.569	13879
905.686	13947
905.803	13967
905.921	13746
906.038	13849
906.155	13708
906.272	13651
906.389	13738
906.506	13499
906.623	13518
906.74	13521
906.857	13343
906.974	13445
907.091	13601
907.208	13510
907.324	13525
907.441	13373
907.557	13320
907.674	13270
907.79	13141
907.907	13175
908.023	13282
908.139	13217
908.256	13160
908.372	13088
908.488	13065
908.604	12985
908.72	12863
908.836	13008
908.952	13012
909.068	13027
909.184	13053
909.3	12920
909.415	13000
909.531	12958
909.647	12760
909.762	12726
909.878	12654
909.993	12669
910.108	12635
910.224	12631
910.339	12589
910.454	12582
910.57	12479
910.685	12471
910.8	12734
910.915	12719
911.03	12566
911.145	12422
911.259	12403
911.374	12342
911.489	12258
911.604	12235
911.718	12167
911.833	12201
911.947	11920
912.062	12019
912.176	12098
912.291	12163
912.405	12110
912.519	12304
912.633	12353
912.748	12121
912.862	12125
912.976	11996
913.09	11832
913.204	11920
913.318	11965
913.431	12057
913.545	12026
913.659	12038
913.772	11942
913.886	11843
914	11824
914.113	11920
914.226	11996
914.34	11931
914.453	11798
914.566	11904
914.68	11786
914.793	11866
914.906	11668
915.019	11532
915.132	11471
915.245	11436
915.358	11608
915.47	11497
915.583	11634
915.696	11668
915.809	11691
915.921	11718
916.034	11577
916.146	11440
916.259	11501
916.371	11600
916.483	11558
916.595	11440
916.708	11433
916.82	11444
916.932	11467
917.044	11417
917.156	11497
917.268	11349
917.38	11334
917.491	11334
917.603	11353
917.715	11436
917.826	11444
917.938	11307
918.049	11235
918.161	11334
918.272	11482
918.384	11467
918.495	11425
918.606	11334
918.717	11132
918.828	11258
918.939	11220
919.05	11109
919.161	11170
919.272	11094
919.383	11067
919.494	11231
919.604	11353
919.715	11193
919.826	11136
919.936	11181
920.047	11242
920.157	11250
920.267	11353
920.378	11204
920.488	11239
920.598	11395
920.708	11497
920.818	11421
920.928	11353
921.038	11604
921.148	11501
921.258	11201
921.368	11079
921.477	11071
921.587	11010
921.697	10923
921.806	10987
921.916	10919
922.025	10656
922.134	10759
922.244	10634
922.353	10729
922.462	10519
922.571	10523
922.68	10421
922.789	10344
922.898	10451
923.007	10306
923.116	10417
923.224	10417
923.333	10284
923.442	10192
923.55	10284
923.659	10295
923.767	10390
923.876	10204
923.984	10261
924.092	10131
924.201	10249
924.309	10196
924.417	10204
924.525	10173
924.633	10158
924.741	10965
924.849	10048
924.956	10071
925.064	10044
925.172	9835
925.279	9975
925.387	10051
925.494	10048
925.602	10166
925.709	10067
925.816	9884
925.924	9983
926.031	10128
926.138	9930
926.245	10048
926.352	9819
926.459	10063
926.566	10036
926.673	9911
926.779	9819
926.886	9747
926.993	9686
927.099	9675
927.206	9629
927.312	9557
927.419	9644
927.525	9652
927.631	9778
927.737	9530
927.843	9534
927.95	9534
928.056	9523
928.162	9545
928.267	9603
928.373	10154
928.479	9614
928.585	9435
928.69	9553
928.796	9682
928.901	9447
929.007	9275
929.112	9393
929.218	9408
929.323	9367
929.428	9325
929.533	9443
929.638	9310
929.743	9260
929.848	9363
929.953	9351
930.058	9199
930.163	9039
930.267	9131
930.372	9245
930.477	9097
930.581	9351
930.685	9169
930.79	8986
930.894	9005
930.998	9005
931.103	9173
931.207	8743
931.311	8743
931.415	8705
931.519	8511
931.623	8537
