Data from test_V78500241_2466.txt Node
Date: Fri Mar 25 14:50:53 CST 2022
User: usil
Spectrometer: V785-0024
Trigger mode: 0
Integration Time (sec): 4.000000E-1
Scans to average: 1
Nonlinearity correction enabled: false
Boxcar width: 0
Storing dark spectrum: false
XAxis mode: Wavelengths
Number of Pixels in Spectrum: 1024
>>>>>Begin Spectral Data<<<<<
801.071	22067
801.214	21930
801.356	21644
801.499	21671
801.641	21485
801.783	21511
801.926	21386
802.068	21481
802.211	21313
802.353	21241
802.496	21047
802.638	21005
802.78	20887
802.923	20845
803.065	20739
803.208	20712
803.35	20743
803.492	20899
803.635	20864
803.777	20708
803.919	20887
804.061	21036
804.204	20868
804.346	20804
804.488	20712
804.63	20720
804.773	20598
804.915	20667
805.057	20830
805.199	20796
805.341	20773
805.483	20632
805.626	20826
805.768	20678
805.91	20705
806.052	20693
806.194	20621
806.336	20883
806.478	20655
806.62	20712
806.762	20834
806.904	21017
807.046	21100
807.188	21119
807.33	21043
807.472	20979
807.614	20990
807.756	20956
807.898	20944
808.04	20807
808.182	20796
808.324	20845
808.465	20891
808.607	21062
808.749	21123
808.891	21203
809.033	21119
809.174	21100
809.316	21093
809.458	21123
809.6	21077
809.741	21142
809.883	21180
810.025	21226
810.166	21222
810.308	21272
810.45	21184
810.591	21066
810.733	21020
810.875	20796
811.016	20804
811.158	20838
811.299	20880
811.441	20975
811.582	20979
811.724	20952
811.865	20853
812.007	20872
812.148	20864
812.29	20853
812.431	21051
812.573	21081
812.714	21264
812.855	21374
812.997	21424
813.138	21534
813.279	21473
813.421	21298
813.562	21199
813.703	21180
813.845	21005
813.986	20777
814.127	20503
814.268	20480
814.41	20465
814.551	20336
814.692	20317
814.833	20351
814.974	20301
815.115	20431
815.256	20229
815.397	20301
815.539	20309
815.68	20164
815.821	20107
815.962	20237
816.103	20153
816.244	19928
816.385	19864
816.526	19708
816.666	19586
816.807	19613
816.948	19480
817.089	19651
817.23	19632
817.371	19407
817.512	19518
817.653	19453
817.793	19430
817.934	19487
818.075	19453
818.216	19552
818.356	19468
818.497	19282
818.638	19103
818.778	19225
818.919	19168
819.06	19263
819.2	19346
819.341	19491
819.481	19384
819.622	19525
819.762	19757
819.903	19609
820.043	19571
820.184	19556
820.324	19529
820.465	19635
820.605	19529
820.746	19419
820.886	19304
821.026	19521
821.167	19438
821.307	19510
821.447	19331
821.588	19377
821.728	19297
821.868	19042
822.008	19012
822.149	19012
822.289	18837
822.429	18715
822.569	18684
822.709	18490
822.849	18365
822.99	18350
823.13	18456
823.27	18277
823.41	18319
823.55	18098
823.69	18292
823.83	18292
823.97	18110
824.11	18022
824.25	17988
824.389	17958
824.529	18015
824.669	17973
824.809	17988
824.949	17916
825.089	18114
825.228	18076
825.368	17878
825.508	17764
825.648	17756
825.787	17691
825.927	17737
826.067	17760
826.206	17638
826.346	17901
826.485	17889
826.625	17741
826.765	17813
826.904	17817
827.044	17619
827.183	17627
827.323	17414
827.462	17490
827.601	17440
827.741	17303
827.88	17414
828.02	17223
828.159	17505
828.298	17490
828.437	17528
828.577	17474
828.716	17482
828.855	17383
828.994	17212
829.134	17193
829.273	17200
829.412	17185
829.551	17090
829.69	17174
829.829	17246
829.968	17254
830.107	17345
830.246	17200
830.385	17265
830.524	17140
830.663	17045
830.802	16908
830.941	16759
831.08	16812
831.219	16915
831.357	16911
831.496	17022
831.635	16831
831.774	16748
831.913	16713
832.051	16660
832.19	16664
832.329	16634
832.467	16573
832.606	16546
832.744	16577
832.883	16554
833.022	16497
833.16	16485
833.299	16577
833.437	16554
833.576	16580
833.714	16588
833.852	16596
833.991	16622
834.129	16558
834.267	16721
834.406	16611
834.544	16516
834.682	16516
834.821	16558
834.959	16710
835.097	16649
835.235	16683
835.373	16618
835.511	16519
835.65	16485
835.788	16485
835.926	16398
836.064	16280
836.202	16280
836.34	16398
836.478	16550
836.615	16417
836.753	16447
836.891	16546
837.029	16474
837.167	16341
837.305	16455
837.443	16363
837.58	16325
837.718	16329
837.856	16413
837.993	16325
838.131	16322
838.269	16223
838.406	16299
838.544	16303
838.681	16055
838.819	15991
838.956	15789
839.094	15736
839.231	16021
839.369	16048
839.506	16329
839.643	16063
839.781	15937
839.918	15899
840.055	15953
840.193	15964
840.33	15892
840.467	15907
840.604	15922
840.742	16131
840.879	15701
841.016	15800
841.153	15785
841.29	15918
841.427	15838
841.564	15983
841.701	15880
841.838	15819
841.975	15705
842.112	15816
842.249	15667
842.385	15671
842.522	15831
842.659	15724
842.796	15606
842.933	15663
843.069	15656
843.206	15633
843.343	15720
843.479	15660
843.616	15759
843.752	15488
843.889	15504
844.025	15644
844.162	15473
844.298	15576
844.435	15485
844.571	15466
844.708	15511
844.844	15656
844.98	15481
845.117	15545
845.253	15454
845.389	15321
845.525	15344
845.661	15397
845.798	15207
845.934	15317
846.07	15104
846.206	15351
846.342	15431
846.478	15211
846.614	15043
846.75	15020
846.886	14979
847.022	15161
847.158	14925
847.294	15058
847.429	15116
847.565	15036
847.701	15294
847.837	14762
847.972	14746
848.108	14815
848.244	14781
848.379	14686
848.515	14545
848.65	14541
848.786	14689
848.921	14613
849.057	14765
849.192	14651
849.328	14594
849.463	14651
849.598	14568
849.734	14606
849.869	14408
850.004	14400
850.14	14412
850.275	14415
850.41	14370
850.545	14259
850.68	14415
850.815	14396
850.95	14408
851.085	14571
851.22	14530
851.355	14404
851.49	14408
851.625	14351
851.76	14267
851.895	14248
852.03	14298
852.165	14259
852.299	14415
852.434	14564
852.569	14446
852.703	14355
852.838	14400
852.973	14602
853.107	14507
853.242	14427
853.376	14271
853.511	14263
853.645	14172
853.78	14415
853.914	14358
854.048	14237
854.183	14286
854.317	14248
854.451	14358
854.585	14298
854.72	14237
854.854	14282
854.988	14145
855.122	14214
855.256	14119
855.39	14225
855.524	14328
855.658	14351
855.792	14320
855.926	14244
856.06	14336
856.194	14351
856.327	14271
856.461	14172
856.595	14119
856.729	14210
856.862	14408
856.996	14324
857.13	14400
857.263	14248
857.397	14385
857.53	14202
857.664	14286
857.797	14343
857.931	14404
858.064	14355
858.197	14336
858.331	14286
858.464	14210
858.597	14134
858.731	14225
858.864	14339
858.997	14206
859.13	14278
859.263	14210
859.396	14396
859.529	14237
859.662	14206
859.795	14214
859.928	14377
860.061	14400
860.194	14438
860.327	14305
860.46	14263
860.592	14415
860.725	14408
860.858	14412
860.99	14271
861.123	14153
861.256	14252
861.388	14305
861.521	14781
861.653	14123
861.786	14016
861.918	14206
862.05	14214
862.183	14263
862.315	14206
862.447	14294
862.58	14161
862.712	14043
862.844	14024
862.976	14126
863.108	14077
863.24	14328
863.372	13947
863.504	14081
863.636	14016
863.768	14043
863.9	14046
864.032	13993
864.164	14020
864.296	14058
864.428	14084
864.559	14096
864.691	14130
864.823	14096
864.954	14012
865.086	14119
865.217	13970
865.349	13921
865.48	14062
865.612	14081
865.743	14176
865.875	14012
866.006	14031
866.137	13951
866.269	14054
866.4	13967
866.531	14092
866.662	13890
866.793	13894
866.924	14043
867.055	14069
867.186	14012
867.317	14016
867.448	13932
867.579	13974
867.71	14008
867.841	13944
867.972	14054
868.103	14077
868.233	13932
868.364	13955
868.495	14069
868.625	14195
868.756	14347
868.886	14161
869.017	14240
869.147	14374
869.278	14396
869.408	14229
869.539	14248
869.669	14328
869.799	14408
869.929	14473
870.06	14355
870.19	14594
870.32	14564
870.45	14533
870.58	14693
870.71	14819
870.84	14823
870.97	14617
871.1	14598
871.23	14830
871.36	14830
871.489	14838
871.619	14750
871.749	14918
871.879	14937
872.008	15104
872.138	14899
872.267	14921
872.397	14659
872.526	14724
872.656	14743
872.785	14712
872.915	14914
873.044	14990
873.173	14910
873.303	14941
873.432	14967
873.561	15043
873.69	14937
873.819	14948
873.948	15009
874.077	14952
874.206	14921
874.335	14971
874.464	15081
874.593	15131
874.722	15150
874.851	15256
874.979	15245
875.108	15192
875.237	15279
875.365	15142
875.494	15218
875.623	15332
875.751	15195
875.88	15195
876.008	15336
876.136	15447
876.265	15580
876.393	15774
876.521	15770
876.65	15785
876.778	15675
876.906	15584
877.034	15534
877.162	15618
877.29	15584
877.418	15530
877.546	15564
877.674	15690
877.802	15667
877.93	15561
878.058	15618
878.185	15466
878.313	15542
878.441	15701
878.568	15572
878.696	15507
878.824	15614
878.951	15717
879.079	15850
879.206	15983
879.333	15728
879.461	15622
879.588	15728
879.715	15907
879.842	15956
879.97	15812
880.097	15545
880.224	15477
880.351	15511
880.478	15564
880.605	15519
880.732	15507
880.859	15720
880.986	15477
881.112	15458
881.239	15317
881.366	15260
881.493	15298
881.619	15169
881.746	15203
881.872	15154
881.999	15104
882.125	15127
882.252	15180
882.378	15146
882.505	15329
882.631	15226
882.757	15001
882.883	15024
883.01	15043
883.136	14929
883.262	14891
883.388	14883
883.514	15055
883.64	15066
883.766	14895
883.892	14788
884.018	14796
884.143	15013
884.269	15070
884.395	14853
884.52	14625
884.646	14629
884.772	14552
884.897	14583
885.023	14746
885.148	14705
885.274	14811
885.399	14777
885.524	14682
885.65	14693
885.775	14739
885.9	14670
886.025	14762
886.15	14758
886.275	14640
886.4	14533
886.525	14731
886.65	14659
886.775	14651
886.9	14838
887.025	14944
887.149	14644
887.274	14533
887.399	14457
887.523	14473
887.648	14396
887.773	14355
887.897	14610
888.021	14556
888.146	14499
888.27	14511
888.395	14507
888.519	14530
888.643	14541
888.767	14598
888.891	14450
889.015	14400
889.139	14415
889.263	14377
889.387	14476
889.511	14579
889.635	14495
889.759	14313
889.883	14427
890.006	14473
890.13	14495
890.254	14263
890.377	14267
890.501	14202
890.624	14164
890.748	14336
890.871	14111
890.995	14005
891.118	13913
891.241	14111
891.364	14115
891.488	14172
891.611	14100
891.734	14020
891.857	14210
891.98	14096
892.103	14134
892.226	14024
892.349	14050
892.471	13925
892.594	14073
892.717	14043
892.839	14043
892.962	14130
893.085	14161
893.207	14153
893.33	14031
893.452	14005
893.575	14161
893.697	14012
893.819	14225
893.941	14199
894.064	14214
894.186	14081
894.308	14081
894.43	14256
894.552	14214
894.674	14164
894.796	14054
894.918	14115
895.04	14111
895.161	14221
895.283	14282
895.405	14046
895.526	14183
895.648	14225
895.769	14153
895.891	14237
896.012	14298
896.134	14305
896.255	14305
896.376	14180
896.498	14199
896.619	14309
896.74	14305
896.861	14294
896.982	14571
897.103	14758
897.224	14682
897.345	14457
897.466	14442
897.587	14507
897.708	14708
897.828	14636
897.949	14511
898.07	14366
898.19	14446
898.311	14648
898.431	14644
898.552	14568
898.672	14705
898.792	14682
898.913	14663
899.033	14450
899.153	14442
899.273	14366
899.393	14450
899.513	14480
899.633	14393
899.753	14484
899.873	14374
899.993	14545
900.113	14450
900.232	14423
900.352	14488
900.472	14385
900.591	14271
900.711	14404
900.83	14263
900.95	14476
901.069	14473
901.189	14206
901.308	14058
901.427	13875
901.546	13982
901.665	14046
901.784	13997
901.904	13849
902.023	13734
902.141	13567
902.26	13537
902.379	13586
902.498	13518
902.617	13529
902.735	13556
902.854	13594
902.973	13544
903.091	13293
903.21	13244
903.328	13244
903.446	13187
903.565	13107
903.683	13160
903.801	13107
903.919	13110
904.038	13091
904.156	13004
904.274	12916
904.392	12966
904.51	12966
904.627	13023
904.745	13004
904.863	12977
904.981	12802
905.098	12601
905.216	12681
905.334	12749
905.451	12646
905.569	12585
905.686	12715
905.803	12578
905.921	12456
906.038	12521
906.155	12498
906.272	12426
906.389	12407
906.506	12251
906.623	12258
906.74	12190
906.857	12091
906.974	12182
907.091	12285
907.208	12319
907.324	12281
907.441	12117
907.557	12003
907.674	12007
907.79	11912
907.907	11996
908.023	11935
908.139	11977
908.256	11836
908.372	11893
908.488	11874
908.604	11764
908.72	11737
908.836	11752
908.952	11828
909.068	11672
909.184	11836
909.3	11699
909.415	11866
909.531	11878
909.647	11627
909.762	11501
909.878	11482
909.993	11573
910.108	11486
910.224	11524
910.339	11528
910.454	11417
910.57	11410
910.685	11299
910.8	11570
910.915	11486
911.03	11406
911.145	11197
911.259	11197
911.374	11242
911.489	11079
911.604	11033
911.718	10946
911.833	10923
911.947	10915
912.062	10778
912.176	10850
912.291	10976
912.405	10946
912.519	11151
912.633	11132
912.748	11071
912.862	10976
912.976	10885
913.09	10710
913.204	10843
913.318	10828
913.431	10923
913.545	10995
913.659	10961
913.772	10934
913.886	10721
914	10774
914.113	10908
914.226	10797
914.34	10809
914.453	10733
914.566	10835
914.68	10679
914.793	10645
914.906	10474
915.019	10485
915.132	10402
915.245	10436
915.358	10500
915.47	10451
915.583	10489
915.696	10527
915.809	10516
915.921	10694
916.034	10455
916.146	10322
916.259	10386
916.371	10523
916.483	10481
916.595	10333
916.708	10394
916.82	10394
916.932	10394
917.044	10405
917.156	10306
917.268	10261
917.38	10314
917.491	10253
917.603	10375
917.715	10413
917.826	10295
917.938	10314
918.049	10204
918.161	10261
918.272	10413
918.384	10497
918.495	10375
918.606	10181
918.717	10090
918.828	10185
918.939	10219
919.05	10192
919.161	10158
919.272	9964
919.383	10025
919.494	10204
919.604	10432
919.715	10219
919.826	10188
919.936	10223
920.047	10272
920.157	10219
920.267	10405
920.378	10204
920.488	10253
920.598	10322
920.708	10500
920.818	10360
920.928	10360
921.038	10580
921.148	10580
921.258	10215
921.368	10242
921.477	10086
921.587	9987
921.697	9873
921.806	10067
921.916	9903
922.025	9785
922.134	9770
922.244	9667
922.353	9751
922.462	9701
922.571	9576
922.68	9424
922.789	9412
922.898	9386
923.007	9344
923.116	9519
923.224	9454
923.333	9454
923.442	9329
923.55	9287
923.659	9408
923.767	9454
923.876	9340
923.984	9374
924.092	9298
924.201	9272
924.309	9321
924.417	9325
924.525	9249
924.633	9310
924.741	10055
924.849	9028
924.956	9188
925.064	9142
925.172	9062
925.279	9062
925.387	9036
925.494	9089
925.602	9199
925.709	9199
925.816	8929
925.924	9142
926.031	9222
926.138	9146
926.245	9188
926.352	9112
926.459	9222
926.566	9253
926.673	9051
926.779	8929
926.886	9020
926.993	8838
927.099	8880
927.206	8777
927.312	8777
927.419	8891
927.525	8792
927.631	8853
927.737	8777
927.843	8739
927.95	8583
928.056	8678
928.162	8731
928.267	8785
928.373	9416
928.479	8842
928.585	8625
928.69	8773
928.796	8773
928.901	8640
929.007	8476
929.112	8606
929.218	8617
929.323	8583
929.428	8541
929.533	8712
929.638	8480
929.743	8537
929.848	8552
929.953	8480
930.058	8473
930.163	8298
930.267	8389
930.372	8454
930.477	8328
930.581	8560
930.685	8347
930.79	8233
930.894	8252
930.998	8263
931.103	8446
931.207	8065
931.311	7913
931.415	7909
931.519	7769
931.623	7776
