Data from test_V78500241_2799.txt Node
Date: Fri Mar 25 14:53:12 CST 2022
User: usil
Spectrometer: V785-0024
Trigger mode: 0
Integration Time (sec): 4.000000E-1
Scans to average: 1
Nonlinearity correction enabled: false
Boxcar width: 0
Storing dark spectrum: false
XAxis mode: Wavelengths
Number of Pixels in Spectrum: 1024
>>>>>Begin Spectral Data<<<<<
801.071	21926
801.214	21956
801.356	21675
801.499	21447
801.641	21466
801.783	21393
801.926	21420
802.068	21173
802.211	21313
802.353	21310
802.496	20937
802.638	20933
802.78	20857
802.923	20769
803.065	20701
803.208	20689
803.35	20876
803.492	20910
803.635	20830
803.777	20648
803.919	20807
804.061	21138
804.204	20811
804.346	20636
804.488	20868
804.63	20781
804.773	20552
804.915	20693
805.057	20796
805.199	20537
805.341	20765
805.483	20777
805.626	20830
805.768	20659
805.91	20762
806.052	20693
806.194	20514
806.336	20819
806.478	20705
806.62	20667
806.762	20701
806.904	20895
807.046	21169
807.188	20990
807.33	21032
807.472	20979
807.614	20960
807.756	20960
807.898	20773
808.04	20667
808.182	20716
808.324	20762
808.465	20705
808.607	20830
808.749	21074
808.891	21184
809.033	21150
809.174	21074
809.316	21039
809.458	21093
809.6	20899
809.741	21119
809.883	21077
810.025	21184
810.166	21123
810.308	21062
810.45	20933
810.591	20967
810.733	20853
810.875	20807
811.016	20727
811.158	20708
811.299	20952
811.441	20960
811.582	20815
811.724	20811
811.865	20777
812.007	20731
812.148	20777
812.29	20739
812.431	20845
812.573	21104
812.714	21226
812.855	21264
812.997	21272
813.138	21477
813.279	21458
813.421	21325
813.562	21252
813.703	21112
813.845	20788
813.986	20617
814.127	20549
814.268	20320
814.41	20404
814.551	20294
814.692	20362
814.833	20176
814.974	20244
815.115	20358
815.256	20043
815.397	20199
815.539	20142
815.68	20119
815.821	19947
815.962	20103
816.103	20149
816.244	19837
816.385	19765
816.526	19761
816.666	19544
816.807	19392
816.948	19533
817.089	19609
817.23	19400
817.371	19582
817.512	19407
817.653	19293
817.793	19365
817.934	19422
818.075	19422
818.216	19495
818.356	19487
818.497	19198
818.638	19160
818.778	19145
818.919	19183
819.06	19274
819.2	19343
819.341	19362
819.481	19411
819.622	19411
819.762	19601
819.903	19655
820.043	19502
820.184	19422
820.324	19430
820.465	19540
820.605	19430
820.746	19377
820.886	19274
821.026	19316
821.167	19407
821.307	19491
821.447	19400
821.588	19122
821.728	19099
821.868	18970
822.008	18901
822.149	18867
822.289	18776
822.429	18521
822.569	18490
822.709	18582
822.849	18319
822.99	18330
823.13	18369
823.27	18251
823.41	18174
823.55	18159
823.69	18205
823.83	18106
823.97	18011
824.11	17942
824.25	17866
824.389	17855
824.529	18030
824.669	17969
824.809	18034
824.949	17916
825.089	17916
825.228	18007
825.368	17687
825.508	17714
825.648	17745
825.787	17634
825.927	17767
826.067	17684
826.206	17668
826.346	17600
826.485	17630
826.625	17623
826.765	17798
826.904	17756
827.044	17398
827.183	17414
827.323	17356
827.462	17539
827.601	17315
827.741	17250
827.88	17387
828.02	17208
828.159	17353
828.298	17341
828.437	17364
828.577	17345
828.716	17440
828.855	17322
828.994	17185
829.134	17136
829.273	17083
829.412	17159
829.551	17056
829.69	17159
829.829	17220
829.968	17318
830.107	17254
830.246	17155
830.385	17014
830.524	17029
830.663	17056
830.802	16911
830.941	16786
831.08	16805
831.219	16854
831.357	16809
831.496	17105
831.635	16725
831.774	16691
831.913	16649
832.051	16573
832.19	16569
832.329	16607
832.467	16493
832.606	16424
832.744	16478
832.883	16390
833.022	16481
833.16	16436
833.299	16542
833.437	16474
833.576	16504
833.714	16508
833.852	16421
833.991	16592
834.129	16527
834.267	16497
834.406	16523
834.544	16516
834.682	16519
834.821	16417
834.959	16634
835.097	16402
835.235	16645
835.373	16558
835.511	16538
835.65	16428
835.788	16341
835.926	16299
836.064	16169
836.202	16234
836.34	16459
836.478	16398
836.615	16367
836.753	16512
836.891	16386
837.029	16375
837.167	16363
837.305	16284
837.443	16246
837.58	16158
837.718	16363
837.856	16284
837.993	16204
838.131	16322
838.269	16207
838.406	16181
838.544	16219
838.681	16029
838.819	16032
838.956	15892
839.094	15850
839.231	15983
839.369	16101
839.506	16280
839.643	16135
839.781	15785
839.918	15793
840.055	15842
840.193	15808
840.33	15854
840.467	15854
840.604	15934
840.742	16120
840.879	15717
841.016	15785
841.153	15816
841.29	15949
841.427	15991
841.564	15846
841.701	15865
841.838	15804
841.975	15663
842.112	15739
842.249	15606
842.385	15557
842.522	15816
842.659	15584
842.796	15564
842.933	15713
843.069	15504
843.206	15530
843.343	15679
843.479	15637
843.616	15663
843.752	15389
843.889	15439
844.025	15500
844.162	15393
844.298	15431
844.435	15325
844.571	15302
844.708	15393
844.844	15572
844.98	15549
845.117	15534
845.253	15397
845.389	15283
845.525	15283
845.661	15203
845.798	15249
845.934	15237
846.07	15169
846.206	15199
846.342	15275
846.478	15195
846.614	15039
846.75	14956
846.886	14902
847.022	15085
847.158	15066
847.294	15020
847.429	15036
847.565	14895
847.701	15268
847.837	14762
847.972	14606
848.108	14746
848.244	14811
848.379	14621
848.515	14560
848.65	14541
848.786	14568
848.921	14571
849.057	14594
849.192	14693
849.328	14590
849.463	14636
849.598	14492
849.734	14530
849.869	14476
850.004	14362
850.14	14271
850.275	14431
850.41	14134
850.545	14278
850.68	14355
850.815	14309
850.95	14298
851.085	14450
851.22	14358
851.355	14385
851.49	14351
851.625	14248
851.76	14309
851.895	14218
852.03	14252
852.165	14317
852.299	14343
852.434	14473
852.569	14339
852.703	14366
852.838	14404
852.973	14484
853.107	14473
853.242	14244
853.376	14278
853.511	14096
853.645	14161
853.78	14320
853.914	14218
854.048	14244
854.183	14092
854.317	14183
854.451	14419
854.585	14176
854.72	14199
854.854	14347
854.988	14107
855.122	14153
855.256	14008
855.39	14138
855.524	14332
855.658	14240
855.792	14256
855.926	14237
856.06	14225
856.194	14294
856.327	14210
856.461	14161
856.595	14161
856.729	14145
856.862	14305
856.996	14218
857.13	14320
857.263	14282
857.397	14328
857.53	14161
857.664	14202
857.797	14263
857.931	14298
858.064	14244
858.197	14396
858.331	14221
858.464	14111
858.597	14130
858.731	14126
858.864	14168
858.997	14210
859.13	14084
859.263	14199
859.396	14244
859.529	14199
859.662	14206
859.795	14096
859.928	14199
860.061	14412
860.194	14476
860.327	14252
860.46	14202
860.592	14252
860.725	14305
860.858	14362
860.99	14195
861.123	14221
861.256	14180
861.388	14286
861.521	14788
861.653	14180
861.786	13955
861.918	14081
862.05	14020
862.183	14088
862.315	14134
862.447	14252
862.58	14214
862.712	14054
862.844	13955
862.976	14016
863.108	14062
863.24	14461
863.372	13879
863.504	13963
863.636	13978
863.768	14126
863.9	14050
864.032	13887
864.164	13955
864.296	13967
864.428	14077
864.559	14134
864.691	14149
864.823	14069
864.954	14073
865.086	14130
865.217	13989
865.349	13856
865.48	13913
865.612	14050
865.743	14073
865.875	14039
866.006	13974
866.137	14001
866.269	13936
866.4	13887
866.531	13947
866.662	13906
866.793	13970
866.924	13982
867.055	13989
867.186	13978
867.317	13940
867.448	13982
867.579	13890
867.71	13887
867.841	13837
867.972	13955
868.103	14001
868.233	13875
868.364	13913
868.495	14084
868.625	14050
868.756	14259
868.886	14161
869.017	14119
869.147	14301
869.278	14358
869.408	14225
869.539	14210
869.669	14305
869.799	14259
869.929	14305
870.06	14290
870.19	14693
870.32	14522
870.45	14484
870.58	14598
870.71	14712
870.84	14727
870.97	14560
871.1	14590
871.23	14868
871.36	14944
871.489	14629
871.619	14792
871.749	14739
871.879	14910
872.008	14864
872.138	14842
872.267	14834
872.397	14716
872.526	14743
872.656	14651
872.785	14758
872.915	14899
873.044	14819
873.173	14853
873.303	14971
873.432	14823
873.561	15032
873.69	14804
873.819	14853
873.948	14937
874.077	14853
874.206	14880
874.335	14986
874.464	14921
874.593	15264
874.722	15100
874.851	15249
874.979	15241
875.108	15203
875.237	15074
875.365	15173
875.494	15195
875.623	15237
875.751	15272
875.88	15214
876.008	15298
876.136	15359
876.265	15587
876.393	15789
876.521	15682
876.65	15679
876.778	15652
876.906	15656
877.034	15614
877.162	15622
877.29	15633
877.418	15660
877.546	15656
877.674	15652
877.802	15545
877.93	15557
878.058	15545
878.185	15549
878.313	15534
878.441	15557
878.568	15534
878.696	15561
878.824	15614
878.951	15603
879.079	15846
879.206	15895
879.333	15816
879.461	15637
879.588	15705
879.715	15751
879.842	15888
879.97	15709
880.097	15443
880.224	15367
880.351	15492
880.478	15416
880.605	15435
880.732	15428
880.859	15633
880.986	15473
881.112	15473
881.239	15348
881.366	15310
881.493	15013
881.619	15138
881.746	15176
881.872	15093
881.999	15154
882.125	15058
882.252	15047
882.378	15119
882.505	15351
882.631	15066
882.757	14956
882.883	14975
883.01	14948
883.136	14864
883.262	14838
883.388	14830
883.514	15017
883.64	14925
883.766	14811
883.892	14792
884.018	14849
884.143	14857
884.269	14994
884.395	14571
884.52	14659
884.646	14590
884.772	14625
884.897	14537
885.023	14629
885.148	14792
885.274	14727
885.399	14659
885.524	14632
885.65	14739
885.775	14610
885.9	14621
886.025	14781
886.15	14617
886.275	14610
886.4	14537
886.525	14602
886.65	14461
886.775	14457
886.9	14674
887.025	14834
887.149	14541
887.274	14454
887.399	14454
887.523	14358
887.648	14469
887.773	14286
887.897	14545
888.021	14473
888.146	14434
888.27	14571
888.395	14701
888.519	14583
888.643	14518
888.767	14537
888.891	14511
889.015	14355
889.139	14366
889.263	14351
889.387	14412
889.511	14507
889.635	14454
889.759	14336
889.883	14320
890.006	14301
890.13	14355
890.254	14267
890.377	14301
890.501	14187
890.624	14134
890.748	14214
890.871	14058
890.995	13963
891.118	13856
891.241	14126
891.364	14134
891.488	14161
891.611	14096
891.734	14046
891.857	14062
891.98	13993
892.103	14161
892.226	14050
892.349	14050
892.471	13955
892.594	14065
892.717	14050
892.839	13982
892.962	13993
893.085	14081
893.207	14035
893.33	13928
893.452	13875
893.575	14081
893.697	13970
893.819	14252
893.941	14320
894.064	14202
894.186	13932
894.308	14001
894.43	14206
894.552	14195
894.674	14138
894.796	13970
894.918	14130
895.04	14043
895.161	14210
895.283	14100
895.405	14126
895.526	14096
895.648	14096
895.769	14161
895.891	14229
896.012	14206
896.134	14248
896.255	14153
896.376	14229
896.498	14202
896.619	14275
896.74	14240
896.861	14419
896.982	14644
897.103	14648
897.224	14511
897.345	14511
897.466	14336
897.587	14511
897.708	14526
897.828	14575
897.949	14499
898.07	14347
898.19	14446
898.311	14583
898.431	14415
898.552	14541
898.672	14602
898.792	14693
898.913	14625
899.033	14446
899.153	14423
899.273	14358
899.393	14454
899.513	14465
899.633	14366
899.753	14320
899.873	14469
899.993	14590
900.113	14370
900.232	14415
900.352	14362
900.472	14343
900.591	14221
900.711	14347
900.83	14282
900.95	14339
901.069	14377
901.189	14237
901.308	13982
901.427	13951
901.546	13959
901.665	14020
901.784	13970
901.904	13902
902.023	13780
902.141	13601
902.26	13620
902.379	13575
902.498	13491
902.617	13548
902.735	13575
902.854	13514
902.973	13396
903.091	13396
903.21	13179
903.328	13232
903.446	13228
903.565	13126
903.683	13095
903.801	13069
903.919	13168
904.038	13103
904.156	12909
904.274	13008
904.392	12878
904.51	12840
904.627	12951
904.745	12985
904.863	12973
904.981	12726
905.098	12555
905.216	12612
905.334	12540
905.451	12635
905.569	12555
905.686	12711
905.803	12669
905.921	12380
906.038	12585
906.155	12395
906.272	12346
906.389	12365
906.506	12213
906.623	12205
906.74	12266
906.857	12106
906.974	12106
907.091	12186
907.208	12388
907.324	12266
907.441	12068
907.557	11958
907.674	11984
907.79	11790
907.907	11851
908.023	11969
908.139	11958
908.256	11855
908.372	11847
908.488	11889
908.604	11608
908.72	11638
908.836	11695
908.952	11672
909.068	11703
909.184	11821
909.3	11722
909.415	11710
909.531	11722
909.647	11482
909.762	11490
909.878	11505
909.993	11558
910.108	11444
910.224	11467
910.339	11467
910.454	11349
910.57	11337
910.685	11292
910.8	11581
910.915	11535
911.03	11296
911.145	11174
911.259	11159
911.374	11216
911.489	11083
911.604	11029
911.718	10927
911.833	10949
911.947	10938
912.062	10786
912.176	10911
912.291	10923
912.405	10915
912.519	11105
912.633	11140
912.748	10976
912.862	10938
912.976	10824
913.09	10702
913.204	10714
913.318	10843
913.431	11033
913.545	10862
913.659	11037
913.772	10801
913.886	10740
914	10691
914.113	10805
914.226	10801
914.34	10710
914.453	10516
914.566	10763
914.68	10622
914.793	10637
914.906	10447
915.019	10561
915.132	10386
915.245	10371
915.358	10348
915.47	10451
915.583	10550
915.696	10485
915.809	10622
915.921	10550
916.034	10417
916.146	10417
916.259	10329
916.371	10523
916.483	10432
916.595	10363
916.708	10417
916.82	10386
916.932	10341
917.044	10371
917.156	10348
917.268	10207
917.38	10299
917.491	10234
917.603	10344
917.715	10352
917.826	10382
917.938	10234
918.049	10200
918.161	10295
918.272	10455
918.384	10394
918.495	10200
918.606	10128
918.717	10109
918.828	10177
918.939	10211
919.05	10090
919.161	10044
919.272	9915
919.383	10013
919.494	10238
919.604	10363
919.715	10166
919.826	10139
919.936	10223
920.047	10230
920.157	10158
920.267	10352
920.378	10234
920.488	10219
920.598	10360
920.708	10500
920.818	10363
920.928	10337
921.038	10519
921.148	10596
921.258	10219
921.368	10128
921.477	10067
921.587	10029
921.697	9846
921.806	10124
921.916	9918
922.025	9865
922.134	9743
922.244	9660
922.353	9724
922.462	9641
922.571	9538
922.68	9443
922.789	9374
922.898	9374
923.007	9405
923.116	9473
923.224	9363
923.333	9431
923.442	9359
923.55	9359
923.659	9329
923.767	9401
923.876	9332
923.984	9401
924.092	9249
924.201	9294
924.309	9275
924.417	9294
924.525	9226
924.633	9253
924.741	10006
924.849	9085
924.956	9214
925.064	9077
925.172	8948
925.279	8979
925.387	9131
925.494	9062
925.602	9241
925.709	9074
925.816	9051
925.924	9138
926.031	9157
926.138	9123
926.245	9154
926.352	8971
926.459	9074
926.566	9180
926.673	8990
926.779	8967
926.886	8948
926.993	8792
927.099	8838
927.206	8785
927.312	8766
927.419	8864
927.525	8872
927.631	8857
927.737	8773
927.843	8674
927.95	8571
928.056	8716
928.162	8720
928.267	8792
928.373	9355
928.479	8834
928.585	8629
928.69	8648
928.796	8663
928.901	8610
929.007	8431
929.112	8651
929.218	8587
929.323	8476
929.428	8530
929.533	8659
929.638	8465
929.743	8473
929.848	8598
929.953	8469
930.058	8434
930.163	8332
930.267	8309
930.372	8431
930.477	8248
930.581	8438
930.685	8362
930.79	8244
930.894	8210
930.998	8218
931.103	8408
931.207	8039
931.311	8001
931.415	7883
931.519	7776
931.623	7780
