Data from test_V78500241_1648.txt Node
Date: Fri Mar 25 14:45:11 CST 2022
User: usil
Spectrometer: V785-0024
Trigger mode: 0
Integration Time (sec): 4.000000E-1
Scans to average: 1
Nonlinearity correction enabled: false
Boxcar width: 0
Storing dark spectrum: false
XAxis mode: Wavelengths
Number of Pixels in Spectrum: 1024
>>>>>Begin Spectral Data<<<<<
801.071	22253
801.214	22268
801.356	21937
801.499	21804
801.641	21739
801.783	21713
801.926	21641
802.068	21633
802.211	21504
802.353	21485
802.496	21268
802.638	21252
802.78	21222
802.923	21074
803.065	20998
803.208	21142
803.35	20941
803.492	21100
803.635	21268
803.777	20967
803.919	21180
804.061	21401
804.204	21100
804.346	21024
804.488	20868
804.63	20872
804.773	20880
804.915	20891
805.057	21074
805.199	20967
805.341	21074
805.483	21218
805.626	21119
805.768	20785
805.91	20994
806.052	20853
806.194	20914
806.336	20990
806.478	20990
806.62	20960
806.762	20899
806.904	21096
807.046	21306
807.188	21260
807.33	21184
807.472	21374
807.614	21275
807.756	21127
807.898	21085
808.04	21112
808.182	21005
808.324	21119
808.465	21123
808.607	21150
808.749	21287
808.891	21523
809.033	21435
809.174	21481
809.316	21359
809.458	21416
809.6	21332
809.741	21408
809.883	21348
810.025	21625
810.166	21641
810.308	21439
810.45	21496
810.591	21435
810.733	21176
810.875	21131
811.016	21051
811.158	20975
811.299	21157
811.441	21313
811.582	21211
811.724	21184
811.865	21032
812.007	21195
812.148	21150
812.29	21047
812.431	21264
812.573	21435
812.714	21515
812.855	21686
812.997	21698
813.138	21774
813.279	21682
813.421	21656
813.562	21614
813.703	21348
813.845	21237
813.986	21058
814.127	20861
814.268	20750
814.41	20640
814.551	20735
814.692	20750
814.833	20545
814.974	20492
815.115	20689
815.256	20454
815.397	20450
815.539	20476
815.68	20366
815.821	20313
815.962	20438
816.103	20290
816.244	20324
816.385	20138
816.526	20240
816.666	19974
816.807	19811
816.948	19856
817.089	20050
817.23	19875
817.371	19753
817.512	19772
817.653	19788
817.793	19662
817.934	19776
818.075	19894
818.216	19784
818.356	19826
818.497	19662
818.638	19453
818.778	19449
818.919	19365
819.06	19594
819.2	19571
819.341	19674
819.481	19708
819.622	19723
819.762	20016
819.903	20012
820.043	19750
820.184	19807
820.324	19746
820.465	19814
820.605	19811
820.746	19601
820.886	19571
821.026	19795
821.167	19643
821.307	19651
821.447	19582
821.588	19499
821.728	19362
821.868	19297
822.008	19236
822.149	19324
822.289	19088
822.429	18848
822.569	18878
822.709	18920
822.849	18688
822.99	18593
823.13	18681
823.27	18536
823.41	18437
823.55	18517
823.69	18525
823.83	18452
823.97	18338
824.11	18235
824.25	18270
824.389	18323
824.529	18262
824.669	18209
824.809	18410
824.949	18338
825.089	18334
825.228	18300
825.368	18053
825.508	18053
825.648	18076
825.787	18041
825.927	18034
826.067	17885
826.206	18011
826.346	18034
826.485	18015
826.625	17939
826.765	18194
826.904	18038
827.044	17748
827.183	17821
827.323	17638
827.462	17760
827.601	17684
827.741	17767
827.88	17634
828.02	17543
828.159	17668
828.298	17687
828.437	17790
828.577	17596
828.716	17878
828.855	17665
828.994	17459
829.134	17493
829.273	17414
829.412	17455
829.551	17395
829.69	17459
829.829	17337
829.968	17570
830.107	17615
830.246	17410
830.385	17398
830.524	17379
830.663	17258
830.802	17220
830.941	17037
831.08	17006
831.219	17166
831.357	17067
831.496	17277
831.635	17143
831.774	16896
831.913	16965
832.051	16900
832.19	16729
832.329	16839
832.467	16782
832.606	16725
832.744	16713
832.883	16656
833.022	16694
833.16	16809
833.299	16839
833.437	16824
833.576	16744
833.714	16797
833.852	16774
833.991	16820
834.129	16892
834.267	16934
834.406	16725
834.544	16835
834.682	16889
834.821	16736
834.959	16957
835.097	16744
835.235	16885
835.373	16889
835.511	16782
835.65	16672
835.788	16706
835.926	16626
836.064	16409
836.202	16622
836.34	16702
836.478	16778
836.615	16691
836.753	16725
836.891	16858
837.029	16812
837.167	16694
837.305	16668
837.443	16599
837.58	16565
837.718	16645
837.856	16565
837.993	16527
838.131	16512
838.269	16443
838.406	16531
838.544	16398
838.681	16268
838.819	16238
838.956	16101
839.094	16036
839.231	16147
839.369	16188
839.506	16508
839.643	16291
839.781	16162
839.918	16051
840.055	16086
840.193	16128
840.33	16067
840.467	16082
840.604	16025
840.742	16306
840.879	15987
841.016	16021
841.153	15953
841.29	16181
841.427	16067
841.564	16059
841.701	16124
841.838	16086
841.975	15998
842.112	15895
842.249	15934
842.385	15709
842.522	16006
842.659	15835
842.796	15823
842.933	15884
843.069	15846
843.206	15770
843.343	15884
843.479	15926
843.616	15915
843.752	15637
843.889	15660
844.025	15709
844.162	15576
844.298	15766
844.435	15728
844.571	15572
844.708	15701
844.844	15717
844.98	15835
845.117	15762
845.253	15671
845.389	15454
845.525	15743
845.661	15660
845.798	15584
845.934	15576
846.07	15538
846.206	15557
846.342	15618
846.478	15523
846.614	15283
846.75	15192
846.886	15256
847.022	15279
847.158	15184
847.294	15214
847.429	15272
847.565	15237
847.701	15412
847.837	15013
847.972	14998
848.108	15043
848.244	15047
848.379	14857
848.515	14777
848.65	14819
848.786	14765
848.921	14842
849.057	14823
849.192	14971
849.328	14868
849.463	14842
849.598	14864
849.734	14693
849.869	14792
850.004	14663
850.14	14686
850.275	14579
850.41	14556
850.545	14495
850.68	14511
850.815	14579
850.95	14606
851.085	14823
851.22	14667
851.355	14602
851.49	14579
851.625	14549
851.76	14659
851.895	14526
852.03	14480
852.165	14556
852.299	14659
852.434	14819
852.569	14590
852.703	14587
852.838	14602
852.973	14701
853.107	14670
853.242	14530
853.376	14442
853.511	14396
853.645	14507
853.78	14571
853.914	14526
854.048	14518
854.183	14355
854.317	14469
854.451	14545
854.585	14499
854.72	14408
854.854	14484
854.988	14461
855.122	14438
855.256	14294
855.39	14389
855.524	14438
855.658	14446
855.792	14419
855.926	14461
856.06	14492
856.194	14629
856.327	14446
856.461	14442
856.595	14393
856.729	14526
856.862	14533
856.996	14549
857.13	14495
857.263	14705
857.397	14473
857.53	14480
857.664	14537
857.797	14503
857.931	14613
858.064	14545
858.197	14457
858.331	14400
858.464	14355
858.597	14385
858.731	14438
858.864	14465
858.997	14370
859.13	14492
859.263	14480
859.396	14476
859.529	14457
859.662	14423
859.795	14404
859.928	14404
860.061	14579
860.194	14655
860.327	14507
860.46	14488
860.592	14473
860.725	14541
860.858	14579
860.99	14545
861.123	14317
861.256	14324
861.388	14480
861.521	15112
861.653	14332
861.786	14324
861.918	14328
862.05	14324
862.183	14499
862.315	14393
862.447	14518
862.58	14415
862.712	14244
862.844	14176
862.976	14282
863.108	14263
863.24	14689
863.372	14153
863.504	14233
863.636	14176
863.768	14343
863.9	14282
864.032	14123
864.164	14138
864.296	14267
864.428	14313
864.559	14336
864.691	14328
864.823	14324
864.954	14225
865.086	14218
865.217	14107
865.349	14065
865.48	14180
865.612	14187
865.743	14381
865.875	14263
866.006	14210
866.137	14214
866.269	14237
866.4	14191
866.531	14145
866.662	14191
866.793	14195
866.924	14103
867.055	14214
867.186	14191
867.317	14176
867.448	14081
867.579	14123
867.71	14111
867.841	14126
867.972	14180
868.103	14172
868.233	14221
868.364	14263
868.495	14229
868.625	14358
868.756	14606
868.886	14370
869.017	14469
869.147	14621
869.278	14480
869.408	14499
869.539	14480
869.669	14556
869.799	14511
869.929	14575
870.06	14583
870.19	14819
870.32	14777
870.45	14845
870.58	14857
870.71	15005
870.84	15005
870.97	14849
871.1	14857
871.23	15112
871.36	15043
871.489	15070
871.619	15062
871.749	15039
871.879	15032
872.008	15146
872.138	15157
872.267	15024
872.397	14944
872.526	14876
872.656	14921
872.785	14937
872.915	15138
873.044	15211
873.173	15024
873.303	15214
873.432	15237
873.561	15135
873.69	15009
873.819	15135
873.948	15180
874.077	15097
874.206	15097
874.335	15142
874.464	15268
874.593	15428
874.722	15348
874.851	15496
874.979	15450
875.108	15420
875.237	15420
875.365	15382
875.494	15405
875.623	15477
875.751	15412
875.88	15424
876.008	15580
876.136	15641
876.265	15884
876.393	15945
876.521	15937
876.65	15895
876.778	15842
876.906	15743
877.034	15686
877.162	15778
877.29	15736
877.418	15766
877.546	15846
877.674	15793
877.802	15838
877.93	15793
878.058	15804
878.185	15873
878.313	15842
878.441	15918
878.568	15694
878.696	15724
878.824	15907
878.951	15930
879.079	16025
879.206	16162
879.333	16067
879.461	15903
879.588	15991
879.715	16112
879.842	16162
879.97	15926
880.097	15591
880.224	15709
880.351	15625
880.478	15808
880.605	15625
880.732	15675
880.859	15854
880.986	15648
881.112	15709
881.239	15614
881.366	15428
881.493	15469
881.619	15279
881.746	15325
881.872	15359
881.999	15359
882.125	15325
882.252	15325
882.378	15252
882.505	15557
882.631	15306
882.757	15142
882.883	15203
883.01	15188
883.136	15066
883.262	14990
883.388	15051
883.514	15211
883.64	15214
883.766	15081
883.892	15055
884.018	15017
884.143	15237
884.269	15173
884.395	14937
884.52	14849
884.646	14899
884.772	14743
884.897	14693
885.023	14933
885.148	14971
885.274	14941
885.399	14914
885.524	14910
885.65	14864
885.775	14887
885.9	14800
886.025	14998
886.15	14952
886.275	14933
886.4	14769
886.525	14834
886.65	14792
886.775	14788
886.9	14967
887.025	15131
887.149	14811
887.274	14727
887.399	14636
887.523	14575
887.648	14590
887.773	14613
887.897	14838
888.021	14689
888.146	14739
888.27	14777
888.395	14864
888.519	14682
888.643	14792
888.767	14769
888.891	14644
889.015	14526
889.139	14606
889.263	14461
889.387	14648
889.511	14682
889.635	14579
889.759	14556
889.883	14556
890.006	14640
890.13	14678
890.254	14545
890.377	14564
890.501	14438
890.624	14381
890.748	14457
890.871	14324
890.995	14164
891.118	14153
891.241	14172
891.364	14244
891.488	14415
891.611	14271
891.734	14305
891.857	14225
891.98	14176
892.103	14320
892.226	14263
892.349	14267
892.471	14012
892.594	14343
892.717	14282
892.839	14202
892.962	14206
893.085	14332
893.207	14267
893.33	14077
893.452	14180
893.575	14343
893.697	14164
893.819	14381
893.941	14431
894.064	14282
894.186	14130
894.308	14233
894.43	14419
894.552	14526
894.674	14389
894.796	14221
894.918	14278
895.04	14374
895.161	14423
895.283	14374
895.405	14298
895.526	14374
895.648	14298
895.769	14282
895.891	14469
896.012	14522
896.134	14347
896.255	14332
896.376	14263
896.498	14351
896.619	14450
896.74	14419
896.861	14419
896.982	14750
897.103	14845
897.224	14621
897.345	14617
897.466	14610
897.587	14693
897.708	14857
897.828	14651
897.949	14663
898.07	14575
898.19	14667
898.311	14838
898.431	14670
898.552	14804
898.672	14864
898.792	14819
898.913	14796
899.033	14629
899.153	14625
899.273	14530
899.393	14613
899.513	14632
899.633	14583
899.753	14602
899.873	14602
899.993	14632
900.113	14644
900.232	14621
900.352	14689
900.472	14552
900.591	14393
900.711	14431
900.83	14412
900.95	14640
901.069	14613
901.189	14358
901.308	14202
901.427	14111
901.546	14088
901.665	14263
901.784	14168
901.904	14119
902.023	14050
902.141	13830
902.26	13712
902.379	13799
902.498	13784
902.617	13601
902.735	13757
902.854	13685
902.973	13575
903.091	13510
903.21	13510
903.328	13403
903.446	13358
903.565	13327
903.683	13301
903.801	13183
903.919	13270
904.038	13263
904.156	13164
904.274	13129
904.392	13118
904.51	13080
904.627	13099
904.745	13152
904.863	13126
904.981	12981
905.098	12852
905.216	12779
905.334	12741
905.451	12757
905.569	12798
905.686	12768
905.803	12776
905.921	12582
906.038	12631
906.155	12597
906.272	12536
906.389	12517
906.506	12391
906.623	12380
906.74	12365
906.857	12266
906.974	12350
907.091	12467
907.208	12467
907.324	12437
907.441	12334
907.557	12190
907.674	12148
907.79	12098
907.907	12068
908.023	12171
908.139	12148
908.256	12007
908.372	12026
908.488	12038
908.604	11939
908.72	11885
908.836	11901
908.952	11908
909.068	11824
909.184	11950
909.3	11779
909.415	11885
909.531	11847
909.647	11779
909.762	11676
909.878	11619
909.993	11608
910.108	11592
910.224	11676
910.339	11634
910.454	11528
910.57	11455
910.685	11383
910.8	11714
910.915	11611
911.03	11558
911.145	11349
911.259	11330
911.374	11277
911.489	11395
911.604	11204
911.718	11102
911.833	11155
911.947	10999
912.062	10980
912.176	11071
912.291	11071
912.405	11060
912.519	11261
912.633	11288
912.748	11242
912.862	11181
912.976	11006
913.09	10930
913.204	10911
913.318	10915
913.431	11136
913.545	11071
913.659	11121
913.772	10915
913.886	10908
914	10949
914.113	10949
914.226	10919
914.34	10961
914.453	10782
914.566	10892
914.68	10752
914.793	10831
914.906	10588
915.019	10558
915.132	10531
915.245	10615
915.358	10538
915.47	10561
915.583	10618
915.696	10649
915.809	10698
915.921	10634
916.034	10584
916.146	10588
916.259	10493
916.371	10565
916.483	10664
916.595	10481
916.708	10641
916.82	10535
916.932	10523
917.044	10527
917.156	10478
917.268	10451
917.38	10417
917.491	10447
917.603	10500
917.715	10451
917.826	10542
917.938	10466
918.049	10325
918.161	10489
918.272	10577
918.384	10558
918.495	10424
918.606	10287
918.717	10268
918.828	10333
918.939	10295
919.05	10257
919.161	10291
919.272	10051
919.383	10192
919.494	10337
919.604	10535
919.715	10314
919.826	10219
919.936	10265
920.047	10398
920.157	10348
920.267	10447
920.378	10424
920.488	10306
920.598	10493
920.708	10634
920.818	10440
920.928	10497
921.038	10691
921.148	10599
921.258	10375
921.368	10188
921.477	10200
921.587	10200
921.697	10013
921.806	10139
921.916	10093
922.025	9888
922.134	9846
922.244	9876
922.353	9850
922.462	9812
922.571	9724
922.68	9564
922.789	9519
922.898	9561
923.007	9622
923.116	9637
923.224	9549
923.333	9515
923.442	9496
923.55	9412
923.659	9523
923.767	9515
923.876	9378
923.984	9561
924.092	9405
924.201	9477
924.309	9401
924.417	9492
924.525	9397
924.633	9439
924.741	10109
924.849	9100
924.956	9351
925.064	9173
925.172	9108
925.279	9222
925.387	9237
925.494	9218
925.602	9401
925.709	9291
925.816	9146
925.924	9211
926.031	9268
926.138	9211
926.245	9233
926.352	9135
926.459	9287
926.566	9222
926.673	9119
926.779	9123
926.886	9104
926.993	8967
927.099	8910
927.206	8883
927.312	8876
927.419	8960
927.525	8933
927.631	9005
927.737	8864
927.843	8746
927.95	8724
928.056	8792
928.162	8842
928.267	8868
928.373	9374
928.479	8986
928.585	8720
928.69	8830
928.796	8914
928.901	8670
929.007	8659
929.112	8731
929.218	8766
929.323	8705
929.428	8583
929.533	8815
929.638	8541
929.743	8640
929.848	8621
929.953	8636
930.058	8537
930.163	8415
930.267	8377
930.372	8495
930.477	8381
930.581	8667
930.685	8465
930.79	8347
930.894	8347
930.998	8313
931.103	8446
931.207	8161
931.311	8107
931.415	8073
931.519	7925
931.623	7845
