Data from test_V78500241_1661.txt Node
Date: Fri Mar 25 14:45:16 CST 2022
User: usil
Spectrometer: V785-0024
Trigger mode: 0
Integration Time (sec): 4.000000E-1
Scans to average: 1
Nonlinearity correction enabled: false
Boxcar width: 0
Storing dark spectrum: false
XAxis mode: Wavelengths
Number of Pixels in Spectrum: 1024
>>>>>Begin Spectral Data<<<<<
801.071	22341
801.214	22082
801.356	21865
801.499	21884
801.641	21644
801.783	21705
801.926	21671
802.068	21549
802.211	21431
802.353	21447
802.496	21161
802.638	21211
802.78	21135
802.923	21020
803.065	20952
803.208	20902
803.35	20956
803.492	21024
803.635	21058
803.777	21009
803.919	20994
804.061	21306
804.204	20902
804.346	20971
804.488	20868
804.63	20921
804.773	20823
804.915	20891
805.057	21020
805.199	20921
805.341	21005
805.483	21032
805.626	20895
805.768	20921
805.91	20880
806.052	20902
806.194	20849
806.336	20960
806.478	20834
806.62	20975
806.762	20982
806.904	20910
807.046	21291
807.188	21256
807.33	21230
807.472	21230
807.614	21154
807.756	21230
807.898	21100
808.04	21005
808.182	20941
808.324	20941
808.465	21104
808.607	21272
808.749	21374
808.891	21348
809.033	21466
809.174	21500
809.316	21226
809.458	21226
809.6	21264
809.741	21370
809.883	21245
810.025	21507
810.166	21397
810.308	21431
810.45	21386
810.591	21351
810.733	21279
810.875	21287
811.016	21119
811.158	20880
811.299	21070
811.441	21199
811.582	21230
811.724	21005
811.865	21093
812.007	21096
812.148	21096
812.29	21138
812.431	21283
812.573	21469
812.714	21572
812.855	21542
812.997	21652
813.138	21736
813.279	21713
813.421	21625
813.562	21561
813.703	21454
813.845	21302
813.986	21047
814.127	20861
814.268	20667
814.41	20667
814.551	20537
814.692	20682
814.833	20537
814.974	20545
815.115	20674
815.256	20309
815.397	20396
815.539	20385
815.68	20377
815.821	20294
815.962	20362
816.103	20282
816.244	20138
816.385	20119
816.526	20126
816.666	19864
816.807	19849
816.948	19860
817.089	20016
817.23	19765
817.371	19807
817.512	19696
817.653	19757
817.793	19704
817.934	19674
818.075	19738
818.216	19731
818.356	19780
818.497	19559
818.638	19403
818.778	19457
818.919	19472
819.06	19422
819.2	19590
819.341	19540
819.481	19616
819.622	19723
819.762	19845
819.903	19986
820.043	19734
820.184	19860
820.324	19765
820.465	19666
820.605	19723
820.746	19738
820.886	19567
821.026	19734
821.167	19700
821.307	19704
821.447	19628
821.588	19559
821.728	19434
821.868	19304
822.008	19156
822.149	19141
822.289	19187
822.429	18909
822.569	18829
822.709	18886
822.849	18623
822.99	18684
823.13	18582
823.27	18517
823.41	18475
823.55	18365
823.69	18372
823.83	18490
823.97	18433
824.11	18190
824.25	18155
824.389	18136
824.529	18319
824.669	18228
824.809	18292
824.949	18136
825.089	18262
825.228	18178
825.368	17946
825.508	17969
825.648	17931
825.787	17931
825.927	18007
826.067	17897
826.206	17935
826.346	18110
826.485	18038
826.625	17977
826.765	18091
826.904	18030
827.044	17752
827.183	17805
827.323	17604
827.462	17767
827.601	17638
827.741	17668
827.88	17668
828.02	17687
828.159	17691
828.298	17661
828.437	17748
828.577	17676
828.716	17687
828.855	17608
828.994	17421
829.134	17497
829.273	17524
829.412	17372
829.551	17376
829.69	17459
829.829	17364
829.968	17573
830.107	17330
830.246	17391
830.385	17360
830.524	17231
830.663	17246
830.802	17132
830.941	17010
831.08	17060
831.219	17121
831.357	17109
831.496	17212
831.635	17045
831.774	17033
831.913	16957
832.051	16858
832.19	16710
832.329	16767
832.467	16721
832.606	16637
832.744	16725
832.883	16786
833.022	16634
833.16	16702
833.299	16843
833.437	16824
833.576	16797
833.714	16752
833.852	16831
833.991	16702
834.129	16805
834.267	16740
834.406	16816
834.544	16778
834.682	16763
834.821	16809
834.959	16923
835.097	16710
835.235	16843
835.373	16763
835.511	16706
835.65	16653
835.788	16656
835.926	16630
836.064	16497
836.202	16523
836.34	16679
836.478	16702
836.615	16645
836.753	16687
836.891	16725
837.029	16687
837.167	16569
837.305	16615
837.443	16577
837.58	16497
837.718	16558
837.856	16493
837.993	16504
838.131	16546
838.269	16398
838.406	16550
838.544	16470
838.681	16246
838.819	16219
838.956	16044
839.094	16150
839.231	16188
839.369	16158
839.506	16386
839.643	16333
839.781	16131
839.918	15941
840.055	16055
840.193	15991
840.33	15991
840.467	16078
840.604	16120
840.742	16318
840.879	15956
841.016	16032
841.153	15915
841.29	16173
841.427	16116
841.564	16013
841.701	16135
841.838	16082
841.975	15934
842.112	16074
842.249	15819
842.385	15739
842.522	16036
842.659	15808
842.796	15781
842.933	15808
843.069	15747
843.206	15713
843.343	15934
843.479	15888
843.616	15804
843.752	15549
843.889	15629
844.025	15724
844.162	15523
844.298	15694
844.435	15679
844.571	15660
844.708	15694
844.844	15800
844.98	15857
845.117	15812
845.253	15610
845.389	15500
845.525	15644
845.661	15580
845.798	15553
845.934	15466
846.07	15572
846.206	15591
846.342	15591
846.478	15545
846.614	15355
846.75	15195
846.886	15184
847.022	15317
847.158	15252
847.294	15256
847.429	15268
847.565	15112
847.701	15393
847.837	14899
847.972	14960
848.108	15024
848.244	14944
848.379	14815
848.515	14758
848.65	14796
848.786	14754
848.921	14830
849.057	14899
849.192	14819
849.328	14944
849.463	14758
849.598	14811
849.734	14716
849.869	14644
850.004	14571
850.14	14670
850.275	14568
850.41	14530
850.545	14564
850.68	14568
850.815	14610
850.95	14579
851.085	14724
851.22	14613
851.355	14613
851.49	14537
851.625	14549
851.76	14503
851.895	14442
852.03	14522
852.165	14503
852.299	14552
852.434	14739
852.569	14579
852.703	14663
852.838	14693
852.973	14773
853.107	14655
853.242	14560
853.376	14389
853.511	14240
853.645	14343
853.78	14457
853.914	14450
854.048	14381
854.183	14351
854.317	14549
854.451	14632
854.585	14465
854.72	14400
854.854	14549
854.988	14339
855.122	14400
855.256	14336
855.39	14442
855.524	14522
855.658	14492
855.792	14336
855.926	14541
856.06	14537
856.194	14492
856.327	14434
856.461	14404
856.595	14347
856.729	14480
856.862	14606
856.996	14476
857.13	14530
857.263	14575
857.397	14629
857.53	14415
857.664	14431
857.797	14549
857.931	14537
858.064	14434
858.197	14632
858.331	14427
858.464	14374
858.597	14412
858.731	14442
858.864	14484
858.997	14415
859.13	14488
859.263	14473
859.396	14526
859.529	14355
859.662	14389
859.795	14309
859.928	14469
860.061	14564
860.194	14648
860.327	14484
860.46	14537
860.592	14602
860.725	14556
860.858	14533
860.99	14457
861.123	14358
861.256	14339
861.388	14446
861.521	15047
861.653	14370
861.786	14237
861.918	14313
862.05	14339
862.183	14400
862.315	14313
862.447	14473
862.58	14381
862.712	14240
862.844	14221
862.976	14336
863.108	14183
863.24	14594
863.372	14107
863.504	14195
863.636	14172
863.768	14290
863.9	14252
864.032	14187
864.164	14218
864.296	14324
864.428	14339
864.559	14358
864.691	14275
864.823	14298
864.954	14275
865.086	14286
865.217	14202
865.349	14168
865.48	14172
865.612	14237
865.743	14210
865.875	14214
866.006	14225
866.137	14237
866.269	14275
866.4	14225
866.531	14218
866.662	14202
866.793	14176
866.924	14168
867.055	14134
867.186	14202
867.317	14096
867.448	14054
867.579	14107
867.71	14126
867.841	14081
867.972	14081
868.103	14259
868.233	14187
868.364	14199
868.495	14294
868.625	14511
868.756	14511
868.886	14320
869.017	14431
869.147	14564
869.278	14549
869.408	14419
869.539	14530
869.669	14488
869.799	14419
869.929	14556
870.06	14568
870.19	14678
870.32	14762
870.45	14796
870.58	14906
870.71	14956
870.84	15013
870.97	14891
871.1	14804
871.23	14960
871.36	15104
871.489	15013
871.619	14975
871.749	14990
871.879	15093
872.008	15093
872.138	15066
872.267	14994
872.397	14868
872.526	14918
872.656	14902
872.785	14929
872.915	15043
873.044	15211
873.173	15081
873.303	15176
873.432	15142
873.561	15119
873.69	15112
873.819	15123
873.948	15230
874.077	15089
874.206	15043
874.335	15116
874.464	15256
874.593	15336
874.722	15294
874.851	15458
874.979	15488
875.108	15370
875.237	15351
875.365	15260
875.494	15363
875.623	15477
875.751	15340
875.88	15431
876.008	15584
876.136	15728
876.265	15873
876.393	15911
876.521	15838
876.65	15888
876.778	15831
876.906	15823
877.034	15701
877.162	15827
877.29	15800
877.418	15778
877.546	15755
877.674	15770
877.802	15831
877.93	15800
878.058	15751
878.185	15717
878.313	15766
878.441	15770
878.568	15641
878.696	15827
878.824	15804
878.951	15926
879.079	15953
879.206	16169
879.333	16006
879.461	15888
879.588	16017
879.715	16116
879.842	16147
879.97	16021
880.097	15622
880.224	15561
880.351	15663
880.478	15656
880.605	15622
880.732	15625
880.859	15888
880.986	15747
881.112	15717
881.239	15644
881.366	15477
881.493	15386
881.619	15306
881.746	15336
881.872	15359
881.999	15332
882.125	15298
882.252	15439
882.378	15397
882.505	15462
882.631	15382
882.757	15127
882.883	15188
883.01	15089
883.136	15108
883.262	14979
883.388	14956
883.514	15123
883.64	15230
883.766	15119
883.892	15017
884.018	15036
884.143	15161
884.269	15256
884.395	14910
884.52	14914
884.646	14849
884.772	14857
884.897	14834
885.023	14887
885.148	14887
885.274	14921
885.399	14864
885.524	14921
885.65	14876
885.775	14819
885.9	14872
886.025	14887
886.15	14967
886.275	14705
886.4	14636
886.525	14785
886.65	14762
886.775	14762
886.9	14937
887.025	15020
887.149	14800
887.274	14602
887.399	14708
887.523	14697
887.648	14606
887.773	14594
887.897	14750
888.021	14659
888.146	14674
888.27	14777
888.395	14739
888.519	14689
888.643	14758
888.767	14788
888.891	14610
889.015	14454
889.139	14488
889.263	14503
889.387	14560
889.511	14845
889.635	14739
889.759	14549
889.883	14454
890.006	14511
890.13	14602
890.254	14488
890.377	14480
890.501	14298
890.624	14282
890.748	14431
890.871	14313
890.995	14176
891.118	14111
891.241	14214
891.364	14191
891.488	14336
891.611	14240
891.734	14278
891.857	14370
891.98	14206
892.103	14320
892.226	14199
892.349	14191
892.471	14062
892.594	14225
892.717	14210
892.839	14218
892.962	14195
893.085	14286
893.207	14328
893.33	14138
893.452	14183
893.575	14313
893.697	14161
893.819	14374
893.941	14431
894.064	14408
894.186	14100
894.308	14164
894.43	14377
894.552	14461
894.674	14374
894.796	14191
894.918	14298
895.04	14210
895.161	14389
895.283	14404
895.405	14313
895.526	14290
895.648	14351
895.769	14385
895.891	14332
896.012	14313
896.134	14480
896.255	14457
896.376	14389
896.498	14347
896.619	14427
896.74	14434
896.861	14541
896.982	14686
897.103	14899
897.224	14735
897.345	14564
897.466	14636
897.587	14556
897.708	14785
897.828	14754
897.949	14670
898.07	14518
898.19	14598
898.311	14701
898.431	14731
898.552	14727
898.672	14864
898.792	14769
898.913	14823
899.033	14613
899.153	14610
899.273	14571
899.393	14651
899.513	14613
899.633	14537
899.753	14602
899.873	14473
899.993	14708
900.113	14617
900.232	14636
900.352	14571
900.472	14495
900.591	14385
900.711	14575
900.83	14450
900.95	14575
901.069	14545
901.189	14454
901.308	14153
901.427	14111
901.546	14092
901.665	14062
901.784	14180
901.904	13986
902.023	13963
902.141	13769
902.26	13742
902.379	13776
902.498	13696
902.617	13651
902.735	13803
902.854	13738
902.973	13734
903.091	13441
903.21	13487
903.328	13392
903.446	13343
903.565	13251
903.683	13308
903.801	13194
903.919	13247
904.038	13324
904.156	13107
904.274	13050
904.392	13069
904.51	13050
904.627	13031
904.745	13168
904.863	13088
904.981	12806
905.098	12749
905.216	12779
905.334	12711
905.451	12753
905.569	12719
905.686	12772
905.803	12715
905.921	12597
906.038	12734
906.155	12639
906.272	12490
906.389	12608
906.506	12399
906.623	12388
906.74	12388
906.857	12235
906.974	12342
907.091	12338
907.208	12433
907.324	12448
907.441	12300
907.557	12114
907.674	12072
907.79	12041
907.907	11999
908.023	12136
908.139	12076
908.256	12091
908.372	12110
908.488	12019
908.604	11935
908.72	11843
908.836	11901
908.952	11817
909.068	11897
909.184	11931
909.3	11901
909.415	11882
909.531	11901
909.647	11596
909.762	11623
909.878	11501
909.993	11585
910.108	11577
910.224	11589
910.339	11627
910.454	11455
910.57	11463
910.685	11455
910.8	11710
910.915	11653
911.03	11486
911.145	11337
911.259	11353
911.374	11364
911.489	11216
911.604	11201
911.718	11208
911.833	11083
911.947	10930
912.062	11014
912.176	11075
912.291	11083
912.405	11022
912.519	11227
912.633	11391
912.748	11162
912.862	11140
912.976	11006
913.09	10866
913.204	10927
913.318	10976
913.431	11067
913.545	11006
913.659	11071
913.772	10927
913.886	10885
914	10850
914.113	10930
914.226	11010
914.34	10915
914.453	10828
914.566	10873
914.68	10774
914.793	10797
914.906	10634
915.019	10535
915.132	10493
915.245	10565
915.358	10675
915.47	10592
915.583	10679
915.696	10668
915.809	10710
915.921	10717
916.034	10592
916.146	10531
916.259	10504
916.371	10653
916.483	10561
916.595	10569
916.708	10531
916.82	10500
916.932	10489
917.044	10459
917.156	10436
917.268	10398
917.38	10440
917.491	10398
917.603	10424
917.715	10500
917.826	10523
917.938	10379
918.049	10291
918.161	10413
918.272	10519
918.384	10607
918.495	10409
918.606	10314
918.717	10261
918.828	10325
918.939	10322
919.05	10215
919.161	10261
919.272	10124
919.383	10131
919.494	10325
919.604	10500
919.715	10219
919.826	10173
919.936	10375
920.047	10352
920.157	10257
920.267	10478
920.378	10356
920.488	10306
920.598	10508
920.708	10702
920.818	10569
920.928	10558
921.038	10679
921.148	10569
921.258	10333
921.368	10246
921.477	10169
921.587	10204
921.697	10051
921.806	10185
921.916	10029
922.025	9949
922.134	9835
922.244	9854
922.353	9812
922.462	9705
922.571	9652
922.68	9576
922.789	9530
922.898	9587
923.007	9568
923.116	9584
923.224	9477
923.333	9576
923.442	9420
923.55	9412
923.659	9443
923.767	9454
923.876	9389
923.984	9504
924.092	9389
924.201	9481
924.309	9378
924.417	9466
924.525	9279
924.633	9340
924.741	10120
924.849	9249
924.956	9363
925.064	9306
925.172	9123
925.279	9135
925.387	9222
925.494	9138
925.602	9359
925.709	9256
925.816	9260
925.924	9226
926.031	9233
926.138	9264
926.245	9226
926.352	9074
926.459	9283
926.566	9283
926.673	9176
926.779	9024
926.886	9070
926.993	8906
927.099	8960
927.206	8857
927.312	8826
927.419	8918
927.525	8941
927.631	8925
927.737	8823
927.843	8811
927.95	8667
928.056	8788
928.162	8766
928.267	8823
928.373	9332
928.479	8823
928.585	8689
928.69	8785
928.796	8743
928.901	8651
929.007	8533
929.112	8743
929.218	8708
929.323	8579
929.428	8625
929.533	8773
929.638	8575
929.743	8587
929.848	8705
929.953	8648
930.058	8564
930.163	8450
930.267	8450
930.372	8545
930.477	8332
930.581	8575
930.685	8514
930.79	8298
930.894	8355
930.998	8275
931.103	8404
931.207	8187
931.311	8077
931.415	8005
931.519	7818
931.623	7822
