Data from test_V78500241_1445.txt Node
Date: Fri Mar 25 14:43:46 CST 2022
User: usil
Spectrometer: V785-0024
Trigger mode: 0
Integration Time (sec): 4.000000E-1
Scans to average: 1
Nonlinearity correction enabled: false
Boxcar width: 0
Storing dark spectrum: false
XAxis mode: Wavelengths
Number of Pixels in Spectrum: 1024
>>>>>Begin Spectral Data<<<<<
801.071	22474
801.214	22341
801.356	22249
801.499	21926
801.641	21797
801.783	21865
801.926	21800
802.068	21755
802.211	21663
802.353	21606
802.496	21367
802.638	21256
802.78	21207
802.923	21180
803.065	21013
803.208	21093
803.35	21230
803.492	21332
803.635	21287
803.777	21249
803.919	21264
804.061	21519
804.204	21142
804.346	21135
804.488	21055
804.63	21017
804.773	20998
804.915	21081
805.057	21180
805.199	20994
805.341	21214
805.483	21260
805.626	21104
805.768	21020
805.91	21070
806.052	21135
806.194	20914
806.336	21184
806.478	21085
806.62	21146
806.762	21157
806.904	21252
807.046	21500
807.188	21412
807.33	21538
807.472	21454
807.614	21325
807.756	21412
807.898	21294
808.04	21336
808.182	21184
808.324	21359
808.465	21370
808.607	21485
808.749	21599
808.891	21762
809.033	21895
809.174	21690
809.316	21530
809.458	21530
809.6	21515
809.741	21496
809.883	21534
810.025	21690
810.166	21660
810.308	21629
810.45	21591
810.591	21542
810.733	21325
810.875	21397
811.016	21150
811.158	21108
811.299	21272
811.441	21450
811.582	21306
811.724	21275
811.865	21150
812.007	21154
812.148	21260
812.29	21252
812.431	21389
812.573	21500
812.714	21694
812.855	21641
812.997	21781
813.138	21953
813.279	21880
813.421	21671
813.562	21564
813.703	21557
813.845	21325
813.986	21157
814.127	21066
814.268	20929
814.41	20937
814.551	20823
814.692	20925
814.833	20758
814.974	20765
815.115	20743
815.256	20507
815.397	20492
815.539	20693
815.68	20511
815.821	20545
815.962	20423
816.103	20549
816.244	20332
816.385	20229
816.526	20107
816.666	20149
816.807	19947
816.948	20012
817.089	20111
817.23	20005
817.371	19887
817.512	19978
817.653	19955
817.793	19887
817.934	19906
818.075	19959
818.216	19936
818.356	19887
818.497	19830
818.638	19540
818.778	19632
818.919	19582
819.06	19670
819.2	19750
819.341	19780
819.481	19803
819.622	19909
819.762	20145
819.903	20005
820.043	19978
820.184	19932
820.324	19906
820.465	19871
820.605	19970
820.746	19830
820.886	19746
821.026	19932
821.167	19814
821.307	19814
821.447	19753
821.588	19677
821.728	19521
821.868	19495
822.008	19266
822.149	19384
822.289	19244
822.429	19027
822.569	19053
822.709	18989
822.849	18817
822.99	18791
823.13	18795
823.27	18719
823.41	18563
823.55	18502
823.69	18532
823.83	18616
823.97	18486
824.11	18346
824.25	18357
824.389	18350
824.529	18532
824.669	18292
824.809	18452
824.949	18372
825.089	18342
825.228	18315
825.368	18159
825.508	18251
825.648	18213
825.787	18163
825.927	18338
826.067	18133
826.206	18201
826.346	18159
826.485	18167
826.625	18129
826.765	18277
826.904	18114
827.044	17950
827.183	17961
827.323	17771
827.462	17939
827.601	17691
827.741	17821
827.88	17786
828.02	17627
828.159	17851
828.298	17939
828.437	17916
828.577	17866
828.716	18011
828.855	17802
828.994	17608
829.134	17547
829.273	17642
829.412	17581
829.551	17577
829.69	17452
829.829	17646
829.968	17680
830.107	17657
830.246	17581
830.385	17440
830.524	17398
830.663	17433
830.802	17246
830.941	17174
831.08	17098
831.219	17239
831.357	17315
831.496	17414
831.635	17239
831.774	17162
831.913	17064
832.051	17018
832.19	16957
832.329	16995
832.467	16957
832.606	16740
832.744	16892
832.883	16885
833.022	16790
833.16	16835
833.299	16877
833.437	16911
833.576	17003
833.714	16938
833.852	17014
833.991	16923
834.129	16953
834.267	17048
834.406	16976
834.544	16991
834.682	17018
834.821	16919
834.959	17090
835.097	16862
835.235	16980
835.373	16953
835.511	16896
835.65	16908
835.788	16801
835.926	16596
836.064	16592
836.202	16592
836.34	16816
836.478	16824
836.615	16881
836.753	16869
836.891	16934
837.029	16782
837.167	16812
837.305	16839
837.443	16744
837.58	16763
837.718	16721
837.856	16698
837.993	16641
838.131	16706
838.269	16580
838.406	16565
838.544	16573
838.681	16413
838.819	16337
838.956	16249
839.094	16200
839.231	16230
839.369	16409
839.506	16592
839.643	16531
839.781	16215
839.918	16272
840.055	16268
840.193	16234
840.33	16207
840.467	16223
840.604	16253
840.742	16512
840.879	16124
841.016	16128
841.153	16131
841.29	16333
841.427	16253
841.564	16253
841.701	16242
841.838	16226
841.975	16166
842.112	16071
842.249	15964
842.385	16036
842.522	16200
842.659	16040
842.796	15994
842.933	16071
843.069	15983
843.206	15831
843.343	16116
843.479	16059
843.616	15998
843.752	15808
843.889	15827
844.025	15960
844.162	15743
844.298	16017
844.435	15785
844.571	15736
844.708	15857
844.844	15949
844.98	15903
845.117	15964
845.253	15781
845.389	15713
845.525	15819
845.661	15819
845.798	15857
845.934	15895
846.07	15865
846.206	15911
846.342	15918
846.478	15785
846.614	15553
846.75	15397
846.886	15378
847.022	15431
847.158	15462
847.294	15344
847.429	15481
847.565	15397
847.701	15564
847.837	15104
847.972	15093
848.108	15116
848.244	15192
848.379	15001
848.515	14982
848.65	14933
848.786	14921
848.921	14944
849.057	15081
849.192	15028
849.328	15009
849.463	14963
849.598	14941
849.734	14944
849.869	14880
850.004	14746
850.14	14716
850.275	14716
850.41	14617
850.545	14655
850.68	14678
850.815	14670
850.95	14727
851.085	14872
851.22	14781
851.355	14727
851.49	14724
851.625	14678
851.76	14769
851.895	14663
852.03	14640
852.165	14739
852.299	14705
852.434	14769
852.569	14785
852.703	14724
852.838	14697
852.973	14880
853.107	14838
853.242	14689
853.376	14705
853.511	14526
853.645	14522
853.78	14556
853.914	14613
854.048	14602
854.183	14590
854.317	14590
854.451	14754
854.585	14598
854.72	14598
854.854	14549
854.988	14522
855.122	14590
855.256	14446
855.39	14461
855.524	14674
855.658	14663
855.792	14621
855.926	14598
856.06	14682
856.194	14693
856.327	14590
856.461	14530
856.595	14537
856.729	14556
856.862	14625
856.996	14659
857.13	14712
857.263	14701
857.397	14735
857.53	14655
857.664	14693
857.797	14575
857.931	14686
858.064	14754
858.197	14678
858.331	14602
858.464	14495
858.597	14400
858.731	14587
858.864	14533
858.997	14568
859.13	14583
859.263	14621
859.396	14636
859.529	14465
859.662	14552
859.795	14469
859.928	14587
860.061	14686
860.194	14819
860.327	14613
860.46	14571
860.592	14674
860.725	14731
860.858	14735
860.99	14670
861.123	14556
861.256	14492
861.388	14667
861.521	15237
861.653	14465
861.786	14366
861.918	14427
862.05	14473
862.183	14511
862.315	14522
862.447	14621
862.58	14533
862.712	14298
862.844	14370
862.976	14469
863.108	14385
863.24	14842
863.372	14320
863.504	14393
863.636	14301
863.768	14412
863.9	14301
864.032	14240
864.164	14336
864.296	14442
864.428	14461
864.559	14446
864.691	14450
864.823	14434
864.954	14324
865.086	14370
865.217	14404
865.349	14240
865.48	14328
865.612	14366
865.743	14488
865.875	14374
866.006	14256
866.137	14400
866.269	14267
866.4	14347
866.531	14328
866.662	14320
866.793	14259
866.924	14366
867.055	14282
867.186	14271
867.317	14309
867.448	14225
867.579	14317
867.71	14358
867.841	14320
867.972	14282
868.103	14377
868.233	14465
868.364	14328
868.495	14423
868.625	14476
868.756	14739
868.886	14484
869.017	14545
869.147	14762
869.278	14804
869.408	14587
869.539	14594
869.669	14556
869.799	14739
869.929	14773
870.06	14648
870.19	14906
870.32	14864
870.45	14967
870.58	14960
870.71	15123
870.84	15024
870.97	14895
871.1	14982
871.23	15207
871.36	15165
871.489	15180
871.619	15112
871.749	15199
871.879	15184
872.008	15184
872.138	15142
872.267	15180
872.397	15119
872.526	14994
872.656	14963
872.785	15093
872.915	15131
873.044	15222
873.173	15161
873.303	15146
873.432	15283
873.561	15275
873.69	15317
873.819	15237
873.948	15351
874.077	15264
874.206	15218
874.335	15272
874.464	15424
874.593	15500
874.722	15481
874.851	15580
874.979	15584
875.108	15644
875.237	15530
875.365	15466
875.494	15538
875.623	15580
875.751	15568
875.88	15584
876.008	15618
876.136	15785
876.265	15975
876.393	16162
876.521	15892
876.65	16090
876.778	15983
876.906	15876
877.034	15842
877.162	15926
877.29	15915
877.418	15907
877.546	15895
877.674	16029
877.802	16010
877.93	15983
878.058	15895
878.185	15941
878.313	15903
878.441	15987
878.568	15838
878.696	15907
878.824	16101
878.951	16048
879.079	16181
879.206	16356
879.333	16303
879.461	16063
879.588	16238
879.715	16268
879.842	16402
879.97	16166
880.097	15892
880.224	15759
880.351	15934
880.478	15903
880.605	15797
880.732	15888
880.859	16029
880.986	15873
881.112	15797
881.239	15755
881.366	15557
881.493	15408
881.619	15507
881.746	15496
881.872	15507
881.999	15443
882.125	15454
882.252	15504
882.378	15564
882.505	15572
882.631	15450
882.757	15340
882.883	15477
883.01	15272
883.136	15260
883.262	15157
883.388	15230
883.514	15310
883.64	15382
883.766	15222
883.892	15089
884.018	15199
884.143	15321
884.269	15412
884.395	15039
884.52	15036
884.646	14990
884.772	14960
884.897	14971
885.023	15009
885.148	15207
885.274	15112
885.399	15093
885.524	15024
885.65	14971
885.775	15116
885.9	14979
886.025	15180
886.15	15020
886.275	14944
886.4	14891
886.525	14925
886.65	14929
886.775	14986
886.9	15123
887.025	15138
887.149	15119
887.274	14838
887.399	14739
887.523	14807
887.648	14724
887.773	14712
887.897	14933
888.021	14880
888.146	14727
888.27	14830
888.395	14857
888.519	14967
888.643	14880
888.767	14876
888.891	14773
889.015	14678
889.139	14735
889.263	14667
889.387	14785
889.511	14887
889.635	14804
889.759	14568
889.883	14689
890.006	14636
890.13	14811
890.254	14514
890.377	14686
890.501	14590
890.624	14461
890.748	14655
890.871	14366
890.995	14294
891.118	14377
891.241	14324
891.364	14309
891.488	14446
891.611	14442
891.734	14355
891.857	14484
891.98	14343
892.103	14442
892.226	14404
892.349	14343
892.471	14142
892.594	14336
892.717	14393
892.839	14324
892.962	14309
893.085	14423
893.207	14313
893.33	14221
893.452	14233
893.575	14320
893.697	14301
893.819	14473
893.941	14579
894.064	14423
894.186	14419
894.308	14385
894.43	14404
894.552	14484
894.674	14488
894.796	14275
894.918	14431
895.04	14305
895.161	14507
895.283	14495
895.405	14461
895.526	14362
895.648	14454
895.769	14461
895.891	14530
896.012	14621
896.134	14495
896.255	14537
896.376	14457
896.498	14408
896.619	14655
896.74	14575
896.861	14568
896.982	14845
897.103	15032
897.224	14910
897.345	14765
897.466	14746
897.587	14762
897.708	14880
897.828	14872
897.949	14815
898.07	14564
898.19	14701
898.311	14952
898.431	14830
898.552	14864
898.672	14986
898.792	14861
898.913	14914
899.033	14826
899.153	14731
899.273	14594
899.393	14754
899.513	14800
899.633	14678
899.753	14773
899.873	14602
899.993	14811
900.113	14727
900.232	14834
900.352	14727
900.472	14575
900.591	14503
900.711	14587
900.83	14522
900.95	14667
901.069	14663
901.189	14484
901.308	14317
901.427	14183
901.546	14309
901.665	14248
901.784	14275
901.904	14187
902.023	14046
902.141	13890
902.26	13689
902.379	13879
902.498	13871
902.617	13788
902.735	13883
902.854	13951
902.973	13830
903.091	13525
903.21	13582
903.328	13495
903.446	13499
903.565	13449
903.683	13411
903.801	13308
903.919	13274
904.038	13365
904.156	13240
904.274	13236
904.392	13213
904.51	13164
904.627	13217
904.745	13236
904.863	13282
904.981	12909
905.098	12772
905.216	12890
905.334	12913
905.451	12875
905.569	12810
905.686	12962
905.803	12821
905.921	12711
906.038	12787
906.155	12738
906.272	12597
906.389	12589
906.506	12475
906.623	12570
906.74	12399
906.857	12361
906.974	12277
907.091	12532
907.208	12528
907.324	12559
907.441	12353
907.557	12285
907.674	12205
907.79	12087
907.907	12182
908.023	12254
908.139	12266
908.256	12194
908.372	12163
908.488	12140
908.604	12019
908.72	11927
908.836	11927
908.952	12030
909.068	12053
909.184	12098
909.3	11950
909.415	11931
909.531	12038
909.647	11802
909.762	11661
909.878	11649
909.993	11722
910.108	11821
910.224	11699
910.339	11752
910.454	11657
910.57	11608
910.685	11608
910.8	11832
910.915	11794
911.03	11615
911.145	11459
911.259	11376
911.374	11444
911.489	11318
911.604	11318
911.718	11185
911.833	11162
911.947	11067
912.062	11018
912.176	11147
912.291	11208
912.405	11121
912.519	11379
912.633	11345
912.748	11284
912.862	11181
912.976	11045
913.09	10908
913.204	11071
913.318	11136
913.431	11033
913.545	11147
913.659	11143
913.772	11048
913.886	11018
914	10911
914.113	11117
914.226	11037
914.34	11094
914.453	10873
914.566	11041
914.68	10915
914.793	10873
914.906	10668
915.019	10702
915.132	10569
915.245	10725
915.358	10706
915.47	10736
915.583	10668
915.696	10729
915.809	10812
915.921	10854
916.034	10607
916.146	10599
916.259	10538
916.371	10687
916.483	10691
916.595	10516
916.708	10569
916.82	10596
916.932	10637
917.044	10535
917.156	10561
917.268	10493
917.38	10481
917.491	10489
917.603	10550
917.715	10611
917.826	10580
917.938	10577
918.049	10382
918.161	10535
918.272	10698
918.384	10611
918.495	10569
918.606	10337
918.717	10352
918.828	10489
918.939	10424
919.05	10261
919.161	10344
919.272	10207
919.383	10166
919.494	10489
919.604	10618
919.715	10329
919.826	10299
919.936	10344
920.047	10455
920.157	10443
920.267	10599
920.378	10462
920.488	10348
920.598	10584
920.708	10763
920.818	10584
920.928	10523
921.038	10786
921.148	10675
921.258	10413
921.368	10405
921.477	10257
921.587	10238
921.697	10154
921.806	10227
921.916	10086
922.025	9922
922.134	9991
922.244	9857
922.353	9930
922.462	9899
922.571	9778
922.68	9534
922.789	9606
922.898	9610
923.007	9671
923.116	9641
923.224	9648
923.333	9637
923.442	9637
923.55	9500
923.659	9587
923.767	9580
923.876	9519
923.984	9557
924.092	9534
924.201	9515
924.309	9458
924.417	9568
924.525	9405
924.633	9450
924.741	10360
924.849	9283
924.956	9447
925.064	9325
925.172	9188
925.279	9180
925.387	9329
925.494	9287
925.602	9428
925.709	9389
925.816	9275
925.924	9275
926.031	9393
926.138	9336
926.245	9306
926.352	9184
926.459	9374
926.566	9416
926.673	9253
926.779	9127
926.886	9154
926.993	8998
927.099	8925
927.206	8929
927.312	8994
927.419	9036
927.525	9043
927.631	9013
927.737	8918
927.843	8845
927.95	8811
928.056	8842
928.162	8849
928.267	8902
928.373	9515
928.479	9017
928.585	8743
928.69	8857
928.796	8937
928.901	8815
929.007	8579
929.112	8800
929.218	8792
929.323	8712
929.428	8689
929.533	8766
929.638	8674
929.743	8651
929.848	8777
929.953	8629
930.058	8610
930.163	8404
930.267	8568
930.372	8636
930.477	8446
930.581	8716
930.685	8545
930.79	8415
930.894	8476
930.998	8381
931.103	8579
931.207	8210
931.311	8088
931.415	8161
931.519	7856
931.623	7932
