Data from test_V78500241_1006.txt Node
Date: Fri Mar 25 14:40:43 CST 2022
User: usil
Spectrometer: V785-0024
Trigger mode: 0
Integration Time (sec): 4.000000E-1
Scans to average: 1
Nonlinearity correction enabled: false
Boxcar width: 0
Storing dark spectrum: false
XAxis mode: Wavelengths
Number of Pixels in Spectrum: 1024
>>>>>Begin Spectral Data<<<<<
801.071	22869
801.214	22953
801.356	22691
801.499	22584
801.641	22504
801.783	22363
801.926	22428
802.068	22196
802.211	22139
802.353	22128
802.496	22029
802.638	21888
802.78	21800
802.923	21785
803.065	21644
803.208	21625
803.35	21770
803.492	21850
803.635	21850
803.777	21747
803.919	21762
804.061	22097
804.204	21895
804.346	21671
804.488	21671
804.63	21656
804.773	21583
804.915	21625
805.057	21785
805.199	21686
805.341	21739
805.483	21854
805.626	21812
805.768	21648
805.91	21682
806.052	21720
806.194	21778
806.336	21873
806.478	21766
806.62	21755
806.762	21964
806.904	22013
807.046	22226
807.188	22272
807.33	22253
807.472	22306
807.614	22344
807.756	22272
807.898	22363
808.04	22185
808.182	22402
808.324	22367
808.465	22702
808.607	22828
808.749	23315
808.891	23208
809.033	23444
809.174	23269
809.316	23041
809.458	22930
809.6	22618
809.741	22713
809.883	22447
810.025	22740
810.166	22698
810.308	22386
810.45	22485
810.591	22173
810.733	22188
810.875	22101
811.016	21964
811.158	21953
811.299	22044
811.441	22086
811.582	22105
811.724	21911
811.865	21899
812.007	21888
812.148	21953
812.29	22017
812.431	22223
812.573	22284
812.714	22379
812.855	22493
812.997	22713
813.138	22729
813.279	22607
813.421	22481
813.562	22382
813.703	22310
813.845	22204
813.986	21895
814.127	21652
814.268	21538
814.41	21542
814.551	21511
814.692	21545
814.833	21466
814.974	21408
815.115	21496
815.256	21359
815.397	21306
815.539	21230
815.68	21275
815.821	21188
815.962	21169
816.103	21275
816.244	21077
816.385	21032
816.526	20937
816.666	20758
816.807	20678
816.948	20811
817.089	20792
817.23	20777
817.371	20705
817.512	20545
817.653	20609
817.793	20587
817.934	20663
818.075	20606
818.216	20644
818.356	20655
818.497	20473
818.638	20332
818.778	20298
818.919	20366
819.06	20313
819.2	20389
819.341	20488
819.481	20590
819.622	20644
819.762	20800
819.903	20807
820.043	20735
820.184	20613
820.324	20511
820.465	20727
820.605	20785
820.746	20636
820.886	20537
821.026	20625
821.167	20556
821.307	20568
821.447	20564
821.588	20286
821.728	20309
821.868	20077
822.008	19993
822.149	20077
822.289	19974
822.429	19727
822.569	19666
822.709	19681
822.849	19483
822.99	19506
823.13	19441
823.27	19514
823.41	19358
823.55	19301
823.69	19179
823.83	19251
823.97	19164
824.11	19019
824.25	19114
824.389	19103
824.529	19358
824.669	19156
824.809	19160
824.949	19225
825.089	19213
825.228	19034
825.368	18802
825.508	18859
825.648	18844
825.787	18939
825.927	19004
826.067	18837
826.206	18749
826.346	18848
826.485	18886
826.625	18764
826.765	18958
826.904	18840
827.044	18654
827.183	18635
827.323	18521
827.462	18566
827.601	18471
827.741	18437
827.88	18513
828.02	18429
828.159	18464
828.298	18578
828.437	18532
828.577	18498
828.716	18635
828.855	18498
828.994	18251
829.134	18289
829.273	18239
829.412	18338
829.551	18197
829.69	18243
829.829	18304
829.968	18372
830.107	18315
830.246	18201
830.385	18155
830.524	18144
830.663	18076
830.802	17996
830.941	17935
831.08	17878
831.219	18087
831.357	17954
831.496	18098
831.635	17840
831.774	17710
831.913	17752
832.051	17623
832.19	17726
832.329	17699
832.467	17615
832.606	17589
832.744	17558
832.883	17570
833.022	17573
833.16	17615
833.299	17543
833.437	17585
833.576	17733
833.714	17627
833.852	17630
833.991	17676
834.129	17745
834.267	17775
834.406	17642
834.544	17699
834.682	17710
834.821	17642
834.959	17817
835.097	17634
835.235	17672
835.373	17668
835.511	17615
835.65	17535
835.788	17661
835.926	17398
836.064	17334
836.202	17299
836.34	17535
836.478	17630
836.615	17471
836.753	17520
836.891	17687
837.029	17551
837.167	17490
837.305	17376
837.443	17376
837.58	17421
837.718	17501
837.856	17410
837.993	17296
838.131	17334
838.269	17280
838.406	17277
838.544	17231
838.681	17029
838.819	17006
838.956	16961
839.094	16915
839.231	16877
839.369	17105
839.506	17307
839.643	17113
839.781	16976
839.918	16869
840.055	16923
840.193	16949
840.33	16942
840.467	16812
840.604	16858
840.742	17162
840.879	16778
841.016	16797
841.153	16702
841.29	16961
841.427	16885
841.564	17071
841.701	16911
841.838	16839
841.975	16698
842.112	16854
842.249	16641
842.385	16603
842.522	16885
842.659	16694
842.796	16675
842.933	16672
843.069	16592
843.206	16664
843.343	16736
843.479	16675
843.616	16733
843.752	16508
843.889	16455
844.025	16603
844.162	16500
844.298	16508
844.435	16451
844.571	16421
844.708	16478
844.844	16710
844.98	16664
845.117	16675
845.253	16660
845.389	16546
845.525	16809
845.661	17045
845.798	17242
845.934	17570
846.07	17539
846.206	17668
846.342	17402
846.478	17140
846.614	16580
846.75	16310
846.886	16135
847.022	16238
847.158	16124
847.294	16071
847.429	16040
847.565	15983
847.701	16314
847.837	15679
847.972	15637
848.108	15816
848.244	15884
848.379	15705
848.515	15622
848.65	15614
848.786	15637
848.921	15625
849.057	15713
849.192	15701
849.328	15686
849.463	15519
849.598	15515
849.734	15511
849.869	15500
850.004	15363
850.14	15313
850.275	15344
850.41	15264
850.545	15294
850.68	15237
850.815	15416
850.95	15279
851.085	15515
851.22	15424
851.355	15363
851.49	15306
851.625	15298
851.76	15298
851.895	15291
852.03	15180
852.165	15287
852.299	15310
852.434	15367
852.569	15325
852.703	15348
852.838	15367
852.973	15443
853.107	15572
853.242	15237
853.376	15249
853.511	15062
853.645	15150
853.78	15431
853.914	15325
854.048	15119
854.183	15176
854.317	15283
854.451	15431
854.585	15252
854.72	15192
854.854	15169
854.988	15135
855.122	15161
855.256	15024
855.39	15203
855.524	15176
855.658	15351
855.792	15108
855.926	15355
856.06	15287
856.194	15294
856.327	15272
856.461	15173
856.595	15264
856.729	15169
856.862	15382
856.996	15199
857.13	15176
857.263	15321
857.397	15431
857.53	15233
857.664	15370
857.797	15275
857.931	15298
858.064	15173
858.197	15382
858.331	15294
858.464	15214
858.597	15131
858.731	15233
858.864	15211
858.997	15119
859.13	15173
859.263	15245
859.396	15192
859.529	15169
859.662	15116
859.795	15222
859.928	15256
860.061	15374
860.194	15386
860.327	15405
860.46	15207
860.592	15401
860.725	15359
860.858	15348
860.99	15245
861.123	15104
861.256	15116
861.388	15264
861.521	15915
861.653	15089
861.786	15039
861.918	15138
862.05	15161
862.183	15138
862.315	15275
862.447	15180
862.58	15001
862.712	14979
862.844	14975
862.976	15062
863.108	15108
863.24	15378
863.372	15009
863.504	14902
863.636	15013
863.768	15036
863.9	14960
864.032	14876
864.164	14887
864.296	14990
864.428	15119
864.559	15123
864.691	15119
864.823	15032
864.954	14918
865.086	15043
865.217	14933
865.349	14864
865.48	15001
865.612	14895
865.743	14998
865.875	15070
866.006	14960
866.137	14906
866.269	14853
866.4	14979
866.531	14819
866.662	14910
866.793	14876
866.924	14910
867.055	14982
867.186	14971
867.317	14914
867.448	14876
867.579	14929
867.71	14853
867.841	14868
867.972	14902
868.103	14990
868.233	14895
868.364	14963
868.495	15020
868.625	15260
868.756	15310
868.886	15173
869.017	15192
869.147	15211
869.278	15291
869.408	15252
869.539	15237
869.669	15188
869.799	15260
869.929	15302
870.06	15294
870.19	15534
870.32	15447
870.45	15507
870.58	15519
870.71	15622
870.84	15648
870.97	15519
871.1	15656
871.23	15789
871.36	15804
871.489	15762
871.619	15701
871.749	15827
871.879	15819
872.008	15922
872.138	15762
872.267	15865
872.397	15675
872.526	15568
872.656	15671
872.785	15553
872.915	15800
873.044	15781
873.173	15945
873.303	15903
873.432	15918
873.561	15922
873.69	15755
873.819	15846
873.948	15835
874.077	15937
874.206	15823
874.335	15850
874.464	15964
874.593	16063
874.722	16139
874.851	16226
874.979	16215
875.108	16112
875.237	16135
875.365	16101
875.494	16071
875.623	16211
875.751	16204
875.88	16207
876.008	16299
876.136	16367
876.265	16626
876.393	16763
876.521	16615
876.65	16592
876.778	16656
876.906	16512
877.034	16478
877.162	16516
877.29	16371
877.418	16565
877.546	16641
877.674	16603
877.802	16542
877.93	16451
878.058	16500
878.185	16641
878.313	16702
878.441	16588
878.568	16451
878.696	16527
878.824	16733
878.951	16835
879.079	17033
879.206	17223
879.333	17223
879.461	17113
879.588	17315
879.715	17353
879.842	17440
879.97	17124
880.097	16889
880.224	16679
880.351	16702
880.478	16733
880.605	16641
880.732	16596
880.859	16831
880.986	16546
881.112	16596
881.239	16489
881.366	16386
881.493	16310
881.619	16261
881.746	16128
881.872	16234
881.999	16223
882.125	16131
882.252	16230
882.378	16230
882.505	16341
882.631	16173
882.757	16032
882.883	16086
883.01	16013
883.136	15899
883.262	15949
883.388	15918
883.514	16147
883.64	16112
883.766	15869
883.892	15884
884.018	15922
884.143	16147
884.269	16185
884.395	15793
884.52	15762
884.646	15728
884.772	15633
884.897	15686
885.023	15728
885.148	15766
885.274	15812
885.399	15819
885.524	15827
885.65	15622
885.775	15717
885.9	15759
886.025	15869
886.15	15759
886.275	15641
886.4	15591
886.525	15576
886.65	15614
886.775	15572
886.9	15800
887.025	15884
887.149	15595
887.274	15462
887.399	15477
887.523	15469
887.648	15412
887.773	15374
887.897	15564
888.021	15492
888.146	15359
888.27	15443
888.395	15603
888.519	15515
888.643	15492
888.767	15530
888.891	15416
889.015	15188
889.139	15218
889.263	15313
889.387	15344
889.511	15492
889.635	15355
889.759	15203
889.883	15226
890.006	15211
890.13	15466
890.254	15085
890.377	15249
890.501	15066
890.624	15112
890.748	15199
890.871	15089
890.995	14963
891.118	14800
891.241	15036
891.364	14982
891.488	15074
891.611	14963
891.734	14899
891.857	15032
891.98	14941
892.103	15020
892.226	14941
892.349	14838
892.471	14792
892.594	14937
892.717	14861
892.839	14937
892.962	14994
893.085	15028
893.207	14933
893.33	14777
893.452	14792
893.575	14952
893.697	14845
893.819	14982
893.941	15104
894.064	15001
894.186	14902
894.308	14941
894.43	15032
894.552	14986
894.674	15005
894.796	14842
894.918	14921
895.04	14941
895.161	14952
895.283	14960
895.405	14956
895.526	15077
895.648	14979
895.769	15020
895.891	15093
896.012	15043
896.134	15066
896.255	15032
896.376	14990
896.498	14990
896.619	15093
896.74	14990
896.861	15146
896.982	15367
897.103	15637
897.224	15370
897.345	15321
897.466	15249
897.587	15256
897.708	15507
897.828	15359
897.949	15302
898.07	15173
898.19	15184
898.311	15492
898.431	15348
898.552	15359
898.672	15424
898.792	15553
898.913	15355
899.033	15340
899.153	15195
899.273	15146
899.393	15199
899.513	15256
899.633	15211
899.753	15230
899.873	15226
899.993	15306
900.113	15260
900.232	15249
900.352	15249
900.472	15138
900.591	14994
900.711	15043
900.83	15051
900.95	15161
901.069	15203
901.189	15112
901.308	14876
901.427	14777
901.546	14769
901.665	14739
901.784	14804
901.904	14640
902.023	14632
902.141	14320
902.26	14317
902.379	14377
902.498	14282
902.617	14355
902.735	14309
902.854	14256
902.973	14233
903.091	14027
903.21	13978
903.328	14050
903.446	13883
903.565	13871
903.683	13856
903.801	13738
903.919	13864
904.038	13795
904.156	13651
904.274	13734
904.392	13628
904.51	13628
904.627	13613
904.745	13658
904.863	13784
904.981	13426
905.098	13312
905.216	13343
905.334	13308
905.451	13415
905.569	13289
905.686	13430
905.803	13350
905.921	13129
906.038	13202
906.155	13118
906.272	12943
906.389	13019
906.506	12886
906.623	12897
906.74	12928
906.857	12760
906.974	12791
907.091	12939
907.208	13053
907.324	12993
907.441	12939
907.557	12658
907.674	12532
907.79	12585
907.907	12715
908.023	12730
908.139	12722
908.256	12589
908.372	12494
908.488	12513
908.604	12445
908.72	12350
908.836	12357
908.952	12391
909.068	12365
909.184	12418
909.3	12475
909.415	12525
909.531	12350
909.647	12171
909.762	12121
909.878	12091
909.993	12163
910.108	12171
910.224	12125
910.339	12155
910.454	11980
910.57	12041
910.685	11958
910.8	12243
910.915	12228
911.03	12060
911.145	11824
911.259	11824
911.374	11828
911.489	11771
911.604	11718
911.718	11585
911.833	11714
911.947	11387
912.062	11406
912.176	11505
912.291	11596
912.405	11589
912.519	11726
912.633	11828
912.748	11657
912.862	11619
912.976	11436
913.09	11345
913.204	11516
913.318	11421
913.431	11611
913.545	11573
913.659	11611
913.772	11448
913.886	11395
914	11429
914.113	11493
914.226	11417
914.34	11440
914.453	11220
914.566	11364
914.68	11368
914.793	11334
914.906	11121
915.019	11132
915.132	10980
915.245	11056
915.358	10991
915.47	11067
915.583	11079
915.696	11067
915.809	11227
915.921	11235
916.034	11109
916.146	11010
916.259	11025
916.371	11067
916.483	11117
916.595	10976
916.708	11029
916.82	10972
916.932	11025
917.044	10976
917.156	10877
917.268	10900
917.38	10839
917.491	10885
917.603	10873
917.715	10911
917.826	10961
917.938	10797
918.049	10733
918.161	10927
918.272	10987
918.384	11003
918.495	10934
918.606	10767
918.717	10687
918.828	10793
918.939	10725
919.05	10630
919.161	10752
919.272	10577
919.383	10580
919.494	10786
919.604	10900
919.715	10763
919.826	10744
919.936	10679
920.047	10847
920.157	10767
920.267	10930
920.378	10706
920.488	10725
920.598	10896
920.708	11010
920.818	10934
920.928	10919
921.038	11056
921.148	10984
921.258	10801
921.368	10714
921.477	10679
921.587	10584
921.697	10428
921.806	10637
921.916	10527
922.025	10333
922.134	10299
922.244	10211
922.353	10417
922.462	10230
922.571	10112
922.68	9991
922.789	9956
922.898	10006
923.007	9869
923.116	9975
923.224	9934
923.333	9949
923.442	9880
923.55	9762
923.659	9876
923.767	9842
923.876	9812
923.984	9918
924.092	9835
924.201	9827
924.309	9823
924.417	9945
924.525	9728
924.633	9793
924.741	10706
924.849	9614
924.956	9770
925.064	9523
925.172	9545
925.279	9625
925.387	9629
925.494	9610
925.602	9770
925.709	9656
925.816	9530
925.924	9606
926.031	9682
926.138	9652
926.245	9637
926.352	9553
926.459	9644
926.566	9701
926.673	9576
926.779	9454
926.886	9477
926.993	9325
927.099	9275
927.206	9321
927.312	9279
927.419	9237
927.525	9302
927.631	9351
927.737	9253
927.843	9176
927.95	9097
928.056	9169
928.162	9169
928.267	9249
928.373	9686
928.479	9249
928.585	8990
928.69	9138
928.796	9207
928.901	9070
929.007	8994
929.112	9108
929.218	9074
929.323	9028
929.428	8956
929.533	9131
929.638	8975
929.743	8921
929.848	9039
929.953	8971
930.058	8861
930.163	8663
930.267	8758
930.372	8933
930.477	8674
930.581	8971
930.685	8804
930.79	8682
930.894	8663
930.998	8693
931.103	8857
931.207	8537
931.311	8393
931.415	8309
931.519	8180
931.623	8210
